# OpenSignals Text File Format
# {"00:07:80:3B:46:38": {"sensor": ["CUSTOM/0.5/1.0/V", "CUSTOM/0.5/1.0/V", "CUSTOM/0.5/1.0/V", "CUSTOM/0.5/1.0/V", "CUSTOM/0.5/1.0/V", "CUSTOM/0.5/1.0/V", "CUSTOM/0.5/1.0/V", "CUSTOM/0.5/1.0/V"], "device name": "EMGs", "column": ["nSeq", "DI", "RA_L", "RA_R", "OE_L", "OE:R", "IL_L", "IL_R", "MF_L", "MF_R"], "sync interval": 2, "time": "17:39:42.598", "comments": "", "device connection": "BTH00:07:80:3B:46:38", "channels": [1, 2, 3, 4, 5, 6, 7, 8], "date": "2017-6-1", "mode": 0, "digital IO": [0, 1], "firmware version": 772, "device": "biosignalsplux", "position": 0, "sampling rate": 1000, "label": ["RA_L", "RA_R", "OE_L", "OE:R", "IL_L", "IL_R", "MF_L", "MF_R"], "resolution": [16, 16, 16, 16, 16, 16, 16, 16], "special": [{}, {}, {}, {}, {}, {}, {}, {}]}}
# EndOfHeader
0	0	32533	32671	32783	32543	32747	32795	32581	32797	
1	0	32527	32751	32716	32695	32839	32819	32703	32612	
2	0	32541	32801	32807	32678	32863	32807	32771	32617	
3	0	32671	32741	32807	32542	32823	32721	32838	32741	
4	0	32830	32861	32797	32707	32745	32701	32829	32711	
5	0	32921	32805	32774	32740	32743	32679	32731	32721	
6	0	32927	32834	32613	32573	32823	32700	32818	32711	
7	0	32868	32767	32729	32755	32855	32659	32709	32757	
8	0	32824	32739	32741	32793	32699	32719	32567	32647	
9	0	32804	32727	32708	32735	32831	32727	32519	32503	
10	0	32736	32636	32705	32610	32678	32647	32775	32667	
11	0	32740	32607	32859	32687	32647	32707	32775	32598	
12	0	32855	32563	32775	32699	32797	32706	32879	32749	
13	0	32863	32673	32629	32699	32759	32667	32879	32783	
14	0	32807	32766	32726	32529	32795	32749	32983	32643	
15	0	32709	32715	32764	32711	32820	32739	32903	32661	
16	0	32706	32711	32735	32591	32618	32671	32763	32487	
17	0	32803	32695	32683	32591	32836	32775	32721	32647	
18	0	32827	32743	32788	32359	32762	32692	32863	32595	
19	0	32715	32563	32695	32691	32829	32757	32687	32739	
20	0	32657	32731	32775	32615	32818	32756	32594	32659	
21	0	32596	32660	32871	32547	32862	32791	32735	32551	
22	0	32647	32806	32795	32695	32691	32700	32697	32671	
23	0	32729	32775	32699	32811	32647	32767	32711	32791	
24	0	32778	32807	32463	32710	32877	32738	32813	32765	
25	0	32848	32655	32718	32673	32757	32718	32775	32567	
26	0	32861	32797	32719	32919	32767	32773	32875	32679	
27	0	32801	32671	32759	32822	32823	32703	32735	32731	
28	0	32769	32843	32683	32698	32737	32802	32681	32743	
29	0	32775	32819	32741	32548	32626	32823	32663	32588	
30	0	32791	32689	32638	32690	32722	32843	32695	32487	
31	0	32863	32717	32503	32647	32735	32759	32675	32660	
32	0	32895	32685	32479	32701	32767	32797	32811	32594	
33	0	32903	32787	32612	32513	32979	32812	32561	32643	
34	0	32846	32823	32711	32485	32682	32837	32391	32487	
35	0	32794	32699	32675	32738	32655	32839	32503	32701	
36	0	32782	32786	32813	32727	32702	32820	32575	32673	
37	0	32804	32689	32799	32766	32763	32742	32797	32775	
38	0	32772	32739	32843	32655	32839	32749	32775	32658	
39	0	32576	32695	32797	32629	32647	32757	32700	32775	
40	0	32578	32762	32951	32709	32799	32710	32799	32711	
41	0	32729	32839	32855	32747	32757	32783	32931	32683	
42	0	32810	32674	32775	32879	32703	32715	32893	32532	
43	0	32840	32739	32663	32639	32813	32719	32983	32687	
44	0	32886	32749	32609	32631	32671	32773	32923	32663	
45	0	32806	32727	32647	32667	32701	32710	32705	32719	
46	0	32799	32591	32685	32756	32791	32732	32647	32686	
47	0	32823	32582	32503	32659	32723	32723	32767	32708	
48	0	32650	32647	32535	32559	32834	32727	32815	32727	
49	0	32742	32498	32567	32711	32791	32709	32806	32749	
50	0	32790	32711	32519	32751	32647	32743	32743	32671	
51	0	32740	32783	32608	32509	32677	32807	32807	32615	
52	0	32689	32715	32695	32663	32854	32847	32765	32775	
53	0	32654	32775	32613	32794	32811	32755	32821	32769	
54	0	32578	32823	32748	32575	32809	32767	32841	32615	
55	0	32581	32762	32741	32703	32823	32703	33139	32695	
56	0	32589	32739	32891	32690	32973	32775	33071	32636	
57	0	32715	32879	32940	32498	32895	32785	32903	32686	
58	0	32731	32950	32775	32619	32775	32787	32807	32694	
59	0	32797	32854	32731	32548	32647	32787	32669	32765	
60	0	32853	32855	32707	32559	32732	32799	32479	32687	
61	0	32876	32725	32855	32391	32791	32797	32303	32825	
62	0	32845	32687	32851	32540	32727	32797	32346	32764	
63	0	32895	32643	32847	32530	32639	32798	32445	32799	
64	0	32878	32773	32850	32543	32742	32703	32643	32742	
65	0	32843	32735	32527	32503	32743	32758	32819	32667	
66	0	32711	32867	32597	32592	32775	32799	32813	32615	
67	0	32681	32838	32647	32759	32601	32751	32621	32558	
68	0	32768	32749	32639	32551	32722	32713	32647	32615	
69	0	32756	32623	32679	32743	32845	32775	32751	32550	
70	0	32871	32671	32660	32804	32811	32785	32727	32687	
71	0	32955	32646	32863	32684	32811	32809	32871	32671	
72	0	32895	32755	32775	32914	32762	32839	32935	32586	
73	0	32893	32727	32802	32823	32875	32799	32903	32687	
74	0	32813	32729	32903	32671	32819	32766	32847	32543	
75	0	32715	32711	32828	32756	32671	32751	32663	32715	
76	0	32761	32623	32945	32699	32807	32794	32675	32750	
77	0	32668	32754	32839	32639	32827	32811	32755	32731	
78	0	32635	32763	32858	32731	32859	32784	32913	32746	
79	0	32582	32669	32535	32751	32702	32803	32715	32679	
80	0	32605	32706	32495	32591	32655	32819	32661	32626	
81	0	32647	32639	32391	32773	32839	32835	32771	32727	
82	0	32729	32687	32356	32767	32737	32775	32846	32756	
83	0	32761	32639	32447	32731	32871	32723	33021	32702	
84	0	32743	32565	32379	32589	32685	32735	32739	32605	
85	0	32847	32743	32569	32591	32799	32703	32671	32699	
86	0	32791	32723	32719	32754	32799	32679	32871	32607	
87	0	32739	32863	32851	32749	32669	32663	32852	32727	
88	0	32775	32775	32861	32575	32813	32767	32859	32745	
89	0	32910	32847	32804	32687	32715	32783	33008	32611	
90	0	33003	32735	32884	32723	32687	32867	33047	32711	
91	0	32943	32738	32715	32771	32706	32891	32862	32703	
92	0	32967	32789	32677	32647	32789	32887	32735	32623	
93	0	32901	32804	32551	32645	32775	32836	32775	32662	
94	0	32793	32857	32607	32671	32759	32844	32564	32487	
95	0	32683	32772	32695	32590	32796	32807	32391	32583	
96	0	32571	32837	32755	32576	32669	32786	32443	32571	
97	0	32503	32783	32869	32702	32780	32711	32602	32727	
98	0	32500	32702	32871	32743	32795	32677	32455	32644	
99	0	32479	32749	32841	32615	32799	32687	32510	32708	
100	0	32599	32623	32947	32507	32708	32719	32807	32663	
101	0	32761	32673	32943	32595	32647	32747	32858	32734	
102	0	32759	32724	32870	32591	32835	32719	33006	32663	
103	0	32755	32638	32811	32514	32775	32797	32789	32767	
104	0	32799	32723	32723	32506	32663	32743	32661	32735	
105	0	32889	32653	32751	32635	32749	32699	32534	32539	
106	0	32806	32685	32801	32655	32790	32692	32819	32699	
107	0	32743	32607	32844	32527	32751	32706	32955	32690	
108	0	32791	32775	32751	32738	32767	32773	32869	32593	
109	0	32759	32637	32647	32805	32799	32767	32865	32630	
110	0	32801	32713	32595	32621	32756	32747	32878	32533	
111	0	32801	32647	32647	32775	32804	32767	32951	32699	
112	0	32943	32700	32647	32723	32671	32811	32711	32615	
113	0	32879	32758	32477	32745	32627	32855	32557	32718	
114	0	32831	32719	32555	32698	32797	32739	32632	32677	
115	0	32875	32711	32679	32945	32775	32812	32617	32676	
116	0	32941	32732	32742	32871	32806	32781	32663	32701	
117	0	32873	32791	32619	32782	32647	32787	32694	32567	
118	0	32886	32704	32667	32645	32773	32806	32539	32615	
119	0	32839	32679	32667	32679	32767	32775	32511	32642	
120	0	32852	32759	32573	32707	32692	32791	32627	32669	
121	0	32814	32749	32655	32667	32853	32823	32851	32737	
122	0	32713	32715	32695	32663	32963	32807	32947	32587	
123	0	32680	32738	32729	32701	32985	32762	32901	32731	
124	0	32701	32687	32815	32603	32665	32799	32877	32695	
125	0	32695	32739	32687	32508	32656	32802	32911	32592	
126	0	32655	32749	32723	32703	32835	32813	32925	32691	
127	0	32703	32722	32679	32599	32811	32767	32767	32503	
128	0	32816	32767	32903	32565	32759	32764	32903	32687	
129	0	32756	32775	32735	32487	32815	32855	32823	32524	
130	0	32745	32786	32711	32535	32647	32875	32839	32637	
131	0	32798	32811	32679	32631	32591	32839	32723	32730	
132	0	32821	32731	32815	32707	32833	32825	32497	32803	
133	0	32710	32774	32675	32559	32819	32727	32367	32747	
134	0	32660	32643	32676	32575	32582	32788	32631	32641	
135	0	32629	32729	32751	32799	32715	32787	32766	32701	
136	0	32615	32789	32719	32766	32727	32783	32903	32679	
137	0	32602	32627	32719	32823	32831	32756	32820	32757	
138	0	32621	32686	32759	32891	32749	32765	32747	32578	
139	0	32599	32578	32815	32855	32748	32786	32607	32735	
140	0	32710	32757	32721	32775	32887	32775	32575	32727	
141	0	32711	32673	32830	32605	32739	32819	32676	32767	
142	0	32758	32743	32830	32463	32715	32767	32647	32719	
143	0	32859	32629	32671	32647	32823	32751	32711	32622	
144	0	32871	32722	32746	32775	32882	32805	32797	32679	
145	0	32863	32615	32705	32479	32788	32795	32943	32642	
146	0	32838	32749	32699	32727	32775	32823	32795	32807	
147	0	32896	32743	32553	32727	32733	32789	32717	32689	
148	0	32891	32819	32566	32519	32694	32697	32759	32581	
149	0	32895	32687	32751	32683	32734	32703	32799	32701	
150	0	32764	32723	32541	32695	32803	32678	32812	32655	
151	0	32746	32707	32671	32591	32743	32676	32885	32687	
152	0	32706	32775	32646	32487	32783	32743	32813	32691	
153	0	32743	32775	32666	32628	32636	32677	32852	32775	
154	0	32920	32678	32803	32679	32803	32661	32723	32723	
155	0	32823	32833	32903	32759	32810	32751	32571	32535	
156	0	32871	32756	32875	32677	32831	32823	32551	32679	
157	0	32731	32871	32756	32759	32793	32807	32513	32715	
158	0	32700	32799	32724	32717	32615	32703	32607	32766	
159	0	32647	32855	32659	32757	32795	32703	32679	32743	
160	0	32619	32632	32739	32647	32829	32805	32551	32591	
161	0	32595	32711	32685	32791	32861	32855	32388	32581	
162	0	32671	32717	32695	32743	32727	32807	32658	32495	
163	0	32699	32611	32703	32663	32727	32751	32668	32697	
164	0	32754	32743	32663	32507	32631	32791	32647	32509	
165	0	32865	32766	32620	32581	32795	32820	32690	32695	
166	0	32809	32679	32574	32607	32782	32897	32939	32487	
167	0	32900	32578	32604	32687	32871	32831	33007	32727	
168	0	32856	32732	32623	32511	32847	32833	32903	32733	
169	0	32882	32691	32743	32775	32663	32812	32921	32750	
170	0	32812	32758	32807	32742	32839	32797	32919	32743	
171	0	32806	32690	32663	32748	32815	32835	32847	32609	
172	0	32800	32727	32796	32658	32727	32807	32754	32699	
173	0	32668	32735	32870	32831	32827	32735	32903	32629	
174	0	32586	32607	32797	32738	32693	32845	32876	32701	
175	0	32631	32738	32847	32778	32641	32836	32847	32659	
176	0	32661	32691	33117	32555	32635	32747	32719	32531	
177	0	32717	32754	33167	32682	32743	32784	32742	32643	
178	0	32751	32775	32924	32786	32742	32775	32617	32660	
179	0	32772	32839	32901	32535	32815	32797	32477	32610	
180	0	32713	32771	32594	32711	32787	32823	32439	32663	
181	0	32769	32795	32613	32614	32754	32757	32455	32623	
182	0	32926	32765	32487	32590	32679	32839	32748	32661	
183	0	32900	32854	32295	32484	32679	32826	32771	32547	
184	0	32812	32725	32307	32469	32769	32773	33017	32695	
185	0	32775	32751	32461	32599	32751	32775	32917	32663	
186	0	32690	32815	32564	32663	32815	32755	32695	32686	
187	0	32740	32745	32614	32647	32737	32818	32918	32647	
188	0	32679	32803	32667	32519	32555	32839	32946	32695	
189	0	32703	32692	32509	32805	32863	32775	32839	32694	
190	0	32742	32743	32607	32806	32889	32766	32903	32774	
191	0	32702	32643	32519	32887	32933	32791	32887	32609	
192	0	32730	32691	32751	32763	32861	32775	32877	32594	
193	0	32798	32621	32884	32729	32731	32739	32767	32701	
194	0	32818	32749	32935	32783	32863	32725	32701	32692	
195	0	32810	32683	32967	32660	32725	32753	32642	32591	
196	0	32814	32797	32903	32711	32741	32759	32751	32623	
197	0	32786	32711	32951	32668	32800	32851	32739	32715	
198	0	32775	32797	32942	32679	32839	32813	32775	32711	
199	0	32830	32671	32903	32557	32679	32803	32821	32623	
200	0	32820	32703	32838	32740	32799	32747	32593	32743	
201	0	32783	32791	32669	32775	32773	32791	32476	32641	
202	0	32715	32702	32709	32687	32635	32715	32559	32635	
203	0	32775	32711	32701	32607	32758	32719	32725	32759	
204	0	32706	32661	32715	32711	32806	32773	32813	32635	
205	0	32653	32745	32692	32691	32717	32865	32819	32637	
206	0	32681	32643	32595	32531	32694	32861	32843	32709	
207	0	32814	32700	32575	32615	32775	32775	32963	32607	
208	0	32788	32635	32517	32540	32773	32775	32810	32748	
209	0	32759	32775	32617	32615	32727	32791	32775	32599	
210	0	32708	32689	32597	32455	32705	32834	32647	32727	
211	0	32745	32823	32811	32583	32799	32723	32725	32629	
212	0	32748	32799	32811	32685	32773	32727	32583	32647	
213	0	32711	32869	32679	32559	32775	32700	32567	32647	
214	0	32830	32733	32789	32582	32818	32717	32682	32534	
215	0	32822	32771	32596	32686	32823	32647	32852	32699	
216	0	32807	32711	32519	32775	32775	32730	32981	32679	
217	0	32839	32756	32639	32588	32638	32757	32933	32797	
218	0	32722	32683	32589	32871	32787	32817	32694	32679	
219	0	32684	32791	32421	32731	32924	32802	32795	32773	
220	0	32716	32719	32559	32836	32858	32772	32847	32684	
221	0	32792	32782	32915	32669	32819	32698	32865	32751	
222	0	32783	32829	32916	32839	32635	32799	32863	32679	
223	0	32687	32601	32862	32751	32823	32837	32717	32557	
224	0	32724	32703	32727	32833	32769	32833	32519	32615	
225	0	32775	32532	32695	32647	32621	32854	32439	32539	
226	0	32722	32691	32719	32719	32735	32807	32484	32679	
227	0	32709	32567	32802	32733	32700	32815	32561	32663	
228	0	32719	32691	32759	32619	32790	32766	32615	32700	
229	0	32757	32740	32821	32535	32791	32727	32565	32677	
230	0	32842	32759	32775	32660	32747	32795	32725	32773	
231	0	32692	32846	32790	32647	32765	32836	32871	32647	
232	0	32660	32786	32692	32621	32667	32807	32804	32588	
233	0	32827	32933	32716	32767	32703	32791	32804	32673	
234	0	32907	32743	32715	32724	32799	32711	32708	32550	
235	0	32884	32797	32473	32503	32852	32815	32647	32767	
236	0	32916	32707	32566	32647	32818	32823	32794	32715	
237	0	32903	32805	32730	32613	32747	32759	32858	32775	
238	0	32679	32662	32623	32621	32695	32823	33007	32567	
239	0	32681	32765	32807	32495	32820	32837	32845	32630	
240	0	32647	32611	32703	32623	32748	32851	32737	32556	
241	0	32612	32726	32887	32677	32847	32763	32715	32715	
242	0	32663	32753	32743	32485	32681	32759	32633	32575	
243	0	32719	32594	32799	32621	32813	32869	32791	32671	
244	0	32741	32681	32647	32647	32708	32827	32871	32639	
245	0	32806	32707	32799	32713	32671	32835	32802	32807	
246	0	32834	32759	32887	32531	32727	32817	32731	32706	
247	0	32872	32661	32804	32773	32790	32775	32831	32543	
248	0	32839	32626	32647	32716	32818	32815	32847	32655	
249	0	32839	32591	32564	32711	32780	32743	32772	32575	
250	0	32881	32749	32676	32677	32639	32767	32655	32733	
251	0	32964	32646	32679	32684	32759	32757	32450	32743	
252	0	32935	32804	32491	32671	32787	32767	32582	32709	
253	0	32870	32667	32499	32557	32763	32767	32655	32730	
254	0	32794	32663	32534	32739	32845	32743	32721	32555	
255	0	32724	32596	32687	32675	32775	32773	32861	32697	
256	0	32770	32699	32659	32679	32646	32756	32705	32599	
257	0	32671	32671	32772	32534	32791	32745	32402	32683	
258	0	32630	32791	32813	32445	32775	32775	32509	32487	
259	0	32640	32863	32901	32627	32895	32839	32821	32622	
260	0	32679	32804	32765	32635	32845	32767	32695	32674	
261	0	32764	32695	32643	32757	32767	32863	32718	32683	
262	0	32801	32531	32607	32663	32759	32825	32821	32618	
263	0	32773	32635	32775	32611	32775	32767	32912	32709	
264	0	32842	32743	32596	32614	32663	32739	32775	32579	
265	0	32775	32703	32617	32677	32839	32695	32773	32642	
266	0	32647	32815	32547	32619	32836	32775	32871	32492	
267	0	32660	32753	32623	32646	32690	32783	32825	32647	
268	0	32677	32831	32695	32711	32626	32805	32816	32579	
269	0	32640	32763	32789	32743	32823	32844	32887	32639	
270	0	32687	32711	32727	32691	32773	32793	32815	32517	
271	0	32647	32787	32878	32815	32739	32765	32707	32692	
272	0	32642	32717	32851	32759	32796	32765	32605	32622	
273	0	32647	32726	32939	32815	32635	32763	32557	32767	
274	0	32727	32647	32855	32643	32793	32895	32711	32599	
275	0	32799	32765	32915	32583	32767	32834	32833	32716	
276	0	32836	32719	32733	32591	32732	32767	32807	32698	
277	0	32870	32863	32655	32669	32863	32725	32919	32635	
278	0	32786	32751	32583	32398	32743	32759	32950	32647	
279	0	32683	32850	32487	32685	32647	32742	32991	32617	
280	0	32749	32811	32630	32629	32837	32829	32834	32759	
281	0	32903	32795	32683	32708	32773	32831	32751	32561	
282	0	32950	32682	32610	32501	32887	32756	32711	32695	
283	0	32932	32687	32687	32702	32663	32755	32757	32667	
284	0	32887	32711	32599	32671	32623	32807	32765	32813	
285	0	32853	32719	32645	32797	32871	32711	32615	32775	
286	0	32714	32758	32609	32738	32823	32695	32503	32623	
287	0	32645	32607	32745	32743	32743	32734	32474	32647	
288	0	32724	32679	32723	32698	32765	32673	32731	32647	
289	0	32811	32679	32749	32485	32623	32679	32927	32791	
290	0	32816	32734	32831	32695	32823	32697	33127	32699	
291	0	32679	32669	32713	32727	32735	32739	33149	32583	
292	0	32574	32799	32747	32610	32769	32738	33007	32691	
293	0	32655	32679	32646	32579	32668	32706	32787	32729	
294	0	32720	32839	32747	32698	32799	32691	32801	32655	
295	0	32711	32793	32655	32702	32751	32631	32692	32509	
296	0	32634	32775	32751	32823	32915	32677	32631	32638	
297	0	32647	32647	32914	32757	32839	32771	32487	32665	
298	0	32708	32775	32879	32669	32594	32791	32281	32637	
299	0	32756	32663	32877	32683	32660	32827	32191	32635	
300	0	32743	32797	32551	32479	32687	32804	32383	32595	
301	0	32846	32737	32576	32693	32739	32866	32677	32663	
302	0	32895	32756	32548	32711	32601	32823	32631	32524	
303	0	32871	32595	32646	32775	32799	32853	32640	32647	
304	0	32903	32725	32775	32614	32871	32764	32831	32660	
305	0	32960	32621	32851	32831	32870	32775	32761	32662	
306	0	32854	32735	32871	32775	32743	32871	32863	32655	
307	0	32810	32663	32751	32743	32647	32801	32959	32700	
308	0	32660	32767	32807	32759	32845	32797	32828	32642	
309	0	32653	32527	32583	32791	32875	32772	32983	32647	
310	0	32774	32707	32607	32804	32845	32809	32881	32754	
311	0	32782	32735	32660	32617	32727	32763	32742	32561	
312	0	32767	32867	32677	32727	32845	32815	32790	32503	
313	0	32861	32796	32597	32719	32686	32804	32754	32723	
314	0	32864	32827	32709	32582	32764	32816	32819	32623	
315	0	32854	32775	32615	32643	32737	32795	32847	32551	
316	0	32734	32863	32451	32622	32765	32775	32677	32634	
317	0	32717	32702	32569	32637	32642	32767	32704	32551	
318	0	32636	32743	32849	32566	32791	32731	32606	32690	
319	0	32603	32695	32886	32695	32765	32748	32623	32655	
320	0	32615	32788	32730	32601	32725	32681	32727	32798	
321	0	32582	32723	32725	32479	32813	32711	32775	32695	
322	0	32657	32631	32598	32647	32967	32692	32991	32563	
323	0	32735	32687	32434	32658	32735	32743	32895	32739	
324	0	32775	32612	32671	32441	32539	32827	32943	32697	
325	0	32679	32635	32759	32636	32789	32823	32859	32817	
326	0	32695	32511	32823	32698	32869	32793	32591	32711	
327	0	32731	32634	32711	32533	32831	32761	32517	32605	
328	0	32782	32547	32671	32699	32846	32793	32563	32711	
329	0	32903	32701	32899	32699	32708	32813	32429	32647	
330	0	32903	32598	32890	32759	32663	32775	32349	32692	
331	0	32894	32695	32997	32621	32709	32781	32555	32639	
332	0	32938	32675	32993	32683	32751	32723	32615	32747	
333	0	32948	32799	32783	32737	32715	32771	32647	32766	
334	0	32927	32773	32839	32639	32855	32765	32843	32628	
335	0	32862	32817	32693	32743	32703	32847	32903	32639	
336	0	32646	32679	32620	32775	32653	32743	32895	32615	
337	0	32642	32762	32598	32724	32756	32746	32931	32758	
338	0	32673	32721	32599	32818	32767	32763	32855	32625	
339	0	32670	32863	32622	32679	32834	32731	32807	32530	
340	0	32658	32887	32615	32575	32775	32863	32839	32732	
341	0	32738	32695	32551	32615	32790	32815	32679	32745	
342	0	32768	32767	32727	32636	32736	32738	32623	32775	
343	0	32758	32623	32583	32721	32679	32758	32719	32661	
344	0	32796	32845	32580	32613	32807	32743	32775	32514	
345	0	32743	32799	32639	32642	32786	32679	32655	32723	
346	0	32676	32735	32719	32599	32822	32676	32731	32735	
347	0	32749	32680	32821	32615	32691	32754	32791	32605	
348	0	32836	32775	32719	32676	32823	32791	32829	32733	
349	0	32869	32662	32658	32805	32659	32767	32786	32549	
350	0	32841	32589	32821	32655	32765	32763	32863	32610	
351	0	32838	32571	32842	32735	32820	32775	32863	32607	
352	0	32815	32683	32959	32667	32767	32843	32807	32733	
353	0	32836	32621	32997	32557	32639	32775	32815	32727	
354	0	32823	32775	32817	32579	32783	32755	32738	32587	
355	0	32806	32887	32767	32674	32863	32767	32655	32759	
356	0	32828	32772	32775	32541	32679	32784	32647	32763	
357	0	32756	32867	32698	32751	32751	32846	32807	32685	
358	0	32773	32715	32711	32677	32811	32782	32851	32701	
359	0	32743	32799	32679	32595	32768	32820	32839	32540	
360	0	32681	32805	32723	32574	32815	32771	32790	32695	
361	0	32692	32743	32604	32615	32685	32739	32834	32607	
362	0	32647	32723	32687	32659	32647	32738	32731	32769	
363	0	32570	32742	32658	32711	32769	32727	32499	32687	
364	0	32585	32641	32473	32659	32807	32785	32519	32646	
365	0	32602	32762	32647	32475	32811	32775	32615	32799	
366	0	32669	32788	32722	32674	32812	32720	32791	32743	
367	0	32691	32663	32743	32703	32719	32771	32662	32583	
368	0	32699	32711	32661	32575	32799	32743	32750	32685	
369	0	32710	32659	32726	32595	32851	32751	32850	32626	
370	0	32804	32645	32804	32665	32807	32711	32707	32591	
371	0	32775	32676	32631	32578	32684	32684	32791	32747	
372	0	32823	32630	32765	32735	32692	32751	32691	32586	
373	0	32733	32675	32839	32727	32705	32791	32711	32687	
374	0	32719	32647	32695	32791	32623	32786	32645	32495	
375	0	32825	32743	32514	32675	32889	32756	32619	32594	
376	0	33010	32631	32532	32636	32901	32713	32701	32637	
377	0	32913	32698	32583	32493	32769	32804	32640	32787	
378	0	32877	32673	32641	32647	32694	32807	32791	32669	
379	0	32903	32722	32453	32631	32728	32820	32775	32581	
380	0	33015	32683	32743	32487	32700	32719	32847	32787	
381	0	32859	32703	32693	32647	32775	32803	32815	32676	
382	0	32581	32708	32765	32687	32663	32814	32852	32676	
383	0	32441	32671	32769	32629	32701	32807	32815	32505	
384	0	32485	32747	32734	32662	32711	32802	32831	32722	
385	0	32571	32727	32829	32710	32829	32855	32823	32639	
386	0	32715	32743	33055	32627	32775	32847	32806	32759	
387	0	32861	32621	32901	32892	32861	32762	32773	32751	
388	0	32967	32737	32764	32887	32647	32758	32685	32647	
389	0	32973	32681	32911	32883	32711	32799	32555	32643	
390	0	32943	32775	32867	32727	32787	32739	32519	32647	
391	0	32939	32822	32914	32839	32831	32740	32527	32783	
392	0	32698	32895	32665	32787	32717	32775	32699	32671	
393	0	32553	32841	32539	32623	32787	32711	32695	32514	
394	0	32609	32743	32404	32751	32743	32730	32767	32590	
395	0	32667	32871	32365	32617	32591	32743	32847	32584	
396	0	32679	32787	32507	32741	32767	32740	32847	32706	
397	0	32727	32919	32687	32613	32741	32749	32809	32638	
398	0	32679	32847	32684	32591	32701	32727	32647	32767	
399	0	32708	32903	32804	32611	32809	32732	32639	32725	
400	0	32845	32694	32775	32463	32835	32784	32563	32485	
401	0	32864	32829	32713	32591	32730	32755	32775	32551	
402	0	32788	32741	32639	32519	32791	32741	32797	32603	
403	0	32786	32711	32799	32619	32879	32774	32764	32715	
404	0	32775	32570	32807	32551	32773	32839	32796	32668	
405	0	32705	32635	32817	32725	32887	32775	32885	32857	
406	0	32687	32583	32775	32867	32829	32711	32903	32724	
407	0	32713	32729	32547	32549	32852	32719	32867	32681	
408	0	32850	32571	32671	32654	32633	32723	32887	32687	
409	0	32836	32645	32702	32634	32903	32773	32797	32643	
410	0	32927	32583	32887	32575	32924	32815	32791	32603	
411	0	32733	32699	32818	32691	32639	32799	32614	32613	
412	0	32693	32612	32723	32695	32796	32791	32548	32586	
413	0	32760	32710	32749	32729	32635	32743	32687	32599	
414	0	32742	32607	32639	32627	32879	32711	32783	32581	
415	0	32695	32786	32615	32549	32844	32787	32743	32725	
416	0	32801	32660	32783	32647	32746	32789	32810	32839	
417	0	32839	32855	32910	32632	32737	32759	32674	32783	
418	0	32798	32807	32979	32677	32669	32759	32662	32804	
419	0	32716	32751	32769	32603	32809	32720	32883	32731	
420	0	32679	32591	32739	32813	32826	32775	33039	32659	
421	0	32743	32755	32898	32685	32765	32757	32935	32763	
422	0	32692	32817	32819	32791	32740	32775	32837	32791	
423	0	32756	32643	32813	32788	32759	32807	32999	32743	
424	0	32974	32767	32927	32721	32843	32711	32798	32715	
425	0	32951	32766	32713	32727	32883	32751	32642	32647	
426	0	32763	32805	32581	32758	32647	32719	32581	32605	
427	0	32701	32820	32452	32733	32758	32709	32766	32706	
428	0	32626	32615	32527	32694	32677	32773	32803	32719	
429	0	32708	32647	32509	32791	32711	32775	32629	32519	
430	0	32742	32669	32532	32503	32598	32834	32450	32594	
431	0	32732	32633	32487	32583	32743	32805	32487	32507	
432	0	32654	32643	32647	32722	32723	32843	32476	32722	
433	0	32669	32655	32573	32639	32759	32823	32527	32517	
434	0	32687	32845	32566	32623	32743	32775	32647	32692	
435	0	32689	32852	32607	32493	32870	32769	32802	32601	
436	0	32770	32798	32811	32675	32805	32799	32781	32765	
437	0	32831	32903	32767	32667	32731	32769	32675	32727	
438	0	32875	32910	32797	32647	32829	32695	32707	32549	
439	0	32900	32859	32751	32647	32830	32692	32751	32668	
440	0	32809	32725	32679	32791	32711	32743	32919	32591	
441	0	32850	32743	32623	32742	32796	32615	32903	32687	
442	0	32825	32667	32694	32734	32783	32727	32903	32575	
443	0	32716	32743	32839	32562	32791	32667	32959	32695	
444	0	32679	32611	32791	32671	32703	32717	32685	32611	
445	0	32721	32783	32903	32797	32855	32698	32710	32647	
446	0	32686	32702	32775	32775	32855	32714	32854	32623	
447	0	32647	32615	32694	32823	32815	32725	32745	32691	
448	0	32626	32695	32587	32762	32639	32715	32799	32723	
449	0	32790	32743	32733	32679	32775	32767	32481	32591	
450	0	32919	32669	32706	32559	32807	32813	32506	32647	
451	0	32919	32738	32529	32390	32637	32697	32527	32566	
452	0	32942	32788	32594	32439	32749	32841	32687	32629	
453	0	32868	32697	32698	32605	32695	32795	32615	32575	
454	0	32711	32704	32836	32669	32807	32875	32625	32632	
455	0	32609	32575	32749	32706	32791	32871	32860	32527	
456	0	32584	32731	32767	32535	32671	32813	32867	32671	
457	0	32673	32667	32823	32619	32855	32794	32978	32647	
458	0	32738	32807	32773	32623	32686	32865	32966	32765	
459	0	32822	32647	32698	32679	32815	32869	32830	32695	
460	0	32727	32771	32690	32559	32639	32861	32786	32830	
461	0	32726	32775	32714	32500	32765	32749	32899	32794	
462	0	32653	32603	32711	32722	32857	32855	32927	32796	
463	0	32664	32807	32577	32769	32845	32827	32890	32791	
464	0	32674	32727	32723	32706	32805	32789	32577	32734	
465	0	32871	32807	32853	32917	32673	32809	32361	32647	
466	0	32917	32711	32647	32607	32813	32847	32527	32549	
467	0	32899	32775	32861	32815	32803	32826	32645	32655	
468	0	32912	32817	32865	32775	32775	32797	32647	32589	
469	0	32903	32755	32831	32679	32823	32753	32885	32633	
470	0	32871	32835	32711	32633	32646	32743	32851	32557	
471	0	32727	32839	32795	32655	32743	32669	32766	32793	
472	0	32751	32701	32763	32711	32831	32759	32666	32733	
473	0	32807	32690	32827	32735	32841	32640	32509	32642	
474	0	32790	32668	32871	32571	32855	32763	32615	32743	
475	0	32799	32749	32738	32551	32807	32813	32867	32593	
476	0	32738	32745	32663	32615	32647	32751	32887	32679	
477	0	32725	32703	32706	32575	32775	32836	32999	32540	
478	0	32687	32855	32579	32527	32723	32829	32903	32647	
479	0	32721	32727	32775	32615	32785	32837	32725	32642	
480	0	32804	32883	32679	32407	32713	32798	32873	32736	
481	0	32756	32855	32659	32694	32830	32751	32815	32687	
482	0	32782	32683	32631	32671	32821	32807	32755	32759	
483	0	32813	32743	32557	32690	32727	32796	32803	32661	
484	0	32756	32707	32723	32699	32698	32871	32511	32711	
485	0	32692	32807	32749	32591	32679	32815	32527	32639	
486	0	32663	32798	32765	32759	32795	32827	32615	32662	
487	0	32598	32615	32678	32785	32785	32709	32811	32594	
488	0	32677	32713	32510	32677	32719	32706	32698	32677	
489	0	32711	32671	32525	32761	32683	32676	32551	32611	
490	0	32759	32791	32677	32583	32757	32724	32674	32683	
491	0	32729	32693	32773	32663	32746	32823	32740	32706	
492	0	32564	32775	32679	32637	32647	32852	32839	32573	
493	0	32508	32619	32531	32540	32731	32869	32916	32631	
494	0	32666	32775	32823	32511	32593	32791	32918	32559	
495	0	32820	32751	32807	32694	32911	32703	32858	32593	
496	0	32926	32628	32999	32747	32749	32751	32863	32583	
497	0	32882	32706	32918	32709	32775	32724	32731	32756	
498	0	32813	32543	32809	32799	32643	32727	32813	32699	
499	0	32900	32775	32742	32577	32850	32677	32690	32679	
500	0	32765	32751	32809	32655	32751	32707	32463	32759	
501	0	32759	32647	32730	32627	32759	32767	32559	32715	
502	0	32718	32767	32709	32623	32690	32674	32607	32783	
503	0	32773	32726	32683	32679	32869	32863	32582	32707	
504	0	32787	32799	32644	32537	32725	32783	32590	32763	
505	0	32713	32767	32647	32596	32757	32749	32799	32741	
506	0	32576	32661	32543	32759	32703	32767	32623	32775	
507	0	32702	32775	32558	32717	32871	32837	32817	32775	
508	0	32818	32754	32717	32681	32759	32858	32943	32663	
509	0	32892	32735	32738	32645	32677	32854	32877	32706	
510	0	32908	32678	32703	32642	32891	32823	32765	32597	
511	0	32855	32751	32733	32614	32759	32719	32949	32716	
512	0	32801	32679	32803	32669	32775	32757	32903	32751	
513	0	32881	32767	32849	32623	32703	32711	32819	32687	
514	0	32894	32647	32838	32757	32783	32759	32735	32493	
515	0	32951	32799	32631	32727	32755	32742	32679	32629	
516	0	32878	32666	32751	32750	32645	32759	32741	32553	
517	0	32757	32806	32708	32655	32751	32836	32839	32638	
518	0	32762	32671	32756	32737	32827	32789	32743	32535	
519	0	32740	32807	32783	32711	32815	32799	32767	32647	
520	0	32720	32759	32815	32603	32861	32767	32796	32710	
521	0	32804	32858	32693	32437	32893	32791	32867	32647	
522	0	32743	32775	32452	32593	32831	32738	32863	32655	
523	0	32725	32815	32663	32663	32639	32807	32622	32445	
524	0	32762	32746	32747	32659	32839	32775	32775	32583	
525	0	32624	32743	32671	32647	32803	32745	32775	32703	
526	0	32623	32903	32738	32555	32628	32703	32811	32615	
527	0	32594	32786	32647	32588	32701	32759	32807	32671	
528	0	32634	32803	32601	32647	32851	32687	32756	32615	
529	0	32694	32660	32731	32680	32751	32686	32885	32577	
530	0	32692	32695	32737	32594	32797	32663	32887	32719	
531	0	32809	32569	32732	32714	32764	32749	32954	32591	
532	0	32829	32647	32611	32775	32676	32775	33010	32669	
533	0	32767	32608	32629	32791	32799	32783	32947	32556	
534	0	32669	32675	32591	32587	32819	32794	32707	32675	
535	0	32653	32726	32799	32717	32827	32721	32594	32631	
536	0	32663	32707	32748	32831	32671	32687	32669	32666	
537	0	32714	32807	32759	32789	32775	32677	32603	32599	
538	0	32719	32667	32765	32769	32783	32751	32615	32668	
539	0	32701	32751	32870	32617	32692	32717	32443	32599	
540	0	32841	32646	32813	32623	32645	32775	32227	32717	
541	0	32936	32711	32903	32771	32775	32749	32479	32583	
542	0	32903	32749	32844	32671	32830	32757	32719	32623	
543	0	32911	32717	32903	32583	32784	32791	32786	32543	
544	0	32911	32869	32759	32525	32687	32783	32694	32721	
545	0	32865	32871	32765	32609	32831	32741	32764	32665	
546	0	32947	32811	32663	32612	32847	32700	32662	32745	
547	0	32934	32735	32645	32743	32629	32669	32767	32793	
548	0	32900	32682	32773	32602	32743	32735	32661	32735	
549	0	32834	32727	32551	32727	32758	32647	32803	32785	
550	0	32677	32705	32519	32727	32919	32705	33003	32797	
551	0	32663	32662	32555	32681	32751	32711	32983	32827	
552	0	32599	32799	32663	32687	32883	32751	32852	32699	
553	0	32606	32852	32607	32742	32799	32806	32611	32663	
554	0	32602	32775	32607	32533	32741	32791	32839	32715	
555	0	32544	32717	32623	32745	32647	32803	32820	32575	
556	0	32613	32615	32831	32795	32706	32711	32877	32687	
557	0	32655	32543	32900	32661	32735	32674	32868	32718	
558	0	32839	32615	32775	32813	32775	32738	32843	32819	
559	0	32875	32615	32756	32647	32813	32847	32821	32739	
560	0	32903	32763	32775	32619	32837	32803	32810	32623	
561	0	32818	32715	32635	32803	32829	32821	32863	32672	
562	0	32743	32703	32495	32673	32660	32834	32758	32533	
563	0	32743	32719	32423	32758	32805	32813	32749	32633	
564	0	32689	32887	32623	32645	32707	32795	32839	32547	
565	0	32717	32692	32593	32599	32853	32871	32868	32699	
566	0	32709	32799	32748	32581	32613	32807	32815	32510	
567	0	32743	32716	32775	32597	32775	32817	32784	32621	
568	0	32807	32815	32892	32585	32766	32813	32718	32633	
569	0	32781	32756	32855	32495	32827	32802	32591	32699	
570	0	32845	32858	32855	32540	32865	32772	32551	32687	
571	0	32818	32683	32943	32564	32674	32807	32733	32809	
572	0	32806	32767	32733	32751	32804	32843	32559	32803	
573	0	32764	32571	32719	32614	32851	32695	32662	32675	
574	0	32823	32669	32679	32826	32726	32719	32679	32764	
575	0	32902	32623	32685	32822	32783	32749	32839	32853	
576	0	32856	32805	32722	32662	32612	32757	32739	32725	
577	0	32837	32703	32692	32667	32797	32771	32697	32629	
578	0	32788	32775	32839	32701	32717	32775	32587	32665	
579	0	32807	32681	32721	32681	32749	32759	32532	32749	
580	0	32805	32733	32679	32620	32711	32727	32581	32759	
581	0	32702	32679	32716	32835	32703	32657	32715	32579	
582	0	32676	32833	32533	32633	32647	32709	32873	32575	
583	0	32659	32807	32643	32559	32767	32767	33082	32701	
584	0	32538	32735	32581	32447	32745	32755	33115	32519	
585	0	32583	32748	32517	32640	32881	32807	32895	32706	
586	0	32527	32739	32615	32676	32927	32856	32736	32679	
587	0	32575	32722	32563	32541	32827	32689	32685	32551	
588	0	32617	32575	32743	32623	32647	32775	32657	32757	
589	0	32732	32739	32757	32699	32631	32811	32559	32747	
590	0	32807	32764	32818	32519	32789	32742	32602	32519	
591	0	32870	32742	32873	32663	32822	32755	32887	32583	
592	0	32870	32799	32799	32687	32726	32735	32975	32566	
593	0	32942	32763	32893	32677	32854	32711	32898	32747	
594	0	32976	32798	32828	32538	32788	32804	32993	32669	
595	0	32969	32711	32775	32721	32775	32791	32993	32654	
596	0	32856	32893	32676	32700	32791	32775	32679	32679	
597	0	32876	32749	32658	32663	32837	32867	32524	32647	
598	0	32903	32759	32716	32583	32738	32767	32610	32773	
599	0	32921	32735	32623	32761	32775	32749	32627	32687	
600	0	32933	32749	32811	32757	32605	32766	32671	32551	
601	0	32950	32647	32759	32571	32577	32755	32381	32647	
602	0	32889	32655	32566	32757	32758	32750	32247	32615	
603	0	32751	32518	32577	32717	32819	32662	32431	32775	
604	0	32534	32670	32572	32663	32717	32580	32604	32775	
605	0	32582	32709	32671	32583	32727	32671	32784	32803	
606	0	32563	32795	32719	32727	32645	32701	32647	32825	
607	0	32550	32789	32691	32693	32855	32807	32847	32788	
608	0	32552	32719	32759	32687	32771	32797	33021	32769	
609	0	32599	32615	32677	32493	32775	32774	33094	32623	
610	0	32581	32711	32787	32749	32903	32810	32935	32623	
611	0	32659	32573	32685	32737	32769	32806	32823	32559	
612	0	32773	32673	32559	32807	32675	32793	32946	32708	
613	0	32845	32614	32751	32578	32845	32791	32745	32732	
614	0	32903	32758	32603	32733	32782	32806	32687	32791	
615	0	32895	32695	32645	32711	32838	32819	32823	32655	
616	0	32875	32765	32647	32851	32821	32786	32815	32543	
617	0	32807	32695	32775	32635	32693	32799	32783	32637	
618	0	32679	32701	32707	32743	32769	32743	32887	32711	
619	0	32567	32570	32795	32771	32799	32719	32753	32591	
620	0	32457	32591	32895	32868	32823	32731	32501	32695	
621	0	32569	32638	33039	32822	32715	32658	32627	32623	
622	0	32605	32658	33159	32646	32749	32643	32732	32671	
623	0	32735	32663	33105	32788	32930	32759	32743	32706	
624	0	32748	32759	33047	32703	32879	32751	32895	32763	
625	0	32860	32677	32873	32617	32863	32743	32789	32775	
626	0	32856	32671	32711	32543	32690	32751	32655	32730	
627	0	32797	32735	32621	32711	32631	32722	32573	32847	
628	0	32756	32719	32692	32631	32783	32734	32439	32855	
629	0	32879	32745	32729	32389	32637	32783	32495	32758	
630	0	32917	32751	32543	32647	32723	32785	32710	32782	
631	0	32831	32719	32429	32540	32733	32739	32583	32735	
632	0	32732	32854	32297	32551	32519	32789	32587	32847	
633	0	32771	32823	32365	32282	32691	32762	32647	32795	
634	0	32775	32821	32359	32475	32691	32826	32682	32687	
635	0	32717	32767	32460	32433	32581	32775	32588	32725	
636	0	32697	32871	32382	32599	32698	32867	32463	32695	
637	0	32573	32903	32405	32495	32519	32807	32635	32727	
638	0	32501	32911	32319	32467	32667	32863	32771	32567	
639	0	32517	33042	32367	32479	32591	32927	32911	32597	
640	0	32673	32951	32470	32459	32647	32971	32967	32564	
641	0	32647	33053	32425	32597	32439	32991	32951	32631	
642	0	32783	32957	32364	32359	32485	32929	32784	32519	
643	0	32970	33031	32503	32463	32647	32951	32979	32423	
644	0	32856	33031	32550	32289	32498	32999	32916	32551	
645	0	32885	33055	32357	32299	32559	33053	32974	32483	
646	0	32771	33051	32407	32047	32489	32919	33111	32612	
647	0	32581	32903	32439	32211	32507	33031	32962	32643	
648	0	32639	32983	32549	32276	32743	32943	32790	32626	
649	0	32601	32957	32351	32335	32647	32954	32667	32572	
650	0	32605	33031	32406	32101	32647	32957	32727	32555	
651	0	32666	32935	32407	32255	32597	33059	32839	32517	
652	0	32724	32983	32605	32430	32596	32941	32895	32531	
653	0	32716	32743	32559	32695	32849	32775	33119	32479	
654	0	32755	32702	32735	32925	32910	32813	33009	32470	
655	0	32859	32623	32719	32860	32881	32700	32903	32419	
656	0	32966	32503	32793	33031	32991	32621	32990	32543	
657	0	33017	32603	32999	33047	33078	32633	32973	32581	
658	0	33036	32495	33069	33199	33065	32581	32930	32559	
659	0	33026	32511	33089	33123	33133	32478	32941	32674	
660	0	33154	32471	33287	33287	33223	32431	32804	32719	
661	0	33230	32460	33371	33319	33094	32463	32607	32658	
662	0	33238	32335	33429	33287	33355	32439	32799	32676	
663	0	33257	32463	33583	33287	33357	32495	32860	32611	
664	0	33224	32391	33796	33261	33279	32387	32951	32525	
665	0	33068	32391	33647	33370	33273	32388	33093	32627	
666	0	32935	32321	33551	33263	33195	32427	32981	32647	
667	0	33069	32477	33479	33255	33071	32485	32887	32611	
668	0	33025	32329	33543	33095	33165	32455	32659	32658	
669	0	32982	32511	33453	33141	33175	32447	32637	32784	
670	0	32770	32379	33113	33034	32972	32540	32477	32829	
671	0	32647	32527	32986	32900	32963	32509	32473	32918	
672	0	32549	32455	32727	33063	32894	32598	32459	32727	
673	0	32461	32574	32877	32983	32759	32642	32461	32719	
674	0	32590	32551	32823	32743	32719	32694	32461	32859	
675	0	32701	32711	32662	32775	32679	32613	32515	32935	
676	0	32765	32695	32645	32662	32719	32668	32534	32805	
677	0	32742	32791	32406	32583	32630	32687	32551	32775	
678	0	32620	32766	32540	32369	32703	32801	32345	32671	
679	0	32621	32855	32435	32515	32543	32815	32263	32819	
680	0	32635	32715	32525	32451	32436	32903	32387	32807	
681	0	32591	32839	32241	32331	32543	32998	32475	32675	
682	0	32579	32703	32245	32239	32500	32953	32437	32707	
683	0	32495	32815	32277	32263	32543	32942	32691	32711	
684	0	32460	32815	32175	32313	32637	32936	32787	32715	
685	0	32466	32879	32321	32263	32567	32987	32827	32647	
686	0	32484	32757	32323	32246	32356	33086	32813	32787	
687	0	32534	32769	32444	32481	32539	32903	32947	32787	
688	0	32567	32683	32559	32493	32573	32903	32723	32855	
689	0	32617	32769	32527	32543	32749	32901	32741	32791	
690	0	32636	32690	32380	32468	32726	32839	32663	32589	
691	0	32658	32903	32477	32502	32639	32799	32692	32701	
692	0	32647	32801	32425	32566	32692	32790	32661	32653	
693	0	32668	32899	32519	32671	32742	32797	32705	32775	
694	0	32766	32839	32703	32477	32791	32751	32786	32675	
695	0	32943	32871	32727	32687	32767	32705	32757	32711	
696	0	33028	32775	32733	32639	32807	32695	32763	32641	
697	0	33052	32899	32699	32739	32663	32726	32834	32575	
698	0	32935	32857	32772	32635	32587	32738	32887	32671	
699	0	32888	32791	32833	32695	32797	32711	32999	32647	
700	0	32823	32813	32964	32751	32831	32748	33023	32785	
701	0	32712	32791	32774	32795	32773	32868	33027	32756	
702	0	32692	32850	32820	32563	32823	32863	32959	32749	
703	0	32790	32635	32732	32695	32847	32854	32863	32703	
704	0	32820	32751	32884	32679	32699	32790	32851	32583	
705	0	32828	32741	32839	32751	32703	32762	32863	32641	
706	0	32698	32742	32679	32545	32783	32735	32623	32511	
707	0	32699	32510	32655	32727	32695	32767	32337	32687	
708	0	32716	32647	32609	32758	32791	32762	32263	32703	
709	0	32703	32547	32639	32749	32611	32775	32506	32740	
710	0	32717	32652	32759	32555	32738	32709	32605	32647	
711	0	32718	32599	32671	32597	32770	32829	32567	32742	
712	0	32788	32571	32847	32731	32837	32775	32859	32671	
713	0	32761	32809	32786	32631	32786	32757	33083	32706	
714	0	32605	32718	32791	32759	32847	32767	33086	32715	
715	0	32646	32845	32599	32585	32749	32863	33095	32583	
716	0	32735	32902	32565	32614	32791	32879	32901	32703	
717	0	32803	32823	32617	32767	32556	32865	32551	32695	
718	0	32795	32847	32759	32615	32805	32839	32427	32767	
719	0	32775	32831	32665	32607	32749	32867	32513	32753	
720	0	32700	32801	32555	32535	32903	32887	32730	32765	
721	0	32728	32729	32683	32555	32805	32839	32715	32703	
722	0	32757	32877	32775	32631	32757	32809	32677	32751	
723	0	32831	32735	32853	32540	32823	32827	32679	32739	
724	0	32762	32751	32924	32559	32810	32805	32847	32771	
725	0	32671	32795	32935	32453	32743	32828	32785	32685	
726	0	32725	32627	32791	32516	32609	32819	32683	32763	
727	0	32676	32694	32743	32669	32763	32789	32725	32711	
728	0	32717	32639	32646	32722	32836	32775	32847	32581	
729	0	32764	32717	32673	32698	32751	32805	32813	32693	
730	0	32863	32767	32487	32579	32671	32821	32667	32623	
731	0	32993	32677	32646	32706	32743	32854	32900	32658	
732	0	32982	32749	32469	32767	32831	32743	32831	32517	
733	0	32990	32711	32518	32790	32668	32759	32631	32711	
734	0	32775	32797	32583	32625	32825	32813	32615	32687	
735	0	32792	32643	32705	32613	32725	32775	32737	32721	
736	0	32775	32743	32641	32726	32799	32795	32885	32726	
737	0	32684	32689	32741	32703	32783	32783	32886	32635	
738	0	32743	32807	32549	32635	32821	32755	32975	32679	
739	0	32804	32786	32783	32701	32759	32814	32959	32583	
740	0	32749	32719	32661	32835	32813	32775	33039	32621	
741	0	32677	32767	32765	32739	32763	32735	32772	32533	
742	0	32568	32620	32758	32838	32791	32795	32603	32615	
743	0	32566	32723	32771	32578	32623	32765	32585	32477	
744	0	32519	32681	32647	32635	32759	32838	32661	32581	
745	0	32637	32795	32739	32743	32643	32797	32701	32588	
746	0	32746	32745	32767	32711	32723	32826	32818	32645	
747	0	32822	32663	32775	32691	32663	32835	32775	32561	
748	0	32909	32631	32775	32523	32767	32743	32775	32711	
749	0	32916	32615	32987	32623	32676	32787	32787	32599	
750	0	33059	32751	32863	32559	32861	32717	32815	32617	
751	0	33052	32701	32752	32627	32809	32711	32755	32626	
752	0	33048	32871	32711	32623	32733	32811	32591	32692	
753	0	32872	32828	32738	32573	32771	32785	32703	32625	
754	0	32725	32691	32885	32495	32839	32787	32815	32730	
755	0	32622	32791	32786	32489	32799	32700	33063	32567	
756	0	32666	32869	32719	32551	32743	32799	32986	32702	
757	0	32564	32758	32647	32615	32865	32763	32687	32633	
758	0	32409	32747	32572	32735	32804	32774	32401	32803	
759	0	32601	32695	32699	32727	32692	32775	32347	32807	
760	0	32795	32791	32470	32722	32769	32775	32479	32765	
761	0	32848	32687	32473	32803	32701	32794	32581	32669	
762	0	32903	32740	32479	32745	32775	32786	32695	32563	
763	0	32775	32605	32503	32729	32615	32831	32519	32675	
764	0	32733	32679	32477	32669	32822	32804	32578	32663	
765	0	32655	32564	32711	32771	32879	32793	32775	32647	
766	0	32699	32679	32671	32699	32794	32698	32867	32698	
767	0	32727	32591	32641	32559	32889	32774	32957	32591	
768	0	32759	32789	32646	32705	32799	32743	32979	32601	
769	0	32836	32647	32621	32627	32655	32790	33034	32635	
770	0	32813	32763	32886	32681	32703	32844	32902	32730	
771	0	32831	32587	32841	32627	32757	32819	32756	32621	
772	0	32816	32703	32799	32612	32830	32733	32802	32631	
773	0	32782	32703	32708	32827	32775	32627	32733	32642	
774	0	32745	32763	32875	32679	32851	32743	32771	32677	
775	0	32799	32877	32858	32743	32738	32663	32743	32641	
776	0	32795	32853	32772	32507	32621	32751	32647	32694	
777	0	32779	32831	32699	32613	32759	32746	32719	32703	
778	0	32711	32839	32679	32687	32717	32799	32759	32566	
779	0	32754	32647	32951	32694	32687	32867	32583	32742	
780	0	32773	32815	32726	32487	32812	32831	32615	32647	
781	0	32824	32841	32756	32597	32839	32807	32903	32725	
782	0	32877	32775	32679	32663	32767	32775	32763	32715	
783	0	32786	32903	32617	32564	32846	32785	32727	32765	
784	0	32764	32743	32615	32477	32671	32812	32715	32692	
785	0	32820	32859	32732	32421	32820	32835	32637	32786	
786	0	32765	32724	32669	32583	32775	32827	32604	32751	
787	0	32699	32799	32703	32685	32747	32875	32797	32762	
788	0	32702	32647	32607	32831	32647	32799	32877	32722	
789	0	32709	32694	32503	32807	32811	32783	32923	32647	
790	0	32684	32671	32483	32655	32762	32787	32867	32771	
791	0	32732	32633	32621	32797	32813	32783	32754	32598	
792	0	32799	32700	32674	32775	32581	32811	32608	32694	
793	0	32807	32607	32626	32799	32731	32823	32740	32638	
794	0	32705	32686	32493	32535	32755	32775	32765	32814	
795	0	32660	32639	32578	32711	32887	32812	32875	32659	
796	0	32855	32773	32658	32679	32727	32796	32959	32635	
797	0	32930	32719	32807	32748	32645	32839	32827	32607	
798	0	32866	32708	32783	32631	32719	32767	32786	32567	
799	0	32677	32799	32927	32803	32844	32771	32751	32628	
800	0	32655	32704	32848	32731	32831	32739	32516	32555	
801	0	32702	32758	32963	32647	32859	32773	32669	32721	
802	0	32647	32775	32807	32434	32756	32655	32679	32575	
803	0	32676	32868	32603	32675	32691	32708	32631	32514	
804	0	32704	32851	32773	32678	32758	32679	32695	32690	
805	0	32641	32788	32821	32405	32835	32729	32871	32738	
806	0	32729	32771	32879	32575	32853	32797	32901	32588	
807	0	32772	32853	32893	32607	32759	32891	32967	32671	
808	0	32734	32757	32758	32658	32875	32775	32955	32685	
809	0	32751	32819	32573	32403	32715	32775	32948	32755	
810	0	32862	32775	32531	32565	32607	32743	32930	32687	
811	0	32860	32679	32604	32615	32733	32785	32639	32495	
812	0	32791	32647	32505	32671	32751	32811	32671	32599	
813	0	32889	32786	32681	32834	32679	32813	32807	32527	
814	0	32890	32690	32525	32743	32773	32805	32926	32687	
815	0	32821	32667	32647	32827	32771	32789	32801	32675	
816	0	32781	32759	32679	32725	32796	32789	32671	32742	
817	0	32767	32703	32765	32743	32687	32706	32564	32807	
818	0	32742	32838	32705	32935	32727	32663	32596	32647	
819	0	32761	32815	32695	32786	32677	32663	32639	32723	
820	0	32690	32691	32617	32637	32796	32743	32693	32681	
821	0	32719	32819	32647	32733	32591	32767	32327	32717	
822	0	32771	32756	32708	32799	32805	32775	32445	32723	
823	0	32687	32611	32811	32743	32749	32846	32591	32719	
824	0	32633	32647	32791	32732	32772	32766	32721	32791	
825	0	32733	32645	32701	32583	32839	32757	32715	32677	
826	0	32903	32759	32556	32477	32742	32723	32631	32723	
827	0	32812	32755	32583	32543	32775	32821	32717	32735	
828	0	32703	32755	32691	32413	32834	32678	32868	32701	
829	0	32711	32599	32775	32575	32817	32663	32741	32583	
830	0	32763	32804	32951	32513	32885	32679	32731	32721	
831	0	32836	32631	32959	32589	32743	32757	32847	32687	
832	0	32738	32851	32967	32359	32875	32815	32877	32698	
833	0	32845	32735	32898	32537	32839	32853	33067	32647	
834	0	32921	32863	32947	32579	32695	32825	33031	32727	
835	0	32950	32711	32855	32673	32747	32706	33075	32713	
836	0	33026	32743	32642	32559	32713	32767	33017	32635	
837	0	32855	32621	32551	32806	32831	32749	33074	32703	
838	0	32742	32709	32589	32795	32833	32847	32863	32531	
839	0	32734	32679	32661	32783	32765	32787	32724	32718	
840	0	32727	32749	32683	32667	32815	32759	32639	32711	
841	0	32690	32663	32599	32797	32832	32755	32539	32623	
842	0	32623	32727	32578	32722	32658	32799	32447	32727	
843	0	32617	32700	32508	32679	32755	32735	32533	32763	
844	0	32738	32637	32535	32635	32679	32759	32647	32663	
845	0	32787	32738	32503	32459	32743	32775	32707	32679	
846	0	32791	32740	32695	32695	32767	32797	32839	32783	
847	0	32780	32873	32671	32691	32677	32759	32911	32795	
848	0	32773	32736	32759	32751	32823	32775	32919	32601	
849	0	32644	32709	32759	32535	32830	32772	32859	32719	
850	0	32644	32766	32647	32667	32843	32775	32835	32707	
851	0	32761	32679	32708	32673	32738	32773	32829	32737	
852	0	32806	32687	32703	32522	32821	32761	32815	32655	
853	0	32811	32692	32581	32603	32826	32803	32895	32564	
854	0	32876	32815	32735	32627	32701	32749	32866	32617	
855	0	32747	32725	32775	32487	32635	32815	32731	32628	
856	0	32695	32751	32751	32719	32815	32747	32647	32719	
857	0	32773	32765	32855	32837	32758	32827	32791	32694	
858	0	32757	32855	32829	32799	32727	32851	32827	32671	
859	0	32647	32877	32903	32893	32759	32814	32757	32788	
860	0	32679	32735	32935	32949	32923	32799	32855	32619	
861	0	32644	32799	32883	32850	32751	32807	32739	32595	
862	0	32681	32679	32771	32617	32879	32678	32684	32751	
863	0	32764	32689	32827	32805	32826	32691	32613	32692	
864	0	32848	32595	32691	32754	32793	32734	32557	32563	
865	0	32941	32723	32783	32450	32679	32765	32447	32711	
866	0	32871	32627	32687	32629	32733	32743	32467	32714	
867	0	32865	32775	32611	32562	32775	32833	32525	32621	
868	0	32790	32619	32633	32517	32798	32740	32623	32571	
869	0	32655	32807	32535	32523	32727	32641	32559	32582	
870	0	32623	32647	32599	32559	32647	32723	32705	32703	
871	0	32654	32775	32735	32595	32707	32805	32722	32628	
872	0	32675	32727	32647	32507	32751	32766	32837	32495	
873	0	32675	32699	32691	32725	32685	32775	32844	32647	
874	0	32767	32805	32615	32765	32751	32807	32767	32735	
875	0	32795	32749	32663	32629	32823	32783	32785	32577	
876	0	32772	32743	32583	32775	32709	32827	32837	32703	
877	0	33001	32767	32711	32811	32631	32819	32903	32707	
878	0	32959	32839	32789	32601	32799	32775	32922	32662	
879	0	32841	32767	32717	32500	32795	32791	32903	32769	
880	0	32807	32775	32608	32647	32715	32734	32875	32631	
881	0	32694	32657	32735	32731	32886	32727	32978	32646	
882	0	32690	32662	32807	32647	32863	32679	33009	32647	
883	0	32749	32695	32757	32687	32743	32743	32967	32655	
884	0	32764	32771	32839	32692	32719	32797	32843	32682	
885	0	32793	32727	32783	32527	32682	32787	32813	32697	
886	0	32742	32677	32635	32797	32612	32823	32825	32551	
887	0	32740	32647	32695	32784	32839	32732	32729	32683	
888	0	32782	32627	32551	32775	32852	32811	32597	32615	
889	0	32768	32723	32708	32559	32797	32756	32510	32673	
890	0	32721	32610	32733	32700	32817	32815	32442	32683	
891	0	32775	32687	32533	32621	32791	32743	32643	32589	
892	0	32748	32697	32579	32549	32743	32733	32553	32703	
893	0	32748	32871	32631	32483	32647	32742	32511	32668	
894	0	32746	32719	32751	32765	32767	32763	32463	32775	
895	0	32678	32796	32775	32699	32735	32695	32663	32775	
896	0	32641	32626	32797	32698	32742	32689	32743	32583	
897	0	32671	32724	32797	32632	32775	32710	32991	32716	
898	0	32711	32814	32791	32775	32885	32719	33052	32639	
899	0	32628	32775	32798	32644	32735	32703	32854	32775	
900	0	32675	32852	32685	32703	32828	32723	32695	32679	
901	0	32664	32791	32855	32559	32863	32823	32583	32527	
902	0	32745	32681	32943	32583	32775	32751	32527	32683	
903	0	32866	32815	32852	32679	32719	32774	32583	32671	
904	0	32909	32711	32890	32579	32647	32802	32659	32548	
905	0	32898	32773	32681	32743	32729	32863	32647	32671	
906	0	32758	32717	32569	32743	32771	32846	32623	32705	
907	0	32719	32783	32531	32753	32811	32820	32798	32758	
908	0	32758	32705	32541	32579	32599	32815	32903	32788	
909	0	32751	32723	32391	32642	32592	32737	32986	32611	
910	0	32758	32687	32607	32719	32865	32730	33051	32711	
911	0	32759	32605	32724	32582	32918	32749	33067	32695	
912	0	32724	32771	32775	32717	32803	32785	32895	32767	
913	0	32822	32755	32727	32708	32695	32863	32691	32647	
914	0	32869	32727	32725	32627	32726	32743	32450	32641	
915	0	32858	32591	32707	32622	32764	32643	32194	32783	
916	0	32743	32668	32683	32712	32659	32679	32258	32639	
917	0	32802	32559	32693	32801	32615	32719	32423	32578	
918	0	32804	32690	32903	32621	32628	32775	32502	32799	
919	0	32715	32703	32995	32851	32809	32767	32614	32749	
920	0	32665	32803	32771	32789	32759	32829	32604	32807	
921	0	32806	32903	32921	32599	32826	32831	32711	32709	
922	0	32813	32975	32902	32645	32817	32737	32731	32757	
923	0	32786	32903	32495	32669	32821	32815	32927	32615	
924	0	32859	32775	32590	32519	32775	32775	32849	32769	
925	0	32916	32885	32524	32609	32764	32839	32861	32726	
926	0	32909	32756	32563	32699	32708	32751	32839	32547	
927	0	32847	32709	32575	32823	32671	32806	32823	32735	
928	0	32706	32629	32446	32554	32775	32759	32806	32671	
929	0	32764	32683	32647	32671	32850	32679	32827	32537	
930	0	32791	32559	32721	32711	32845	32683	32899	32653	
931	0	32727	32599	32770	32643	32727	32645	32726	32599	
932	0	32662	32575	32755	32717	32877	32711	32615	32789	
933	0	32574	32663	32735	32596	32871	32719	32595	32732	
934	0	32599	32799	32727	32401	32834	32751	32661	32543	
935	0	32669	32677	32775	32702	32736	32751	32677	32763	
936	0	32625	32743	32839	32775	32628	32677	32631	32731	
937	0	32705	32642	32735	32693	32822	32771	32541	32563	
938	0	32679	32741	32887	32899	32811	32683	32647	32643	
939	0	32743	32718	32911	32860	32831	32733	32669	32757	
940	0	32748	32645	32714	32590	32787	32655	32783	32583	
941	0	32827	32711	32943	32700	32834	32837	32828	32735	
942	0	32804	32660	32879	32783	32759	32871	32911	32675	
943	0	32864	32831	32771	32550	32775	32859	32955	32550	
944	0	32874	32783	32793	32659	32771	32831	32971	32694	
945	0	32847	32675	32663	32708	32628	32831	32937	32655	
946	0	32786	32695	32495	32525	32647	32786	32918	32489	
947	0	32730	32583	32567	32605	32851	32742	32865	32621	
948	0	32737	32775	32606	32629	32791	32767	32815	32629	
949	0	32685	32756	32601	32487	32791	32769	32839	32487	
950	0	32689	32613	32745	32637	32855	32795	32827	32705	
951	0	32694	32708	32739	32511	32879	32775	32757	32613	
952	0	32647	32671	32715	32703	32799	32775	32799	32531	
953	0	32693	32837	32701	32725	32843	32757	32860	32708	
954	0	32700	32815	32673	32816	32695	32793	32831	32743	
955	0	32722	32827	32799	32631	32734	32807	32713	32783	
956	0	32858	32806	32902	32722	32751	32783	32737	32708	
957	0	32937	32671	32814	32860	32763	32728	32725	32598	
958	0	32867	32751	32727	32633	32703	32719	32783	32756	
959	0	32850	32726	32646	32716	32689	32762	32772	32708	
960	0	32841	32829	32599	32708	32743	32743	32809	32809	
961	0	32807	32722	32743	32541	32803	32811	32747	32699	
962	0	32775	32786	32799	32607	32663	32837	32581	32553	
963	0	32749	32647	32747	32623	32735	32801	32557	32773	
964	0	32815	32709	32815	32679	32806	32795	32754	32719	
965	0	32794	32655	32591	32479	32671	32803	32883	32771	
966	0	32788	32803	32675	32463	32804	32821	32839	32706	
967	0	32732	32738	32684	32661	32791	32817	32903	32594	
968	0	32746	32745	32775	32769	32763	32859	32933	32658	
969	0	32835	32647	32679	32518	32775	32818	32903	32731	
970	0	32870	32719	32567	32639	32831	32863	32875	32589	
971	0	32864	32679	32593	32668	32807	32791	32696	32663	
972	0	32863	32669	32587	32549	32759	32807	32489	32529	
973	0	32817	32703	32791	32471	32731	32775	32599	32667	
974	0	32794	32749	32797	32607	32757	32823	32823	32642	
975	0	32680	32733	32831	32642	32725	32844	32862	32743	
976	0	32685	32735	32903	32871	32743	32833	32806	32711	
977	0	32658	32614	32839	32717	32807	32787	32783	32586	
978	0	32548	32671	32539	32872	32846	32711	32790	32703	
979	0	32575	32711	32527	32859	32796	32614	32839	32714	
980	0	32757	32775	32655	32711	32775	32663	32802	32788	
981	0	32756	32766	32827	32659	32815	32719	32693	32767	
982	0	32748	32823	32722	32785	32647	32799	32619	32600	
983	0	32773	32751	32749	32775	32753	32844	32769	32655	
984	0	32763	32827	32851	32935	32759	32813	32791	32686	
985	0	32666	32684	32733	32759	32749	32742	32793	32661	
986	0	32756	32751	32615	32775	32707	32723	32823	32505	
987	0	32823	32789	32615	32695	32771	32726	32797	32663	
988	0	32847	32869	32455	32643	32659	32807	32719	32559	
989	0	32814	32783	32530	32580	32655	32826	32726	32655	
990	0	32743	32925	32559	32505	32844	32775	32749	32647	
991	0	32668	32879	32815	32623	32885	32807	32879	32687	
992	0	32699	32795	32951	32667	32735	32845	33029	32762	
993	0	32756	32831	33055	32599	32804	32831	32963	32743	
994	0	32694	32619	32886	32659	32759	32799	33023	32685	
995	0	32676	32660	32575	32468	32713	32809	32695	32701	
996	0	32725	32594	32786	32597	32817	32822	32450	32607	
997	0	32730	32717	32839	32615	32775	32823	32423	32671	
998	0	32754	32723	32743	32575	32718	32835	32687	32611	
999	0	32676	32847	32583	32548	32722	32775	32743	32711	
1000	0	32753	32743	32767	32445	32719	32803	32803	32693	
1001	0	32694	32783	32811	32695	32823	32743	32757	32551	
1002	0	32811	32671	32733	32559	32735	32749	32811	32647	
1003	0	32848	32799	32685	32687	32799	32773	32667	32559	
1004	0	32957	32766	32692	32503	32692	32775	32405	32601	
1005	0	33053	32647	32663	32679	32697	32799	32429	32621	
1006	0	32972	32567	32635	32600	32719	32782	32413	32702	
1007	0	32888	32647	32412	32591	32775	32743	32508	32695	
1008	0	32807	32578	32415	32709	32743	32787	32759	32821	
1009	0	32676	32647	32471	32830	32645	32815	32845	32621	
1010	0	32703	32642	32590	32759	32772	32795	32851	32615	
1011	0	32756	32725	32645	32861	32755	32775	32823	32789	
1012	0	32666	32565	32701	32551	32791	32733	32788	32751	
1013	0	32633	32685	32702	32733	32799	32735	32759	32609	
1014	0	32647	32599	32757	32745	32823	32751	32743	32607	
1015	0	32583	32705	32807	32821	32983	32711	32879	32533	
1016	0	32617	32775	32998	32665	32771	32773	32847	32691	
1017	0	32617	32775	32925	32799	32659	32734	32883	32638	
1018	0	32711	32751	32961	32799	32684	32703	32925	32711	
1019	0	32839	32847	32855	32677	32866	32722	32973	32709	
1020	0	32866	32725	32679	32477	32829	32693	32823	32775	
1021	0	32748	32775	32597	32643	32738	32679	32676	32711	
1022	0	32699	32815	32687	32671	32831	32685	32657	32543	
1023	0	32645	32731	32863	32719	32727	32694	32647	32647	
1024	0	32667	32896	32941	32557	32679	32748	32711	32663	
1025	0	32749	32795	33063	32689	32799	32715	32724	32741	
1026	0	32807	32889	32916	32642	32757	32676	32685	32738	
1027	0	32802	32725	32725	32551	32763	32677	32708	32578	
1028	0	32796	32802	32487	32596	32743	32751	32717	32743	
1029	0	32854	32820	32417	32601	32756	32821	32507	32679	
1030	0	32839	32701	32467	32479	32735	32831	32471	32551	
1031	0	32851	32726	32567	32683	32726	32799	32757	32763	
1032	0	32827	32703	32487	32583	32717	32795	33039	32759	
1033	0	32909	32833	32629	32628	32583	32817	33151	32644	
1034	0	32913	32718	32629	32587	32548	32786	32935	32633	
1035	0	32698	32813	32571	32659	32687	32699	32939	32671	
1036	0	32631	32735	32711	32658	32667	32727	32967	32762	
1037	0	32698	32595	32799	32831	32685	32827	32929	32638	
1038	0	32775	32727	32821	32749	32791	32809	32791	32572	
1039	0	32733	32607	32804	32751	32861	32839	32707	32715	
1040	0	32729	32677	32639	32511	32808	32862	32730	32671	
1041	0	32678	32565	32759	32787	32739	32854	32732	32539	
1042	0	32743	32687	32838	32758	32847	32791	32715	32645	
1043	0	32857	32637	32705	32636	32854	32805	32660	32572	
1044	0	32826	32677	32791	32713	32863	32703	32667	32761	
1045	0	32780	32742	32735	32685	32822	32737	32739	32655	
1046	0	32856	32626	32655	32492	32839	32735	32821	32647	
1047	0	32899	32699	32549	32703	32671	32823	32703	32663	
1048	0	32870	32629	32466	32638	32597	32773	32761	32733	
1049	0	32857	32799	32693	32615	32775	32838	32719	32575	
1050	0	32831	32722	32581	32633	32771	32823	32775	32677	
1051	0	32805	32811	32611	32627	32735	32757	32775	32598	
1052	0	32720	32835	32823	32474	32805	32700	32743	32562	
1053	0	32614	32855	32950	32695	32844	32679	32732	32707	
1054	0	32514	32871	32851	32679	32842	32711	32819	32751	
1055	0	32455	32823	32819	32622	32805	32767	32785	32676	
1056	0	32595	32775	32811	32747	32789	32791	32725	32703	
1057	0	32742	32626	32815	32735	32685	32805	32681	32551	
1058	0	32834	32703	32815	32597	32647	32799	32789	32671	
1059	0	32816	32671	32759	32599	32799	32759	32697	32591	
1060	0	32887	32706	32719	32725	32858	32805	32678	32735	
1061	0	32772	32647	32609	32837	32796	32682	32692	32767	
1062	0	32853	32771	32479	32636	32707	32719	32733	32655	
1063	0	32813	32715	32607	32819	32821	32719	32807	32679	
1064	0	32846	32759	32621	32914	32807	32799	32823	32583	
1065	0	32809	32711	32636	32727	32774	32739	32757	32735	
1066	0	32732	32686	32593	32871	32625	32804	32755	32711	
1067	0	32729	32647	32563	32799	32661	32804	32834	32572	
1068	0	32734	32527	32685	32543	32557	32767	32991	32613	
1069	0	32717	32687	32621	32639	32765	32727	33023	32562	
1070	0	32720	32591	32675	32537	32857	32791	32873	32710	
1071	0	32769	32671	32749	32413	32738	32919	32726	32639	
1072	0	32709	32599	32671	32506	32890	32830	32565	32535	
1073	0	32654	32703	32687	32631	32775	32826	32495	32655	
1074	0	32779	32567	32551	32643	32647	32708	32639	32693	
1075	0	32820	32695	32879	32531	32685	32757	32679	32773	
1076	0	32788	32663	32903	32695	32775	32735	32749	32639	
1077	0	32729	32647	32775	32731	32865	32685	32951	32663	
1078	0	32740	32635	32887	32717	32871	32741	33167	32527	
1079	0	32751	32759	32876	32535	32804	32715	33149	32671	
1080	0	32718	32805	32997	32751	32647	32707	32918	32711	
1081	0	32726	32883	32994	32827	32615	32817	32868	32535	
1082	0	32875	32870	32863	32597	32615	32818	32843	32775	
1083	0	32902	32980	32701	32699	32831	32823	32799	32629	
1084	0	32836	32831	32647	32711	32830	32785	32675	32495	
1085	0	32693	32797	32707	32551	32723	32804	32533	32687	
1086	0	32738	32847	32747	32791	32754	32851	32527	32685	
1087	0	32856	32923	32605	32717	32775	32740	32759	32731	
1088	0	32916	32869	32582	32739	32695	32751	32877	32691	
1089	0	32921	32791	32407	32579	32853	32757	32859	32567	
1090	0	32878	32724	32551	32747	32867	32815	32837	32655	
1091	0	32749	32763	32717	32695	32847	32775	32820	32551	
1092	0	32659	32630	32717	32729	32805	32783	32879	32619	
1093	0	32692	32704	32817	32590	32671	32755	32880	32551	
1094	0	32593	32639	32679	32687	32865	32759	32747	32751	
1095	0	32718	32727	32719	32631	32799	32693	32582	32673	
1096	0	32762	32659	32687	32623	32745	32677	32543	32722	
1097	0	32815	32695	32862	32549	32587	32791	32743	32703	
1098	0	32799	32795	32599	32573	32772	32767	32812	32765	
1099	0	32737	32647	32666	32601	32743	32685	32751	32743	
1100	0	32762	32583	32677	32629	32829	32679	32812	32567	
1101	0	32638	32638	32507	32559	32786	32719	32807	32667	
1102	0	32623	32659	32621	32759	32847	32690	32841	32597	
1103	0	32615	32685	32731	32647	32637	32767	32749	32615	
1104	0	32569	32785	32701	32559	32791	32711	32628	32527	
1105	0	32711	32694	32646	32519	32775	32752	32519	32637	
1106	0	32724	32707	32751	32638	32733	32631	32603	32482	
1107	0	32614	32631	32681	32663	32783	32637	32727	32637	
1108	0	32637	32711	32717	32631	32863	32799	32757	32597	
1109	0	32775	32687	32709	32629	32693	32775	32811	32583	
1110	0	32871	32796	32647	32707	32831	32765	32851	32639	
1111	0	32826	32647	32809	32743	32743	32791	32775	32564	
1112	0	32828	32783	32895	32613	32674	32807	32791	32667	
1113	0	32893	32727	32743	32742	32687	32783	32831	32733	
1114	0	32903	32790	32903	32699	32847	32827	32799	32711	
1115	0	32833	32623	32737	32625	32807	32767	32671	32722	
1116	0	32785	32514	32551	32788	32647	32775	32669	32563	
1117	0	32830	32722	32615	32763	32607	32707	32635	32775	
1118	0	32749	32634	32628	32690	32615	32759	32591	32695	
1119	0	32638	32699	32621	32836	32743	32827	32647	32548	
1120	0	32665	32775	32759	32749	32831	32775	32550	32731	
1121	0	32807	32851	32806	32631	32775	32839	32615	32719	
1122	0	32815	32855	32621	32647	32789	32807	32759	32853	
1123	0	32800	32903	32735	32719	32876	32761	32991	32811	
1124	0	32819	32927	32663	32553	32701	32839	32900	32615	
1125	0	32807	32903	32589	32583	32677	32771	32935	32694	
1126	0	32804	32914	32493	32579	32775	32699	32839	32622	
1127	0	32781	32786	32558	32455	32820	32693	32803	32772	
1128	0	32851	32727	32795	32711	32763	32786	32706	32643	
1129	0	32871	32551	32809	32713	32807	32757	32582	32667	
1130	0	32751	32743	32887	32527	32819	32726	32580	32583	
1131	0	32655	32742	32941	32607	32591	32775	32666	32631	
1132	0	32609	32807	32761	32647	32813	32783	32604	32583	
1133	0	32647	32775	32972	32775	32791	32725	32791	32678	
1134	0	32679	32723	33015	32815	32803	32660	32815	32719	
1135	0	32681	32746	32711	32877	32785	32727	32771	32659	
1136	0	32791	32691	32719	32807	32711	32786	32751	32751	
1137	0	32785	32755	32660	32535	32739	32813	32679	32669	
1138	0	32916	32677	32745	32717	32582	32819	32655	32555	
1139	0	32919	32735	32662	32644	32670	32750	32619	32719	
1140	0	32871	32673	32498	32427	32673	32823	32669	32679	
1141	0	32921	32719	32595	32676	32807	32841	32828	32775	
1142	0	32884	32647	32631	32660	32836	32743	32845	32675	
1143	0	32835	32659	32509	32529	32775	32718	32837	32555	
1144	0	32796	32807	32703	32788	32891	32771	32846	32715	
1145	0	32731	32742	32647	32783	32850	32789	32855	32748	
1146	0	32628	32871	32519	32763	32799	32781	32775	32743	
1147	0	32607	32735	32516	32615	32727	32807	32769	32727	
1148	0	32658	32834	32563	32715	32758	32769	32789	32748	
1149	0	32655	32671	32826	32743	32655	32740	32903	32671	
1150	0	32586	32742	32975	32595	32642	32791	32863	32663	
1151	0	32636	32702	32754	32623	32735	32723	32871	32775	
1152	0	32742	32751	32671	32623	32839	32727	32847	32756	
1153	0	32886	32647	32621	32404	32763	32669	32834	32659	
1154	0	32881	32739	32646	32607	32741	32743	32847	32769	
1155	0	32902	32647	32663	32749	32860	32740	32786	32679	
1156	0	32858	32551	32759	32611	32761	32775	32742	32544	
1157	0	32858	32727	33107	32789	32743	32902	32793	32597	
1158	0	32765	32623	33058	32739	32647	32815	32528	32507	
1159	0	32775	32741	32775	32715	32763	32803	32482	32646	
1160	0	32711	32635	32758	32623	32834	32775	32587	32567	
1161	0	32738	32797	32711	32683	32786	32831	32827	32759	
1162	0	32666	32587	32691	32772	32703	32742	32775	32727	
1163	0	32755	32707	32812	32607	32749	32740	32871	32583	
1164	0	32713	32743	32689	32647	32843	32775	32647	32707	
1165	0	32736	32690	32501	32589	32735	32773	32526	32682	
1166	0	32610	32810	32603	32527	32542	32733	32343	32825	
1167	0	32645	32689	32605	32735	32663	32733	32470	32679	
1168	0	32693	32732	32578	32845	32863	32749	32855	32583	
1169	0	32700	32621	32607	32607	32913	32745	32883	32719	
1170	0	32745	32711	32667	32863	32863	32804	32847	32687	
1171	0	32782	32682	32966	32706	32847	32756	32923	32739	
1172	0	32802	32831	32865	32566	32785	32685	32959	32701	
1173	0	32851	32793	32734	32685	32711	32701	32899	32829	
1174	0	32813	32749	32668	32595	32587	32757	32709	32715	
1175	0	32738	32663	32621	32690	32751	32719	32678	32623	
1176	0	32629	32857	32623	32466	32807	32765	32625	32679	
1177	0	32629	32749	32799	32657	32783	32811	32885	32698	
1178	0	32684	32783	32879	32607	32884	32775	32885	32796	
1179	0	32801	32711	32887	32685	32791	32793	32775	32675	
1180	0	32888	32772	32946	32551	32663	32877	32890	32735	
1181	0	32961	32688	33005	32675	32810	32885	32941	32658	
1182	0	33019	32679	32725	32687	32780	32811	32974	32679	
1183	0	32997	32647	32735	32796	32837	32727	32978	32655	
1184	0	32918	32743	32711	32583	32647	32791	32791	32717	
1185	0	32879	32668	32709	32725	32753	32775	32717	32673	
1186	0	32845	32743	32559	32617	32903	32823	32711	32667	
1187	0	32738	32644	32551	32762	32703	32836	32771	32639	
1188	0	32616	32707	32429	32671	32755	32743	32581	32513	
1189	0	32677	32727	32468	32823	32783	32723	32469	32671	
1190	0	32687	32787	32775	32737	32823	32735	32373	32715	
1191	0	32655	32732	32867	32594	32799	32866	32359	32839	
1192	0	32638	32615	33006	32700	32745	32739	32534	32707	
1193	0	32806	32635	32943	32703	32814	32743	32663	32631	
1194	0	32937	32583	32787	32702	32805	32791	32669	32742	
1195	0	32863	32663	32563	32645	32783	32775	32726	32695	
1196	0	32804	32710	32682	32615	32789	32635	32693	32582	
1197	0	32743	32641	32705	32679	32843	32659	32621	32664	
1198	0	32766	32845	32493	32511	32807	32655	32855	32607	
1199	0	32679	32711	32541	32670	32567	32743	32925	32731	
1200	0	32708	32847	32451	32589	32605	32831	32851	32659	
1201	0	32676	32775	32587	32519	32734	32870	32759	32735	
1202	0	32610	32820	32685	32590	32791	32901	32859	32621	
1203	0	32647	32714	32546	32677	32793	32834	32820	32495	
1204	0	32708	32783	32579	32671	32811	32773	32731	32719	
1205	0	32716	32749	32573	32599	32951	32774	32903	32715	
1206	0	32795	32775	32757	32463	32724	32771	32943	32768	
1207	0	32716	32693	32702	32675	32671	32761	32935	32695	
1208	0	32597	32775	32647	32647	32775	32763	32971	32831	
1209	0	32671	32645	32721	32677	32869	32730	32839	32620	
1210	0	32679	32655	32685	32719	32711	32790	32599	32487	
1211	0	32784	32603	32767	32759	32842	32739	32402	32644	
1212	0	32868	32703	32799	32719	32711	32815	32500	32631	
1213	0	32916	32665	32985	32444	32747	32807	32559	32725	
1214	0	32908	32759	32941	32441	32855	32850	32747	32609	
1215	0	32978	32705	32943	32579	32819	32775	32747	32668	
1216	0	32968	32659	32807	32739	32743	32719	32783	32677	
1217	0	32804	32765	32773	32775	32759	32671	32788	32733	
1218	0	32644	32621	32773	32819	32729	32660	33007	32647	
1219	0	32581	32711	32662	32753	32617	32734	32923	32549	
1220	0	32669	32623	32763	32715	32627	32805	32783	32711	
1221	0	32702	32731	32706	32544	32807	32791	32818	32677	
1222	0	32713	32635	32635	32629	32837	32833	32903	32562	
1223	0	32731	32729	32638	32629	32703	32791	32767	32737	
1224	0	32748	32706	32721	32717	32738	32819	32662	32661	
1225	0	32756	32757	32639	32647	32731	32807	32725	32733	
1226	0	32681	32647	32635	32679	32671	32855	32717	32587	
1227	0	32729	32775	32761	32743	32749	32885	32711	32620	
1228	0	32756	32735	32775	32695	32793	32813	32711	32567	
1229	0	32734	32719	32797	32736	32815	32775	32687	32711	
1230	0	32736	32725	32647	32687	32739	32767	32582	32519	
1231	0	32836	32731	32789	32605	32754	32717	32879	32647	
1232	0	32864	32814	32741	32807	32850	32831	33031	32633	
1233	0	32871	32887	32723	32711	32900	32801	33003	32711	
1234	0	32914	32811	32834	32695	32883	32847	33063	32639	
1235	0	32937	32829	32903	32647	32820	32851	32835	32727	
1236	0	32865	32703	32810	32541	32642	32788	32519	32701	
1237	0	32868	32733	32701	32687	32806	32797	32429	32756	
1238	0	32800	32630	32642	32631	32825	32783	32534	32761	
1239	0	32802	32686	32554	32677	32725	32799	32655	32754	
1240	0	32839	32695	32708	32631	32789	32802	32796	32787	
1241	0	32807	32671	32595	32725	32787	32783	32845	32607	
1242	0	32615	32669	32591	32799	32614	32790	32892	32684	
1243	0	32468	32642	32679	32677	32623	32769	32989	32658	
1244	0	32588	32742	32601	32786	32804	32775	33023	32629	
1245	0	32653	32592	32577	32717	32725	32757	32723	32591	
1246	0	32623	32620	32623	32671	32951	32793	32669	32642	
1247	0	32479	32583	32727	32494	32751	32807	32551	32519	
1248	0	32521	32733	32775	32743	32647	32789	32365	32615	
1249	0	32645	32657	32900	32677	32767	32863	32591	32535	
1250	0	32577	32717	32885	32523	32836	32805	32583	32741	
1251	0	32694	32679	32758	32647	32743	32775	32505	32727	
1252	0	32738	32827	32694	32609	32807	32819	32589	32635	
1253	0	32955	32775	32601	32703	32679	32821	32686	32722	
1254	0	32994	32734	32759	32485	32660	32725	32725	32579	
1255	0	32996	32677	32803	32693	32663	32783	32815	32714	
1256	0	32960	32879	32955	32615	32803	32815	32863	32699	
1257	0	32863	32767	32757	32631	32685	32790	32823	32686	
1258	0	32845	32874	32739	32447	32655	32743	32903	32671	
1259	0	32706	32787	32701	32615	32733	32769	32887	32735	
1260	0	32684	32899	32579	32604	32843	32767	32890	32674	
1261	0	32781	32793	32743	32566	32735	32705	32827	32623	
1262	0	32815	32901	32663	32494	32759	32675	32834	32725	
1263	0	32731	32867	32766	32732	32879	32775	32773	32582	
1264	0	32657	32815	32679	32788	32727	32751	32703	32631	
1265	0	32775	32834	32831	32743	32795	32724	32763	32626	
1266	0	32785	32807	32887	32797	32661	32724	32743	32647	
1267	0	32836	32765	32769	32615	32634	32719	32841	32549	
1268	0	32848	32807	32711	32759	32804	32743	32821	32699	
1269	0	32820	32647	32558	32851	32851	32799	32822	32756	
1270	0	32820	32703	32743	32663	32749	32769	32745	32743	
1271	0	32798	32690	32535	32637	32826	32747	32844	32720	
1272	0	32783	32695	32567	32679	32751	32772	32815	32759	
1273	0	32855	32615	32511	32695	32675	32749	32809	32691	
1274	0	32855	32687	32611	32734	32810	32755	32591	32567	
1275	0	32727	32703	32431	32484	32719	32733	32547	32629	
1276	0	32841	32799	32427	32615	32787	32745	32535	32511	
1277	0	32852	32719	32478	32563	32870	32773	32543	32647	
1278	0	32783	32693	32519	32470	32743	32851	32717	32531	
1279	0	32781	32621	32749	32675	32693	32810	32671	32655	
1280	0	32737	32715	32831	32748	32771	32775	32775	32633	
1281	0	32742	32647	32959	32565	32775	32784	32836	32727	
1282	0	32748	32685	32979	32755	32673	32786	32885	32646	
1283	0	32673	32694	32859	32762	32862	32791	32951	32758	
1284	0	32716	32727	32892	32859	32742	32785	32974	32689	
1285	0	32623	32755	32819	32691	32755	32733	33029	32587	
1286	0	32728	32823	32831	32826	32829	32735	32807	32828	
1287	0	32727	32689	32684	32879	32852	32719	32759	32730	
1288	0	32703	32775	32597	32677	32837	32725	32639	32550	
1289	0	32832	32695	32765	32807	32748	32759	32631	32791	
1290	0	32875	32821	32809	32823	32615	32751	32615	32763	
1291	0	32916	32670	32733	32639	32663	32723	32804	32573	
1292	0	32891	32767	32767	32607	32774	32725	32828	32694	
1293	0	32823	32697	32621	32590	32667	32736	32679	32603	
1294	0	32797	32694	32703	32484	32679	32751	32669	32757	
1295	0	32849	32685	32685	32549	32645	32775	32783	32714	
1296	0	32747	32698	32519	32679	32811	32735	32804	32607	
1297	0	32669	32749	32710	32584	32775	32747	32891	32726	
1298	0	32603	32621	32703	32607	32735	32828	32895	32681	
1299	0	32495	32767	32674	32692	32754	32829	32733	32791	
1300	0	32491	32635	32652	32439	32870	32863	32697	32645	
1301	0	32585	32763	32694	32733	32894	32799	32903	32571	
1302	0	32668	32682	32663	32686	32864	32803	32871	32763	
1303	0	32763	32811	32785	32628	32647	32765	32807	32647	
1304	0	32775	32677	32799	32643	32811	32787	32717	32562	
1305	0	32797	32811	32834	32647	32775	32807	32710	32699	
1306	0	32815	32732	32759	32581	32775	32855	32894	32535	
1307	0	32824	32903	32628	32679	32735	32837	32911	32703	
1308	0	32913	32815	32642	32690	32690	32813	32771	32697	
1309	0	32967	32775	32645	32715	32831	32743	32581	32771	
1310	0	32993	32692	32693	32623	32783	32724	32515	32719	
1311	0	32918	32796	32817	32687	32679	32757	32679	32727	
1312	0	32794	32703	32819	32697	32807	32775	32771	32621	
1313	0	32761	32759	32721	32708	32733	32813	32705	32507	
1314	0	32820	32679	32669	32447	32635	32741	32705	32703	
1315	0	32753	32743	32759	32623	32638	32679	32716	32635	
1316	0	32758	32731	32742	32663	32841	32705	32739	32611	
1317	0	32647	32773	32503	32559	32841	32811	32711	32647	
1318	0	32593	32599	32611	32749	32805	32759	32646	32550	
1319	0	32676	32667	32642	32781	32813	32801	32807	32647	
1320	0	32677	32681	32716	32743	32811	32793	33015	32731	
1321	0	32756	32725	32674	32589	32687	32775	33044	32587	
1322	0	32783	32642	32735	32541	32791	32763	32975	32646	
1323	0	32900	32743	32679	32711	32775	32791	32729	32500	
1324	0	32991	32654	32821	32687	32846	32748	32715	32715	
1325	0	32943	32723	32951	32671	32790	32739	32733	32646	
1326	0	32870	32633	32631	32579	32871	32734	32743	32715	
1327	0	32845	32749	32703	32717	32804	32647	32811	32642	
1328	0	32679	32709	32647	32775	32749	32756	32827	32671	
1329	0	32561	32735	32609	32607	32566	32717	32607	32705	
1330	0	32530	32578	32727	32594	32839	32767	32802	32643	
1331	0	32485	32765	32687	32723	32869	32839	32887	32677	
1332	0	32567	32711	32938	32700	32686	32765	32827	32593	
1333	0	32594	32879	32855	32613	32789	32775	32841	32709	
1334	0	32806	32687	32875	32543	32827	32775	32835	32503	
1335	0	32901	32801	32839	32691	32679	32802	32899	32692	
1336	0	32956	32671	32775	32631	32629	32723	32885	32721	
1337	0	32867	32751	32727	32596	32676	32713	32798	32653	
1338	0	32814	32605	32647	32762	32799	32727	32589	32685	
1339	0	32736	32774	32717	32727	32839	32759	32531	32589	
1340	0	32734	32713	32647	32691	32893	32831	32647	32733	
1341	0	32628	32819	32494	32619	32869	32807	32749	32735	
1342	0	32709	32788	32723	32703	32751	32759	32797	32658	
1343	0	32708	32666	32767	32626	32807	32735	32932	32775	
1344	0	32685	32647	32563	32719	32773	32654	32921	32783	
1345	0	32630	32661	32575	32839	32647	32671	32751	32799	
1346	0	32748	32701	32587	32893	32756	32701	32634	32767	
1347	0	32853	32635	32787	32703	32793	32711	32567	32775	
1348	0	32868	32815	32927	32671	32701	32775	32549	32646	
1349	0	32882	32711	32804	32590	32811	32807	32666	32602	
1350	0	32889	32804	32895	32610	32772	32831	32635	32753	
1351	0	32892	32775	32683	32399	32647	32791	32690	32729	
1352	0	32836	32719	32741	32646	32751	32824	32804	32567	
1353	0	32800	32559	32564	32727	32839	32797	32911	32658	
1354	0	32731	32625	32663	32759	32751	32771	32879	32644	
1355	0	32708	32647	32547	32607	32848	32785	32759	32644	
1356	0	32729	32679	32535	32663	32771	32795	32741	32519	
1357	0	32711	32831	32675	32597	32598	32711	32647	32671	
1358	0	32775	32665	32589	32646	32739	32742	32769	32463	
1359	0	32748	32765	32555	32621	32793	32743	32774	32663	
1360	0	32862	32695	32646	32563	32781	32726	32695	32555	
1361	0	32855	32835	32767	32647	32791	32738	32660	32719	
1362	0	32837	32772	32615	32686	32677	32727	32599	32621	
1363	0	32837	32791	32799	32639	32613	32847	32663	32690	
1364	0	32678	32671	32809	32805	32813	32823	32671	32609	
1365	0	32479	32719	32715	32795	32891	32793	32835	32513	
1366	0	32541	32759	32769	32893	32773	32763	32809	32667	
1367	0	32463	32679	32680	32677	32882	32812	32869	32677	
1368	0	32452	32795	32836	32587	32743	32923	32877	32727	
1369	0	32493	32763	32647	32679	32701	32795	32662	32529	
1370	0	32647	32889	32710	32516	32799	32755	32643	32643	
1371	0	32838	32801	32626	32615	32735	32743	32813	32667	
1372	0	32859	32865	32767	32455	32743	32735	32821	32673	
1373	0	32892	32751	32743	32540	32756	32735	32707	32621	
1374	0	32956	32809	32846	32541	32829	32783	32763	32571	
1375	0	32943	32759	32799	32479	32802	32885	32727	32701	
1376	0	32879	32763	32806	32751	32775	32786	32706	32673	
1377	0	32903	32839	32798	32709	32575	32747	32751	32567	
1378	0	32935	32732	32727	32534	32647	32718	32668	32677	
1379	0	33017	32831	32661	32765	32815	32695	32655	32615	
1380	0	32957	32805	32711	32687	32877	32671	32587	32831	
1381	0	32909	32763	32671	32843	32775	32694	32690	32735	
1382	0	32846	32703	32837	32678	32837	32717	32711	32609	
1383	0	32721	32720	32684	32855	32821	32742	32647	32724	
1384	0	32659	32623	32644	32711	32687	32811	32807	32711	
1385	0	32684	32668	32773	32759	32621	32770	32826	32719	
1386	0	32711	32646	32687	32577	32732	32870	32751	32623	
1387	0	32764	32711	32636	32631	32803	32867	32747	32516	
1388	0	32816	32635	32807	32710	32765	32815	32862	32669	
1389	0	32710	32679	32831	32714	32731	32835	32843	32603	
1390	0	32669	32743	32818	32615	32791	32773	32789	32614	
1391	0	32660	32715	32689	32517	32685	32835	32929	32578	
1392	0	32595	32775	32561	32775	32719	32775	32823	32721	
1393	0	32689	32834	32471	32761	32773	32775	32811	32639	
1394	0	32736	32721	32605	32477	32769	32845	32793	32708	
1395	0	32760	32863	32789	32661	32749	32814	32944	32767	
1396	0	32817	32719	32695	32679	32775	32805	33001	32739	
1397	0	32876	32813	32713	32635	32612	32865	32579	32717	
1398	0	32838	32751	32771	32719	32775	32727	32305	32692	
1399	0	32759	32727	32729	32547	32804	32750	32386	32787	
1400	0	32806	32775	32636	32567	32807	32765	32687	32677	
1401	0	32823	32663	32659	32662	32932	32775	32730	32546	
1402	0	32817	32723	32626	32631	32647	32722	32843	32607	
1403	0	32784	32659	32667	32736	32659	32807	32855	32595	
1404	0	32750	32711	32676	32710	32773	32739	32771	32748	
1405	0	32825	32671	32887	32565	32734	32755	32621	32511	
1406	0	32795	32663	32807	32699	32985	32743	32587	32679	
1407	0	32799	32687	32885	32711	32871	32743	32615	32750	
1408	0	32748	32647	32787	32784	32615	32647	32621	32763	
1409	0	32759	32561	32879	32588	32807	32565	32711	32709	
1410	0	32638	32551	32873	32785	32865	32583	32847	32883	
1411	0	32667	32535	32756	32813	32845	32675	32943	32701	
1412	0	32604	32435	32799	32971	32751	32732	32819	32729	
1413	0	32501	32613	32647	32783	32871	32657	32711	32865	
1414	0	32573	32591	32743	32903	32741	32709	32513	32695	
1415	0	32645	32711	32621	32757	32633	32791	32519	32879	
1416	0	32669	32775	32765	32720	32725	32763	32581	32858	
1417	0	32681	32775	32673	32663	32767	32789	32538	32787	
1418	0	32747	32925	32559	32629	32858	32829	32695	32767	
1419	0	32733	32825	32602	32679	32709	32839	32621	32719	
1420	0	32775	32973	32551	32407	32705	32809	32555	32738	
1421	0	32806	32839	32639	32476	32626	32823	32455	32733	
1422	0	32753	32961	32611	32434	32463	32729	32481	32743	
1423	0	32769	32813	32363	32415	32671	32783	32722	32694	
1424	0	32799	32876	32413	32157	32671	32835	32679	32717	
1425	0	32827	32957	32686	32327	32687	32935	32621	32639	
1426	0	32827	32866	32412	32495	32589	32950	32822	32615	
1427	0	32767	32957	32514	32534	32453	32899	32827	32591	
1428	0	32595	32839	32574	32415	32571	32975	32895	32627	
1429	0	32607	32956	32611	32257	32592	32946	33078	32509	
1430	0	32636	32827	32431	32293	32655	32998	32918	32571	
1431	0	32497	33053	32215	32315	32404	33035	32839	32587	
1432	0	32556	32983	32033	32263	32555	33057	32871	32585	
1433	0	32596	32943	32143	32229	32563	33001	32886	32501	
1434	0	32513	32919	32023	32063	32487	32935	32763	32613	
1435	0	32687	32951	32244	32239	32599	32967	32843	32548	
1436	0	32758	33053	32321	32391	32510	32919	32799	32611	
1437	0	32738	33099	32359	32343	32604	32983	32689	32370	
1438	0	32785	33007	32214	32449	32621	32991	32775	32445	
1439	0	32753	33095	32469	32467	32613	32931	32943	32423	
1440	0	32786	32865	32467	32487	32847	32775	33058	32466	
1441	0	32839	32759	32663	32882	32771	32641	33106	32407	
1442	0	32970	32623	32755	33025	33026	32642	33243	32406	
1443	0	32897	32621	32978	33063	33121	32559	33063	32356	
1444	0	32942	32565	33058	33197	33039	32526	33135	32420	
1445	0	33078	32415	33343	33159	33111	32431	33157	32447	
1446	0	33069	32500	33309	33154	33010	32383	32849	32548	
1447	0	33101	32299	33423	33287	33191	32327	32841	32603	
1448	0	33181	32469	33483	33223	33223	32387	32863	32635	
1449	0	33274	32547	33710	33333	33260	32367	32686	32455	
1450	0	33300	32454	33695	33415	33156	32311	32686	32559	
1451	0	33223	32481	33610	33243	33134	32261	32713	32519	
1452	0	33115	32391	33373	33335	33285	32301	33001	32611	
1453	0	33074	32427	33351	33269	33231	32281	32973	32575	
1454	0	33069	32447	33287	33063	33133	32391	32903	32743	
1455	0	32960	32509	33303	33047	33298	32479	32895	32739	
1456	0	32868	32415	33236	33071	33108	32471	32722	32775	
1457	0	32818	32581	33047	33021	32834	32551	32555	32775	
1458	0	32683	32471	33031	32919	33021	32509	32319	32647	
1459	0	32584	32527	32895	32835	32901	32615	32409	32783	
1460	0	32571	32509	33029	32879	32879	32659	32481	32767	
1461	0	32599	32647	32767	32775	32783	32711	32470	32828	
1462	0	32572	32743	32721	32765	32903	32743	32515	32748	
1463	0	32625	32684	32545	32420	32863	32818	32543	32900	
1464	0	32535	32703	32510	32531	32662	32839	32391	32911	
1465	0	32521	32687	32293	32497	32647	32863	32298	32947	
1466	0	32613	32717	32419	32617	32580	32823	32327	32818	
1467	0	32673	32719	32370	32390	32471	32923	32334	32686	
1468	0	32602	32771	32465	32439	32469	32945	32423	32751	
1469	0	32595	32726	32333	32468	32575	32975	32599	32735	
1470	0	32591	32708	32143	32287	32551	32945	32711	32849	
1471	0	32526	32823	32295	32423	32495	32894	32767	32791	
1472	0	32565	32723	32187	32431	32551	32989	32871	32627	
1473	0	32615	32834	32459	32301	32447	32938	32838	32847	
1474	0	32585	32839	32412	32315	32558	32894	32742	32647	
1475	0	32647	32735	32605	32519	32605	32902	32637	32751	
1476	0	32565	32853	32599	32623	32598	32903	32569	32647	
1477	0	32524	32827	32630	32487	32647	32879	32595	32623	
1478	0	32613	32903	32638	32433	32570	32899	32775	32667	
1479	0	32673	32839	32647	32541	32703	32825	32807	32594	
1480	0	32711	32891	32687	32620	32765	32783	32918	32671	
1481	0	32732	32711	32632	32503	32789	32818	32963	32731	
1482	0	32707	32821	32719	32690	32757	32775	32980	32586	
1483	0	32682	32691	32663	32639	32842	32801	32962	32751	
1484	0	32761	32807	32699	32647	32775	32775	32887	32647	
1485	0	32834	32703	32847	32450	32658	32759	32919	32715	
1486	0	32885	32743	32685	32631	32743	32747	32885	32631	
1487	0	32815	32711	32687	32645	32813	32722	32914	32695	
1488	0	32810	32831	32652	32551	32772	32775	33030	32543	
1489	0	32882	32703	32829	32359	32892	32835	32917	32594	
1490	0	32843	32861	32749	32567	32711	32887	32839	32543	
1491	0	32864	32789	32719	32583	32679	32803	32844	32690	
1492	0	32870	32751	32643	32531	32599	32799	32855	32771	
1493	0	32845	32643	32665	32819	32775	32727	32839	32726	
1494	0	32813	32751	32756	32775	32815	32717	32615	32663	
1495	0	32762	32583	32801	32869	32702	32692	32463	32567	
1496	0	32841	32733	32835	32642	32790	32735	32247	32623	
1497	0	32742	32717	32699	32719	32775	32671	32356	32551	
1498	0	32712	32795	32647	32775	32717	32775	32641	32718	
1499	0	32723	32783	32642	32861	32692	32783	32695	32683	
1500	0	32685	32799	32676	32647	32803	32791	32811	32813	
1501	0	32805	32599	32703	32735	32811	32775	32772	32657	
1502	0	32846	32674	32749	32767	32827	32765	32997	32641	
1503	0	32925	32685	32703	32559	32719	32754	32999	32727	
1504	0	32841	32823	32887	32711	32862	32724	32983	32711	
1505	0	32894	32789	32791	32591	32755	32747	32811	32599	
1506	0	32890	32854	32709	32667	32690	32703	32709	32627	
1507	0	32815	32679	32679	32391	32805	32758	32643	32583	
1508	0	32898	32773	32567	32555	32670	32783	32708	32727	
1509	0	32797	32631	32666	32595	32711	32823	32765	32579	
1510	0	32704	32722	32679	32559	32798	32755	32863	32655	
1511	0	32505	32711	32391	32713	32707	32775	32959	32788	
1512	0	32519	32635	32531	32725	32743	32703	32815	32655	
1513	0	32460	32743	32517	32620	32933	32671	32785	32643	
1514	0	32504	32635	32410	32715	32903	32870	32975	32685	
1515	0	32692	32771	32583	32691	32685	32836	32898	32747	
1516	0	32764	32717	32622	32549	32661	32739	32698	32767	
1517	0	32827	32733	32735	32598	32627	32711	32461	32662	
1518	0	32900	32839	32803	32703	32785	32669	32340	32647	
1519	0	32951	32804	32805	32539	32869	32676	32351	32647	
1520	0	33011	32820	32711	32880	32771	32698	32567	32790	
1521	0	32993	32791	32731	32839	32847	32731	32806	32743	
1522	0	32918	32863	32615	32589	32847	32812	32887	32647	
1523	0	32822	32742	32671	32709	32838	32757	32750	32607	
1524	0	32742	32804	32799	32679	32903	32828	32701	32692	
1525	0	32749	32701	32773	32677	32771	32749	32733	32663	
1526	0	32652	32733	32863	32713	32700	32739	32798	32727	
1527	0	32626	32839	32927	32805	32743	32813	32837	32627	
1528	0	32669	32719	32845	32689	32679	32743	32707	32743	
1529	0	32646	32711	32838	32738	32816	32789	32671	32595	
1530	0	32679	32647	32835	32591	32847	32849	32756	32603	
1531	0	32643	32756	32955	32495	32701	32863	32881	32510	
1532	0	32718	32694	32775	32615	32775	32783	32927	32709	
1533	0	32647	32819	32722	32585	32695	32743	32827	32678	
1534	0	32668	32692	32742	32597	32572	32735	32827	32569	
1535	0	32806	32663	32775	32547	32735	32735	32775	32637	
1536	0	32818	32687	32743	32685	32782	32734	32719	32535	
1537	0	32911	32855	32703	32661	32659	32783	32679	32715	
1538	0	32844	32699	32503	32660	32765	32739	32683	32759	
1539	0	32766	32711	32506	32791	32846	32755	32708	32607	
1540	0	32786	32655	32623	32767	32829	32803	32638	32733	
1541	0	32822	32725	32581	32613	32623	32706	32633	32687	
1542	0	32945	32519	32659	32699	32711	32655	32721	32743	
1543	0	33023	32583	32751	32647	32785	32700	32797	32627	
1544	0	32933	32686	32642	32605	32799	32743	32901	32573	
1545	0	32836	32642	32691	32660	32775	32748	32877	32559	
1546	0	32839	32709	32775	32645	32739	32804	32797	32615	
1547	0	32775	32575	32895	32699	32775	32838	32725	32639	
1548	0	32623	32767	32767	32639	32861	32727	32676	32807	
1549	0	32507	32693	32647	32687	32887	32701	32714	32659	
1550	0	32430	32826	32743	32726	32831	32719	32659	32687	
1551	0	32476	32823	32783	32599	32671	32813	32663	32717	
1552	0	32551	32828	32685	32703	32711	32773	32629	32698	
1553	0	32581	32695	32738	32703	32853	32690	32695	32622	
1554	0	32679	32855	32638	32598	32854	32702	32819	32775	
1555	0	32839	32887	32635	32657	32850	32743	32819	32729	
1556	0	32745	32681	32637	32751	32903	32717	32743	32647	
1557	0	32797	32793	32519	32604	32703	32751	32603	32684	
1558	0	32877	32804	32647	32579	32687	32799	32593	32599	
1559	0	32830	32775	32793	32636	32607	32755	32721	32751	
1560	0	32814	32839	32799	32775	32727	32705	32773	32694	
1561	0	32802	32775	32823	32619	32775	32687	32846	32815	
1562	0	32719	32853	32642	32566	32714	32798	32903	32681	
1563	0	32772	32775	32795	32559	32818	32846	33053	32719	
1564	0	32817	32783	32741	32659	32899	32871	32861	32725	
1565	0	32895	32595	32839	32489	32685	32838	32663	32639	
1566	0	32865	32795	32843	32679	32831	32803	32541	32551	
1567	0	32790	32647	32671	32715	32805	32791	32738	32639	
1568	0	32783	32711	32665	32885	32793	32767	32791	32525	
1569	0	32892	32647	32717	32803	32747	32682	32790	32685	
1570	0	32890	32615	32759	32711	32839	32734	32717	32691	
1571	0	32773	32567	32755	32767	32698	32719	32719	32730	
1572	0	32753	32723	32631	32626	32667	32773	32685	32585	
1573	0	32783	32726	32759	32751	32711	32799	32911	32527	
1574	0	32839	32823	32774	32596	32801	32741	32859	32685	
1575	0	32845	32738	32671	32706	32775	32775	32786	32621	
1576	0	32820	32826	32723	32581	32871	32735	32748	32671	
1577	0	32820	32717	32802	32583	32775	32783	32746	32724	
1578	0	32589	32758	32754	32591	32604	32741	32815	32669	
1579	0	32607	32639	32647	32667	32739	32815	32786	32701	
1580	0	32614	32788	32681	32527	32869	32823	32887	32639	
1581	0	32540	32775	32682	32684	32839	32803	32818	32755	
1582	0	32521	32807	32734	32711	32839	32839	32789	32699	
1583	0	32584	32661	32839	32540	32765	32855	32735	32595	
1584	0	32712	32687	32707	32887	32655	32775	32643	32687	
1585	0	32749	32647	32619	32895	32711	32743	32703	32675	
1586	0	32815	32543	32707	32714	32677	32775	32663	32591	
1587	0	32948	32623	32822	32899	32783	32755	32725	32647	
1588	0	32836	32535	32951	32853	32844	32735	32743	32675	
1589	0	32729	32719	32788	32563	32842	32599	32775	32597	
1590	0	32723	32701	32655	32599	32847	32695	32857	32631	
1591	0	32757	32791	32636	32599	32775	32771	32795	32631	
1592	0	32757	32727	32647	32513	32687	32821	32693	32739	
1593	0	32825	32839	32471	32415	32721	32765	32615	32671	
1594	0	32887	32735	32576	32562	32740	32823	32694	32487	
1595	0	32892	32715	32559	32697	32759	32721	32717	32703	
1596	0	32794	32707	32547	32603	32879	32683	32858	32638	
1597	0	32845	32727	32671	32673	32853	32876	32807	32564	
1598	0	32812	32815	32807	32603	32799	32843	32695	32670	
1599	0	32797	32834	32646	32699	32855	32791	32659	32709	
1600	0	32764	32837	32643	32796	32759	32795	32679	32581	
1601	0	32816	32743	32523	32703	32831	32839	32708	32669	
1602	0	32880	32839	32714	32673	32815	32715	32738	32635	
1603	0	32844	32742	32718	32631	32715	32703	32836	32829	
1604	0	32834	32743	32599	32775	32681	32762	32862	32735	
1605	0	32809	32711	32775	32635	32857	32793	32859	32647	
1606	0	32774	32775	32869	32541	32809	32813	32919	32647	
1607	0	32785	32710	33015	32596	32751	32839	32847	32573	
1608	0	32679	32773	32998	32663	32746	32773	32767	32757	
1609	0	32640	32739	32759	32647	32791	32751	32829	32694	
1610	0	32721	32827	32793	32543	32727	32759	32775	32679	
1611	0	32721	32655	32877	32629	32817	32711	32745	32572	
1612	0	32756	32757	32839	32557	32733	32767	32684	32772	
1613	0	32733	32670	32743	32677	32827	32799	32787	32727	
1614	0	32735	32727	32663	32642	32575	32807	32899	32603	
1615	0	32730	32692	32438	32789	32783	32786	32813	32733	
1616	0	32642	32747	32553	32629	32775	32764	32815	32594	
1617	0	32618	32623	32682	32722	32807	32686	32741	32653	
1618	0	32624	32677	32755	32823	32799	32674	32698	32615	
1619	0	32647	32575	32719	32715	32855	32647	32747	32700	
1620	0	32713	32685	32507	32670	32765	32761	32685	32711	
1621	0	32713	32551	32671	32647	32709	32830	32645	32772	
1622	0	32688	32663	32637	32695	32725	32743	32623	32723	
1623	0	32748	32607	32589	32595	32703	32738	32557	32519	
1624	0	32764	32683	32679	32742	32615	32809	32515	32671	
1625	0	32839	32655	32839	32711	32559	32700	32693	32707	
1626	0	32932	32836	32899	32607	32715	32691	32855	32711	
1627	0	32966	32738	32787	32658	32647	32869	32973	32675	
1628	0	32871	32823	32754	32543	32841	32811	33071	32703	
1629	0	32764	32739	32547	32697	32831	32791	32919	32825	
1630	0	32809	32743	32661	32699	32788	32699	32855	32718	
1631	0	32706	32691	32639	32583	32773	32731	32850	32594	
1632	0	32756	32759	32783	32591	32749	32839	32799	32719	
1633	0	32838	32756	32813	32646	32817	32795	32695	32759	
1634	0	32788	32835	32715	32743	32719	32851	32583	32751	
1635	0	32881	32786	32734	32607	32723	32841	32565	32745	
1636	0	32909	32775	32642	32773	32815	32709	32611	32551	
1637	0	32937	32807	32587	32711	32827	32675	32663	32595	
1638	0	32840	32725	32612	32732	32803	32679	32713	32543	
1639	0	32809	32838	32706	32647	32823	32797	32759	32739	
1640	0	32833	32737	32689	32732	32893	32743	32935	32751	
1641	0	32788	32759	32671	32851	32807	32775	32691	32675	
1642	0	32679	32639	32773	32647	32807	32695	32575	32677	
1643	0	32798	32748	32903	32736	32655	32790	32679	32567	
1644	0	32839	32667	32743	32703	32706	32759	32691	32755	
1645	0	32903	32706	32658	32583	32695	32769	32740	32693	
1646	0	32868	32695	32639	32517	32747	32709	32812	32599	
1647	0	32702	32815	32687	32447	32815	32756	32745	32675	
1648	0	32615	32682	32687	32763	32829	32751	32739	32693	
1649	0	32486	32719	32591	32663	32771	32851	32851	32811	
1650	0	32396	32647	32519	32708	32695	32809	32943	32671	
1651	0	32372	32567	32621	32733	32773	32775	33053	32647	
1652	0	32438	32543	32557	32570	32703	32729	32877	32663	
1653	0	32463	32727	32603	32705	32685	32788	32790	32659	
1654	0	32595	32573	32685	32693	32839	32763	32815	32738	
1655	0	32799	32687	32733	32775	32707	32771	32717	32747	
1656	0	32962	32668	32821	32551	32783	32818	32723	32783	
1657	0	32898	32767	32804	32695	32727	32739	32747	32655	
1658	0	32818	32852	32775	32588	32721	32695	32663	32450	
1659	0	32841	32903	32695	32633	32799	32819	32647	32621	
1660	0	32829	32903	32807	32485	32663	32742	32786	32511	
1661	0	32876	32775	32799	32571	32791	32787	32723	32635	
1662	0	32903	32877	32849	32559	32762	32731	32775	32566	
1663	0	32764	32831	32599	32623	32695	32677	32759	32708	
1664	0	32615	32895	32628	32359	32659	32628	32839	32605	
1665	0	32633	32751	32629	32541	32807	32679	32815	32719	
1666	0	32570	32817	32819	32719	32853	32722	32699	32598	
1667	0	32727	32770	32871	32647	32833	32711	32691	32679	
1668	0	32729	32716	32820	32599	32685	32767	32404	32611	
1669	0	32812	32635	32852	32643	32775	32738	32422	32751	
1670	0	32959	32722	32841	32683	32719	32769	32572	32575	
1671	0	32928	32687	32773	32614	32695	32743	32759	32739	
1672	0	32968	32806	32681	32822	32743	32785	32839	32730	
1673	0	32921	32612	32479	32854	32761	32787	32806	32749	
1674	0	32948	32767	32548	32819	32795	32765	32749	32726	
1675	0	32833	32647	32642	32655	32775	32831	32615	32771	
1676	0	32803	32647	32692	32771	32622	32863	32742	32707	
1677	0	32818	32695	32636	32719	32806	32875	32775	32708	
1678	0	32783	32623	32822	32863	32829	32740	32754	32607	
1679	0	32810	32725	32820	32687	32866	32743	32903	32639	
1680	0	32902	32559	32916	32695	32903	32721	33007	32643	
1681	0	32756	32723	32868	32685	32699	32775	33052	32553	
1682	0	32754	32639	32807	32731	32837	32711	32959	32615	
1683	0	32803	32629	32631	32574	32755	32687	32786	32540	
1684	0	32817	32767	32790	32477	32751	32731	32709	32623	
1685	0	32764	32631	32691	32641	32525	32773	32767	32516	
1686	0	32690	32679	32579	32703	32748	32703	32743	32647	
1687	0	32673	32601	32647	32739	32802	32687	32641	32571	
1688	0	32671	32657	32547	32500	32764	32662	32567	32711	
1689	0	32711	32558	32662	32708	32797	32757	32516	32735	
1690	0	32806	32722	32697	32675	32771	32783	32706	32759	
1691	0	32785	32647	32515	32759	32703	32785	32783	32743	
1692	0	32735	32703	32647	32591	32658	32851	32943	32668	
1693	0	32773	32666	32687	32615	32791	32815	32983	32717	
1694	0	32751	32671	32711	32679	32927	32801	32915	32775	
1695	0	32726	32709	32549	32767	32859	32754	32588	32725	
1696	0	32758	32743	32783	32757	32681	32775	32519	32621	
1697	0	32725	32754	32815	32587	32719	32799	32519	32621	
1698	0	32631	32868	32663	32678	32855	32749	32473	32691	
1699	0	32687	32756	32647	32775	32793	32725	32477	32695	
1700	0	32647	32827	32635	32523	32830	32735	32549	32742	
1701	0	32677	32661	32731	32665	32791	32690	32583	32595	
1702	0	32679	32765	32719	32686	32791	32803	32511	32473	
1703	0	32693	32722	32727	32524	32738	32807	32753	32670	
1704	0	32730	32771	32792	32644	32647	32855	32791	32547	
1705	0	32802	32695	32766	32647	32799	32827	32916	32686	
1706	0	32884	32804	32919	32711	32791	32757	32933	32732	
1707	0	32877	32711	32795	32481	32773	32790	32863	32545	
1708	0	32863	32767	32766	32719	32743	32786	32915	32724	
1709	0	32898	32727	32967	32711	32807	32711	32835	32739	
1710	0	32751	32775	32737	32805	32669	32764	32671	32775	
1711	0	32743	32773	32646	32646	32677	32775	32519	32703	
1712	0	32765	32647	32647	32711	32682	32655	32666	32737	
1713	0	32775	32753	32687	32759	32799	32691	32613	32692	
1714	0	32722	32677	32647	32535	32799	32741	32586	32716	
1715	0	32801	32735	32818	32591	32737	32819	32943	32575	
1716	0	32706	32647	32599	32641	32831	32739	32961	32751	
1717	0	32708	32756	32535	32734	32889	32738	32871	32699	
1718	0	32793	32691	32579	32583	32645	32705	32822	32578	
1719	0	32847	32679	32751	32788	32775	32727	32791	32705	
1720	0	32861	32641	32775	32717	32863	32740	32613	32735	
1721	0	32781	32715	32640	32743	32821	32663	32537	32639	
1722	0	32731	32643	32555	32687	32835	32711	32775	32627	
1723	0	32854	32726	32751	32795	32775	32831	32799	32719	
1724	0	32894	32691	32743	32879	32738	32871	32869	32683	
1725	0	32804	32735	32783	32605	32671	32850	32850	32717	
1726	0	32692	32695	32835	32743	32791	32863	32757	32647	
1727	0	32694	32543	32771	32809	32799	32773	32699	32773	
1728	0	32640	32574	32551	32620	32766	32681	32743	32641	
1729	0	32413	32594	32543	32847	32631	32758	32572	32575	
1730	0	32391	32683	32786	32719	32609	32887	32543	32751	
1731	0	32492	32603	32823	32555	32795	32807	32399	32698	
1732	0	32704	32763	32815	32515	32830	32754	32589	32597	
1733	0	32822	32679	32831	32676	32803	32775	32662	32644	
1734	0	32761	32839	32686	32507	32775	32773	32721	32630	
1735	0	32821	32861	32804	32415	32691	32784	32783	32695	
1736	0	32804	32879	32803	32575	32661	32793	33087	32617	
1737	0	32837	32807	32723	32633	32847	32761	33215	32401	
1738	0	32885	32899	32767	32615	32847	32743	32891	32573	
1739	0	32953	32749	32607	32561	32855	32695	32711	32507	
1740	0	33015	32831	32693	32397	32775	32690	32815	32707	
1741	0	32980	32647	32503	32678	32667	32675	32849	32749	
1742	0	32837	32758	32635	32743	32772	32775	32879	32719	
1743	0	32879	32685	32786	32821	32871	32775	32789	32687	
1744	0	32797	32742	32799	32607	32682	32783	32564	32597	
1745	0	32818	32512	32711	32827	32747	32871	32694	32699	
1746	0	32703	32643	32662	32639	32719	32759	32837	32683	
1747	0	32585	32603	32839	32687	32647	32759	32835	32786	
1748	0	32754	32725	32730	32479	32763	32812	32823	32711	
1749	0	32735	32787	32743	32641	32893	32795	32773	32823	
1750	0	32716	32691	32605	32742	32843	32836	32867	32743	
1751	0	32738	32767	32677	32582	32901	32767	32903	32607	
1752	0	32765	32767	32674	32625	32844	32763	32795	32726	
1753	0	32724	32871	32690	32573	32644	32823	32771	32655	
1754	0	32762	32787	32749	32711	32820	32852	32708	32604	
1755	0	32751	32853	32683	32813	32757	32783	32615	32724	
1756	0	32734	32903	32647	32647	32763	32677	32639	32775	
1757	0	32662	32931	32519	32795	32629	32695	32764	32865	
1758	0	32662	32873	32263	32756	32647	32740	32871	32731	
1759	0	32652	32721	32485	32743	32691	32797	32773	32595	
1760	0	32724	32812	32634	32551	32658	32829	32773	32739	
1761	0	32758	32767	32602	32589	32671	32850	32811	32714	
1762	0	32860	32739	32823	32735	32638	32857	32853	32559	
1763	0	32863	32677	32831	32573	32788	32695	32910	32625	
1764	0	32812	32751	32775	32711	32855	32710	32819	32660	
1765	0	32812	32732	32887	32783	32863	32785	32823	32519	
1766	0	32767	32591	32931	32687	32870	32789	32813	32695	
1767	0	32721	32623	32839	32663	32766	32796	32818	32735	
1768	0	32708	32591	32799	32498	32775	32806	32899	32594	
1769	0	32678	32630	32787	32623	32859	32735	32973	32658	
1770	0	32630	32711	32758	32711	32914	32711	33031	32733	
1771	0	32685	32691	32790	32517	32743	32725	32924	32698	
1772	0	32792	32835	32679	32639	32753	32844	32953	32570	
1773	0	32781	32751	32640	32619	32890	32851	32932	32635	
1774	0	32679	32759	32621	32480	32757	32715	32818	32647	
1775	0	32719	32743	32605	32669	32727	32769	32775	32626	
1776	0	32695	32663	32540	32587	32679	32671	32655	32668	
1777	0	32733	32743	32695	32577	32615	32727	32605	32765	
1778	0	32819	32647	32659	32671	32671	32743	32631	32595	
1779	0	32868	32715	32767	32807	32815	32759	32670	32663	
1780	0	32771	32719	32816	32623	32807	32727	32735	32615	
1781	0	32820	32743	32594	32719	32901	32751	32710	32683	
1782	0	32817	32735	32687	32647	32775	32839	32719	32671	
1783	0	32903	32830	32743	32706	32702	32839	32893	32717	
1784	0	32861	32775	32823	32595	32687	32837	32851	32775	
1785	0	32844	32715	32641	32805	32839	32803	32707	32607	
1786	0	32765	32719	32679	32773	32775	32854	32815	32675	
1787	0	32750	32663	32835	32727	32845	32799	32837	32566	
1788	0	32731	32630	32709	32589	32642	32810	32729	32686	
1789	0	32760	32621	32684	32701	32655	32765	32582	32510	
1790	0	32844	32695	32632	32621	32751	32763	32775	32667	
1791	0	32784	32822	32655	32601	32753	32807	32826	32698	
1792	0	32799	32877	32647	32675	32790	32807	32847	32699	
1793	0	32852	32819	32647	32607	32855	32799	32823	32638	
1794	0	32783	32819	32828	32719	32647	32773	32839	32545	
1795	0	32691	32838	32807	32558	32747	32763	32806	32646	
1796	0	32599	32669	32717	32727	32788	32815	32859	32723	
1797	0	32602	32694	32775	32629	32735	32771	32631	32687	
1798	0	32646	32854	32557	32681	32863	32695	32548	32735	
1799	0	32674	32900	32487	32711	32901	32690	32647	32590	
1800	0	32699	32751	32477	32663	32694	32727	32663	32739	
1801	0	32802	32871	32643	32503	32660	32756	32717	32681	
1802	0	32855	32727	32727	32715	32646	32775	32765	32583	
1803	0	32847	32773	32839	32769	32695	32799	32677	32519	
1804	0	32775	32646	32642	32621	32845	32855	32596	32646	
1805	0	32710	32726	32702	32675	32775	32853	32695	32475	
1806	0	32772	32647	32711	32757	32763	32847	32707	32687	
1807	0	32647	32679	32687	32740	32841	32766	32732	32743	
1808	0	32640	32519	32791	32533	32687	32729	32839	32644	
1809	0	32692	32647	32822	32631	32659	32735	32951	32685	
1810	0	32746	32668	32852	32601	32847	32751	33031	32641	
1811	0	32734	32619	32751	32525	32811	32807	32967	32732	
1812	0	32785	32739	32775	32690	32791	32838	32988	32685	
1813	0	32880	32735	32775	32676	32791	32823	33075	32587	
1814	0	32839	32589	32818	32585	32765	32790	33019	32679	
1815	0	32836	32619	32822	32823	32823	32787	32775	32604	
1816	0	32823	32698	32811	32851	32828	32635	32551	32770	
1817	0	32884	32775	32781	32689	32706	32715	32528	32735	
1818	0	32856	32733	32783	32713	32609	32805	32524	32611	
1819	0	32783	32663	32677	32763	32619	32788	32559	32763	
1820	0	32751	32709	32643	32598	32827	32767	32695	32583	
1821	0	32757	32727	32501	32829	32815	32775	32660	32519	
1822	0	32772	32658	32590	32658	32869	32783	32671	32675	
1823	0	32826	32855	32687	32535	32855	32839	32631	32791	
1824	0	32854	32785	32821	32623	32612	32761	32701	32632	
1825	0	32917	32675	32721	32599	32671	32763	32485	32647	
1826	0	32714	32669	32609	32601	32891	32766	32607	32611	
1827	0	32715	32823	32741	32467	32887	32730	32773	32738	
1828	0	32717	32803	32727	32671	32791	32847	32919	32669	
1829	0	32666	32703	32807	32701	32775	32847	32839	32687	
1830	0	32573	32870	32762	32449	32689	32791	32917	32707	
1831	0	32628	32805	32679	32580	32667	32742	32948	32534	
1832	0	32757	32822	32765	32643	32691	32735	32937	32690	
1833	0	32842	32903	32763	32460	32837	32695	32687	32795	
1834	0	32836	32858	32564	32732	32775	32799	32531	32799	
1835	0	32855	32794	32497	32748	32797	32749	32775	32769	
1836	0	32761	32815	32497	32755	32663	32799	32839	32783	
1837	0	32740	32839	32811	32626	32605	32745	32890	32615	
1838	0	32714	32799	32796	32775	32695	32764	32903	32509	
1839	0	32705	32617	32790	32862	32815	32821	32847	32623	
1840	0	32779	32727	32850	32773	32797	32791	32899	32647	
1841	0	32812	32647	32709	32815	32730	32787	33027	32742	
1842	0	32772	32559	32639	32803	32796	32735	33031	32675	
1843	0	32764	32692	32489	32911	32775	32719	32839	32553	
1844	0	32646	32630	32551	32567	32647	32791	32667	32611	
1845	0	32756	32556	32647	32756	32660	32775	32615	32635	
1846	0	32809	32669	32671	32669	32739	32791	32583	32605	
1847	0	32761	32631	32603	32429	32749	32827	32511	32647	
1848	0	32753	32611	32487	32607	32705	32775	32724	32551	
1849	0	32837	32590	32683	32594	32799	32775	32775	32646	
1850	0	32749	32703	32763	32647	32789	32743	32951	32623	
1851	0	32714	32821	32647	32517	32775	32721	32922	32676	
1852	0	32598	32668	32732	32615	32847	32739	32938	32663	
1853	0	32457	32791	32847	32607	32807	32719	32823	32591	
1854	0	32576	32855	32692	32594	32739	32750	32583	32644	
1855	0	32781	32741	32767	32679	32873	32799	32566	32567	
1856	0	32726	32749	32923	32673	32869	32807	32455	32788	
1857	0	32699	32775	32901	32775	32623	32825	32299	32739	
1858	0	32777	32847	32647	32559	32605	32819	32351	32831	
1859	0	32914	32763	32828	32711	32814	32790	32511	32693	
1860	0	32788	32851	32729	32775	32917	32759	32775	32551	
1861	0	32773	32799	32750	32571	32807	32807	32783	32699	
1862	0	32818	32759	32738	32695	32725	32765	32729	32509	
1863	0	32810	32706	32655	32719	32703	32815	32775	32603	
1864	0	32807	32839	32767	32774	32681	32641	32854	32678	
1865	0	32775	32765	32639	32615	32742	32709	33057	32690	
1866	0	32771	32543	32717	32727	32786	32809	32943	32708	
1867	0	32839	32647	32791	32621	32765	32790	32839	32598	
1868	0	32908	32676	32698	32599	32738	32698	32724	32665	
1869	0	32852	32667	32723	32455	32814	32743	32876	32595	
1870	0	32793	32695	32647	32645	32566	32797	32879	32737	
1871	0	32791	32675	32669	32690	32745	32815	32871	32749	
1872	0	32822	32701	32643	32615	32802	32815	32861	32629	
1873	0	32775	32629	32559	32563	32759	32719	32722	32607	
1874	0	32799	32751	32802	32595	32847	32761	32751	32495	
1875	0	32683	32701	32767	32670	32709	32799	32711	32583	
1876	0	32727	32759	32813	32642	32817	32789	32586	32559	
1877	0	32822	32791	32853	32743	32815	32807	32700	32748	
1878	0	32796	32775	32706	32775	32870	32735	32687	32735	
1879	0	32786	32754	32759	32708	32757	32723	32708	32607	
1880	0	32862	32812	32758	32738	32791	32713	32762	32743	
1881	0	32903	32807	32823	32723	32846	32733	32639	32711	
1882	0	32856	32743	32711	32764	32607	32691	32503	32791	
1883	0	32782	32583	32611	32506	32775	32745	32643	32751	
1884	0	32769	32661	32566	32631	32743	32762	32647	32621	
1885	0	32710	32639	32647	32687	32858	32679	32751	32647	
1886	0	32719	32647	32691	32705	32715	32743	32831	32497	
1887	0	32741	32647	32666	32642	32636	32731	32741	32646	
1888	0	32738	32609	32717	32685	32835	32727	32615	32582	
1889	0	32566	32731	32658	32765	32759	32799	32679	32711	
1890	0	32519	32638	32579	32747	32814	32738	32788	32679	
1891	0	32621	32676	32548	32631	32621	32673	33030	32708	
1892	0	32763	32775	32677	32647	32843	32709	32969	32591	
1893	0	32883	32823	32731	32815	32759	32735	32998	32655	
1894	0	32753	32701	32871	32763	32839	32691	32815	32662	
1895	0	32703	32733	32927	32718	32630	32770	32583	32743	
1896	0	32524	32866	32769	32495	32820	32679	32623	32583	
1897	0	32492	32767	32683	32549	32772	32785	32605	32655	
1898	0	32543	32827	32749	32583	32821	32775	32600	32647	
1899	0	32512	32775	32711	32659	32820	32804	32722	32715	
1900	0	32760	32890	32881	32559	32695	32834	32804	32655	
1901	0	32969	32887	32839	32671	32820	32797	32819	32719	
1902	0	33042	32738	32791	32637	32807	32852	32883	32647	
1903	0	33015	32668	32727	32647	32839	32775	32763	32557	
1904	0	32935	32788	32683	32469	32667	32793	32870	32661	
1905	0	32869	32879	32615	32535	32845	32879	32915	32560	
1906	0	32768	32870	32663	32671	32810	32847	32903	32673	
1907	0	32711	32655	32587	32735	32782	32765	32892	32739	
1908	0	32813	32647	32577	32757	32723	32709	32511	32769	
1909	0	32801	32671	32695	32583	32655	32692	32277	32669	
1910	0	32842	32641	32487	32681	32801	32679	32535	32546	
1911	0	32791	32527	32591	32671	32795	32741	32507	32763	
1912	0	32933	32642	32785	32545	32809	32759	32802	32731	
1913	0	32921	32635	32886	32662	32765	32758	32856	32583	
1914	0	32852	32615	32735	32699	32827	32721	32903	32679	
1915	0	32775	32726	32736	32709	32694	32765	33007	32739	
1916	0	32775	32612	32731	32629	32643	32775	32898	32626	
1917	0	32714	32644	32563	32703	32775	32727	32617	32698	
1918	0	32715	32743	32679	32767	32775	32775	32495	32753	
1919	0	32679	32775	32647	32635	32825	32815	32595	32599	
1920	0	32658	32871	32619	32692	32743	32802	32738	32709	
1921	0	32749	32893	32767	32627	32687	32839	32815	32751	
1922	0	32743	32732	32773	32643	32734	32797	32799	32594	
1923	0	32754	32932	32729	32685	32820	32731	32813	32689	
1924	0	32766	32887	32743	32663	32807	32635	32788	32727	
1925	0	32769	32708	32675	32823	32667	32717	32671	32813	
1926	0	32793	32815	32759	32806	32615	32732	32614	32685	
1927	0	32903	32820	32903	32807	32749	32756	32548	32551	
1928	0	32855	32647	32817	32679	32820	32847	32879	32638	
1929	0	32772	32711	32765	32684	32711	32852	32812	32551	
1930	0	32815	32687	32634	32719	32743	32869	32820	32743	
1931	0	32780	32519	32663	32598	32837	32807	32919	32687	
1932	0	32771	32613	32731	32597	32647	32887	32941	32701	
1933	0	32700	32655	32693	32567	32791	32859	32982	32612	
1934	0	32550	32611	32759	32583	32885	32757	32973	32829	
1935	0	32414	32660	32711	32639	32863	32749	32791	32767	
1936	0	32505	32724	32751	32711	33003	32807	32765	32645	
1937	0	32561	32729	32795	32757	32767	32793	32829	32729	
1938	0	32647	32655	32844	32551	32627	32831	32611	32563	
1939	0	32740	32796	32887	32743	32699	32751	32647	32683	
1940	0	32785	32775	32541	32631	32761	32739	32701	32710	
1941	0	32854	32739	32535	32575	32855	32775	32819	32809	
1942	0	32913	32775	32531	32445	32811	32789	32599	32733	
1943	0	32965	32839	32630	32598	32611	32823	32486	32722	
1944	0	32886	32783	32519	32579	32727	32775	32555	32669	
1945	0	32806	32634	32637	32827	32701	32791	32636	32559	
1946	0	32718	32619	32597	32559	32799	32719	32725	32628	
1947	0	32695	32670	32759	32807	32828	32815	32935	32663	
1948	0	32746	32631	32818	32735	32743	32775	33099	32735	
1949	0	32726	32551	32871	32637	32734	32783	32867	32703	
1950	0	32724	32670	32790	32502	32822	32663	32687	32719	
1951	0	32717	32613	32803	32673	32711	32764	32775	32687	
1952	0	32746	32553	32716	32743	32727	32729	32767	32553	
1953	0	32743	32551	32681	32764	32829	32742	32847	32642	
1954	0	32719	32692	32791	32775	32749	32809	32869	32591	
1955	0	32761	32703	32803	32783	32605	32783	32742	32731	
1956	0	32787	32623	32815	32732	32613	32847	32775	32627	
1957	0	32743	32765	32706	32775	32669	32850	32766	32573	
1958	0	32773	32763	32771	32660	32833	32861	32955	32663	
1959	0	32838	32765	32636	32743	32893	32830	33015	32645	
1960	0	32836	32823	32621	32695	32692	32847	32710	32727	
1961	0	32825	32711	32721	32684	32775	32739	32516	32639	
1962	0	32844	32662	32767	32743	32871	32732	32599	32447	
1963	0	32797	32755	32767	32598	32775	32749	32775	32668	
1964	0	32810	32727	32793	32799	32655	32799	32671	32539	
1965	0	32771	32687	32705	32643	32756	32831	32641	32700	
1966	0	32717	32687	32738	32683	32722	32847	32727	32555	
1967	0	32671	32787	32767	32581	32720	32813	32785	32845	
1968	0	32644	32609	32867	32534	32787	32775	32813	32684	
1969	0	32807	32810	32607	32576	32711	32831	32669	32586	
1970	0	32847	32839	32475	32420	32657	32784	32675	32743	
1971	0	32831	32803	32461	32589	32635	32738	32676	32735	
1972	0	32835	32815	32572	32667	32620	32775	32789	32527	
1973	0	32829	32693	32629	32546	32839	32761	32679	32718	
1974	0	32799	32647	32684	32703	32871	32821	32671	32711	
1975	0	32738	32636	32873	32695	32683	32799	32813	32799	
1976	0	32605	32829	32799	32694	32797	32691	32767	32711	
1977	0	32567	32883	32493	32499	32871	32671	32842	32701	
1978	0	32713	32645	32647	32767	32723	32687	32767	32847	
1979	0	32770	32711	32711	32715	32607	32701	32803	32759	
1980	0	32775	32839	32811	32751	32807	32685	32729	32695	
1981	0	32749	32757	32708	32583	32806	32823	32519	32687	
1982	0	32703	32663	32683	32749	32807	32876	32630	32571	
1983	0	32691	32751	32681	32762	32788	32847	32735	32571	
1984	0	32712	32751	32678	32743	32694	32831	32751	32495	
1985	0	32701	32695	32647	32491	32834	32759	32806	32726	
1986	0	32688	32799	32623	32685	32799	32681	32767	32639	
1987	0	32743	32853	32742	32617	32773	32733	32783	32647	
1988	0	32791	32691	32727	32405	32727	32690	32867	32647	
1989	0	32756	32729	32841	32486	32829	32716	32884	32590	
1990	0	32790	32717	32743	32687	32634	32687	32871	32694	
1991	0	32797	32686	32855	32647	32806	32647	32563	32548	
1992	0	32786	32623	32774	32767	32789	32751	32830	32717	
1993	0	32876	32557	32875	32517	32801	32775	32887	32715	
1994	0	32941	32599	32839	32668	32805	32797	32827	32605	
1995	0	32940	32628	32839	32703	32726	32710	32679	32669	
1996	0	32940	32647	32915	32682	32679	32783	32695	32628	
1997	0	32868	32751	32838	32639	32775	32772	32899	32775	
1998	0	32818	32783	32865	32797	32787	32775	32791	32751	
1999	0	32745	32759	32743	32707	32791	32775	32550	32743	
2000	0	32745	32793	32711	32719	32821	32805	32527	32737	
2001	0	32694	32828	32531	32823	32631	32782	32655	32758	
2002	0	32684	32786	32623	32711	32831	32799	32879	32644	
2003	0	32751	32739	32711	32733	32789	32831	32693	32703	
2004	0	32775	32687	32703	32847	32671	32786	32519	32581	
2005	0	32892	32601	32644	32745	32767	32742	32517	32711	
2006	0	32861	32711	32671	32703	32855	32783	32583	32733	
2007	0	32903	32803	32623	32477	32810	32796	32788	32741	
2008	0	32999	32766	32717	32575	32871	32687	32895	32541	
2009	0	32930	32742	32677	32718	32674	32782	32843	32710	
2010	0	32920	32718	32815	32647	32818	32802	32783	32740	
2011	0	32843	32789	32807	32629	32723	32775	32991	32683	
2012	0	32712	32789	32559	32756	32903	32791	33076	32775	
2013	0	32758	32731	32692	32597	32711	32759	32823	32729	
2014	0	32647	32647	32591	32783	32631	32775	32658	32716	
2015	0	32580	32579	32598	32662	32815	32775	32843	32723	
2016	0	32548	32647	32484	32684	32890	32771	32804	32809	
2017	0	32524	32737	32647	32599	32791	32791	32773	32725	
2018	0	32582	32669	32519	32550	32689	32789	32722	32612	
2019	0	32521	32647	32687	32709	32695	32751	32425	32709	
2020	0	32582	32876	32707	32738	32799	32671	32391	32644	
2021	0	32679	32711	32831	32723	32671	32681	32582	32679	
2022	0	32686	32727	32869	32735	32735	32775	32577	32533	
2023	0	32723	32599	32941	32559	32643	32833	32701	32571	
2024	0	32621	32713	32660	32572	32695	32730	32831	32516	
2025	0	32720	32727	32684	32661	32709	32743	32790	32621	
2026	0	32578	32735	32703	32642	32725	32771	32935	32578	
2027	0	32629	32755	32732	32715	32757	32840	32879	32783	
2028	0	32679	32741	32761	32487	32845	32853	32855	32759	
2029	0	32733	32815	32687	32639	32758	32767	32933	32743	
2030	0	32826	32738	32543	32628	32698	32767	32873	32707	
2031	0	32915	32727	32739	32575	32870	32745	32667	32599	
2032	0	32852	32715	32735	32615	32839	32707	32859	32669	
2033	0	32855	32694	32862	32479	32669	32763	32939	32593	
2034	0	32903	32672	32853	32551	32790	32810	32855	32706	
2035	0	32900	32775	32925	32681	32899	32803	32743	32741	
2036	0	32864	32732	32895	32519	32813	32799	32581	32599	
2037	0	32841	32623	32679	32735	32623	32711	32434	32711	
2038	0	32882	32799	32837	32749	32615	32751	32695	32588	
2039	0	32898	32839	32662	32732	32756	32803	32803	32749	
2040	0	32957	32707	32741	32759	32726	32837	32836	32647	
2041	0	32843	32735	32762	32885	32893	32796	33005	32612	
2042	0	32770	32695	32663	32785	32886	32797	32829	32546	
2043	0	32698	32727	32598	32823	32852	32845	32604	32759	
2044	0	32788	32789	32581	32626	32823	32820	32567	32687	
2045	0	32838	32791	32540	32595	32751	32836	32735	32621	
2046	0	32848	32775	32519	32499	32876	32749	32795	32683	
2047	0	32796	32791	32391	32673	32838	32739	32703	32661	
2048	0	32809	32703	32499	32727	32789	32831	32807	32791	
2049	0	32793	32547	32407	32562	32703	32834	32866	32679	
2050	0	32753	32646	32740	32695	32837	32749	32807	32595	
2051	0	32681	32603	32603	32643	32823	32828	32839	32719	
2052	0	32595	32591	32686	32655	32739	32847	32679	32711	
2053	0	32671	32635	32589	32468	32831	32804	32687	32788	
2054	0	32638	32687	32774	32725	32772	32826	32797	32698	
2055	0	32644	32555	32811	32679	32669	32807	32895	32563	
2056	0	32709	32711	32662	32639	32627	32813	32852	32719	
2057	0	32826	32719	32821	32695	32755	32751	32838	32699	
2058	0	32813	32679	32837	32738	32707	32862	32565	32743	
2059	0	32856	32613	32955	32835	32773	32855	32571	32710	
2060	0	32854	32798	32953	32711	32769	32802	32629	32751	
2061	0	32885	32819	33031	32775	32599	32838	32806	32711	
2062	0	32903	32847	32967	32677	32659	32791	32775	32487	
2063	0	32780	32901	32764	32575	32767	32759	32793	32663	
2064	0	32711	32837	32527	32597	32823	32775	32743	32620	
2065	0	32747	32711	32479	32515	32791	32829	32706	32751	
2066	0	32739	32793	32563	32599	32789	32801	32873	32700	
2067	0	32758	32707	32551	32687	32834	32727	32831	32639	
2068	0	32805	32731	32679	32481	32743	32731	32643	32663	
2069	0	32759	32615	32509	32613	32863	32772	32439	32636	
2070	0	32604	32647	32551	32588	32807	32810	32647	32653	
2071	0	32567	32671	32701	32531	32833	32837	32749	32575	
2072	0	32671	32753	32642	32693	32669	32811	32835	32734	
2073	0	32765	32765	32647	32599	32766	32703	32687	32583	
2074	0	32748	32699	32631	32668	32719	32708	32839	32679	
2075	0	32702	32684	32852	32762	32730	32733	32823	32553	
2076	0	32669	32757	32927	32735	32775	32641	32719	32695	
2077	0	32574	32820	32797	32583	32631	32615	32727	32709	
2078	0	32583	32799	32692	32695	32837	32717	32831	32739	
2079	0	32719	32715	32695	32871	32823	32694	32850	32734	
2080	0	32685	32903	32595	32775	32791	32790	32604	32775	
2081	0	32724	32871	32597	32859	32775	32803	32535	32671	
2082	0	32839	32681	32721	32711	32647	32715	32538	32609	
2083	0	32917	32727	32763	32717	32723	32715	32713	32678	
2084	0	32899	32743	32895	32703	32845	32699	32879	32719	
2085	0	32839	32707	32883	32592	32839	32685	32902	32461	
2086	0	32782	32719	32722	32647	32868	32717	33031	32615	
2087	0	32919	32759	32888	32703	32679	32749	33075	32543	
2088	0	32767	32703	32891	32751	32775	32759	32839	32647	
2089	0	32783	32763	32799	32791	32821	32732	32614	32511	
2090	0	32836	32615	32772	32635	32710	32708	32455	32743	
2091	0	32868	32674	33031	32734	32731	32766	32663	32759	
2092	0	32807	32743	32903	32858	32876	32719	32613	32583	
2093	0	32789	32633	32818	32709	32863	32729	32375	32656	
2094	0	32767	32533	32845	32767	32673	32815	32496	32604	
2095	0	32838	32543	32598	32642	32558	32879	32756	32700	
2096	0	32889	32559	32477	32561	32819	32855	32925	32685	
2097	0	32758	32839	32479	32727	32823	32795	32902	32592	
2098	0	32759	32860	32674	32711	32791	32806	32756	32718	
2099	0	32703	32811	32799	32637	32759	32823	32903	32591	
2100	0	32690	32767	32805	32487	32815	32775	32879	32789	
2101	0	32724	32871	32671	32637	32723	32791	32839	32763	
2102	0	32811	32831	32527	32615	32690	32837	32775	32561	
2103	0	32871	32691	32518	32579	32754	32867	32807	32639	
2104	0	32844	32846	32452	32519	32813	32823	32821	32719	
2105	0	32815	32831	32677	32583	32801	32749	32791	32623	
2106	0	32856	32735	32694	32573	32837	32773	32596	32675	
2107	0	32903	32751	32553	32567	32841	32724	32495	32639	
2108	0	32814	32699	32495	32783	32827	32644	32475	32703	
2109	0	32751	32655	32671	32757	32695	32699	32809	32669	
2110	0	32647	32541	32635	32811	32684	32754	32991	32531	
2111	0	32663	32785	32575	32590	32831	32799	32933	32638	
2112	0	32587	32711	32677	32743	32878	32764	33031	32553	
2113	0	32541	32612	32775	32667	32791	32807	32839	32679	
2114	0	32605	32583	32811	32609	32775	32829	32593	32525	
2115	0	32732	32775	32821	32646	32593	32819	32479	32637	
2116	0	32743	32759	32884	32369	32639	32773	32671	32559	
2117	0	32698	32819	32621	32527	32893	32759	32807	32715	
2118	0	32745	32754	32802	32743	32705	32755	32682	32711	
2119	0	32671	32719	32766	32655	32855	32807	32485	32799	
2120	0	32732	32820	32830	32797	32783	32891	32439	32694	
2121	0	32765	32759	32831	32743	32692	32775	32519	32644	
2122	0	32775	32775	32933	32716	32831	32762	32803	32715	
2123	0	32801	32623	32947	32875	32871	32807	32951	32581	
2124	0	32795	32726	32707	32806	32706	32871	32983	32749	
2125	0	32779	32621	32613	32571	32812	32797	32997	32685	
2126	0	32838	32534	32605	32739	32751	32867	32953	32539	
2127	0	32757	32711	32731	32693	32727	32839	32903	32775	
2128	0	32639	32699	32679	32609	32743	32775	32828	32707	
2129	0	32705	32623	32677	32671	32721	32797	32743	32695	
2130	0	32846	32775	32743	32581	32775	32775	32669	32571	
2131	0	32930	32845	32551	32511	32743	32719	32715	32593	
2132	0	32969	32878	32583	32591	32757	32733	32711	32496	
2133	0	32943	32757	32474	32551	32799	32692	32723	32663	
2134	0	32839	32815	32587	32519	32675	32775	32615	32683	
2135	0	32760	32775	32551	32439	32663	32771	32466	32613	
2136	0	32685	32683	32753	32699	32819	32754	32529	32687	
2137	0	32679	32673	32791	32691	32711	32684	32655	32597	
2138	0	32697	32694	32939	32795	32805	32735	32933	32642	
2139	0	32607	32835	32583	32717	32759	32749	32927	32599	
2140	0	32659	32759	32591	32658	32692	32783	32903	32695	
2141	0	32761	32567	32834	32803	32851	32775	32891	32743	
2142	0	32679	32634	32850	32797	32846	32858	32770	32647	
2143	0	32783	32725	32767	32737	32738	32835	32662	32643	
2144	0	32967	32730	32871	32669	32671	32763	32677	32551	
2145	0	32935	32647	32983	32731	32775	32799	32647	32679	
2146	0	32746	32813	32884	32679	32871	32769	32631	32701	
2147	0	32747	32850	32835	32527	32717	32807	32658	32823	
