# OpenSignals Text File Format
# {"00:07:80:3B:46:38": {"sensor": ["CUSTOM/0.5/1.0/V", "CUSTOM/0.5/1.0/V", "CUSTOM/0.5/1.0/V", "CUSTOM/0.5/1.0/V", "CUSTOM/0.5/1.0/V", "CUSTOM/0.5/1.0/V", "CUSTOM/0.5/1.0/V", "CUSTOM/0.5/1.0/V"], "device name": "EMGs", "column": ["nSeq", "DI", "RA_L", "RA_R", "OE_L", "OE:R", "IL_L", "IL_R", "MF_L", "MF_R"], "sync interval": 2, "time": "10:12:44.741", "comments": "", "device connection": "BTH00:07:80:3B:46:38", "channels": [1, 2, 3, 4, 5, 6, 7, 8], "date": "2017-6-2", "mode": 0, "digital IO": [0, 1], "firmware version": 772, "device": "biosignalsplux", "position": 0, "sampling rate": 1000, "label": ["RA_L", "RA_R", "OE_L", "OE:R", "IL_L", "IL_R", "MF_L", "MF_R"], "resolution": [16, 16, 16, 16, 16, 16, 16, 16], "special": [{}, {}, {}, {}, {}, {}, {}, {}]}}
# EndOfHeader
0	0	32823	32815	32767	32799	32797	32767	32683	32598	
1	0	32724	32775	32697	32775	32647	32775	32717	32663	
2	0	32713	32709	32603	32751	32683	32791	32721	32487	
3	0	32718	32795	32612	32787	32783	32734	32731	32717	
4	0	32732	32613	32634	32799	32820	32705	32715	32690	
5	0	32721	32863	32485	32709	32857	32671	32775	32760	
6	0	32711	32827	32455	32759	32762	32643	32727	32719	
7	0	32719	32631	32671	32853	32783	32718	32759	32642	
8	0	32738	32881	32687	32811	32835	32759	32735	32679	
9	0	32713	32795	32647	32833	32818	32743	32733	32611	
10	0	32676	32799	32686	32750	32834	32765	32772	32785	
11	0	32698	32724	32663	32727	32767	32775	32773	32756	
12	0	32747	32603	32724	32843	32783	32812	32757	32837	
13	0	32711	32829	32559	32786	32748	32829	32658	32836	
14	0	32795	32765	32588	32858	32797	32790	32751	32559	
15	0	32780	32691	32727	32723	32867	32740	32721	32709	
16	0	32775	32759	32709	32775	32867	32759	32736	32673	
17	0	32836	32619	32666	32662	32791	32767	32723	32731	
18	0	32792	32812	32695	32740	32899	32707	32671	32587	
19	0	32771	32807	32617	32791	32865	32751	32711	32687	
20	0	32829	32655	32486	32780	32909	32765	32707	32746	
21	0	32841	32895	32546	32775	32839	32738	32647	32691	
22	0	32799	32834	32662	32519	32788	32733	32627	32775	
23	0	32771	32623	32559	32671	32840	32693	32655	32581	
24	0	32663	32831	32548	32503	32847	32683	32583	32795	
25	0	32674	32775	32610	32574	32895	32655	32579	32691	
26	0	32655	32855	32678	32519	32759	32767	32647	32759	
27	0	32623	32692	32578	32527	32663	32770	32692	32667	
28	0	32671	32709	32364	32535	32679	32713	32645	32503	
29	0	32629	32724	32647	32655	32783	32695	32751	32661	
30	0	32604	32506	32559	32621	32786	32742	32727	32674	
31	0	32615	32811	32421	32639	32775	32835	32647	32727	
32	0	32641	32676	32399	32655	32687	32847	32607	32687	
33	0	32577	32566	32263	32485	32806	32827	32587	32715	
34	0	32583	32817	32455	32669	32759	32807	32646	32620	
35	0	32647	32719	32463	32679	32773	32751	32717	32679	
36	0	32620	32613	32369	32679	32671	32679	32711	32612	
37	0	32692	32739	32463	32667	32763	32643	32703	32615	
38	0	32690	32465	32462	32722	32791	32639	32707	32659	
39	0	32732	32764	32423	32717	32791	32685	32743	32693	
40	0	32792	32695	32506	32773	32798	32751	32671	32719	
41	0	32859	32613	32645	32667	32743	32703	32647	32751	
42	0	32716	32775	32547	32586	32803	32758	32659	32806	
43	0	32780	32703	32635	32673	32847	32735	32719	32802	
44	0	32781	32613	32662	32743	32807	32679	32671	32796	
45	0	32786	32738	32635	32783	32685	32677	32699	32701	
46	0	32679	32629	32586	32771	32731	32722	32695	32775	
47	0	32704	32918	32547	32783	32843	32758	32679	32679	
48	0	32704	32802	32605	32839	32817	32805	32751	32761	
49	0	32780	32807	32895	32775	32807	32714	32903	32518	
50	0	32780	32935	32865	32835	32775	32749	32866	32658	
51	0	32828	32839	32865	32807	32690	32728	32861	32623	
52	0	32953	32853	32999	32957	32789	32694	32844	32685	
53	0	32948	32951	32919	33023	32766	32647	32983	32559	
54	0	33108	32775	33075	33091	32679	32615	33165	32540	
55	0	33153	32923	33283	33295	32542	32647	33375	32381	
56	0	33215	32775	33513	33207	32475	32548	33519	32407	
57	0	33362	33069	33431	33281	32482	32517	33527	32201	
58	0	33324	32867	33451	33076	32506	32518	33487	32357	
59	0	33231	32806	33203	33184	32557	32598	33399	32255	
60	0	33159	32959	33285	33055	32583	32639	33171	32399	
61	0	33047	32799	32930	32813	32602	32654	33059	32403	
62	0	32902	32543	32797	32852	32642	32647	32903	32551	
63	0	32802	32827	32589	32839	32765	32747	32865	32554	
64	0	32748	32707	32615	32671	32791	32764	32799	32497	
65	0	32643	32739	32431	32775	32852	32755	32722	32683	
66	0	32620	32775	32372	32635	32795	32867	32703	32556	
67	0	32655	32611	32262	32788	32823	32775	32665	32613	
68	0	32607	32813	32359	32689	32877	32807	32615	32523	
69	0	32534	32716	32399	32703	32843	32775	32631	32637	
70	0	32511	32559	32355	32695	32894	32788	32629	32527	
71	0	32583	32875	32455	32558	32919	32818	32687	32686	
72	0	32617	32829	32391	32727	32999	32831	32615	32577	
73	0	32476	32701	32283	32756	32887	32831	32605	32795	
74	0	32558	32819	32355	32701	32775	32815	32555	32701	
75	0	32631	32603	32595	32647	32843	32753	32538	32895	
76	0	32681	32823	32646	32677	32841	32799	32627	32851	
77	0	32751	32791	32687	32655	32836	32763	32615	32711	
78	0	32799	32743	32567	32559	32796	32815	32673	32809	
79	0	32791	32815	32589	32667	32783	32850	32698	32674	
80	0	32756	32635	32613	32636	32845	32831	32681	32791	
81	0	32686	32863	32559	32791	32775	32869	32668	32676	
82	0	32674	32765	32550	32716	32759	32837	32687	32788	
83	0	32731	32553	32708	32647	32702	32775	32722	32573	
84	0	32743	32797	32647	32647	32815	32647	32788	32763	
85	0	32758	32727	32663	32683	32831	32727	32701	32821	
86	0	32751	32503	32647	32617	32707	32749	32692	32770	
87	0	32745	32795	32519	32738	32807	32719	32660	32775	
88	0	32711	32723	32556	32797	32739	32725	32711	32763	
89	0	32785	32700	32751	32708	32800	32686	32699	32629	
90	0	32809	32789	32685	32695	32725	32679	32711	32678	
91	0	32800	32538	32621	32539	32718	32722	32713	32567	
92	0	32703	32743	32707	32698	32811	32717	32699	32669	
93	0	32775	32729	32479	32667	32782	32685	32735	32565	
94	0	32788	32541	32535	32627	32834	32675	32762	32683	
95	0	32775	32823	32685	32703	32759	32711	32769	32572	
96	0	32775	32791	32615	32767	32823	32602	32767	32642	
97	0	32709	32701	32675	32675	32866	32674	32734	32553	
98	0	32719	32770	32543	32815	32871	32663	32743	32738	
99	0	32793	32634	32411	32839	32708	32695	32743	32575	
100	0	32788	32847	32691	32711	32781	32678	32695	32721	
101	0	32737	32801	32641	32739	32825	32775	32775	32611	
102	0	32740	32603	32642	32783	32687	32739	32795	32690	
103	0	32681	32830	32555	32767	32811	32684	32863	32619	
104	0	32752	32746	32491	32755	32818	32670	32846	32700	
105	0	32718	32806	32647	32819	32733	32759	32813	32605	
106	0	32739	32631	32605	32813	32743	32773	32775	32663	
107	0	32756	32849	32621	32855	32735	32756	32759	32463	
108	0	32782	32807	32706	32679	32759	32692	32807	32692	
109	0	32807	32643	32487	32891	32671	32685	32743	32674	
110	0	32799	32775	32679	32799	32764	32795	32710	32793	
111	0	32791	32763	32702	32701	32731	32734	32743	32619	
112	0	32788	32615	32543	32738	32839	32717	32693	32677	
113	0	32720	32899	32743	32644	32756	32732	32783	32553	
114	0	32751	32771	32511	32764	32850	32817	32783	32718	
115	0	32679	32615	32783	32647	32839	32743	32752	32647	
116	0	32748	32826	32734	32586	32769	32679	32807	32743	
117	0	32749	32850	32575	32742	32756	32739	32859	32738	
118	0	32793	32813	32755	32761	32767	32753	32807	32631	
119	0	32795	32795	32567	32735	32791	32719	32839	32657	
120	0	32741	32775	32783	32879	32696	32675	32751	32537	
121	0	32742	32751	32751	32919	32833	32647	32716	32713	
122	0	32712	32727	32663	32936	32807	32647	32773	32586	
123	0	32754	32783	32687	32927	32843	32658	32727	32733	
124	0	32700	32615	32661	32834	32866	32717	32747	32791	
125	0	32669	32919	32603	32807	32717	32698	32789	32727	
126	0	32731	32831	32583	32671	32898	32690	32749	32657	
127	0	32775	32675	32820	32823	32823	32661	32773	32827	
128	0	32825	32943	32724	32758	32845	32727	32790	32671	
129	0	32745	32829	32604	32625	32725	32705	32815	32727	
130	0	32740	32715	32674	32759	32695	32703	32762	32698	
131	0	32764	32775	32647	32689	32793	32644	32775	32727	
132	0	32754	32631	32557	32604	32813	32710	32751	32719	
133	0	32772	32847	32519	32591	32887	32758	32759	32719	
134	0	32799	32749	32751	32783	32775	32757	32775	32711	
135	0	32794	32727	32685	32795	32767	32739	32766	32647	
136	0	32735	32813	32628	32754	32767	32730	32775	32668	
137	0	32828	32607	32663	32735	32835	32742	32819	32615	
138	0	32772	32855	32635	32711	32847	32708	32707	32709	
139	0	32781	32823	32519	32716	32726	32705	32767	32588	
140	0	32767	32591	32711	32619	32791	32647	32783	32738	
141	0	32759	32815	32647	32723	32811	32658	32799	32623	
142	0	32701	32711	32596	32627	32833	32751	32799	32645	
143	0	32721	32539	32647	32783	32711	32727	32837	32570	
144	0	32757	32835	32558	32755	32831	32687	32820	32663	
145	0	32757	32759	32629	32783	32743	32762	32807	32523	
146	0	32710	32583	32658	32762	32671	32838	32845	32684	
147	0	32748	32847	32662	32727	32725	32832	32917	32559	
148	0	32758	32853	32798	32795	32759	32863	32875	32677	
149	0	32726	32687	32639	32668	32805	32852	32895	32565	
150	0	32752	32847	32519	32773	32903	32836	32830	32719	
151	0	32756	32811	32638	32635	32748	32803	32850	32647	
152	0	32732	32639	32628	32751	32799	32818	32844	32767	
153	0	32686	32845	32551	32663	32807	32831	32790	32749	
154	0	32735	32797	32647	32709	32903	32687	32758	32767	
155	0	32730	32692	32455	32743	32821	32809	32685	32743	
156	0	32729	32855	32551	32783	32676	32806	32741	32749	
157	0	32722	32647	32655	32791	32740	32763	32751	32683	
158	0	32809	32887	32706	32787	32797	32662	32742	32525	
159	0	32775	32759	32614	32813	32775	32647	32710	32631	
160	0	32785	32678	32635	32775	32735	32615	32738	32487	
161	0	32775	32843	32759	32815	32773	32563	32767	32671	
162	0	32758	32749	32679	32807	32797	32527	32755	32652	
163	0	32756	32859	32757	32825	32742	32565	32790	32580	
164	0	32775	32771	32749	32759	32739	32630	32769	32633	
165	0	32778	32727	32599	32858	32732	32647	32839	32569	
166	0	32761	32759	32551	32676	32771	32679	32843	32673	
167	0	32794	32561	32813	32759	32698	32655	32762	32580	
168	0	32807	32823	32795	32703	32767	32643	32810	32669	
169	0	32743	32583	32751	32723	32767	32699	32759	32725	
170	0	32784	32918	32743	32659	32847	32676	32758	32547	
171	0	32818	32765	32646	32815	32811	32719	32758	32647	
172	0	32748	32647	32621	32853	32791	32759	32751	32499	
173	0	32710	32785	32527	32719	32793	32835	32692	32621	
174	0	32746	32623	32574	32807	32866	32822	32717	32575	
175	0	32782	32841	32695	32626	32831	32787	32717	32599	
176	0	32827	32829	32647	32773	32812	32674	32770	32587	
177	0	32770	32663	32599	32733	32731	32647	32783	32719	
178	0	32711	32871	32477	32589	32823	32715	32795	32660	
179	0	32745	32775	32548	32720	32807	32843	32775	32755	
180	0	32750	32575	32621	32751	32775	32786	32751	32694	
181	0	32723	32775	32629	32699	32683	32817	32709	32759	
182	0	32791	32811	32647	32827	32773	32775	32738	32769	
183	0	32734	32635	32511	32775	32751	32791	32789	32754	
184	0	32699	32775	32509	32884	32759	32743	32756	32647	
185	0	32757	32631	32786	32859	32701	32791	32815	32727	
186	0	32761	32843	32628	32886	32818	32794	32855	32667	
187	0	32775	32579	32636	32803	32742	32823	32869	32847	
188	0	32766	32807	32585	32842	32757	32756	32861	32769	
189	0	32751	32727	32463	32813	32718	32627	32763	32798	
190	0	32759	32647	32663	32823	32797	32743	32807	32715	
191	0	32699	32799	32591	32765	32799	32716	32753	32820	
192	0	32754	32583	32607	32811	32834	32711	32735	32741	
193	0	32788	32791	32720	32759	32871	32757	32775	32647	
194	0	32810	32813	32571	32575	32817	32689	32791	32675	
195	0	32775	32820	32795	32703	32767	32763	32747	32675	
196	0	32715	32823	32679	32838	32790	32767	32714	32631	
197	0	32780	32867	32705	32735	32842	32735	32709	32707	
198	0	32735	32685	32553	32723	32859	32755	32668	32508	
199	0	32762	32934	32703	32687	32887	32755	32719	32747	
200	0	32775	32839	32663	32663	32807	32663	32689	32783	
201	0	32742	32817	32719	32603	32731	32606	32705	32647	
202	0	32741	32827	32747	32671	32765	32663	32775	32647	
203	0	32769	32735	32647	32612	32757	32676	32807	32551	
204	0	32771	32806	32578	32719	32810	32692	32743	32634	
205	0	32876	32615	32775	32739	32807	32743	32717	32643	
206	0	32818	32791	32756	32663	32775	32815	32703	32631	
207	0	32772	32567	32583	32636	32765	32691	32679	32647	
208	0	32775	32855	32663	32679	32775	32679	32765	32543	
209	0	32722	32717	32495	32565	32663	32686	32713	32763	
210	0	32759	32583	32559	32726	32788	32647	32694	32671	
211	0	32692	32845	32628	32746	32775	32663	32692	32711	
212	0	32758	32775	32431	32788	32807	32597	32726	32603	
213	0	32724	32631	32725	32820	32759	32692	32738	32703	
214	0	32754	32835	32640	32677	32630	32767	32791	32679	
215	0	32728	32813	32523	32771	32710	32711	32741	32647	
216	0	32686	32670	32737	32769	32735	32735	32751	32690	
217	0	32740	32850	32665	32867	32811	32709	32737	32719	
218	0	32687	32662	32634	32798	32811	32745	32679	32575	
219	0	32729	32839	32631	32802	32845	32799	32687	32691	
220	0	32806	32751	32532	32751	32802	32763	32795	32581	
221	0	32818	32745	32655	32715	32684	32758	32789	32717	
222	0	32843	32751	32827	32756	32663	32623	32803	32735	
223	0	32801	32748	32695	32775	32655	32690	32799	32823	
224	0	32747	32790	32715	32796	32675	32679	32845	32702	
225	0	32757	32679	32722	32772	32790	32765	32804	32623	
226	0	32775	32788	32769	32824	32774	32757	32797	32759	
227	0	32767	32677	32775	32817	32822	32819	32815	32787	
228	0	32748	32775	32621	32847	32757	32855	32754	32567	
229	0	32740	32612	32523	32861	32823	32847	32767	32655	
230	0	32698	32755	32695	32813	32719	32839	32711	32590	
231	0	32694	32803	32647	32707	32711	32757	32743	32679	
232	0	32742	32681	32599	32817	32749	32742	32745	32530	
233	0	32747	32775	32519	32807	32711	32679	32830	32749	
234	0	32714	32623	32623	32878	32751	32671	32742	32743	
235	0	32697	32812	32515	32845	32799	32751	32738	32567	
236	0	32694	32578	32535	32727	32757	32734	32703	32671	
237	0	32719	32902	32527	32820	32757	32685	32783	32619	
238	0	32800	32759	32775	32791	32775	32742	32740	32723	
239	0	32775	32674	32612	32854	32887	32738	32735	32635	
240	0	32762	32767	32707	32821	32850	32735	32749	32703	
241	0	32806	32583	32759	32823	32887	32647	32763	32695	
242	0	32758	32807	32532	32710	32799	32629	32799	32532	
243	0	32819	32613	32795	32861	32787	32655	32770	32631	
244	0	32780	32875	32697	32755	32769	32621	32841	32555	
245	0	32767	32815	32722	32690	32775	32669	32875	32660	
246	0	32738	32615	32535	32647	32889	32615	32799	32527	
247	0	32764	32831	32531	32499	32852	32647	32756	32691	
248	0	32756	32791	32711	32611	32799	32644	32727	32564	
249	0	32746	32871	32631	32692	32727	32658	32806	32687	
250	0	32756	32837	32567	32771	32703	32807	32743	32711	
251	0	32790	32887	32687	32751	32695	32771	32743	32615	
252	0	32769	32799	32621	32775	32767	32791	32764	32647	
253	0	32797	32699	32487	32775	32751	32711	32740	32639	
254	0	32775	32807	32700	32775	32767	32693	32758	32711	
255	0	32792	32757	32596	32868	32915	32711	32801	32610	
256	0	32754	32855	32645	32763	32807	32743	32838	32695	
257	0	32741	32802	32506	32799	32703	32677	32783	32494	
258	0	32765	32867	32807	32791	32671	32710	32751	32722	
259	0	32756	32771	32749	32775	32709	32743	32714	32791	
260	0	32746	32771	32621	32794	32865	32775	32637	32834	
261	0	32762	32795	32721	32822	32835	32829	32722	32810	
262	0	32765	32604	32551	32771	32796	32721	32662	32807	
263	0	32730	32791	32466	32589	32807	32708	32655	32695	
264	0	32690	32775	32663	32737	32821	32679	32758	32663	
265	0	32773	32917	32743	32745	32699	32615	32745	32694	
266	0	32738	32701	32734	32751	32685	32599	32799	32527	
267	0	32714	32639	32527	32751	32799	32661	32799	32658	
268	0	32770	32903	32725	32727	32775	32750	32767	32559	
269	0	32757	32763	32619	32738	32850	32738	32795	32742	
270	0	32759	32725	32619	32737	32787	32809	32829	32579	
271	0	32786	32803	32697	32671	32742	32659	32854	32703	
272	0	32760	32635	32754	32775	32757	32759	32839	32534	
273	0	32736	32791	32667	32687	32823	32703	32795	32644	
274	0	32745	32693	32611	32831	32837	32749	32759	32477	
275	0	32856	32602	32787	32797	32859	32742	32835	32691	
276	0	32842	32814	32711	32647	32858	32751	32815	32631	
277	0	32809	32597	32759	32721	32716	32723	32797	32693	
278	0	32748	32814	32514	32662	32671	32679	32722	32667	
279	0	32743	32766	32794	32803	32732	32695	32715	32757	
280	0	32781	32775	32615	32826	32715	32706	32759	32647	
281	0	32793	32711	32684	32738	32749	32647	32708	32723	
282	0	32714	32766	32502	32835	32647	32615	32719	32669	
283	0	32718	32623	32727	32690	32701	32621	32695	32607	
284	0	32762	32743	32679	32837	32655	32741	32710	32607	
285	0	32767	32591	32583	32794	32694	32716	32719	32435	
286	0	32746	32855	32639	32822	32765	32661	32765	32660	
287	0	32714	32763	32476	32765	32788	32606	32773	32571	
288	0	32741	32623	32743	32674	32844	32673	32784	32711	
289	0	32724	32811	32679	32743	32702	32647	32775	32579	
290	0	32752	32756	32627	32775	32703	32647	32738	32695	
291	0	32772	32621	32615	32767	32788	32653	32751	32623	
292	0	32797	32835	32612	32784	32783	32647	32719	32743	
293	0	32735	32717	32719	32739	32836	32655	32691	32589	
294	0	32807	32709	32631	32741	32814	32663	32731	32710	
295	0	32833	32761	32743	32783	32799	32715	32759	32612	
296	0	32791	32660	32694	32699	32775	32679	32812	32657	
297	0	32791	32823	32551	32717	32735	32709	32786	32563	
298	0	32773	32621	32631	32647	32722	32685	32814	32693	
299	0	32771	32826	32715	32683	32759	32683	32775	32663	
300	0	32773	32611	32635	32635	32743	32658	32822	32719	
301	0	32820	32916	32711	32642	32828	32666	32866	32613	
302	0	32749	32749	32551	32601	32847	32743	32803	32655	
303	0	32775	32719	32576	32735	32775	32775	32783	32635	
304	0	32736	32891	32690	32798	32790	32769	32795	32703	
305	0	32799	32835	32692	32818	32903	32695	32737	32647	
306	0	32820	32719	32543	32879	32868	32745	32826	32707	
307	0	32731	32799	32527	32855	32791	32754	32791	32718	
308	0	32754	32647	32831	32868	32799	32753	32799	32791	
309	0	32743	32843	32759	32743	32941	32799	32828	32773	
310	0	32763	32860	32663	32834	32791	32851	32843	32827	
311	0	32707	32735	32571	32828	32798	32755	32773	32685	
312	0	32741	32843	32762	32708	32743	32723	32773	32751	
313	0	32831	32743	32739	32702	32673	32671	32763	32647	
314	0	32821	32662	32557	32785	32773	32675	32774	32647	
315	0	32772	32827	32756	32739	32767	32642	32703	32577	
316	0	32771	32754	32638	32815	32813	32612	32743	32749	
317	0	32751	32805	32677	32691	32735	32631	32707	32671	
318	0	32703	32769	32605	32759	32717	32635	32647	32719	
319	0	32775	32572	32551	32668	32830	32695	32685	32615	
320	0	32713	32751	32599	32807	32809	32775	32743	32709	
321	0	32697	32783	32709	32813	32821	32727	32743	32596	
322	0	32774	32630	32668	32743	32815	32802	32663	32759	
323	0	32799	32871	32551	32775	32733	32743	32635	32659	
324	0	32706	32796	32708	32765	32845	32758	32687	32805	
325	0	32774	32758	32623	32834	32799	32695	32726	32740	
326	0	32743	32805	32487	32773	32843	32773	32775	32699	
327	0	32833	32594	32556	32575	32749	32759	32751	32754	
328	0	32775	32903	32705	32761	32677	32775	32745	32739	
329	0	32775	32791	32555	32562	32691	32675	32767	32661	
330	0	32807	32862	32533	32738	32673	32599	32815	32559	
331	0	32763	32769	32546	32663	32718	32655	32787	32775	
332	0	32738	32692	32417	32703	32683	32595	32759	32557	
333	0	32750	32767	32693	32771	32767	32671	32796	32689	
334	0	32742	32742	32591	32826	32684	32647	32757	32631	
335	0	32771	32751	32715	32783	32731	32687	32791	32730	
336	0	32676	32775	32594	32681	32719	32718	32799	32668	
337	0	32723	32535	32753	32815	32835	32769	32682	32709	
338	0	32773	32817	32647	32799	32796	32799	32727	32735	
339	0	32794	32578	32645	32827	32773	32699	32751	32558	
340	0	32775	32890	32687	32826	32791	32687	32775	32647	
341	0	32769	32785	32582	32813	32783	32642	32741	32575	
342	0	32823	32761	32731	32747	32831	32645	32819	32739	
343	0	32832	32771	32685	32749	32843	32602	32773	32775	
344	0	32767	32679	32771	32771	32833	32635	32799	32815	
345	0	32780	32869	32615	32602	32745	32615	32818	32723	
346	0	32818	32759	32701	32847	32855	32627	32809	32795	
347	0	32783	32799	32676	32855	32885	32710	32835	32719	
348	0	32714	32815	32635	32865	32823	32671	32806	32747	
349	0	32743	32767	32463	32827	32743	32663	32799	32690	
350	0	32725	32797	32605	32703	32788	32739	32775	32696	
351	0	32758	32639	32543	32698	32718	32668	32855	32687	
352	0	32662	32947	32692	32743	32788	32749	32839	32773	
353	0	32727	32867	32597	32745	32679	32725	32819	32771	
354	0	32759	32615	32619	32775	32775	32807	32830	32719	
355	0	32775	32871	32613	32685	32716	32806	32767	32703	
356	0	32685	32573	32574	32787	32719	32700	32727	32597	
357	0	32799	32857	32511	32895	32791	32732	32711	32735	
358	0	32685	32789	32559	32884	32689	32717	32679	32549	
359	0	32747	32605	32693	32839	32791	32716	32719	32659	
360	0	32682	32855	32694	32743	32743	32743	32717	32647	
361	0	32730	32769	32603	32836	32761	32709	32757	32695	
362	0	32831	32631	32771	32794	32747	32741	32707	32643	
363	0	32754	32847	32679	32711	32697	32773	32700	32721	
364	0	32807	32742	32739	32674	32769	32762	32761	32607	
365	0	32790	32579	32519	32727	32863	32783	32827	32693	
366	0	32797	32847	32669	32563	32723	32787	32807	32735	
367	0	32783	32775	32621	32717	32775	32757	32783	32741	
368	0	32754	32599	32551	32711	32863	32759	32791	32751	
369	0	32793	32886	32479	32668	32687	32771	32855	32727	
370	0	32775	32719	32485	32577	32804	32708	32773	32742	
371	0	32773	32543	32603	32701	32791	32725	32763	32543	
372	0	32791	32795	32466	32740	32723	32759	32771	32621	
373	0	32701	32722	32667	32807	32801	32655	32762	32519	
374	0	32692	32578	32618	32775	32813	32671	32773	32699	
375	0	32742	32870	32645	32671	32711	32663	32818	32811	
376	0	32775	32815	32647	32811	32727	32703	32770	32674	
377	0	32751	32610	32823	32733	32754	32623	32735	32759	
378	0	32773	32887	32735	32797	32831	32701	32707	32785	
379	0	32775	32839	32677	32839	32757	32695	32647	32716	
380	0	32780	32732	32519	32547	32827	32751	32703	32709	
381	0	32725	32903	32739	32681	32763	32775	32602	32758	
382	0	32745	32807	32623	32769	32773	32734	32721	32659	
383	0	32685	32673	32619	32829	32743	32726	32738	32726	
384	0	32743	32839	32473	32841	32749	32687	32679	32762	
385	0	32760	32775	32637	32703	32772	32642	32711	32767	
386	0	32711	32567	32663	32715	32812	32640	32740	32719	
387	0	32706	32698	32483	32806	32803	32763	32765	32679	
388	0	32784	32703	32708	32774	32823	32749	32789	32535	
389	0	32751	32731	32663	32759	32791	32644	32811	32647	
390	0	32726	32615	32558	32775	32823	32607	32813	32551	
391	0	32778	32823	32644	32847	32859	32668	32725	32681	
392	0	32810	32749	32719	32801	32736	32687	32703	32740	
393	0	32811	32782	32591	32715	32899	32806	32757	32599	
394	0	32773	32711	32716	32839	32855	32733	32701	32647	
395	0	32847	32851	32659	32775	32759	32731	32725	32527	
396	0	32757	32775	32594	32698	32723	32679	32788	32679	
397	0	32746	32687	32727	32749	32790	32786	32751	32543	
398	0	32752	32826	32647	32603	32859	32811	32791	32685	
399	0	32767	32807	32687	32687	32719	32855	32805	32567	
400	0	32807	32739	32527	32769	32839	32877	32775	32669	
401	0	32765	32879	32739	32810	32834	32836	32797	32511	
402	0	32749	32639	32731	32811	32791	32853	32767	32684	
403	0	32690	32899	32619	32863	32871	32831	32759	32612	
404	0	32739	32794	32470	32884	32701	32798	32787	32603	
405	0	32711	32743	32591	32706	32749	32713	32823	32545	
406	0	32746	32665	32678	32828	32775	32647	32794	32685	
407	0	32698	32707	32623	32823	32670	32727	32756	32503	
408	0	32767	32583	32775	32739	32703	32690	32791	32685	
409	0	32786	32803	32615	32731	32767	32677	32787	32547	
410	0	32734	32717	32716	32581	32669	32679	32739	32630	
411	0	32736	32529	32567	32643	32762	32647	32726	32527	
412	0	32769	32827	32546	32693	32810	32636	32771	32758	
413	0	32784	32753	32703	32598	32813	32671	32743	32563	
414	0	32709	32602	32525	32646	32775	32710	32709	32738	
415	0	32718	32735	32487	32503	32775	32759	32775	32565	
416	0	32791	32815	32578	32671	32858	32788	32775	32724	
417	0	32775	32775	32709	32700	32703	32759	32762	32634	
418	0	32791	32722	32635	32786	32775	32775	32735	32698	
419	0	32780	32815	32685	32863	32831	32807	32714	32599	
420	0	32846	32605	32562	32891	32775	32758	32687	32717	
421	0	32807	32845	32737	32943	32722	32739	32681	32631	
422	0	32840	32725	32647	32943	32797	32763	32722	32692	
423	0	32751	32623	32743	32931	32855	32773	32757	32535	
424	0	32764	32743	32617	32820	32756	32699	32711	32679	
425	0	32787	32731	32821	32846	32837	32639	32735	32530	
426	0	32796	32669	32757	32738	32738	32635	32711	32639	
427	0	32749	32791	32749	32738	32819	32629	32741	32527	
428	0	32769	32579	32701	32682	32692	32668	32773	32741	
429	0	32751	32851	32647	32699	32747	32658	32719	32663	
430	0	32762	32823	32535	32694	32839	32711	32739	32732	
431	0	32764	32663	32685	32751	32803	32697	32719	32718	
432	0	32775	32926	32607	32773	32751	32681	32749	32700	
433	0	32702	32846	32667	32758	32767	32699	32739	32705	
434	0	32767	32694	32679	32846	32822	32662	32725	32759	
435	0	32799	32896	32503	32639	32827	32713	32754	32726	
436	0	32828	32805	32724	32795	32799	32719	32773	32719	
437	0	32796	32663	32611	32807	32855	32771	32719	32641	
438	0	32801	32877	32467	32741	32954	32797	32743	32711	
439	0	32775	32769	32679	32827	32775	32747	32813	32669	
440	0	32754	32647	32621	32645	32789	32775	32755	32804	
441	0	32736	32838	32596	32743	32762	32731	32711	32734	
442	0	32762	32803	32669	32583	32895	32755	32775	32789	
443	0	32722	32655	32527	32623	32734	32749	32787	32751	
444	0	32745	32807	32749	32718	32756	32692	32799	32743	
445	0	32714	32715	32727	32694	32833	32662	32759	32598	
446	0	32790	32582	32543	32747	32740	32683	32738	32739	
447	0	32774	32887	32697	32607	32797	32623	32797	32607	
448	0	32712	32787	32581	32694	32821	32679	32775	32743	
449	0	32702	32551	32567	32701	32711	32741	32820	32580	
450	0	32742	32804	32487	32759	32775	32695	32775	32725	
451	0	32694	32749	32527	32815	32741	32690	32775	32615	
452	0	32821	32747	32631	32827	32673	32703	32802	32733	
453	0	32742	32871	32645	32702	32724	32703	32813	32571	
454	0	32724	32867	32644	32587	32839	32823	32816	32645	
455	0	32735	32659	32698	32699	32757	32804	32797	32506	
456	0	32793	32931	32701	32705	32830	32791	32791	32719	
457	0	32737	32843	32519	32729	32756	32775	32845	32646	
458	0	32775	32791	32716	32715	32847	32871	32791	32723	
459	0	32790	32687	32661	32746	32870	32791	32805	32711	
460	0	32808	32829	32495	32759	32667	32734	32764	32595	
461	0	32748	32504	32571	32738	32775	32803	32825	32703	
462	0	32771	32647	32703	32695	32941	32709	32796	32635	
463	0	32747	32839	32662	32775	32742	32671	32734	32726	
464	0	32724	32789	32635	32685	32824	32711	32726	32660	
465	0	32732	32591	32720	32767	32859	32695	32754	32671	
466	0	32742	32831	32621	32726	32743	32655	32719	32539	
467	0	32745	32740	32695	32794	32725	32615	32783	32647	
468	0	32684	32647	32543	32847	32742	32639	32741	32628	
469	0	32716	32783	32755	32941	32809	32797	32757	32740	
470	0	32764	32764	32669	32914	32692	32814	32724	32657	
471	0	32782	32826	32694	32867	32660	32693	32791	32757	
472	0	32788	32812	32687	32791	32745	32711	32770	32603	
473	0	32775	32762	32639	32748	32703	32674	32795	32547	
474	0	32781	32795	32601	32711	32743	32611	32711	32789	
475	0	32791	32667	32815	32750	32646	32627	32717	32799	
476	0	32810	32941	32692	32771	32746	32647	32719	32743	
477	0	32807	32799	32739	32785	32719	32583	32736	32773	
478	0	32775	32875	32590	32654	32815	32607	32805	32677	
479	0	32760	32822	32599	32742	32798	32671	32767	32716	
480	0	32842	32751	32791	32647	32695	32666	32711	32621	
481	0	32829	32841	32731	32790	32831	32647	32724	32679	
482	0	32850	32642	32655	32749	32843	32661	32765	32571	
483	0	32804	32943	32701	32742	32861	32711	32759	32647	
484	0	32748	32845	32471	32723	32748	32725	32775	32525	
485	0	32679	32638	32687	32749	32774	32681	32771	32627	
486	0	32613	32827	32631	32833	32831	32717	32774	32527	
487	0	32667	32785	32660	32721	32716	32687	32803	32623	
488	0	32749	32811	32638	32756	32743	32679	32759	32545	
489	0	32783	32775	32531	32671	32831	32716	32796	32709	
490	0	32738	32580	32677	32743	32841	32787	32727	32635	
491	0	32709	32791	32589	32821	32787	32775	32647	32711	
492	0	32679	32799	32663	32807	32711	32699	32743	32501	
493	0	32749	32581	32493	32795	32756	32719	32727	32643	
494	0	32740	32687	32667	32749	32803	32727	32718	32647	
495	0	32775	32815	32613	32695	32718	32715	32717	32713	
496	0	32761	32561	32695	32745	32745	32767	32725	32597	
497	0	32791	32766	32539	32681	32709	32668	32745	32655	
498	0	32817	32810	32595	32805	32834	32695	32775	32532	
499	0	32784	32613	32717	32751	32714	32639	32716	32679	
500	0	32818	32903	32669	32791	32839	32615	32708	32611	
501	0	32780	32827	32711	32847	32811	32607	32761	32735	
502	0	32769	32623	32495	32871	32736	32727	32708	32739	
503	0	32756	32747	32663	32847	32793	32721	32759	32809	
504	0	32762	32787	32647	32687	32885	32699	32743	32743	
505	0	32749	32775	32485	32783	32751	32679	32758	32709	
506	0	32711	32679	32695	32695	32831	32763	32755	32742	
507	0	32731	32773	32702	32687	32855	32791	32775	32708	
508	0	32745	32554	32687	32662	32830	32723	32868	32726	
509	0	32809	32827	32483	32585	32723	32791	32813	32591	
510	0	32791	32799	32699	32699	32766	32741	32807	32674	
511	0	32748	32615	32643	32683	32837	32733	32783	32637	
512	0	32806	32859	32749	32655	32725	32733	32839	32743	
513	0	32765	32797	32659	32580	32767	32761	32807	32631	
514	0	32818	32903	32621	32579	32722	32695	32764	32663	
515	0	32748	32735	32478	32671	32799	32685	32749	32691	
516	0	32726	32733	32701	32615	32835	32746	32831	32647	
517	0	32714	32790	32571	32839	32759	32719	32775	32700	
518	0	32743	32647	32535	32935	32767	32788	32685	32559	
519	0	32800	32871	32555	32945	32775	32708	32685	32718	
520	0	32759	32767	32679	33115	32828	32773	32718	32571	
521	0	32759	32873	32589	33079	32843	32775	32689	32775	
522	0	32804	32765	32549	33006	32745	32785	32671	32724	
523	0	32828	32703	32617	32871	32716	32788	32733	32761	
524	0	32775	32787	32551	32971	32803	32735	32791	32682	
525	0	32775	32657	32609	32708	32727	32749	32749	32615	
526	0	32775	32839	32669	32743	32726	32739	32775	32743	
527	0	32707	32771	32659	32717	32642	32701	32805	32595	
528	0	32682	32839	32532	32773	32694	32727	32813	32647	
529	0	32775	32773	32515	32719	32757	32759	32775	32663	
530	0	32738	32839	32677	32758	32799	32739	32813	32750	
531	0	32672	32786	32566	32732	32823	32703	32793	32762	
532	0	32754	32677	32655	32759	32751	32714	32775	32642	
533	0	32828	32739	32531	32855	32726	32747	32810	32719	
534	0	32759	32619	32740	32619	32773	32774	32805	32567	
535	0	32775	32885	32613	32699	32815	32743	32829	32647	
536	0	32810	32795	32604	32621	32795	32699	32871	32579	
537	0	32793	32745	32444	32735	32647	32692	32847	32683	
538	0	32799	32867	32735	32787	32797	32719	32821	32566	
539	0	32766	32635	32611	32783	32827	32743	32851	32727	
540	0	32802	32751	32591	32729	32727	32613	32815	32609	
541	0	32821	32813	32602	32775	32829	32594	32759	32691	
542	0	32839	32795	32710	32663	32815	32759	32687	32669	
543	0	32815	32543	32573	32791	32847	32742	32708	32595	
544	0	32799	32815	32661	32683	32877	32721	32695	32645	
545	0	32775	32751	32702	32796	32877	32781	32807	32549	
546	0	32739	32694	32786	32694	32797	32759	32821	32693	
547	0	32780	32845	32659	32582	32838	32796	32771	32685	
548	0	32752	32855	32681	32713	32879	32671	32807	32692	
549	0	32715	32615	32471	32715	32775	32735	32799	32750	
550	0	32662	32763	32739	32726	32801	32703	32797	32717	
551	0	32711	32574	32647	32695	32875	32691	32825	32725	
552	0	32681	32831	32559	32647	32692	32799	32775	32587	
553	0	32678	32759	32729	32743	32787	32835	32765	32647	
554	0	32684	32623	32631	32786	32803	32834	32749	32557	
555	0	32712	32829	32548	32732	32685	32805	32773	32623	
556	0	32753	32775	32743	32775	32759	32775	32759	32499	
557	0	32799	32692	32589	32815	32843	32775	32749	32662	
558	0	32745	32803	32717	32831	32742	32738	32710	32525	
559	0	32742	32674	32543	32877	32833	32759	32741	32663	
560	0	32775	32833	32723	32854	32797	32703	32807	32539	
561	0	32806	32775	32771	32819	32785	32706	32743	32695	
562	0	32801	32679	32743	32647	32719	32647	32703	32546	
563	0	32827	32875	32595	32721	32773	32716	32711	32679	
564	0	32735	32795	32745	32726	32782	32621	32678	32615	
565	0	32775	32827	32599	32875	32749	32671	32708	32734	
566	0	32780	32811	32669	32805	32703	32623	32695	32629	
567	0	32788	32743	32553	32863	32705	32666	32695	32737	
568	0	32735	32835	32703	32807	32813	32666	32693	32751	
569	0	32756	32783	32615	32591	32710	32647	32677	32799	
570	0	32758	32815	32684	32647	32716	32567	32683	32681	
571	0	32810	32753	32559	32621	32775	32577	32749	32585	
572	0	32758	32621	32815	32795	32791	32642	32719	32665	
573	0	32736	32887	32663	32742	32681	32708	32753	32762	
574	0	32738	32783	32521	32695	32876	32735	32805	32647	
575	0	32759	32687	32745	32753	32875	32731	32733	32686	
576	0	32809	32839	32690	32623	32827	32775	32775	32635	
577	0	32834	32599	32613	32849	32763	32785	32757	32726	
578	0	32773	32827	32583	32643	32825	32810	32715	32711	
579	0	32789	32791	32575	32755	32845	32730	32719	32667	
580	0	32804	32631	32718	32615	32775	32707	32731	32699	
581	0	32821	32775	32687	32629	32695	32759	32759	32615	
582	0	32834	32598	32676	32548	32719	32743	32775	32647	
583	0	32741	32775	32699	32745	32705	32663	32721	32501	
584	0	32738	32723	32726	32619	32743	32647	32700	32677	
585	0	32683	32771	32620	32698	32807	32661	32754	32519	
586	0	32740	32771	32791	32644	32708	32687	32735	32647	
587	0	32767	32605	32547	32715	32757	32831	32756	32571	
588	0	32637	32775	32599	32831	32807	32739	32743	32723	
589	0	32710	32759	32726	32702	32743	32724	32807	32654	
590	0	32678	32601	32615	32689	32852	32725	32813	32717	
591	0	32687	32790	32733	32623	32775	32763	32811	32610	
592	0	32647	32762	32591	32789	32853	32711	32787	32759	
593	0	32717	32671	32694	32735	32686	32681	32797	32633	
594	0	32742	32775	32671	32662	32751	32711	32829	32773	
595	0	32796	32732	32613	32671	32742	32723	32814	32615	
596	0	32775	32769	32577	32647	32850	32739	32782	32700	
597	0	32727	32775	32660	32705	32711	32721	32793	32538	
598	0	32794	32615	32647	32703	32786	32691	32750	32671	
599	0	32762	32869	32532	32767	32795	32659	32747	32671	
600	0	32759	32863	32711	32773	32723	32615	32749	32751	
601	0	32743	32642	32677	32621	32767	32668	32839	32769	
602	0	32687	32948	32647	32805	32827	32775	32862	32743	
603	0	32807	32855	32578	32788	32866	32783	32839	32637	
604	0	32781	32644	32711	32807	32754	32695	32841	32677	
605	0	32786	32858	32807	32796	32809	32769	32767	32695	
606	0	32797	32787	32604	32795	32789	32743	32740	32627	
607	0	32704	32734	32723	32711	32765	32746	32781	32708	
608	0	32768	32817	32671	32563	32772	32735	32807	32615	
609	0	32724	32598	32738	32735	32773	32775	32795	32750	
610	0	32695	32967	32647	32626	32827	32683	32745	32639	
611	0	32759	32830	32553	32715	32861	32747	32773	32727	
612	0	32784	32573	32583	32763	32745	32749	32759	32583	
613	0	32728	32658	32567	32562	32783	32727	32763	32647	
614	0	32751	32871	32478	32711	32828	32683	32743	32595	
615	0	32731	32811	32580	32827	32719	32711	32766	32739	
616	0	32756	32631	32569	32831	32819	32739	32732	32767	
617	0	32750	32859	32475	32877	32831	32691	32676	32713	
618	0	32807	32791	32647	32775	32774	32646	32758	32687	
619	0	32778	32583	32620	32951	32711	32623	32755	32711	
620	0	32750	32815	32678	32959	32775	32619	32823	32663	
621	0	32843	32787	32511	32820	32802	32655	32821	32529	
622	0	32839	32791	32687	32850	32695	32627	32813	32671	
623	0	32861	32727	32614	32694	32775	32669	32767	32491	
624	0	32811	32791	32751	32865	32796	32698	32799	32631	
625	0	32782	32802	32599	32879	32700	32665	32771	32609	
626	0	32724	32735	32743	32736	32775	32662	32737	32703	
627	0	32745	32819	32708	32775	32775	32723	32830	32611	
628	0	32721	32613	32727	32674	32775	32719	32754	32691	
629	0	32730	32850	32742	32751	32805	32759	32759	32575	
630	0	32791	32743	32607	32662	32693	32687	32731	32750	
631	0	32794	32683	32775	32743	32735	32641	32727	32697	
632	0	32803	32775	32638	32623	32775	32631	32775	32783	
633	0	32807	32743	32662	32775	32787	32559	32775	32711	
634	0	32778	32702	32451	32757	32743	32647	32783	32727	
635	0	32752	32732	32723	32717	32877	32782	32743	32655	
636	0	32759	32598	32635	32759	32859	32742	32775	32695	
637	0	32724	32871	32655	32702	32801	32757	32787	32701	
638	0	32696	32727	32623	32697	32846	32705	32745	32635	
639	0	32773	32799	32512	32639	32783	32694	32707	32692	
640	0	32711	32790	32742	32563	32755	32745	32756	32714	
641	0	32732	32737	32603	32655	32748	32767	32830	32759	
642	0	32804	32775	32663	32567	32822	32796	32819	32739	
643	0	32717	32628	32692	32711	32866	32815	32787	32575	
644	0	32734	32839	32500	32655	32775	32783	32754	32763	
645	0	32667	32775	32733	32805	32819	32787	32801	32694	
646	0	32706	32719	32687	32715	32633	32847	32811	32775	
647	0	32684	32775	32676	32802	32739	32827	32797	32628	
648	0	32715	32615	32666	32775	32749	32797	32817	32679	
649	0	32728	32733	32519	32828	32819	32799	32723	32646	
650	0	32788	32854	32751	32827	32767	32736	32719	32683	
651	0	32771	32773	32575	32762	32741	32775	32727	32751	
652	0	32733	32685	32566	32810	32797	32791	32722	32668	
653	0	32737	32775	32414	32709	32839	32771	32733	32687	
654	0	32788	32535	32630	32808	32831	32709	32759	32566	
655	0	32735	32798	32642	32804	32807	32743	32775	32775	
656	0	32735	32599	32647	32763	32789	32726	32870	32689	
657	0	32746	32881	32750	32775	32753	32799	32815	32551	
658	0	32750	32803	32687	32625	32763	32699	32803	32715	
659	0	32827	32786	32660	32775	32807	32631	32759	32790	
660	0	32793	32825	32786	32787	32767	32666	32763	32803	
661	0	32804	32639	32576	32743	32833	32647	32773	32851	
662	0	32683	32836	32607	32775	32713	32691	32669	32767	
663	0	32694	32811	32538	32827	32797	32701	32775	32788	
664	0	32708	32717	32797	32855	32767	32615	32802	32631	
665	0	32791	32815	32745	32783	32799	32694	32775	32701	
666	0	32773	32583	32676	32845	32903	32719	32727	32711	
667	0	32771	32879	32719	32790	32841	32683	32766	32607	
668	0	32711	32756	32573	32817	32773	32759	32807	32692	
669	0	32718	32647	32573	32854	32850	32679	32765	32558	
670	0	32756	32825	32623	32811	32821	32631	32691	32630	
671	0	32743	32743	32644	32685	32761	32603	32735	32482	
672	0	32768	32575	32501	32802	32845	32663	32694	32701	
673	0	32782	32799	32631	32645	32855	32647	32785	32567	
674	0	32790	32801	32647	32701	32839	32646	32799	32647	
675	0	32784	32685	32647	32738	32711	32628	32767	32535	
676	0	32847	32806	32547	32687	32783	32686	32749	32635	
677	0	32815	32601	32596	32711	32785	32679	32775	32655	
678	0	32791	32823	32622	32711	32764	32668	32731	32627	
679	0	32797	32815	32583	32738	32764	32727	32775	32642	
680	0	32813	32673	32725	32723	32679	32703	32805	32479	
681	0	32767	32859	32513	32749	32699	32729	32762	32646	
682	0	32774	32635	32775	32615	32711	32684	32775	32511	
683	0	32705	32836	32731	32763	32767	32605	32804	32676	
684	0	32751	32770	32709	32671	32731	32667	32699	32673	
685	0	32796	32663	32713	32757	32663	32647	32763	32705	
686	0	32727	32899	32531	32754	32767	32638	32685	32691	
687	0	32694	32804	32662	32775	32731	32667	32794	32674	
688	0	32693	32775	32500	32799	32757	32695	32783	32742	
689	0	32763	32862	32499	32807	32796	32711	32707	32540	
690	0	32764	32706	32567	32775	32751	32763	32749	32613	
691	0	32748	32883	32541	32708	32762	32782	32727	32530	
692	0	32728	32804	32557	32722	32807	32666	32773	32716	
693	0	32692	32669	32527	32557	32805	32689	32873	32551	
694	0	32741	32821	32373	32711	32790	32695	32788	32742	
695	0	32707	32742	32719	32707	32845	32669	32814	32594	
696	0	32756	32647	32605	32742	32813	32647	32815	32727	
697	0	32764	32827	32665	32763	32806	32671	32791	32567	
698	0	32775	32623	32471	32765	32799	32691	32771	32711	
699	0	32812	32787	32727	32852	32724	32669	32784	32711	
700	0	32816	32749	32711	32751	32775	32671	32775	32759	
701	0	32784	32695	32573	32943	32814	32727	32775	32637	
702	0	32815	32809	32799	32879	32733	32727	32831	32679	
703	0	32795	32743	32671	32723	32801	32771	32799	32555	
704	0	32784	32719	32679	32799	32727	32727	32796	32691	
705	0	32769	32726	32703	32688	32755	32753	32863	32557	
706	0	32801	32714	32647	32550	32646	32719	32847	32681	
707	0	32815	32703	32733	32607	32804	32709	32837	32571	
708	0	32864	32795	32758	32775	32766	32699	32831	32701	
709	0	32817	32631	32583	32839	32799	32685	32775	32511	
710	0	32740	32917	32647	32844	32738	32755	32845	32635	
711	0	32748	32631	32638	32855	32681	32767	32761	32698	
712	0	32807	32787	32505	32927	32823	32676	32775	32726	
713	0	32804	32805	32747	32879	32809	32703	32820	32643	
714	0	32793	32571	32699	32991	32842	32687	32767	32759	
715	0	32756	32810	32562	32847	32647	32711	32787	32644	
716	0	32740	32743	32548	32647	32703	32699	32742	32767	
717	0	32716	32559	32654	32811	32795	32706	32725	32519	
718	0	32763	32903	32698	32755	32851	32756	32700	32691	
719	0	32765	32775	32495	32615	32839	32795	32758	32628	
720	0	32749	32723	32722	32615	32809	32759	32766	32711	
721	0	32759	32817	32605	32747	32821	32647	32769	32475	
722	0	32829	32787	32499	32524	32887	32665	32737	32636	
723	0	32723	32831	32707	32565	32739	32647	32749	32559	
724	0	32736	32789	32621	32551	32799	32613	32807	32662	
725	0	32729	32738	32615	32756	32806	32659	32807	32593	
726	0	32747	32797	32470	32775	32891	32703	32800	32691	
727	0	32718	32613	32647	32701	32727	32657	32860	32623	
728	0	32695	32903	32607	32793	32814	32630	32903	32775	
729	0	32731	32815	32638	32687	32807	32598	32861	32731	
730	0	32814	32757	32527	32807	32850	32634	32826	32631	
731	0	32755	32795	32789	32820	32739	32647	32855	32698	
732	0	32765	32635	32640	32835	32715	32647	32806	32569	
733	0	32807	32855	32679	32815	32759	32639	32807	32655	
734	0	32742	32828	32527	32642	32773	32667	32787	32587	
735	0	32775	32831	32655	32791	32775	32711	32767	32707	
736	0	32793	32815	32631	32787	32819	32742	32713	32583	
737	0	32793	32679	32658	32851	32775	32741	32743	32709	
738	0	32767	32782	32813	32843	32764	32826	32727	32599	
739	0	32793	32734	32663	32679	32757	32807	32751	32751	
740	0	32838	32613	32563	32807	32797	32838	32762	32763	
741	0	32740	32855	32727	32743	32730	32814	32791	32763	
742	0	32753	32775	32685	32685	32695	32781	32819	32707	
743	0	32738	32731	32708	32748	32735	32748	32771	32716	
744	0	32763	32807	32465	32633	32815	32742	32790	32533	
745	0	32757	32863	32687	32743	32756	32732	32855	32699	
746	0	32767	32709	32623	32679	32745	32761	32769	32543	
747	0	32733	32647	32767	32711	32722	32695	32749	32567	
748	0	32708	32900	32639	32647	32811	32691	32750	32739	
749	0	32726	32799	32647	32663	32819	32719	32775	32647	
750	0	32764	32742	32642	32615	32835	32751	32703	32791	
751	0	32733	32935	32775	32847	32805	32684	32747	32647	
752	0	32786	32829	32673	32822	32719	32719	32706	32661	
753	0	32762	32741	32583	32759	32839	32703	32767	32618	
754	0	32739	32839	32402	32703	32835	32685	32740	32699	
755	0	32708	32735	32631	32658	32884	32647	32642	32669	
756	0	32727	32661	32586	32823	32758	32767	32685	32717	
757	0	32740	32837	32575	32807	32847	32727	32687	32691	
758	0	32739	32775	32579	32662	32773	32775	32669	32741	
759	0	32814	32611	32655	32775	32825	32703	32689	32642	
760	0	32786	32862	32687	32795	32699	32691	32725	32761	
761	0	32793	32775	32579	32740	32718	32698	32718	32791	
762	0	32772	32692	32775	32847	32678	32646	32669	32715	
763	0	32806	32791	32719	32797	32773	32660	32739	32743	
764	0	32728	32818	32502	32695	32647	32647	32755	32815	
765	0	32781	32775	32729	32802	32727	32579	32828	32761	
766	0	32759	32767	32619	32804	32751	32591	32735	32807	
767	0	32806	32666	32583	32703	32827	32622	32797	32781	
768	0	32772	32787	32643	32782	32823	32660	32851	32623	
769	0	32726	32735	32598	32727	32819	32676	32839	32646	
770	0	32732	32871	32597	32766	32759	32679	32845	32713	
771	0	32773	32723	32757	32708	32855	32707	32831	32575	
772	0	32783	32815	32721	32903	32847	32690	32823	32724	
773	0	32755	32671	32710	32775	32859	32670	32743	32751	
774	0	32782	32791	32668	32783	32834	32635	32771	32836	
775	0	32747	32687	32635	32803	32885	32703	32789	32659	
776	0	32724	32831	32885	32799	32799	32742	32757	32605	
777	0	32703	32700	32839	32771	32787	32838	32729	32823	
778	0	32732	32807	32705	32850	32711	32871	32709	32718	
779	0	32733	32635	32665	32751	32663	32802	32733	32679	
780	0	32687	32815	32805	32741	32757	32807	32726	32815	
781	0	32730	32663	32521	32607	32812	32855	32743	32755	
782	0	32722	32804	32797	32679	32799	32879	32703	32647	
783	0	32703	32668	32741	32743	32821	32715	32661	32796	
784	0	32711	32919	32598	32703	32745	32683	32605	32794	
785	0	32708	32556	32547	32762	32775	32629	32574	32699	
786	0	32672	32815	32447	32669	32699	32694	32623	32751	
787	0	32681	32711	32431	32755	32775	32676	32628	32605	
788	0	32639	32483	32339	32794	32807	32690	32626	32751	
789	0	32689	32711	32387	32754	32879	32717	32607	32627	
790	0	32637	32615	32326	32830	32815	32735	32701	32647	
791	0	32598	32676	32420	32717	32679	32661	32695	32503	
792	0	32685	32658	32323	32715	32807	32679	32663	32647	
793	0	32652	32583	32530	32566	32869	32602	32657	32594	
794	0	32749	32725	32423	32603	32894	32671	32631	32694	
795	0	32680	32485	32583	32635	32876	32655	32647	32647	
796	0	32756	32723	32391	32679	32775	32631	32703	32617	
797	0	32705	32639	32524	32647	32834	32647	32719	32613	
798	0	32706	32471	32471	32471	32860	32655	32711	32659	
799	0	32749	32749	32429	32615	32801	32639	32668	32483	
800	0	32786	32711	32694	32679	32815	32762	32727	32626	
801	0	32717	32526	32530	32607	32839	32727	32763	32543	
802	0	32708	32764	32587	32711	32839	32694	32735	32663	
803	0	32669	32747	32432	32548	32727	32701	32719	32575	
804	0	32690	32516	32661	32481	32754	32708	32733	32685	
805	0	32734	32791	32671	32551	32723	32726	32810	32535	
806	0	32732	32745	32690	32621	32747	32765	32799	32727	
807	0	32722	32535	32515	32532	32743	32743	32765	32566	
808	0	32655	32631	32735	32631	32775	32766	32719	32823	
809	0	32702	32889	32701	32763	32775	32807	32799	32721	
810	0	32757	32831	32655	32807	32741	32692	32886	32769	
811	0	32733	32835	32797	32853	32676	32711	32933	32620	
812	0	32766	32915	32739	32999	32679	32658	32935	32693	
813	0	32839	32903	32999	32973	32711	32647	33001	32655	
814	0	32949	32919	33007	33125	32628	32707	33087	32775	
815	0	33047	33011	33031	33121	32543	32665	33185	32571	
816	0	33093	32775	33223	33179	32566	32591	33391	32619	
817	0	33199	33031	33165	33198	32635	32493	33451	32421	
818	0	33236	33023	33526	33331	32518	32495	33549	32459	
819	0	33335	32967	33375	33265	32583	32451	33510	32351	
820	0	33282	32812	33230	33255	32589	32599	33459	32474	
821	0	33212	33019	33213	33050	32551	32593	33218	32535	
822	0	33111	32890	33071	33101	32659	32637	33026	32554	
823	0	32952	32619	32762	33015	32790	32772	32879	32629	
824	0	32783	32855	32479	32790	32711	32771	32811	32479	
825	0	32736	32843	32476	32767	32831	32799	32791	32647	
826	0	32717	32647	32478	32614	32821	32806	32773	32694	
827	0	32641	32805	32491	32683	32871	32773	32703	32711	
828	0	32573	32695	32303	32671	32887	32727	32647	32503	
829	0	32638	32599	32351	32580	32977	32773	32705	32675	
830	0	32525	32775	32413	32628	33055	32807	32692	32641	
831	0	32561	32567	32399	32582	32863	32839	32646	32695	
832	0	32572	32823	32523	32564	32835	32832	32635	32727	
833	0	32590	32759	32378	32434	32922	32759	32578	32642	
834	0	32594	32589	32577	32565	32895	32775	32493	32830	
835	0	32671	32797	32514	32565	32742	32719	32509	32647	
836	0	32672	32806	32583	32627	32826	32687	32599	32789	
837	0	32786	32811	32495	32694	32813	32741	32573	32661	
838	0	32793	32743	32554	32717	32823	32684	32582	32806	
839	0	32780	32597	32685	32723	32724	32730	32603	32809	
840	0	32783	32807	32615	32709	32707	32767	32659	32794	
841	0	32718	32547	32559	32738	32731	32754	32647	32761	
842	0	32769	32883	32621	32740	32783	32775	32715	32601	
843	0	32799	32775	32604	32775	32807	32775	32717	32774	
844	0	32751	32739	32485	32803	32877	32723	32655	32767	
845	0	32770	32823	32483	32811	32827	32735	32673	32613	
846	0	32741	32583	32623	32822	32711	32775	32634	32647	
847	0	32758	32867	32582	32811	32839	32701	32655	32543	
848	0	32724	32752	32703	32751	32790	32718	32631	32660	
849	0	32742	32583	32579	32815	32915	32677	32743	32623	
850	0	32762	32887	32699	32621	32823	32751	32708	32694	
851	0	32793	32791	32660	32767	32762	32799	32725	32708	
852	0	32774	32695	32587	32775	32774	32790	32711	32599	
853	0	32780	32799	32695	32731	32791	32743	32700	32739	
854	0	32773	32790	32542	32790	32809	32769	32727	32532	
855	0	32799	32775	32563	32599	32663	32715	32731	32687	
856	0	32699	32839	32717	32764	32647	32748	32765	32627	
857	0	32665	32631	32613	32591	32772	32811	32811	32815	
858	0	32644	32903	32639	32711	32741	32751	32766	32721	
859	0	32704	32845	32675	32621	32751	32749	32769	32799	
860	0	32773	32694	32535	32751	32719	32739	32807	32713	
861	0	32726	32783	32562	32773	32658	32719	32811	32615	
862	0	32771	32583	32703	32767	32748	32676	32769	32743	
863	0	32815	32687	32662	32755	32759	32631	32806	32767	
864	0	32841	32738	32500	32599	32716	32667	32827	32699	
865	0	32797	32759	32583	32620	32687	32662	32806	32741	
866	0	32786	32647	32615	32662	32756	32773	32879	32606	
867	0	32794	32903	32671	32555	32747	32679	32829	32727	
868	0	32786	32775	32517	32621	32766	32668	32816	32743	
869	0	32741	32739	32751	32540	32735	32719	32809	32738	
870	0	32759	32775	32646	32759	32809	32774	32854	32717	
871	0	32719	32759	32663	32807	32900	32788	32722	32747	
872	0	32743	32663	32477	32740	32735	32694	32645	32679	
873	0	32752	32863	32679	32891	32766	32726	32671	32775	
874	0	32783	32802	32654	32993	32807	32813	32647	32775	
875	0	32758	32631	32559	32834	32819	32747	32645	32817	
876	0	32764	32855	32543	32871	32831	32734	32735	32823	
877	0	32765	32796	32691	32847	32870	32659	32724	32726	
878	0	32710	32658	32642	32795	32895	32663	32767	32799	
879	0	32738	32895	32683	32783	32878	32643	32764	32723	
880	0	32714	32837	32455	32807	32763	32578	32749	32743	
881	0	32732	32684	32695	32751	32799	32599	32695	32590	
882	0	32773	32831	32547	32692	32743	32598	32735	32679	
883	0	32772	32583	32605	32737	32759	32655	32775	32687	
884	0	32732	32915	32663	32643	32810	32659	32818	32743	
885	0	32721	32799	32511	32755	32719	32687	32895	32690	
886	0	32703	32629	32735	32604	32747	32751	32815	32620	
887	0	32748	32767	32642	32699	32849	32751	32809	32671	
888	0	32759	32555	32566	32653	32799	32799	32731	32567	
889	0	32753	32843	32647	32772	32839	32791	32767	32677	
890	0	32749	32751	32510	32766	32723	32787	32871	32565	
891	0	32775	32567	32719	32758	32705	32823	32859	32629	
892	0	32738	32773	32655	32732	32775	32795	32811	32703	
893	0	32767	32799	32583	32587	32807	32789	32839	32727	
894	0	32729	32631	32551	32711	32835	32766	32775	32621	
895	0	32839	32931	32719	32677	32717	32708	32786	32693	
896	0	32808	32803	32655	32731	32681	32773	32755	32526	
897	0	32753	32642	32523	32794	32695	32785	32711	32713	
898	0	32739	32843	32758	32911	32839	32775	32731	32795	
899	0	32767	32743	32635	32962	32743	32803	32687	32742	
900	0	32714	32549	32641	32775	32813	32679	32662	32711	
901	0	32788	32866	32532	32806	32812	32661	32715	32679	
902	0	32775	32783	32655	32811	32798	32627	32758	32743	
903	0	32759	32585	32625	32783	32742	32620	32718	32639	
904	0	32734	32817	32583	32827	32883	32662	32807	32732	
905	0	32804	32759	32591	32705	32951	32583	32741	32657	
906	0	32788	32595	32693	32711	32775	32639	32717	32721	
907	0	32727	32878	32684	32679	32790	32765	32775	32615	
908	0	32798	32773	32507	32626	32799	32711	32826	32694	
909	0	32841	32623	32613	32733	32819	32677	32829	32643	
910	0	32847	32859	32627	32621	32686	32671	32825	32701	
911	0	32745	32738	32590	32753	32742	32709	32850	32620	
912	0	32787	32621	32551	32807	32795	32735	32831	32722	
913	0	32739	32839	32737	32773	32791	32819	32788	32531	
914	0	32727	32825	32727	32785	32791	32791	32795	32723	
915	0	32714	32647	32527	32853	32791	32739	32736	32535	
916	0	32785	32759	32751	32875	32798	32671	32727	32703	
917	0	32760	32839	32629	32820	32743	32743	32707	32567	
918	0	32831	32767	32671	32603	32775	32723	32789	32599	
919	0	32786	32647	32551	32687	32747	32743	32761	32549	
920	0	32784	32852	32755	32727	32705	32722	32715	32647	
921	0	32804	32743	32591	32578	32807	32871	32727	32479	
922	0	32783	32647	32731	32647	32787	32844	32684	32703	
923	0	32772	32749	32615	32559	32900	32811	32659	32743	
924	0	32831	32743	32615	32675	32743	32741	32707	32732	
925	0	32816	32685	32742	32860	32898	32703	32679	32695	
926	0	32799	32773	32607	32844	32818	32731	32706	32679	
927	0	32800	32599	32699	32852	32819	32679	32703	32749	
928	0	32775	32886	32563	32915	32735	32687	32731	32597	
929	0	32788	32807	32681	32903	32807	32681	32749	32700	
930	0	32775	32721	32565	32769	32783	32709	32785	32513	
931	0	32796	32801	32623	32850	32829	32695	32695	32671	
932	0	32806	32676	32633	32699	32806	32715	32739	32698	
933	0	32765	32957	32463	32751	32638	32735	32750	32615	
934	0	32735	32858	32735	32643	32677	32669	32797	32719	
935	0	32702	32771	32655	32711	32757	32775	32751	32580	
936	0	32743	32788	32663	32821	32727	32685	32829	32723	
937	0	32768	32578	32654	32637	32811	32735	32839	32629	
938	0	32740	32873	32447	32707	32751	32722	32863	32724	
939	0	32773	32715	32599	32595	32694	32671	32789	32733	
940	0	32701	32683	32719	32717	32805	32750	32775	32803	
941	0	32743	32772	32751	32743	32809	32743	32764	32717	
942	0	32730	32578	32683	32767	32845	32646	32757	32501	
943	0	32794	32858	32599	32807	32706	32672	32711	32751	
944	0	32755	32775	32615	32852	32757	32699	32723	32691	
945	0	32727	32666	32684	32753	32767	32610	32748	32786	
946	0	32724	32889	32663	32615	32738	32607	32773	32746	
947	0	32741	32843	32487	32739	32713	32603	32766	32827	
948	0	32700	32643	32643	32787	32758	32606	32767	32771	
949	0	32685	32830	32625	32775	32823	32713	32743	32547	
950	0	32707	32567	32663	32695	32829	32739	32749	32690	
951	0	32786	32863	32543	32811	32743	32775	32703	32669	
952	0	32758	32769	32757	32859	32767	32753	32694	32707	
953	0	32812	32623	32731	32767	32790	32775	32700	32725	
954	0	32791	32831	32743	32791	32841	32733	32737	32655	
955	0	32804	32765	32565	32711	32695	32677	32739	32671	
956	0	32784	32551	32731	32869	32807	32723	32687	32623	
957	0	32829	32802	32707	32749	32787	32684	32710	32683	
958	0	32754	32695	32628	32747	32775	32711	32759	32647	
959	0	32727	32659	32677	32775	32839	32795	32727	32783	
960	0	32786	32743	32543	32550	32660	32755	32783	32679	
961	0	32827	32606	32759	32563	32671	32730	32775	32719	
962	0	32761	32763	32599	32599	32719	32775	32827	32715	
963	0	32719	32791	32655	32687	32736	32799	32807	32687	
964	0	32730	32601	32454	32765	32748	32791	32813	32743	
965	0	32743	32859	32525	32684	32802	32775	32821	32604	
966	0	32759	32735	32695	32799	32775	32703	32829	32676	
967	0	32773	32710	32619	32818	32727	32775	32809	32519	
968	0	32743	32759	32714	32809	32711	32719	32796	32693	
969	0	32775	32681	32673	32855	32749	32742	32742	32713	
970	0	32713	32863	32559	32871	32762	32731	32724	32675	
971	0	32680	32843	32669	32836	32852	32743	32707	32775	
972	0	32671	32727	32687	32711	32684	32719	32740	32647	
973	0	32732	32851	32696	32758	32827	32740	32695	32663	
974	0	32745	32671	32486	32669	32831	32775	32665	32565	
975	0	32741	32897	32479	32765	32891	32821	32665	32671	
976	0	32726	32807	32687	32763	32807	32775	32735	32605	
977	0	32756	32703	32523	32813	32759	32742	32711	32719	
978	0	32818	32885	32642	32738	32807	32751	32743	32691	
979	0	32703	32823	32481	32597	32766	32796	32773	32607	
980	0	32758	32705	32687	32759	32839	32758	32806	32631	
981	0	32780	32763	32647	32761	32751	32759	32783	32551	
982	0	32713	32563	32681	32835	32752	32619	32757	32751	
983	0	32751	32813	32775	32807	32755	32647	32799	32752	
984	0	32743	32551	32735	32831	32870	32639	32727	32515	
985	0	32758	32901	32530	32823	32725	32603	32761	32695	
986	0	32806	32683	32711	32666	32836	32677	32731	32548	
987	0	32734	32607	32575	32720	32729	32703	32692	32699	
988	0	32796	32874	32731	32791	32795	32625	32695	32597	
989	0	32754	32763	32530	32775	32807	32613	32695	32762	
990	0	32742	32614	32695	32839	32695	32636	32701	32601	
991	0	32742	32793	32679	32713	32637	32646	32743	32775	
992	0	32762	32590	32695	32753	32755	32655	32847	32711	
993	0	32797	32941	32562	32759	32791	32655	32826	32559	
994	0	32767	32867	32727	32775	32763	32625	32775	32687	
995	0	32775	32713	32647	32570	32765	32581	32823	32627	
996	0	32769	32839	32713	32661	32695	32586	32813	32745	
997	0	32744	32813	32539	32662	32767	32751	32818	32685	
998	0	32752	32822	32743	32791	32783	32635	32822	32699	
999	0	32775	32817	32647	32735	32801	32627	32818	32685	
1000	0	32727	32581	32543	32723	32717	32615	32793	32769	
1001	0	32677	32835	32610	32775	32731	32658	32775	32729	
1002	0	32742	32711	32647	32621	32783	32704	32815	32621	
1003	0	32775	32621	32647	32671	32819	32731	32807	32731	
1004	0	32787	32762	32551	32661	32727	32711	32821	32583	
1005	0	32799	32747	32687	32791	32755	32613	32766	32714	
1006	0	32846	32619	32578	32751	32790	32731	32721	32611	
1007	0	32761	32769	32682	32775	32801	32739	32735	32749	
1008	0	32703	32573	32475	32847	32735	32734	32719	32573	
1009	0	32763	32783	32748	32660	32786	32623	32775	32710	
1010	0	32742	32773	32669	32694	32819	32620	32773	32687	
1011	0	32717	32589	32659	32655	32787	32666	32775	32732	
1012	0	32773	32871	32540	32863	32747	32632	32785	32659	
1013	0	32805	32799	32807	32747	32799	32619	32775	32715	
1014	0	32799	32662	32706	32787	32805	32675	32807	32687	
1015	0	32860	32863	32619	32749	32839	32711	32775	32719	
1016	0	32837	32767	32623	32614	32743	32711	32751	32711	
1017	0	32855	32659	32671	32717	32762	32803	32795	32631	
1018	0	32869	32879	32727	32575	32738	32790	32807	32675	
1019	0	32775	32765	32631	32703	32764	32787	32801	32662	
1020	0	32802	32581	32735	32775	32685	32707	32738	32772	
1021	0	32851	32851	32700	32595	32767	32733	32764	32663	
1022	0	32818	32748	32575	32671	32801	32767	32767	32642	
1023	0	32809	32605	32615	32759	32895	32786	32771	32463	
1024	0	32793	32839	32583	32787	32713	32686	32723	32646	
1025	0	32690	32754	32599	32767	32803	32699	32775	32589	
1026	0	32728	32691	32391	32663	32915	32718	32735	32666	
1027	0	32734	32901	32590	32676	32799	32699	32727	32495	
1028	0	32708	32812	32595	32686	32783	32711	32767	32595	
1029	0	32812	32643	32541	32698	32771	32735	32773	32630	
1030	0	32745	32709	32713	32759	32766	32607	32791	32647	
1031	0	32767	32855	32660	32775	32805	32641	32815	32683	
1032	0	32726	32737	32607	32833	32813	32718	32775	32619	
1033	0	32749	32589	32615	32850	32743	32725	32821	32709	
1034	0	32677	32773	32623	32793	32751	32787	32775	32630	
1035	0	32713	32767	32639	32975	32755	32719	32819	32679	
1036	0	32729	32809	32534	32935	32630	32759	32799	32535	
1037	0	32738	32652	32681	32740	32790	32786	32751	32671	
1038	0	32740	32783	32723	32875	32871	32775	32775	32519	
1039	0	32743	32783	32621	32791	32734	32713	32738	32575	
1040	0	32758	32684	32627	32721	32729	32759	32693	32557	
1041	0	32824	32838	32823	32798	32791	32721	32789	32685	
1042	0	32755	32653	32642	32727	32831	32702	32759	32706	
1043	0	32694	32903	32639	32839	32707	32692	32775	32749	
1044	0	32743	32862	32643	32807	32775	32721	32853	32748	
1045	0	32796	32671	32703	32790	32844	32705	32807	32671	
1046	0	32775	32867	32711	32790	32865	32639	32788	32751	
1047	0	32761	32775	32613	32751	32757	32623	32829	32619	
1048	0	32729	32670	32815	32727	32755	32605	32815	32725	
1049	0	32751	32858	32647	32702	32791	32579	32797	32671	
1050	0	32749	32787	32747	32694	32828	32615	32825	32683	
1051	0	32731	32751	32631	32630	32782	32679	32773	32617	
1052	0	32731	32835	32469	32703	32703	32703	32751	32764	
1053	0	32756	32702	32508	32679	32708	32689	32725	32685	
1054	0	32786	32818	32694	32698	32836	32695	32775	32621	
1055	0	32758	32813	32710	32775	32795	32690	32811	32663	
1056	0	32799	32754	32647	32791	32791	32671	32743	32543	
1057	0	32830	32719	32619	32823	32847	32745	32723	32711	
1058	0	32836	32623	32495	32828	32752	32743	32817	32683	
1059	0	32751	32895	32692	32829	32687	32701	32786	32621	
1060	0	32796	32766	32711	32923	32767	32733	32815	32671	
1061	0	32849	32667	32668	32819	32820	32639	32775	32519	
1062	0	32827	32767	32661	32875	32807	32635	32829	32754	
1063	0	32804	32642	32511	32846	32838	32679	32726	32705	
1064	0	32793	32819	32747	32815	32799	32637	32761	32743	
1065	0	32814	32759	32591	32751	32692	32671	32735	32762	
1066	0	32784	32843	32692	32731	32726	32732	32884	32598	
1067	0	32688	32875	32697	32773	32751	32799	32811	32660	
1068	0	32716	32866	32549	32740	32763	32799	32794	32695	
1069	0	32813	32859	32807	32807	32751	32789	32839	32725	
1070	0	32744	32637	32639	32783	32690	32796	32723	32723	
1071	0	32721	32862	32687	32615	32687	32775	32687	32551	
1072	0	32758	32789	32703	32706	32815	32748	32695	32674	
1073	0	32728	32775	32479	32786	32735	32775	32767	32647	
1074	0	32722	32767	32722	32817	32795	32819	32874	32692	
1075	0	32698	32599	32706	32809	32639	32749	32741	32609	
1076	0	32758	32818	32571	32655	32790	32766	32783	32711	
1077	0	32666	32787	32730	32825	32791	32789	32822	32671	
1078	0	32730	32799	32598	32759	32775	32749	32735	32660	
1079	0	32735	32821	32660	32715	32735	32810	32839	32631	
1080	0	32701	32801	32611	32771	32786	32747	32839	32629	
1081	0	32743	32711	32442	32703	32853	32767	32791	32679	
1082	0	32686	32802	32491	32767	32803	32751	32727	32572	
1083	0	32743	32790	32588	32615	32794	32740	32726	32764	
1084	0	32724	32877	32601	32745	32679	32711	32706	32647	
1085	0	32732	32883	32679	32658	32647	32694	32748	32702	
1086	0	32759	32702	32509	32711	32711	32709	32799	32700	
1087	0	32791	32775	32745	32709	32773	32679	32797	32615	
1088	0	32734	32635	32735	32765	32841	32767	32797	32694	
1089	0	32742	32913	32615	32743	32775	32637	32799	32554	
1090	0	32677	32762	32745	32627	32711	32577	32823	32773	
1091	0	32784	32681	32623	32767	32826	32575	32829	32802	
1092	0	32750	32765	32532	32629	32773	32591	32771	32686	
1093	0	32733	32583	32775	32733	32735	32599	32743	32775	
1094	0	32820	32875	32668	32660	32838	32629	32743	32658	
1095	0	32799	32807	32695	32786	32815	32739	32739	32701	
1096	0	32769	32633	32487	32829	32734	32799	32773	32644	
1097	0	32749	32893	32715	32879	32839	32807	32772	32687	
1098	0	32838	32839	32615	32787	32834	32751	32743	32611	
1099	0	32784	32711	32663	32775	32815	32795	32751	32735	
1100	0	32807	32895	32498	32767	32775	32831	32743	32683	
1101	0	32765	32751	32692	32742	32836	32795	32699	32740	
1102	0	32783	32677	32751	32871	32805	32717	32767	32633	
1103	0	32763	32791	32561	32811	32755	32754	32791	32732	
1104	0	32780	32711	32771	32751	32711	32707	32782	32685	
1105	0	32814	32669	32569	32775	32756	32727	32829	32775	
1106	0	32790	32855	32599	32642	32812	32759	32751	32699	
1107	0	32681	32739	32423	32803	32806	32784	32774	32807	
1108	0	32723	32766	32735	32711	32678	32749	32727	32711	
1109	0	32790	32766	32689	32754	32695	32683	32751	32647	
1110	0	32760	32711	32639	32807	32738	32750	32740	32786	
1111	0	32745	32751	32607	32743	32767	32715	32775	32663	
1112	0	32695	32627	32531	32775	32807	32623	32823	32785	
1113	0	32679	32847	32671	32645	32681	32643	32790	32601	
1114	0	32660	32735	32700	32708	32775	32598	32811	32719	
1115	0	32745	32591	32599	32743	32726	32601	32796	32647	
1116	0	32735	32711	32759	32775	32791	32551	32739	32712	
1117	0	32685	32741	32711	32716	32647	32644	32706	32628	
1118	0	32773	32724	32542	32690	32771	32571	32767	32749	
1119	0	32732	32709	32604	32715	32763	32595	32687	32789	
1120	0	32780	32583	32615	32558	32863	32617	32727	32693	
1121	0	32719	32843	32662	32727	32705	32677	32756	32732	
1122	0	32795	32770	32470	32755	32830	32725	32699	32647	
1123	0	32798	32603	32661	32703	32827	32758	32707	32659	
1124	0	32775	32874	32551	32799	32751	32773	32683	32734	
1125	0	32790	32805	32643	32714	32762	32802	32687	32739	
1126	0	32742	32723	32556	32756	32789	32775	32755	32549	
1127	0	32718	32823	32785	32663	32837	32687	32706	32690	
1128	0	32689	32723	32658	32751	32807	32695	32750	32685	
1129	0	32721	32763	32720	32641	32727	32711	32743	32642	
1130	0	32749	32637	32709	32725	32754	32694	32771	32647	
1131	0	32733	32765	32540	32646	32775	32683	32733	32539	
1132	0	32781	32764	32727	32751	32795	32597	32748	32611	
1133	0	32784	32612	32703	32683	32749	32579	32806	32532	
1134	0	32784	32775	32580	32661	32775	32642	32767	32663	
1135	0	32823	32771	32762	32703	32839	32647	32722	32573	
1136	0	32794	32767	32604	32811	32799	32574	32735	32789	
1137	0	32822	32847	32727	32903	32785	32604	32740	32735	
1138	0	32686	32647	32519	32734	32807	32628	32823	32655	
1139	0	32714	32935	32581	32903	32809	32627	32703	32695	
1140	0	32804	32879	32667	32647	32767	32607	32765	32613	
1141	0	32799	32647	32666	32787	32788	32557	32763	32686	
1142	0	32745	32875	32559	32705	32823	32647	32766	32501	
1143	0	32703	32767	32540	32879	32839	32642	32735	32689	
1144	0	32711	32577	32629	32868	32749	32687	32717	32603	
1145	0	32702	32791	32603	32819	32819	32673	32739	32675	
1146	0	32721	32799	32546	32895	32825	32669	32707	32517	
1147	0	32677	32623	32646	32733	32847	32695	32741	32674	
1148	0	32767	32759	32615	32903	32822	32738	32743	32669	
1149	0	32775	32593	32631	32775	32759	32691	32845	32725	
1150	0	32796	32867	32445	32855	32823	32698	32864	32692	
1151	0	32728	32829	32578	32705	32796	32695	32773	32637	
1152	0	32711	32791	32687	32805	32866	32726	32717	32702	
1153	0	32769	32804	32701	32675	32837	32732	32739	32635	
1154	0	32775	32679	32595	32739	32775	32815	32694	32630	
1155	0	32768	32879	32639	32647	32671	32751	32740	32671	
1156	0	32788	32615	32541	32714	32791	32713	32756	32474	
1157	0	32804	32871	32742	32594	32764	32736	32790	32671	
1158	0	32796	32759	32681	32748	32801	32743	32757	32623	
1159	0	32838	32711	32697	32642	32658	32747	32790	32711	
1160	0	32894	32739	32543	32691	32807	32723	32806	32731	
1161	0	32844	32585	32775	32706	32759	32727	32799	32735	
1162	0	32833	32683	32647	32693	32647	32687	32774	32621	
1163	0	32859	32811	32663	32699	32747	32655	32764	32767	
1164	0	32779	32639	32655	32679	32745	32694	32770	32754	
1165	0	32798	32751	32765	32711	32735	32623	32795	32761	
1166	0	32787	32811	32647	32635	32719	32722	32795	32719	
1167	0	32796	32775	32681	32711	32739	32721	32759	32732	
1168	0	32711	32669	32566	32731	32797	32644	32719	32701	
1169	0	32679	32790	32647	32837	32749	32671	32707	32831	
1170	0	32706	32596	32757	32767	32812	32668	32751	32771	
1171	0	32694	32903	32729	32751	32790	32647	32721	32687	
1172	0	32706	32747	32546	32743	32838	32679	32743	32673	
1173	0	32731	32674	32783	32687	32786	32711	32718	32543	
1174	0	32714	32743	32701	32735	32679	32695	32807	32688	
1175	0	32697	32638	32628	32637	32706	32613	32859	32621	
1176	0	32771	32762	32591	32760	32757	32647	32775	32705	
1177	0	32706	32577	32655	32788	32797	32729	32811	32694	
1178	0	32692	32827	32562	32749	32827	32791	32751	32497	
1179	0	32726	32807	32491	32603	32663	32763	32726	32711	
1180	0	32711	32764	32623	32694	32667	32754	32747	32567	
1181	0	32727	32791	32583	32707	32786	32647	32725	32767	
1182	0	32759	32891	32631	32838	32799	32725	32751	32711	
1183	0	32764	32767	32627	32759	32807	32773	32775	32598	
1184	0	32788	32827	32671	32837	32885	32711	32737	32638	
1185	0	32770	32767	32739	32697	32875	32691	32669	32674	
1186	0	32775	32868	32711	32631	32751	32740	32757	32547	
1187	0	32786	32743	32611	32723	32685	32743	32799	32622	
1188	0	32725	32767	32471	32663	32804	32753	32811	32667	
1189	0	32735	32799	32709	32671	32797	32686	32743	32621	
1190	0	32769	32629	32611	32589	32885	32727	32749	32678	
1191	0	32812	32887	32643	32647	32746	32751	32799	32591	
1192	0	32750	32796	32569	32543	32767	32743	32683	32727	
1193	0	32772	32655	32614	32675	32718	32679	32698	32551	
1194	0	32751	32827	32735	32793	32799	32679	32795	32703	
1195	0	32797	32743	32631	32751	32639	32666	32775	32567	
1196	0	32773	32767	32695	32837	32739	32694	32767	32703	
1197	0	32783	32786	32534	32854	32711	32695	32795	32543	
1198	0	32789	32699	32822	32861	32866	32799	32838	32627	
1199	0	32817	32812	32717	32783	32807	32739	32775	32695	
1200	0	32828	32559	32703	32678	32741	32663	32807	32524	
1201	0	32768	32861	32687	32789	32861	32670	32771	32711	
1202	0	32783	32643	32519	32791	32782	32647	32735	32671	
1203	0	32751	32865	32588	32829	32815	32627	32711	32713	
1204	0	32697	32759	32738	32773	32772	32607	32756	32647	
1205	0	32773	32615	32660	32775	32743	32660	32797	32559	
1206	0	32781	32734	32721	32762	32667	32717	32823	32621	
1207	0	32766	32655	32669	32783	32751	32751	32762	32534	
1208	0	32830	32871	32605	32787	32710	32711	32751	32621	
1209	0	32786	32799	32582	32622	32647	32695	32751	32497	
1210	0	32812	32623	32631	32743	32685	32711	32763	32587	
1211	0	32827	32895	32546	32693	32679	32677	32763	32527	
1212	0	32814	32751	32658	32800	32791	32615	32796	32655	
1213	0	32846	32567	32551	32756	32724	32610	32802	32623	
1214	0	32761	32847	32657	32711	32679	32675	32773	32775	
1215	0	32753	32771	32612	32727	32699	32709	32775	32767	
1216	0	32771	32710	32679	32615	32763	32738	32751	32647	
1217	0	32775	32837	32564	32783	32785	32679	32762	32735	
1218	0	32750	32579	32667	32743	32687	32755	32735	32589	
1219	0	32775	32847	32582	32719	32741	32623	32775	32703	
1220	0	32784	32839	32758	32719	32775	32628	32839	32639	
1221	0	32761	32583	32642	32745	32885	32647	32743	32727	
1222	0	32769	32859	32593	32703	32893	32691	32695	32735	
1223	0	32765	32759	32703	32679	32818	32693	32711	32767	
1224	0	32761	32731	32571	32903	32774	32738	32764	32743	
1225	0	32738	32775	32735	32876	32830	32763	32747	32769	
1226	0	32730	32805	32633	32731	32898	32783	32791	32759	
1227	0	32763	32708	32573	32894	32773	32736	32826	32773	
1228	0	32823	32791	32767	32807	32813	32647	32759	32687	
1229	0	32738	32719	32767	32690	32835	32655	32743	32750	
1230	0	32727	32583	32755	32759	32877	32708	32725	32655	
1231	0	32766	32835	32707	32739	32738	32730	32678	32795	
1232	0	32703	32775	32559	32695	32710	32663	32749	32719	
1233	0	32708	32882	32755	32581	32809	32663	32785	32607	
1234	0	32718	32870	32687	32519	32799	32709	32775	32715	
1235	0	32761	32644	32574	32497	32878	32647	32767	32605	
1236	0	32764	32903	32535	32658	32725	32708	32835	32690	
1237	0	32798	32740	32559	32733	32655	32725	32835	32607	
1238	0	32888	32655	32681	32679	32828	32681	32790	32679	
1239	0	32750	32805	32607	32871	32793	32710	32749	32647	
1240	0	32715	32612	32501	32859	32863	32711	32751	32587	
1241	0	32746	32869	32603	33053	32721	32686	32687	32683	
1242	0	32764	32741	32751	33039	32775	32758	32704	32519	
1243	0	32769	32831	32682	32939	32806	32751	32695	32730	
1244	0	32749	32741	32717	32908	32813	32742	32700	32681	
1245	0	32742	32639	32578	32834	32871	32647	32795	32588	
1246	0	32781	32773	32807	32756	32815	32727	32775	32661	
1247	0	32756	32606	32695	32662	32712	32767	32699	32623	
1248	0	32692	32797	32692	32681	32759	32738	32687	32751	
1249	0	32769	32579	32671	32559	32701	32789	32690	32787	
1250	0	32734	32841	32699	32663	32793	32802	32686	32647	
1251	0	32707	32809	32555	32559	32775	32751	32746	32687	
1252	0	32749	32643	32677	32655	32775	32759	32708	32611	
1253	0	32741	32861	32709	32717	32659	32749	32659	32719	
1254	0	32746	32815	32620	32684	32759	32703	32662	32671	
1255	0	32784	32662	32647	32775	32749	32799	32703	32719	
1256	0	32758	32851	32753	32797	32771	32705	32743	32798	
1257	0	32733	32775	32628	32783	32719	32694	32711	32719	
1258	0	32788	32663	32581	32838	32730	32721	32790	32493	
1259	0	32775	32790	32644	32699	32719	32730	32817	32685	
1260	0	32745	32553	32583	32803	32807	32722	32827	32615	
1261	0	32788	32819	32543	32647	32829	32759	32819	32672	
1262	0	32783	32743	32738	32775	32855	32756	32871	32684	
1263	0	32833	32621	32629	32767	32717	32722	32827	32695	
1264	0	32742	32894	32718	32791	32855	32773	32871	32621	
1265	0	32742	32764	32583	32802	32807	32696	32823	32715	
1266	0	32761	32658	32493	32671	32841	32710	32851	32711	
1267	0	32704	32883	32611	32799	32850	32683	32837	32697	
1268	0	32789	32804	32595	32807	32811	32639	32791	32647	
1269	0	32770	32679	32471	32615	32815	32722	32806	32629	
1270	0	32789	32859	32775	32748	32711	32719	32819	32659	
1271	0	32782	32818	32647	32771	32791	32705	32791	32717	
1272	0	32819	32693	32553	32634	32743	32683	32725	32641	
1273	0	32758	32933	32765	32839	32719	32653	32735	32743	
1274	0	32796	32837	32607	32807	32787	32621	32742	32611	
1275	0	32771	32643	32679	32658	32822	32641	32767	32775	
1276	0	32765	32827	32587	32759	32789	32658	32775	32686	
1277	0	32748	32823	32590	32759	32786	32647	32707	32703	
1278	0	32748	32567	32595	32753	32771	32663	32719	32647	
1279	0	32734	32791	32711	32783	32795	32635	32731	32775	
1280	0	32752	32755	32603	32679	32791	32676	32719	32658	
1281	0	32696	32582	32815	32770	32769	32821	32717	32713	
1282	0	32702	32892	32693	32749	32687	32773	32738	32583	
1283	0	32711	32851	32554	32623	32742	32743	32760	32723	
1284	0	32719	32831	32815	32825	32783	32820	32727	32615	
1285	0	32771	32751	32666	32971	32717	32841	32756	32766	
1286	0	32797	32852	32732	32845	32758	32775	32751	32583	
1287	0	32782	32591	32663	32911	32796	32797	32743	32687	
1288	0	32775	32839	32571	32723	32775	32749	32759	32708	
1289	0	32804	32743	32702	32735	32863	32743	32769	32723	
1290	0	32762	32577	32535	32770	32741	32724	32735	32695	
1291	0	32787	32711	32595	32807	32790	32707	32765	32727	
1292	0	32713	32717	32501	32791	32845	32751	32767	32799	
1293	0	32711	32791	32479	32763	32868	32711	32765	32647	
1294	0	32694	32773	32659	32768	32751	32749	32793	32689	
1295	0	32702	32743	32627	32631	32815	32789	32767	32623	
1296	0	32743	32655	32501	32807	32797	32703	32749	32639	
1297	0	32795	32875	32711	32747	32773	32719	32735	32730	
1298	0	32751	32845	32743	32647	32773	32741	32698	32791	
1299	0	32806	32743	32669	32692	32791	32711	32757	32666	
1300	0	32788	32810	32676	32685	32775	32599	32803	32759	
1301	0	32807	32621	32713	32858	32750	32591	32753	32647	
1302	0	32737	32815	32687	32749	32703	32559	32767	32722	
1303	0	32748	32783	32629	32787	32755	32645	32823	32555	
1304	0	32698	32746	32516	32861	32711	32723	32837	32767	
1305	0	32689	32809	32537	32871	32730	32771	32759	32749	
1306	0	32700	32683	32674	32839	32767	32731	32706	32679	
1307	0	32699	32865	32734	32749	32775	32775	32729	32781	
1308	0	32775	32821	32519	32859	32709	32803	32673	32631	
1309	0	32734	32823	32775	32738	32727	32763	32687	32660	
1310	0	32714	32798	32593	32767	32847	32786	32731	32567	
1311	0	32754	32527	32647	32866	32814	32743	32789	32671	
1312	0	32751	32839	32467	32797	32762	32727	32819	32571	
1313	0	32805	32793	32539	32734	32723	32755	32815	32727	
1314	0	32788	32698	32671	32663	32775	32741	32796	32615	
1315	0	32724	32919	32607	32687	32791	32735	32771	32679	
1316	0	32719	32786	32553	32749	32859	32705	32831	32615	
1317	0	32785	32607	32791	32757	32775	32679	32766	32701	
1318	0	32791	32886	32647	32783	32713	32730	32727	32703	
1319	0	32749	32860	32708	32541	32751	32775	32770	32663	
1320	0	32759	32788	32479	32647	32783	32763	32741	32629	
1321	0	32742	32855	32567	32534	32719	32791	32723	32487	
1322	0	32784	32715	32631	32741	32804	32853	32762	32642	
1323	0	32759	32839	32646	32775	32732	32804	32743	32674	
1324	0	32741	32677	32590	32764	32711	32839	32815	32690	
1325	0	32804	32911	32583	32783	32903	32775	32775	32669	
1326	0	32798	32863	32691	32847	32788	32749	32775	32519	
1327	0	32828	32851	32626	32866	32775	32763	32843	32687	
1328	0	32807	32785	32719	32738	32819	32725	32814	32621	
1329	0	32810	32591	32550	32850	32775	32732	32733	32771	
1330	0	32797	32847	32755	32887	32713	32799	32730	32675	
1331	0	32784	32775	32659	32949	32831	32799	32717	32708	
1332	0	32766	32671	32610	32875	32822	32731	32679	32658	
1333	0	32796	32813	32543	32734	32767	32703	32655	32743	
1334	0	32780	32735	32639	32703	32775	32722	32677	32673	
1335	0	32770	32614	32673	32743	32686	32757	32757	32695	
1336	0	32773	32674	32559	32711	32721	32751	32734	32668	
1337	0	32687	32590	32527	32634	32733	32749	32775	32715	
1338	0	32714	32871	32711	32527	32749	32730	32809	32743	
1339	0	32721	32819	32583	32591	32775	32671	32849	32709	
1340	0	32758	32627	32698	32807	32695	32623	32812	32722	
1341	0	32710	32895	32543	32807	32687	32621	32775	32695	
1342	0	32791	32805	32735	32766	32775	32742	32808	32757	
1343	0	32772	32826	32639	32799	32807	32721	32815	32541	
1344	0	32775	32751	32703	32927	32836	32711	32751	32629	
1345	0	32729	32583	32439	32887	32775	32775	32735	32529	
1346	0	32799	32732	32487	32829	32795	32791	32737	32759	
1347	0	32771	32805	32692	32822	32695	32797	32741	32729	
1348	0	32680	32863	32638	32791	32821	32711	32811	32751	
1349	0	32730	32823	32745	32771	32799	32787	32793	32743	
1350	0	32700	32647	32626	32775	32789	32763	32733	32514	
1351	0	32721	32790	32621	32743	32902	32742	32758	32667	
1352	0	32708	32668	32810	32671	32787	32707	32719	32551	
1353	0	32698	32884	32738	32755	32843	32671	32751	32749	
1354	0	32748	32797	32629	32570	32831	32605	32719	32647	
1355	0	32793	32695	32812	32647	32791	32677	32711	32694	
1356	0	32775	32737	32659	32583	32819	32589	32775	32735	
1357	0	32771	32671	32591	32689	32839	32588	32786	32595	
1358	0	32692	32871	32711	32599	32844	32573	32750	32727	
1359	0	32748	32832	32630	32765	32919	32557	32851	32671	
1360	0	32751	32703	32595	32751	32819	32590	32805	32647	
1361	0	32775	32822	32535	32715	32755	32615	32731	32607	
1362	0	32780	32623	32437	32795	32739	32687	32727	32735	
1363	0	32806	32807	32555	32663	32801	32647	32775	32701	
1364	0	32769	32747	32557	32815	32689	32683	32726	32709	
1365	0	32793	32694	32626	32911	32759	32687	32719	32685	
1366	0	32836	32731	32479	32935	32719	32695	32685	32719	
1367	0	32772	32762	32759	32843	32759	32716	32727	32637	
1368	0	32758	32598	32711	32831	32813	32771	32757	32687	
1369	0	32727	32801	32589	32702	32663	32898	32711	32535	
1370	0	32685	32703	32611	32727	32764	32839	32730	32687	
1371	0	32749	32487	32623	32762	32749	32820	32693	32621	
1372	0	32766	32809	32495	32754	32732	32775	32743	32767	
1373	0	32738	32743	32735	32749	32674	32698	32711	32723	
1374	0	32734	32581	32677	32621	32697	32727	32719	32723	
1375	0	32686	32769	32683	32773	32739	32754	32767	32737	
1376	0	32723	32765	32583	32631	32836	32767	32750	32621	
1377	0	32775	32627	32677	32671	32846	32647	32724	32787	
1378	0	32799	32741	32677	32687	32733	32627	32655	32769	
1379	0	32768	32575	32679	32679	32739	32595	32775	32623	
1380	0	32772	32823	32733	32821	32691	32634	32831	32767	
1381	0	32794	32819	32659	32697	32755	32691	32835	32671	
1382	0	32743	32854	32647	32836	32825	32706	32783	32829	
1383	0	32798	32895	32759	32647	32795	32695	32811	32671	
1384	0	32785	32663	32662	32859	32775	32731	32829	32762	
1385	0	32733	32883	32635	32871	32687	32715	32833	32609	
1386	0	32758	32859	32747	32683	32839	32783	32791	32683	
1387	0	32831	32748	32677	32745	32833	32763	32775	32593	
1388	0	32822	32903	32674	32775	32835	32789	32715	32667	
1389	0	32769	32766	32555	32818	32818	32797	32719	32647	
1390	0	32775	32665	32766	32758	32711	32743	32751	32679	
1391	0	32770	32764	32657	32661	32723	32775	32697	32751	
1392	0	32727	32615	32765	32825	32731	32757	32775	32559	
1393	0	32726	32765	32605	32687	32795	32728	32747	32623	
1394	0	32765	32605	32726	32749	32801	32643	32748	32639	
1395	0	32807	32918	32628	32615	32738	32695	32774	32751	
1396	0	32751	32819	32634	32711	32783	32738	32747	32653	
1397	0	32756	32735	32465	32675	32668	32710	32813	32751	
1398	0	32828	32839	32679	32698	32687	32677	32785	32647	
1399	0	32767	32596	32607	32703	32823	32719	32763	32759	
1400	0	32738	32877	32661	32561	32767	32751	32766	32711	
1401	0	32839	32839	32583	32629	32791	32767	32774	32762	
1402	0	32784	32615	32583	32771	32671	32859	32787	32588	
1403	0	32788	32797	32676	32733	32807	32775	32759	32677	
1404	0	32692	32802	32668	32735	32759	32751	32783	32515	
1405	0	32746	32619	32478	32687	32819	32707	32805	32697	
1406	0	32759	32790	32839	32739	32603	32647	32796	32593	
1407	0	32712	32775	32705	32747	32722	32647	32831	32711	
1408	0	32788	32605	32669	32673	32859	32655	32838	32735	
1409	0	32727	32739	32789	32835	32718	32733	32775	32588	
1410	0	32724	32743	32663	32851	32775	32694	32735	32717	
1411	0	32670	32559	32591	32839	32836	32725	32758	32581	
1412	0	32711	32829	32514	32817	32894	32695	32839	32689	
1413	0	32708	32775	32677	32587	32786	32687	32775	32479	
1414	0	32681	32603	32593	32628	32813	32703	32795	32694	
1415	0	32775	32819	32646	32739	32717	32609	32781	32487	
1416	0	32836	32742	32531	32647	32811	32702	32735	32619	
1417	0	32804	32773	32733	32676	32733	32719	32755	32607	
1418	0	32823	32829	32695	32747	32723	32735	32709	32647	
1419	0	32812	32665	32695	32799	32885	32767	32783	32735	
1420	0	32802	32819	32583	32823	32829	32775	32804	32719	
1421	0	32689	32797	32599	32807	32831	32789	32775	32711	
1422	0	32711	32677	32638	32775	32741	32799	32711	32665	
1423	0	32692	32919	32662	32806	32703	32775	32811	32691	
1424	0	32687	32758	32493	32731	32749	32807	32821	32727	
1425	0	32718	32881	32489	32887	32817	32791	32715	32756	
1426	0	32684	32791	32677	32735	32859	32827	32743	32647	
1427	0	32707	32619	32582	32845	32846	32743	32703	32770	
1428	0	32719	32825	32457	32723	32847	32808	32711	32599	
1429	0	32652	32759	32555	32749	32694	32773	32730	32663	
1430	0	32720	32695	32601	32851	32751	32754	32723	32621	
1431	0	32808	32815	32674	32845	32804	32775	32677	32705	
1432	0	32775	32599	32594	32871	32799	32762	32701	32570	
1433	0	32732	32854	32781	32817	32871	32736	32655	32732	
1434	0	32749	32812	32703	32757	32743	32723	32671	32687	
1435	0	32767	32605	32721	32759	32736	32725	32701	32687	
1436	0	32783	32819	32539	32729	32754	32689	32719	32637	
1437	0	32734	32755	32491	32725	32799	32684	32754	32659	
1438	0	32832	32647	32658	32775	32890	32711	32791	32751	
1439	0	32812	32835	32559	32727	32807	32692	32747	32803	
1440	0	32873	32599	32591	32727	32760	32699	32738	32783	
1441	0	32875	32900	32447	32751	32794	32695	32727	32556	
1442	0	32838	32789	32658	32743	32804	32665	32742	32735	
1443	0	32827	32639	32569	32775	32855	32675	32713	32629	
1444	0	32746	32815	32566	32898	32735	32728	32699	32710	
1445	0	32775	32767	32625	32869	32765	32743	32731	32583	
1446	0	32802	32636	32583	32814	32807	32725	32725	32687	
1447	0	32738	32813	32766	32717	32839	32738	32711	32587	
1448	0	32756	32793	32639	32771	32711	32791	32746	32646	
1449	0	32805	32854	32822	32613	32647	32735	32692	32611	
1450	0	32826	32795	32754	32767	32766	32719	32835	32727	
1451	0	32735	32583	32879	32795	32683	32726	32823	32602	
1452	0	32794	32823	32667	32647	32647	32775	32802	32687	
1453	0	32696	32790	32711	32633	32694	32703	32819	32595	
1454	0	32719	32563	32519	32475	32683	32638	32823	32687	
1455	0	32783	32887	32655	32643	32759	32615	32807	32575	
1456	0	32763	32646	32571	32551	32767	32658	32863	32637	
1457	0	32745	32866	32663	32655	32711	32663	32775	32571	
1458	0	32756	32732	32479	32655	32703	32703	32756	32647	
1459	0	32775	32845	32735	32804	32717	32695	32711	32605	
1460	0	32718	32736	32647	32709	32798	32709	32743	32562	
1461	0	32743	32605	32727	32837	32835	32766	32711	32673	
1462	0	32845	32743	32530	32773	32823	32694	32755	32647	
1463	0	32831	32540	32519	32775	32811	32719	32775	32719	
1464	0	32844	32699	32767	32639	32893	32737	32697	32682	
1465	0	32794	32587	32692	32711	32903	32839	32663	32675	
1466	0	32722	32847	32595	32663	32773	32852	32711	32775	
1467	0	32816	32751	32647	32802	32753	32770	32735	32748	
1468	0	32702	32738	32599	32839	32834	32767	32775	32631	
1469	0	32742	32803	32607	32658	32751	32735	32805	32669	
1470	0	32673	32615	32799	32815	32810	32671	32839	32459	
1471	0	32696	32743	32723	32815	32834	32598	32844	32727	
1472	0	32748	32607	32612	32853	32791	32717	32817	32636	
1473	0	32687	32763	32687	32850	32767	32741	32727	32503	
1474	0	32710	32563	32563	32847	32753	32609	32726	32729	
1475	0	32706	32823	32605	32797	32715	32641	32807	32631	
1476	0	32763	32571	32647	32863	32670	32629	32843	32562	
1477	0	32743	32860	32665	32775	32727	32679	32863	32679	
1478	0	32747	32799	32598	32795	32767	32759	32770	32543	
1479	0	32767	32703	32734	32647	32859	32725	32747	32683	
1480	0	32784	32837	32613	32743	32807	32758	32743	32687	
1481	0	32791	32679	32625	32748	32738	32817	32751	32829	
1482	0	32791	32867	32498	32663	32647	32809	32694	32786	
1483	0	32717	32807	32727	32654	32725	32775	32729	32503	
1484	0	32769	32930	32639	32737	32707	32745	32823	32671	
1485	0	32794	32884	32705	32725	32820	32743	32891	32551	
1486	0	32796	32615	32513	32743	32879	32763	32769	32707	
1487	0	32785	32866	32743	32739	32791	32737	32747	32589	
1488	0	32771	32787	32655	32623	32687	32771	32797	32775	
1489	0	32746	32655	32591	32694	32830	32775	32762	32689	
1490	0	32742	32895	32604	32788	32789	32756	32748	32751	
1491	0	32769	32775	32610	32771	32743	32750	32767	32529	
1492	0	32757	32591	32530	32834	32773	32695	32773	32646	
1493	0	32726	32788	32591	32857	32743	32691	32820	32553	
1494	0	32741	32833	32745	32855	32775	32607	32775	32603	
1495	0	32796	32583	32679	32837	32717	32638	32764	32519	
1496	0	32749	32692	32623	32685	32716	32627	32747	32636	
1497	0	32722	32570	32615	32841	32809	32673	32723	32502	
1498	0	32835	32855	32718	32803	32873	32655	32719	32639	
1499	0	32844	32740	32710	32742	32887	32683	32703	32445	
1500	0	32775	32567	32511	32733	32804	32743	32690	32634	
1501	0	32764	32903	32738	32711	32862	32681	32695	32541	
1502	0	32785	32775	32551	32758	32852	32673	32717	32682	
1503	0	32758	32790	32671	32796	32829	32762	32717	32647	
1504	0	32715	32877	32531	32685	32815	32703	32767	32699	
1505	0	32781	32631	32655	32666	32699	32715	32735	32609	
1506	0	32818	32879	32647	32549	32767	32702	32759	32711	
1507	0	32806	32774	32615	32705	32817	32786	32773	32706	
1508	0	32773	32799	32533	32732	32742	32813	32759	32795	
1509	0	32747	32767	32607	32679	32837	32831	32775	32655	
1510	0	32762	32801	32613	32749	32775	32815	32789	32727	
1511	0	32731	32711	32723	32867	32835	32803	32783	32551	
1512	0	32796	32851	32611	32701	32823	32749	32772	32683	
1513	0	32767	32799	32543	32817	32751	32658	32807	32519	
1514	0	32769	32657	32763	32915	32774	32655	32773	32669	
1515	0	32748	32767	32699	32902	32815	32666	32829	32539	
1516	0	32734	32807	32647	32863	32847	32623	32793	32644	
1517	0	32784	32692	32775	32745	32743	32729	32742	32535	
1518	0	32785	32753	32620	32885	32814	32775	32775	32635	
1519	0	32752	32743	32748	32731	32838	32707	32743	32699	
1520	0	32754	32562	32615	32719	32740	32758	32743	32557	
1521	0	32773	32804	32711	32724	32726	32695	32750	32722	
1522	0	32794	32735	32495	32719	32740	32685	32743	32541	
1523	0	32775	32623	32715	32675	32804	32711	32699	32723	
1524	0	32775	32711	32671	32683	32819	32767	32693	32768	
1525	0	32810	32605	32583	32700	32791	32796	32676	32762	
1526	0	32809	32755	32673	32643	32764	32749	32807	32756	
1527	0	32778	32775	32549	32619	32696	32751	32797	32789	
1528	0	32732	32855	32589	32707	32804	32747	32803	32788	
1529	0	32754	32859	32699	32687	32835	32639	32812	32805	
1530	0	32702	32635	32602	32694	32799	32633	32785	32647	
1531	0	32743	32935	32591	32815	32679	32731	32801	32726	
1532	0	32719	32870	32799	32695	32775	32789	32771	32591	
1533	0	32687	32821	32620	32742	32695	32773	32742	32742	
1534	0	32762	32871	32561	32801	32787	32745	32775	32605	
1535	0	32797	32886	32717	32683	32685	32743	32790	32639	
1536	0	32764	32890	32655	32710	32727	32788	32757	32575	
1537	0	32724	32823	32695	32699	32747	32837	32791	32695	
1538	0	32748	32783	32532	32813	32820	32839	32766	32735	
1539	0	32711	32727	32732	32767	32685	32793	32757	32749	
1540	0	32692	32605	32612	32742	32698	32767	32759	32794	
1541	0	32748	32743	32559	32711	32763	32765	32755	32635	
1542	0	32799	32775	32687	32727	32839	32676	32751	32697	
1543	0	32754	32736	32679	32615	32798	32687	32751	32646	
1544	0	32739	32605	32526	32678	32791	32761	32799	32749	
1545	0	32743	32855	32745	32631	32828	32707	32769	32799	
1546	0	32745	32765	32677	32489	32764	32717	32823	32605	
1547	0	32788	32575	32615	32591	32834	32797	32787	32707	
1548	0	32800	32807	32794	32669	32853	32755	32815	32581	
1549	0	32740	32743	32607	32611	32836	32751	32823	32706	
1550	0	32761	32807	32603	32703	32697	32767	32869	32553	
1551	0	32756	32795	32545	32951	32791	32775	32812	32677	
1552	0	32807	32631	32535	32983	32810	32749	32903	32612	
1553	0	32704	32899	32675	32974	32845	32647	32831	32702	
1554	0	32746	32898	32683	32931	32807	32669	32799	32739	
1555	0	32754	32755	32645	32903	32679	32688	32815	32683	
1556	0	32756	32819	32507	32982	32802	32646	32755	32647	
1557	0	32733	32597	32708	32914	32767	32679	32799	32682	
1558	0	32807	32835	32705	32821	32759	32589	32695	32558	
1559	0	32827	32611	32703	32758	32795	32596	32685	32695	
1560	0	32844	32799	32707	32738	32749	32623	32692	32615	
1561	0	32806	32646	32607	32627	32645	32695	32692	32795	
1562	0	32767	32828	32790	32733	32791	32687	32717	32607	
1563	0	32722	32818	32745	32829	32799	32703	32703	32763	
1564	0	32767	32715	32559	32706	32911	32669	32742	32689	
1565	0	32721	32775	32809	32723	32809	32703	32676	32788	
1566	0	32729	32647	32701	32647	32727	32787	32626	32691	
1567	0	32759	32874	32621	32767	32763	32770	32679	32749	
1568	0	32729	32785	32647	32775	32855	32759	32630	32566	
1569	0	32793	32805	32503	32819	32866	32734	32727	32721	
1570	0	32742	32767	32647	32718	32765	32731	32717	32587	
1571	0	32743	32589	32538	32727	32791	32655	32695	32678	
1572	0	32758	32821	32627	32719	32863	32757	32739	32575	
1573	0	32673	32767	32459	32655	32775	32783	32789	32693	
1574	0	32692	32883	32481	32574	32758	32831	32703	32575	
1575	0	32661	32747	32626	32628	32810	32791	32719	32718	
1576	0	32657	32837	32583	32551	32829	32751	32751	32750	
1577	0	32653	32773	32483	32621	32797	32737	32703	32627	
1578	0	32711	32807	32423	32519	32725	32719	32757	32694	
1579	0	32647	32751	32454	32669	32783	32694	32709	32566	
1580	0	32673	32699	32443	32571	32771	32695	32599	32663	
1581	0	32627	32718	32295	32707	32857	32749	32621	32555	
1582	0	32634	32587	32383	32667	32841	32724	32623	32689	
1583	0	32652	32772	32534	32679	32883	32740	32679	32543	
1584	0	32626	32543	32422	32669	32889	32683	32620	32703	
1585	0	32708	32757	32447	32612	32821	32647	32659	32677	
1586	0	32749	32473	32505	32607	32742	32598	32731	32695	
1587	0	32763	32679	32359	32683	32803	32759	32662	32617	
1588	0	32775	32671	32628	32724	32818	32831	32687	32639	
1589	0	32744	32658	32567	32690	32870	32683	32699	32661	
1590	0	32684	32743	32493	32627	32734	32733	32786	32679	
1591	0	32735	32530	32607	32610	32691	32681	32818	32811	
1592	0	32713	32738	32437	32471	32773	32694	32829	32557	
1593	0	32727	32671	32697	32683	32791	32739	32799	32711	
1594	0	32794	32769	32691	32647	32775	32736	32735	32561	
1595	0	32756	32767	32666	32773	32782	32731	32748	32818	
1596	0	32721	32749	32773	32829	32707	32783	32743	32733	
1597	0	32764	32815	32685	32935	32665	32775	32802	32763	
1598	0	32819	32677	32943	32987	32797	32772	32887	32570	
1599	0	32865	32882	32850	33030	32701	32714	32837	32724	
1600	0	32856	32835	32993	33059	32823	32721	32849	32666	
1601	0	32903	32996	32991	32966	32710	32662	32841	32807	
1602	0	32961	32918	33093	33031	32751	32655	32942	32637	
1603	0	33113	32767	33319	33191	32629	32570	33119	32641	
1604	0	33187	33100	33415	33033	32556	32540	33251	32338	
1605	0	33257	33043	33375	33174	32487	32519	33343	32413	
1606	0	33262	32943	33276	33149	32579	32503	33428	32391	
1607	0	33255	32935	33423	33170	32623	32549	33421	32460	
1608	0	33146	32833	33156	33062	32636	32630	33207	32527	
1609	0	33035	32859	32966	33011	32699	32647	33089	32479	
1610	0	32902	32701	32854	32948	32646	32694	32990	32531	
1611	0	32846	32887	32531	32743	32765	32739	32853	32463	
1612	0	32695	32835	32609	32775	32783	32711	32796	32631	
1613	0	32638	32751	32515	32705	32859	32727	32713	32553	
1614	0	32628	32791	32381	32727	32879	32749	32654	32743	
1615	0	32615	32551	32423	32711	32871	32762	32605	32559	
1616	0	32580	32847	32263	32580	32903	32775	32575	32723	
1617	0	32567	32823	32409	32613	32870	32775	32571	32519	
1618	0	32574	32583	32411	32670	32810	32717	32567	32683	
1619	0	32645	32873	32511	32669	32743	32697	32574	32647	
1620	0	32532	32775	32391	32679	32885	32769	32601	32735	
1621	0	32662	32643	32599	32562	32831	32819	32583	32647	
1622	0	32692	32759	32507	32647	32839	32715	32581	32747	
1623	0	32720	32729	32607	32687	32742	32751	32590	32764	
1624	0	32754	32858	32524	32681	32791	32751	32673	32701	
1625	0	32747	32751	32477	32707	32745	32784	32731	32615	
1626	0	32724	32555	32604	32623	32855	32767	32694	32703	
1627	0	32764	32803	32642	32635	32722	32690	32671	32723	
1628	0	32736	32719	32535	32655	32812	32707	32665	32869	
1629	0	32773	32519	32567	32686	32846	32709	32695	32852	
1630	0	32725	32727	32645	32679	32839	32717	32710	32871	
1631	0	32688	32645	32628	32615	32759	32719	32731	32709	
1632	0	32771	32605	32605	32538	32733	32695	32731	32679	
1633	0	32742	32751	32459	32450	32828	32693	32739	32619	
1634	0	32731	32570	32482	32591	32807	32721	32707	32758	
1635	0	32743	32775	32679	32723	32806	32751	32711	32565	
1636	0	32718	32815	32613	32783	32879	32738	32758	32714	
1637	0	32652	32703	32717	32794	32860	32740	32789	32723	
1638	0	32676	32820	32671	32823	32793	32699	32852	32695	
1639	0	32683	32646	32575	32857	32758	32775	32866	32719	
1640	0	32676	32885	32631	32709	32887	32787	32813	32735	
1641	0	32791	32844	32607	32911	32903	32686	32783	32695	
1642	0	32730	32630	32695	32838	32775	32615	32787	32755	
1643	0	32749	32887	32669	32751	32775	32685	32775	32731	
1644	0	32740	32617	32655	32913	32847	32711	32771	32591	
1645	0	32757	32871	32595	32807	32799	32708	32703	32663	
1646	0	32791	32769	32535	32838	32769	32743	32735	32535	
1647	0	32760	32671	32663	32698	32799	32643	32755	32666	
1648	0	32769	32749	32615	32868	32671	32711	32719	32539	
1649	0	32775	32543	32501	32751	32765	32741	32695	32667	
1650	0	32676	32866	32509	32748	32727	32775	32694	32583	
1651	0	32645	32787	32591	32762	32674	32871	32725	32727	
1652	0	32676	32854	32681	32598	32631	32751	32715	32635	
1653	0	32718	32694	32559	32663	32679	32711	32791	32756	
1654	0	32809	32647	32639	32581	32679	32763	32775	32706	
1655	0	32807	32734	32615	32757	32679	32655	32823	32619	
1656	0	32792	32743	32639	32775	32710	32711	32810	32642	
1657	0	32769	32743	32647	32747	32767	32775	32818	32683	
1658	0	32780	32823	32655	32735	32655	32759	32823	32599	
1659	0	32817	32582	32639	32669	32663	32754	32759	32693	
1660	0	32741	32859	32545	32826	32858	32730	32839	32567	
1661	0	32765	32813	32582	32823	32811	32734	32847	32722	
1662	0	32804	32732	32639	32735	32815	32743	32853	32721	
1663	0	32759	32827	32655	32747	32708	32761	32801	32719	
1664	0	32797	32583	32745	32630	32749	32731	32802	32709	
1665	0	32846	32919	32711	32725	32775	32685	32803	32525	
1666	0	32818	32848	32621	32655	32801	32691	32797	32697	
1667	0	32811	32609	32627	32771	32751	32719	32765	32567	
1668	0	32793	32840	32689	32807	32771	32766	32647	32681	
1669	0	32750	32815	32555	32839	32711	32715	32695	32602	
1670	0	32788	32707	32703	32775	32847	32715	32709	32727	
1671	0	32774	32790	32686	32667	32914	32725	32663	32566	
1672	0	32770	32607	32684	32743	32860	32735	32713	32706	
1673	0	32705	32834	32615	32796	32853	32763	32683	32661	
1674	0	32733	32647	32625	32771	32885	32647	32733	32647	
1675	0	32790	32887	32690	32787	32892	32601	32741	32724	
1676	0	32768	32823	32690	32757	32870	32589	32707	32581	
1677	0	32795	32775	32575	32738	32867	32647	32694	32791	
1678	0	32704	32775	32530	32765	32783	32661	32743	32695	
1679	0	32763	32635	32685	32615	32833	32653	32708	32795	
1680	0	32716	32911	32570	32690	32833	32711	32756	32603	
1681	0	32711	32829	32391	32699	32784	32733	32703	32683	
1682	0	32720	32599	32575	32678	32717	32725	32743	32619	
1683	0	32732	32802	32583	32705	32767	32713	32765	32725	
1684	0	32804	32773	32703	32759	32679	32695	32741	32595	
1685	0	32749	32589	32471	32879	32634	32765	32729	32692	
1686	0	32754	32727	32695	32855	32659	32743	32791	32711	
1687	0	32828	32775	32695	32783	32759	32742	32851	32487	
1688	0	32764	32604	32708	32807	32751	32767	32767	32647	
1689	0	32741	32807	32870	32787	32730	32695	32725	32519	
1690	0	32742	32775	32658	32604	32621	32755	32791	32655	
1691	0	32733	32827	32679	32735	32723	32791	32803	32613	
1692	0	32732	32787	32571	32703	32769	32751	32767	32709	
1693	0	32703	32699	32629	32660	32671	32791	32758	32679	
1694	0	32796	32581	32631	32690	32708	32665	32757	32647	
1695	0	32834	32839	32463	32585	32862	32861	32765	32515	
1696	0	32830	32614	32695	32655	32795	32797	32708	32634	
1697	0	32807	32852	32581	32607	32863	32823	32733	32608	
1698	0	32799	32783	32551	32751	32858	32847	32723	32738	
1699	0	32731	32937	32735	32615	32770	32775	32749	32655	
1700	0	32782	32613	32694	32748	32700	32775	32722	32554	
1701	0	32721	32823	32613	32705	32767	32751	32745	32678	
1702	0	32724	32592	32773	32839	32820	32755	32732	32773	
1703	0	32736	32903	32694	32743	32795	32705	32694	32607	
1704	0	32724	32817	32578	32879	32799	32735	32691	32695	
1705	0	32699	32879	32749	32709	32739	32713	32725	32511	
1706	0	32789	32775	32674	32889	32702	32805	32711	32671	
1707	0	32774	32679	32663	32821	32810	32743	32730	32591	
1708	0	32732	32837	32594	32711	32813	32721	32759	32701	
1709	0	32705	32619	32710	32775	32759	32735	32727	32498	
1710	0	32702	32903	32689	32717	32727	32809	32725	32607	
1711	0	32758	32787	32703	32797	32677	32751	32775	32639	
1712	0	32733	32751	32691	32749	32742	32723	32802	32819	
1713	0	32781	32829	32607	32759	32815	32740	32789	32811	
1714	0	32773	32803	32643	32756	32743	32623	32786	32607	
1715	0	32771	32815	32751	32810	32879	32756	32783	32689	
1716	0	32782	32804	32763	32799	32735	32687	32743	32588	
1717	0	32801	32723	32487	32647	32863	32644	32767	32679	
1718	0	32839	32803	32663	32786	32819	32685	32821	32559	
1719	0	32749	32599	32671	32729	32831	32765	32799	32629	
1720	0	32811	32811	32643	32807	32799	32835	32749	32543	
1721	0	32781	32707	32685	32873	32721	32815	32797	32692	
1722	0	32760	32786	32514	32911	32759	32831	32775	32631	
1723	0	32781	32827	32727	32989	32835	32735	32791	32734	
1724	0	32812	32719	32695	32815	32823	32723	32764	32717	
1725	0	32761	32783	32758	32737	32855	32736	32775	32786	
1726	0	32720	32613	32527	32655	32815	32759	32775	32763	
1727	0	32756	32871	32725	32757	32721	32751	32775	32681	
1728	0	32734	32775	32615	32791	32807	32663	32766	32746	
1729	0	32756	32731	32719	32669	32798	32660	32791	32643	
1730	0	32781	32914	32511	32647	32836	32627	32759	32735	
1731	0	32745	32785	32722	32535	32783	32662	32775	32615	
1732	0	32829	32829	32727	32663	32831	32647	32745	32666	
1733	0	32809	32726	32723	32671	32767	32694	32711	32543	
1734	0	32744	32623	32583	32729	32884	32663	32735	32628	
1735	0	32806	32801	32607	32663	32799	32715	32687	32647	
1736	0	32782	32775	32617	32753	32805	32722	32787	32719	
1737	0	32738	32756	32525	32740	32819	32769	32725	32698	
1738	0	32800	32741	32631	32749	32877	32748	32751	32635	
1739	0	32775	32575	32403	32810	32700	32794	32722	32737	
1740	0	32818	32815	32623	32685	32755	32791	32756	32675	
1741	0	32742	32727	32575	32722	32717	32775	32727	32701	
1742	0	32710	32589	32454	32773	32775	32679	32743	32639	
1743	0	32707	32865	32519	32743	32735	32679	32718	32663	
1744	0	32740	32571	32667	32839	32816	32679	32685	32535	
1745	0	32726	32867	32572	32723	32727	32665	32685	32666	
1746	0	32708	32583	32455	32821	32819	32653	32707	32644	
1747	0	32740	32866	32540	32582	32773	32708	32770	32775	
1748	0	32741	32786	32763	32663	32732	32663	32775	32775	
1749	0	32723	32786	32690	32615	32863	32693	32814	32613	
1750	0	32673	32771	32749	32671	32775	32661	32827	32671	
1751	0	32711	32676	32623	32663	32754	32642	32827	32700	
1752	0	32734	32811	32611	32745	32743	32707	32751	32623	
1753	0	32807	32645	32647	32679	32828	32763	32699	32724	
1754	0	32698	32837	32819	32862	32828	32751	32893	32733	
1755	0	32732	32615	32660	32711	32769	32763	32852	32775	
1756	0	32761	32831	32702	32799	32727	32826	32809	32730	
1757	0	32784	32625	32500	32703	32775	32767	32767	32619	
1758	0	32800	32877	32490	32799	32742	32647	32703	32751	
1759	0	32860	32799	32799	32711	32782	32733	32679	32647	
1760	0	32814	32827	32738	32695	32869	32663	32735	32590	
1761	0	32815	32749	32647	32719	32775	32725	32757	32622	
1762	0	32797	32623	32757	32757	32663	32694	32795	32525	
1763	0	32781	32807	32591	32647	32709	32793	32791	32711	
1764	0	32767	32629	32541	32723	32775	32762	32754	32759	
1765	0	32745	32861	32668	32731	32759	32765	32791	32709	
1766	0	32775	32860	32687	32835	32705	32821	32794	32677	
1767	0	32735	32669	32573	32786	32804	32831	32807	32611	
1768	0	32736	32927	32728	32625	32819	32737	32789	32735	
1769	0	32712	32783	32564	32815	32775	32740	32799	32773	
1770	0	32761	32583	32693	32791	32807	32769	32759	32745	
1771	0	32740	32785	32503	32685	32749	32678	32732	32785	
1772	0	32717	32715	32692	32709	32788	32657	32738	32791	
1773	0	32780	32597	32701	32732	32674	32621	32718	32821	
1774	0	32724	32758	32535	32668	32667	32643	32731	32867	
1775	0	32727	32559	32799	32690	32697	32599	32719	32694	
1776	0	32765	32846	32583	32597	32748	32669	32715	32775	
1777	0	32734	32751	32595	32690	32815	32669	32771	32603	
1778	0	32791	32621	32503	32775	32679	32647	32775	32710	
1779	0	32744	32759	32698	32763	32756	32643	32711	32629	
1780	0	32781	32603	32642	32761	32829	32598	32755	32614	
1781	0	32816	32807	32670	32647	32943	32613	32797	32541	
1782	0	32736	32751	32500	32607	32767	32603	32726	32663	
1783	0	32736	32587	32679	32695	32833	32691	32734	32551	
1784	0	32717	32843	32626	32799	32799	32735	32737	32615	
1785	0	32767	32811	32633	32823	32871	32661	32813	32587	
1786	0	32723	32602	32471	32742	32743	32631	32727	32695	
1787	0	32716	32859	32567	32843	32697	32623	32702	32693	
1788	0	32799	32819	32626	32821	32799	32671	32692	32636	
1789	0	32775	32775	32582	32859	32748	32639	32663	32707	
1790	0	32783	32835	32719	32831	32804	32663	32724	32533	
1791	0	32767	32679	32487	32915	32716	32694	32667	32615	
1792	0	32762	32935	32561	32673	32679	32711	32709	32541	
1793	0	32836	32801	32583	32720	32801	32773	32711	32647	
1794	0	32850	32740	32559	32595	32790	32690	32847	32681	
1795	0	32792	32850	32687	32784	32832	32611	32787	32711	
1796	0	32761	32677	32524	32687	32805	32658	32771	32727	
1797	0	32784	32799	32711	32661	32703	32671	32763	32595	
1798	0	32783	32623	32699	32562	32789	32700	32751	32786	
1799	0	32844	32867	32647	32631	32787	32829	32693	32791	
1800	0	32807	32805	32641	32573	32775	32775	32743	32563	
1801	0	32789	32711	32611	32720	32786	32815	32852	32679	
1802	0	32799	32837	32615	32638	32839	32815	32834	32599	
1803	0	32751	32745	32723	32723	32775	32770	32847	32702	
1804	0	32799	32658	32594	32735	32830	32756	32799	32498	
1805	0	32758	32762	32639	32863	32719	32663	32803	32697	
1806	0	32806	32751	32485	32859	32787	32711	32844	32632	
1807	0	32748	32607	32807	32827	32667	32719	32775	32711	
1808	0	32740	32751	32759	32839	32685	32775	32787	32679	
1809	0	32749	32551	32717	32822	32669	32743	32751	32502	
1810	0	32719	32775	32805	32670	32775	32775	32755	32709	
1811	0	32724	32743	32735	32807	32737	32728	32817	32685	
1812	0	32729	32719	32655	32831	32804	32763	32787	32763	
1813	0	32749	32858	32850	32769	32695	32711	32863	32738	
1814	0	32807	32802	32673	32789	32705	32718	32796	32751	
1815	0	32746	32829	32759	32645	32725	32679	32783	32721	
1816	0	32732	32847	32771	32771	32819	32689	32759	32515	
1817	0	32751	32719	32575	32764	32835	32742	32671	32743	
1818	0	32775	32795	32511	32809	32847	32691	32685	32692	
1819	0	32769	32590	32549	32706	32771	32667	32751	32491	
1820	0	32761	32798	32703	32791	32679	32683	32725	32663	
1821	0	32804	32801	32617	32743	32703	32687	32757	32611	
1822	0	32788	32775	32706	32771	32762	32721	32766	32615	
1823	0	32773	32767	32711	32802	32751	32743	32732	32663	
1824	0	32765	32594	32565	32803	32717	32742	32703	32617	
1825	0	32806	32743	32602	32659	32707	32791	32686	32667	
1826	0	32764	32811	32610	32791	32814	32703	32741	32607	
1827	0	32714	32807	32663	32762	32815	32742	32755	32663	
1828	0	32724	32579	32454	32747	32775	32719	32751	32493	
1829	0	32662	32813	32727	32879	32710	32751	32743	32615	
1830	0	32704	32735	32765	32810	32799	32797	32750	32639	
1831	0	32687	32757	32630	32825	32841	32743	32711	32730	
1832	0	32715	32759	32743	32799	32795	32757	32721	32751	
1833	0	32729	32563	32463	32828	32819	32751	32647	32743	
1834	0	32702	32877	32540	32751	32769	32748	32669	32690	
1835	0	32669	32745	32711	32818	32720	32791	32722	32615	
1836	0	32736	32845	32757	32797	32683	32775	32775	32814	
1837	0	32735	32831	32611	32759	32775	32743	32775	32767	
1838	0	32783	32623	32671	32647	32797	32724	32815	32797	
1839	0	32748	32935	32519	32699	32826	32633	32831	32738	
1840	0	32788	32831	32583	32687	32799	32595	32798	32543	
1841	0	32800	32821	32671	32767	32773	32548	32738	32679	
1842	0	32814	32795	32647	32635	32723	32655	32798	32681	
1843	0	32821	32623	32655	32627	32787	32607	32854	32715	
1844	0	32751	32871	32621	32607	32763	32623	32823	32714	
1845	0	32838	32775	32457	32722	32843	32715	32847	32599	
1846	0	32775	32612	32695	32699	32796	32719	32821	32733	
1847	0	32801	32775	32644	32807	32700	32807	32861	32567	
1848	0	32834	32655	32686	32879	32699	32723	32791	32711	
1849	0	32747	32838	32626	32883	32735	32687	32743	32731	
1850	0	32798	32759	32509	32820	32741	32659	32806	32559	
1851	0	32813	32631	32695	32823	32740	32706	32766	32684	
1852	0	32770	32903	32623	32767	32745	32647	32831	32647	
1853	0	32726	32851	32691	32670	32671	32679	32807	32715	
1854	0	32786	32665	32567	32719	32695	32660	32805	32548	
1855	0	32796	32917	32603	32843	32705	32721	32807	32685	
1856	0	32722	32807	32775	32799	32775	32701	32658	32551	
1857	0	32725	32807	32748	32838	32767	32724	32765	32684	
1858	0	32753	32787	32723	32735	32669	32771	32791	32583	
1859	0	32739	32674	32755	32738	32703	32746	32678	32683	
1860	0	32736	32804	32583	32599	32775	32722	32693	32647	
1861	0	32711	32599	32785	32685	32807	32799	32694	32517	
1862	0	32757	32948	32711	32586	32751	32663	32735	32695	
1863	0	32733	32798	32695	32671	32821	32613	32804	32621	
1864	0	32713	32631	32646	32685	32757	32674	32775	32706	
1865	0	32792	32745	32551	32827	32767	32655	32803	32623	
1866	0	32767	32530	32671	32834	32813	32631	32797	32731	
1867	0	32757	32783	32575	32834	32791	32679	32806	32754	
1868	0	32753	32758	32564	32955	32765	32692	32771	32605	
1869	0	32722	32663	32655	32978	32811	32723	32786	32743	
1870	0	32792	32799	32503	32913	32791	32764	32823	32601	
1871	0	32752	32697	32605	32775	32767	32743	32799	32745	
1872	0	32758	32698	32695	32835	32799	32701	32749	32611	
1873	0	32703	32799	32723	32701	32815	32685	32789	32797	
1874	0	32683	32595	32583	32676	32839	32703	32789	32767	
1875	0	32669	32759	32594	32619	32790	32733	32775	32711	
1876	0	32801	32773	32773	32737	32751	32733	32831	32655	
1877	0	32820	32626	32743	32740	32647	32749	32759	32599	
1878	0	32790	32863	32719	32762	32709	32699	32717	32711	
1879	0	32811	32834	32629	32677	32833	32687	32771	32567	
1880	0	32790	32702	32621	32583	32911	32609	32771	32739	
1881	0	32717	32871	32695	32647	32773	32635	32757	32575	
1882	0	32698	32794	32621	32607	32727	32647	32733	32748	
1883	0	32769	32710	32647	32687	32791	32689	32770	32754	
1884	0	32789	32775	32623	32582	32861	32711	32783	32597	
1885	0	32724	32578	32583	32735	32842	32743	32815	32733	
1886	0	32745	32819	32534	32757	32805	32723	32803	32549	
1887	0	32786	32773	32676	32775	32819	32804	32831	32677	
1888	0	32758	32551	32628	32807	32748	32739	32735	32708	
1889	0	32751	32830	32571	32695	32791	32733	32711	32727	
1890	0	32743	32813	32511	32775	32831	32829	32775	32615	
1891	0	32724	32615	32703	32837	32795	32771	32762	32667	
1892	0	32767	32859	32675	32775	32687	32749	32683	32681	
1893	0	32783	32835	32603	32775	32705	32699	32743	32526	
1894	0	32772	32711	32613	32724	32791	32719	32759	32663	
1895	0	32764	32763	32647	32735	32815	32749	32794	32677	
1896	0	32804	32813	32528	32761	32829	32681	32787	32543	
1897	0	32771	32662	32534	32711	32835	32677	32775	32674	
1898	0	32756	32871	32676	32707	32765	32719	32817	32647	
1899	0	32810	32823	32599	32735	32703	32679	32791	32695	
1900	0	32807	32900	32579	32758	32715	32679	32693	32626	
1901	0	32748	32825	32636	32683	32894	32725	32678	32719	
1902	0	32743	32820	32775	32669	32843	32621	32754	32673	
1903	0	32734	32751	32659	32721	32801	32686	32726	32557	
1904	0	32767	32641	32621	32641	32873	32700	32751	32625	
1905	0	32703	32894	32751	32669	32684	32683	32725	32539	
1906	0	32671	32843	32708	32790	32759	32729	32711	32646	
1907	0	32725	32751	32635	32839	32711	32638	32767	32498	
1908	0	32749	32879	32493	32862	32749	32691	32787	32711	
1909	0	32757	32799	32663	32799	32743	32639	32797	32599	
1910	0	32742	32579	32646	32911	32679	32626	32775	32775	
1911	0	32734	32903	32559	32731	32690	32676	32743	32685	
1912	0	32730	32831	32538	32826	32718	32671	32730	32589	
1913	0	32749	32887	32576	32769	32775	32647	32837	32718	
1914	0	32797	32759	32433	32743	32755	32607	32855	32619	
1915	0	32803	32647	32606	32839	32743	32676	32827	32717	
1916	0	32804	32893	32665	32783	32647	32719	32810	32636	
1917	0	32738	32818	32479	32830	32775	32671	32799	32687	
1918	0	32745	32673	32703	32711	32839	32692	32747	32647	
1919	0	32774	32707	32679	32801	32853	32715	32759	32679	
1920	0	32803	32639	32698	32723	32841	32709	32827	32621	
1921	0	32846	32795	32732	32734	32719	32713	32766	32677	
1922	0	32775	32749	32553	32793	32835	32754	32813	32605	
1923	0	32757	32759	32555	32758	32807	32740	32791	32725	
1924	0	32784	32703	32591	32799	32827	32719	32775	32799	
1925	0	32759	32681	32694	32645	32949	32751	32766	32646	
1926	0	32743	32757	32575	32628	32727	32671	32822	32735	
1927	0	32854	32575	32486	32765	32837	32747	32759	32683	
1928	0	32716	32838	32751	32615	32830	32784	32799	32606	
1929	0	32784	32755	32711	32679	32850	32769	32813	32695	
1930	0	32807	32713	32660	32635	32690	32685	32804	32690	
1931	0	32724	32901	32554	32751	32759	32716	32775	32687	
1932	0	32726	32815	32785	32834	32845	32743	32797	32555	
1933	0	32792	32693	32669	32742	32674	32820	32783	32647	
1934	0	32759	32893	32695	32844	32771	32749	32743	32659	
1935	0	32748	32775	32548	32787	32839	32751	32786	32767	
1936	0	32713	32575	32711	32743	32703	32738	32694	32749	
1937	0	32775	32756	32645	32775	32807	32752	32699	32679	
1938	0	32735	32737	32555	32735	32811	32739	32647	32767	
1939	0	32731	32783	32791	32612	32732	32657	32751	32591	
1940	0	32759	32826	32679	32614	32789	32722	32735	32713	
1941	0	32719	32869	32647	32479	32831	32645	32679	32567	
1942	0	32775	32655	32660	32671	32767	32606	32690	32668	
1943	0	32782	32871	32514	32789	32773	32637	32743	32582	
1944	0	32747	32749	32503	32836	32717	32727	32807	32765	
1945	0	32736	32583	32631	32959	32775	32659	32743	32647	
1946	0	32772	32887	32615	32835	32759	32676	32695	32685	
1947	0	32730	32771	32453	32903	32763	32727	32714	32587	
1948	0	32758	32599	32615	32931	32719	32647	32736	32669	
1949	0	32715	32854	32583	32655	32789	32775	32707	32543	
1950	0	32737	32811	32463	32725	32839	32775	32762	32681	
1951	0	32757	32783	32727	32703	32719	32761	32719	32643	
1952	0	32740	32623	32565	32558	32791	32749	32796	32719	
1953	0	32747	32788	32705	32578	32775	32775	32703	32754	
1954	0	32745	32670	32612	32609	32826	32805	32749	32771	
1955	0	32775	32669	32626	32789	32715	32785	32732	32790	
1956	0	32786	32821	32725	32815	32775	32775	32759	32703	
1957	0	32756	32803	32735	32821	32772	32783	32711	32647	
1958	0	32841	32663	32709	32797	32719	32786	32711	32692	
1959	0	32780	32836	32647	32773	32770	32819	32715	32577	
1960	0	32839	32807	32738	32899	32789	32767	32718	32711	
1961	0	32751	32655	32719	32894	32860	32663	32702	32719	
1962	0	32703	32895	32538	32675	32775	32643	32711	32719	
1963	0	32724	32823	32773	32804	32767	32647	32715	32764	
1964	0	32716	32843	32703	32598	32806	32643	32748	32861	
1965	0	32675	32835	32623	32727	32803	32707	32800	32594	
1966	0	32713	32679	32690	32647	32838	32727	32785	32735	
1967	0	32708	32847	32563	32647	32883	32692	32794	32603	
1968	0	32778	32751	32697	32583	32815	32645	32799	32668	
1969	0	32754	32748	32573	32692	32883	32647	32759	32567	
1970	0	32735	32797	32631	32694	32859	32730	32740	32669	
1971	0	32759	32559	32558	32735	32823	32731	32739	32638	
1972	0	32769	32843	32519	32758	32807	32735	32722	32727	
1973	0	32775	32748	32708	32723	32698	32767	32739	32756	
1974	0	32759	32566	32655	32759	32715	32825	32647	32735	
1975	0	32824	32799	32639	32622	32771	32799	32677	32759	
1976	0	32759	32797	32706	32739	32743	32871	32754	32647	
1977	0	32767	32711	32583	32643	32732	32769	32801	32707	
1978	0	32788	32766	32890	32703	32836	32775	32829	32579	
1979	0	32841	32583	32834	32631	32775	32819	32809	32719	
1980	0	32782	32855	32739	32819	32839	32771	32771	32595	
1981	0	32804	32786	32756	32671	32707	32741	32751	32668	
1982	0	32831	32611	32604	32710	32751	32767	32781	32551	
1983	0	32762	32831	32695	32841	32799	32757	32743	32701	
1984	0	32815	32794	32667	32805	32791	32655	32775	32503	
1985	0	32775	32599	32499	32820	32675	32647	32810	32671	
1986	0	32743	32879	32655	32701	32787	32673	32851	32501	
1987	0	32784	32831	32546	32765	32759	32647	32775	32613	
1988	0	32744	32679	32557	32662	32769	32751	32795	32524	
1989	0	32803	32941	32419	32789	32671	32703	32743	32687	
1990	0	32759	32745	32661	32759	32684	32611	32775	32538	
1991	0	32827	32742	32587	32807	32789	32660	32755	32715	
1992	0	32756	32861	32631	32775	32798	32629	32805	32597	
1993	0	32767	32738	32511	32660	32657	32620	32758	32686	
1994	0	32730	32635	32738	32709	32751	32647	32759	32562	
1995	0	32707	32878	32627	32711	32729	32691	32751	32715	
1996	0	32722	32791	32692	32710	32807	32679	32734	32635	
1997	0	32734	32639	32619	32646	32703	32684	32735	32708	
1998	0	32782	32859	32612	32583	32775	32677	32751	32641	
1999	0	32781	32811	32767	32762	32812	32628	32679	32707	
2000	0	32736	32615	32677	32821	32814	32611	32727	32645	
2001	0	32797	32861	32791	32879	32768	32679	32731	32639	
2002	0	32798	32631	32770	32850	32694	32703	32769	32525	
2003	0	32771	32861	32767	32921	32759	32791	32791	32647	
2004	0	32808	32679	32711	32914	32743	32775	32775	32623	
2005	0	32807	32885	32577	32903	32727	32743	32738	32566	
2006	0	32805	32823	32647	33003	32807	32811	32713	32657	
2007	0	32766	32822	32743	32855	32839	32749	32729	32547	
2008	0	32793	32805	32663	32767	32810	32741	32771	32727	
2009	0	32787	32595	32703	32843	32727	32757	32842	32614	
2010	0	32718	32845	32573	32807	32754	32722	32855	32663	
2011	0	32700	32761	32479	32833	32837	32751	32809	32574	
2012	0	32743	32775	32647	32855	32804	32819	32804	32679	
2013	0	32748	32774	32551	32834	32820	32763	32783	32670	
2014	0	32712	32627	32679	32827	32761	32827	32775	32757	
2015	0	32690	32833	32579	32759	32709	32785	32710	32703	
2016	0	32846	32762	32543	32706	32763	32723	32695	32743	
2017	0	32807	32821	32713	32788	32854	32663	32727	32682	
2018	0	32742	32773	32573	32783	32790	32681	32699	32599	
2019	0	32769	32775	32509	32647	32838	32639	32749	32790	
2020	0	32774	32631	32745	32671	32854	32719	32711	32767	
2021	0	32748	32843	32644	32839	32786	32703	32639	32724	
2022	0	32727	32782	32631	32826	32725	32663	32692	32718	
2023	0	32784	32623	32543	32765	32819	32623	32767	32658	
2024	0	32783	32887	32735	32716	32788	32663	32763	32749	
2025	0	32767	32775	32647	32809	32772	32642	32771	32751	
2026	0	32741	32711	32739	32803	32638	32640	32787	32767	
2027	0	32711	32829	32575	32731	32747	32687	32741	32631	
2028	0	32703	32789	32773	32662	32731	32690	32646	32687	
2029	0	32722	32597	32631	32709	32663	32621	32819	32619	
2030	0	32757	32717	32709	32731	32647	32629	32877	32714	
2031	0	32772	32764	32481	32734	32759	32745	32828	32607	
2032	0	32839	32619	32563	32711	32799	32767	32855	32655	
2033	0	32782	32815	32598	32579	32599	32730	32775	32515	
2034	0	32828	32759	32535	32791	32807	32751	32795	32727	
2035	0	32783	32567	32663	32719	32813	32759	32745	32615	
2036	0	32785	32791	32628	32730	32801	32743	32739	32727	
2037	0	32715	32839	32719	32757	32667	32775	32756	32589	
2038	0	32732	32621	32599	32815	32839	32775	32747	32703	
2039	0	32714	32743	32553	32759	32813	32765	32718	32631	
2040	0	32738	32607	32583	32721	32827	32711	32717	32791	
2041	0	32751	32870	32738	32767	32803	32713	32726	32775	
2042	0	32743	32790	32647	32791	32751	32736	32815	32695	
2043	0	32780	32795	32713	32775	32709	32702	32834	32713	
2044	0	32714	32751	32477	32839	32703	32731	32833	32519	
2045	0	32758	32551	32783	32939	32783	32711	32815	32719	
2046	0	32771	32859	32659	32837	32803	32713	32823	32607	
2047	0	32719	32783	32666	32959	32839	32787	32835	32663	
2048	0	32757	32617	32541	32994	32743	32759	32827	32595	
2049	0	32749	32845	32687	32982	32853	32703	32885	32775	
2050	0	32763	32765	32655	32911	32901	32734	32791	32550	
2051	0	32751	32671	32679	32887	32839	32767	32767	32621	
2052	0	32804	32767	32565	32821	32727	32729	32719	32483	
2053	0	32816	32765	32735	32623	32863	32719	32734	32662	
2054	0	32719	32786	32647	32694	32847	32687	32727	32507	
2055	0	32704	32767	32627	32492	32823	32695	32765	32727	
2056	0	32742	32709	32480	32684	32854	32675	32765	32575	
2057	0	32736	32823	32635	32543	32723	32727	32714	32714	
2058	0	32743	32574	32543	32727	32767	32737	32719	32694	
2059	0	32827	32785	32603	32509	32759	32799	32763	32741	
2060	0	32775	32743	32644	32709	32775	32791	32820	32729	
2061	0	32839	32636	32463	32631	32759	32763	32756	32674	
2062	0	32839	32845	32687	32671	32743	32807	32765	32686	
2063	0	32782	32765	32628	32610	32663	32831	32756	32647	
2064	0	32765	32837	32671	32635	32751	32827	32674	32751	
2065	0	32849	32805	32583	32643	32806	32807	32699	32647	
2066	0	32775	32594	32527	32751	32775	32775	32734	32754	
2067	0	32763	32831	32604	32749	32701	32637	32751	32813	
2068	0	32707	32823	32691	32676	32743	32735	32758	32566	
2069	0	32719	32635	32503	32673	32850	32747	32754	32571	
2070	0	32749	32823	32732	32647	32703	32684	32775	32689	
2071	0	32704	32611	32557	32741	32813	32741	32806	32695	
2072	0	32737	32797	32645	32647	32823	32634	32837	32725	
2073	0	32704	32743	32802	32839	32751	32735	32831	32743	
2074	0	32669	32631	32673	32823	32787	32769	32878	32706	
2075	0	32797	32823	32703	32834	32725	32754	32877	32702	
2076	0	32772	32820	32597	32871	32775	32674	32871	32665	
2077	0	32711	32607	32765	32751	32794	32699	32812	32655	
2078	0	32681	32787	32609	32753	32786	32655	32807	32647	
2079	0	32759	32813	32647	32717	32703	32663	32847	32751	
2080	0	32756	32739	32858	32867	32791	32663	32845	32631	
2081	0	32758	32679	32609	32801	32823	32699	32884	32735	
2082	0	32794	32891	32699	32627	32767	32690	32829	32527	
2083	0	32795	32807	32518	32733	32895	32671	32827	32714	
2084	0	32728	32663	32710	32647	32818	32711	32775	32619	
2085	0	32772	32762	32615	32762	32818	32742	32717	32727	
2086	0	32799	32583	32630	32687	32703	32735	32735	32695	
2087	0	32782	32859	32611	32717	32759	32797	32759	32793	
2088	0	32843	32759	32691	32637	32791	32732	32706	32703	
2089	0	32793	32566	32671	32797	32773	32677	32746	32669	
2090	0	32740	32878	32541	32810	32678	32685	32751	32699	
2091	0	32736	32747	32534	32795	32659	32735	32717	32775	
2092	0	32754	32638	32695	32795	32758	32739	32749	32742	
2093	0	32773	32871	32621	32775	32774	32669	32771	32643	
2094	0	32736	32775	32626	32735	32766	32691	32671	32711	
2095	0	32836	32647	32391	32710	32721	32685	32715	32627	
2096	0	32775	32903	32582	32819	32799	32749	32701	32695	
2097	0	32748	32871	32514	32711	32803	32723	32791	32601	
2098	0	32713	32711	32598	32804	32851	32698	32791	32727	
2099	0	32738	32903	32626	32642	32711	32675	32815	32647	
2100	0	32785	32818	32647	32737	32775	32655	32798	32765	
2101	0	32805	32825	32631	32685	32806	32634	32775	32643	
2102	0	32830	32847	32677	32719	32799	32615	32745	32711	
2103	0	32813	32623	32626	32687	32826	32595	32751	32668	
2104	0	32801	32819	32799	32759	32709	32565	32733	32655	
2105	0	32751	32783	32629	32783	32807	32655	32749	32411	
2106	0	32756	32825	32659	32771	32743	32727	32775	32610	
2107	0	32769	32707	32771	32749	32721	32775	32839	32590	
2108	0	32759	32826	32675	32763	32734	32734	32791	32735	
2109	0	32755	32731	32590	32843	32803	32751	32786	32739	
2110	0	32774	32719	32639	32813	32799	32724	32771	32735	
2111	0	32746	32759	32785	32815	32847	32679	32816	32609	
2112	0	32710	32562	32642	32771	32711	32727	32795	32692	
2113	0	32714	32681	32567	32783	32796	32687	32813	32637	
2114	0	32742	32816	32773	32729	32771	32698	32850	32711	
2115	0	32782	32742	32636	32647	32836	32755	32871	32775	
2116	0	32775	32667	32635	32767	32727	32799	32745	32759	
2117	0	32775	32749	32495	32635	32786	32769	32771	32758	
2118	0	32746	32588	32539	32790	32705	32742	32762	32690	
2119	0	32784	32835	32711	32803	32773	32735	32775	32659	
2120	0	32734	32775	32610	32765	32763	32775	32783	32678	
2121	0	32789	32871	32663	32646	32623	32700	32794	32595	
2122	0	32763	32820	32661	32805	32751	32708	32775	32711	
2123	0	32769	32670	32662	32775	32766	32754	32745	32612	
2124	0	32782	32891	32669	32742	32793	32757	32766	32659	
2125	0	32742	32834	32671	32766	32699	32813	32763	32611	
2126	0	32803	32759	32551	32597	32794	32731	32743	32645	
2127	0	32780	32787	32749	32724	32759	32787	32749	32507	
2128	0	32721	32578	32639	32599	32782	32766	32786	32615	
2129	0	32729	32871	32663	32695	32834	32711	32709	32534	
2130	0	32789	32818	32611	32767	32725	32775	32749	32647	
2131	0	32681	32765	32543	32759	32749	32715	32694	32529	
2132	0	32751	32798	32685	32723	32775	32727	32713	32671	
2133	0	32826	32623	32619	32631	32848	32740	32716	32539	
2134	0	32819	32935	32671	32695	32788	32662	32643	32703	
2135	0	32783	32807	32635	32701	32699	32669	32639	32647	
2136	0	32772	32743	32666	32738	32789	32679	32647	32826	
2137	0	32775	32837	32621	32647	32807	32630	32745	32748	
2138	0	32796	32687	32609	32737	32863	32607	32762	32775	
2139	0	32841	32883	32533	32791	32730	32638	32845	32625	
2140	0	32791	32727	32639	32775	32799	32629	32801	32671	
2141	0	32765	32805	32599	32735	32741	32643	32886	32726	
2142	0	32704	32811	32503	32671	32827	32699	32835	32639	
2143	0	32788	32759	32596	32805	32730	32727	32818	32470	
2144	0	32726	32727	32660	32859	32773	32767	32811	32655	
2145	0	32748	32815	32461	32734	32695	32751	32758	32676	
2146	0	32745	32775	32598	32859	32786	32739	32773	32595	
2147	0	32763	32615	32621	32807	32765	32743	32795	32671	
