# OpenSignals Text File Format
# {"00:07:80:3B:46:38": {"sensor": ["CUSTOM/0.5/1.0/V", "CUSTOM/0.5/1.0/V", "CUSTOM/0.5/1.0/V", "CUSTOM/0.5/1.0/V", "CUSTOM/0.5/1.0/V", "CUSTOM/0.5/1.0/V", "CUSTOM/0.5/1.0/V", "CUSTOM/0.5/1.0/V"], "device name": "EMGs", "column": ["nSeq", "DI", "RA_L", "RA_R", "OE_L", "OE:R", "IL_L", "IL_R", "MF_L", "MF_R"], "sync interval": 2, "time": "17:2:29.264", "comments": "", "device connection": "BTH00:07:80:3B:46:38", "channels": [1, 2, 3, 4, 5, 6, 7, 8], "date": "2017-6-1", "mode": 0, "digital IO": [0, 1], "firmware version": 772, "device": "biosignalsplux", "position": 0, "sampling rate": 1000, "label": ["RA_L", "RA_R", "OE_L", "OE:R", "IL_L", "IL_R", "MF_L", "MF_R"], "resolution": [16, 16, 16, 16, 16, 16, 16, 16], "special": [{}, {}, {}, {}, {}, {}, {}, {}]}}
# EndOfHeader
0	0	32711	32747	32773	32681	32894	32837	32722	32663	
1	0	32734	32629	32807	32605	32863	32629	32758	32595	
2	0	32775	32596	32802	32759	32838	32743	32694	32647	
3	0	32804	32698	32797	32613	32834	32855	32693	32679	
4	0	32796	32653	32826	32607	32631	32903	32815	32631	
5	0	32797	32479	32822	32583	32671	32785	32847	32697	
6	0	32788	32469	32836	32633	32767	32647	32821	32551	
7	0	32769	32487	32767	32611	32819	32803	32791	32647	
8	0	32799	32518	32799	32679	32740	32701	32829	32711	
9	0	32703	32583	32830	32671	32729	32827	32837	32587	
10	0	32780	32506	32819	32851	32756	32853	32804	32679	
11	0	32845	32689	32807	32819	32775	32667	32731	32587	
12	0	32772	32708	32807	32844	32739	32787	32783	32647	
13	0	32759	32818	32821	32799	32747	32807	32841	32535	
14	0	32775	32891	32812	32785	32755	32789	32690	32661	
15	0	32796	32903	32751	32702	32553	32898	32742	32677	
16	0	32772	32871	32686	32631	32731	32772	32604	32713	
17	0	32793	32813	32737	32549	32806	32903	32587	32647	
18	0	32791	32685	32747	32308	32933	32867	32694	32693	
19	0	32730	32541	32819	32410	32903	32807	32659	32733	
20	0	32871	32647	32719	32623	32807	32743	32695	32751	
21	0	32842	32484	32699	32711	32790	32607	32615	32834	
22	0	32818	32468	32759	32647	32802	32598	32599	32782	
23	0	32767	32590	32773	32599	32695	32743	32717	32643	
24	0	32805	32491	32734	32698	32727	32687	32711	32722	
25	0	32731	32567	32761	32815	32807	32707	32687	32701	
26	0	32790	32722	32773	32843	32877	32751	32627	32745	
27	0	32732	32702	32751	32911	32823	32791	32699	32722	
28	0	32799	32891	32711	33010	32826	32579	32751	32589	
29	0	32759	32751	32738	32891	32661	32759	32823	32775	
30	0	32799	32701	32731	32604	32767	32799	32687	32628	
31	0	32717	32903	32851	32575	32871	32790	32743	32725	
32	0	32701	32786	32693	32639	32858	32807	32731	32603	
33	0	32707	32863	32739	32701	32877	32775	32580	32666	
34	0	32685	32749	32733	32820	32946	32723	32647	32623	
35	0	32697	32775	32775	32903	32809	32763	32753	32519	
36	0	32727	32859	32756	32893	32839	32687	32834	32701	
37	0	32786	32919	32692	32809	32737	32830	32727	32719	
38	0	32745	32635	32725	32713	32539	32643	32775	32539	
39	0	32788	32775	32735	32708	32643	32823	32691	32722	
40	0	32785	32762	32735	32671	32590	32820	32647	32633	
41	0	32813	32767	32775	32562	32799	32773	32677	32799	
42	0	32877	32509	32775	32661	32845	32843	32662	32613	
43	0	32836	32577	32761	32634	32751	32685	32583	32754	
44	0	32756	32642	32738	32813	32821	32711	32687	32627	
45	0	32748	32439	32703	32860	32667	32713	32692	32677	
46	0	32690	32583	32639	32763	32637	32677	32763	32647	
47	0	32708	32415	32711	32711	32836	32815	32711	32690	
48	0	32772	32279	32791	32669	32871	32735	32671	32621	
49	0	32786	32287	32807	32647	32783	32807	32843	32565	
50	0	32806	32687	32730	32631	32775	32845	32827	32678	
51	0	32765	32694	32692	32579	32797	32761	32835	32575	
52	0	32782	32766	32773	32583	32805	32767	32699	32627	
53	0	32840	32647	32731	32546	32773	32795	32787	32725	
54	0	32808	32781	32695	32519	32729	32853	32813	32646	
55	0	32809	32663	32789	32450	32731	32727	32751	32701	
56	0	32799	32743	32793	32667	32709	32775	32694	32820	
57	0	32743	32581	32702	32727	32518	32845	32775	32711	
58	0	32804	32566	32820	32702	32543	32775	32803	32579	
59	0	32732	32813	32726	32667	32663	32791	32599	32719	
60	0	32722	32924	32725	32647	32851	32667	32700	32717	
61	0	32729	32646	32706	32830	32855	32711	32615	32613	
62	0	32665	32811	32707	32877	32863	32863	32548	32733	
63	0	32775	32765	32751	32883	32799	32741	32743	32623	
64	0	32743	32525	32756	32863	32771	32633	32686	32775	
65	0	32784	32697	32833	32767	32599	32647	32599	32647	
66	0	32743	32587	32838	32751	32679	32727	32717	32635	
67	0	32765	32462	32852	32775	32764	32735	32791	32782	
68	0	32869	32612	32679	32911	32799	32750	32703	32719	
69	0	32792	32765	32715	32859	32915	32623	32829	32567	
70	0	32797	32723	32807	32763	32902	32719	32801	32575	
71	0	32794	32711	32882	32623	32711	32647	32653	32627	
72	0	32700	32641	32831	32604	32775	32711	32658	32501	
73	0	32750	32718	32775	32732	32559	32607	32647	32647	
74	0	32721	32819	32815	32697	32627	32719	32615	32647	
75	0	32700	32775	32831	32695	32559	32799	32590	32773	
76	0	32759	32615	32795	32515	32639	32734	32802	32711	
77	0	32775	32763	32796	32684	32698	32757	32815	32591	
78	0	32786	32733	32826	32617	32735	32799	32807	32748	
79	0	32793	32707	32915	32699	32759	32675	32671	32691	
80	0	32825	32615	32855	32662	32805	32731	32727	32847	
81	0	32901	32519	32715	32839	32855	32832	32735	32759	
82	0	32805	32705	32771	32733	32936	32775	32749	32623	
83	0	32748	32715	32839	32758	32799	32747	32629	32660	
84	0	32761	32685	32797	32727	32767	32822	32695	32711	
85	0	32751	32709	32730	32741	32791	32694	32701	32599	
86	0	32748	32767	32699	32903	32887	32790	32662	32709	
87	0	32752	32799	32661	32903	32581	32791	32761	32699	
88	0	32806	32767	32685	32869	32569	32844	32727	32749	
89	0	32813	32631	32743	32783	32615	32783	32775	32703	
90	0	32749	32775	32684	32749	32615	32810	32706	32534	
91	0	32749	32739	32667	32731	32671	32659	32727	32655	
92	0	32770	32822	32671	32738	32841	32773	32694	32687	
93	0	32694	32677	32663	32727	32839	32730	32621	32564	
94	0	32720	32683	32695	32721	32850	32804	32765	32647	
95	0	32687	32597	32735	32707	32787	32647	32742	32723	
96	0	32709	32558	32687	32683	32733	32823	32635	32590	
97	0	32714	32709	32663	32742	32561	32813	32759	32655	
98	0	32695	32681	32725	32733	32596	32841	32799	32637	
99	0	32693	32605	32839	32807	32731	32734	32669	32828	
100	0	32692	32703	32783	32789	32867	32877	32731	32686	
101	0	32649	32719	32836	32735	32737	32683	32763	32701	
102	0	32688	32498	32867	32743	32733	32623	32689	32495	
103	0	32713	32775	32869	32786	32557	32740	32692	32722	
104	0	32752	32830	32743	32711	32611	32807	32763	32695	
105	0	32766	32615	32727	32710	32775	32775	32658	32578	
106	0	32742	32690	32693	32607	32881	32791	32655	32655	
107	0	32780	32687	32775	32505	32748	32647	32663	32657	
108	0	32759	32663	32756	32389	32811	32797	32719	32775	
109	0	32827	32457	32755	32451	32759	32660	32899	32711	
110	0	32869	32727	32660	32686	32535	32759	32879	32574	
111	0	32835	32735	32655	32595	32631	32598	32711	32711	
112	0	32810	32607	32698	32627	32903	32797	32759	32717	
113	0	32821	32797	32722	32580	32823	32761	32695	32727	
114	0	32757	32718	32763	32482	32791	32831	32710	32607	
115	0	32741	32543	32767	32605	32615	32687	32775	32725	
116	0	32773	32694	32724	32552	32695	32796	32631	32683	
117	0	32827	32647	32661	32679	32877	32791	32647	32719	
118	0	32748	32647	32775	32589	32827	32731	32663	32673	
119	0	32731	32705	32785	32605	32898	32711	32623	32794	
120	0	32711	32525	32725	32591	32823	32710	32655	32743	
121	0	32658	32543	32780	32655	32887	32677	32615	32737	
122	0	32709	32647	32791	32829	32855	32823	32629	32703	
123	0	32741	32631	32813	32813	32751	32719	32791	32647	
124	0	32722	32647	32775	32839	32787	32863	32807	32701	
125	0	32729	32645	32783	32939	32763	32769	32885	32611	
126	0	32804	32647	32809	33026	32746	32711	32674	32713	
127	0	32837	32877	32803	32847	32626	32571	32783	32551	
128	0	32818	32759	32767	32935	32595	32717	32791	32635	
129	0	32842	32647	32789	32939	32599	32797	32775	32572	
130	0	32775	32675	32750	32993	32571	32750	32671	32695	
131	0	32743	32775	32737	32803	32639	32836	32675	32642	
132	0	32775	32739	32813	32807	32615	32871	32775	32717	
133	0	32771	32659	32765	32799	32679	32850	32861	32639	
134	0	32783	32749	32695	32786	32635	32721	32787	32711	
135	0	32815	32655	32711	32706	32647	32697	32749	32627	
136	0	32759	32693	32763	32738	32747	32841	32607	32821	
137	0	32737	32526	32749	32670	32775	32734	32671	32647	
138	0	32775	32637	32742	32687	32759	32844	32711	32587	
139	0	32740	32803	32710	32543	32741	32699	32597	32691	
140	0	32806	32815	32759	32647	32759	32739	32583	32638	
141	0	32775	32943	32787	32775	32795	32841	32635	32743	
142	0	32803	32941	32695	32721	32775	32723	32679	32710	
143	0	32826	32775	32735	32735	32791	32703	32739	32711	
144	0	32860	32758	32772	32738	32743	32791	32671	32729	
145	0	32789	32819	32751	32686	32751	32730	32639	32607	
146	0	32733	32679	32759	32774	32659	32627	32695	32669	
147	0	32762	32683	32754	32705	32655	32775	32827	32543	
148	0	32767	32583	32807	32663	32631	32643	32713	32604	
149	0	32782	32647	32868	32788	32711	32775	32711	32555	
150	0	32711	32663	32879	32735	32843	32573	32773	32748	
151	0	32759	32533	32796	32675	32892	32623	32627	32612	
152	0	32671	32470	32793	32626	32806	32827	32797	32487	
153	0	32727	32455	32775	32564	32722	32831	32767	32644	
154	0	32663	32487	32839	32639	32668	32839	32691	32663	
155	0	32667	32643	32863	32679	32703	32828	32703	32703	
156	0	32660	32475	32692	32711	32623	32687	32662	32719	
157	0	32645	32735	32583	32619	32566	32867	32727	32519	
158	0	32740	32667	32613	32558	32749	32732	32647	32658	
159	0	32863	32847	32681	32669	32884	32775	32756	32673	
160	0	32823	32775	32769	32687	32879	32772	32727	32628	
161	0	32773	32783	32703	32847	32851	32723	32769	32679	
162	0	32804	32943	32703	32743	32791	32749	32709	32562	
163	0	32784	32855	32647	32715	32804	32831	32847	32719	
164	0	32803	32943	32725	32831	32754	32823	32833	32706	
165	0	32813	32796	32735	32823	32819	32807	32775	32623	
166	0	32818	32822	32751	32761	32501	32683	32815	32743	
167	0	32806	32748	32791	32869	32674	32692	32767	32721	
168	0	32854	32647	32845	32876	32827	32727	32835	32513	
169	0	32821	32709	32836	32807	32791	32733	32799	32685	
170	0	32873	32711	32743	32645	32716	32754	32719	32613	
171	0	32885	32535	32735	32591	32551	32786	32899	32497	
172	0	32941	32731	32798	32623	32689	32759	32851	32551	
173	0	32943	32843	32823	32623	32743	32705	32751	32425	
174	0	32916	32767	32851	32459	32815	32676	32818	32515	
175	0	32950	32647	32747	32489	32699	32711	32775	32527	
176	0	32921	32615	32735	32479	32765	32663	32715	32335	
177	0	32860	32495	32775	32403	32769	32707	32825	32549	
178	0	32830	32566	32879	32462	32598	32754	32719	32534	
179	0	32834	32391	32839	32585	32638	32670	32687	32438	
180	0	32895	32556	32885	32736	32813	32767	32775	32639	
181	0	32863	32621	32901	32728	32775	32583	32690	32672	
182	0	32886	32501	32871	32758	32803	32732	32759	32466	
183	0	32957	32647	32935	32727	32839	32711	32748	32727	
184	0	32926	32687	32925	32691	32628	32647	32532	32719	
185	0	32874	32455	32848	32567	32687	32668	32620	32532	
186	0	32838	32619	32888	32519	32855	32673	32579	32738	
187	0	32885	32615	32889	32583	32887	32727	32519	32724	
188	0	32766	32862	32949	32701	32869	32695	32663	32677	
189	0	32799	32597	33019	32609	32796	32647	32647	32737	
190	0	32695	32717	32965	32487	32783	32865	32559	32621	
191	0	32686	32463	32815	32499	32787	32871	32639	32690	
192	0	32583	32495	32807	32670	32786	32903	32565	32635	
193	0	32541	32287	32830	32809	32807	32798	32589	32855	
194	0	32447	32391	32775	32852	32901	32775	32474	32813	
195	0	32423	32487	32700	32679	32615	32835	32647	32751	
196	0	32479	32471	32749	32725	32571	32863	32621	32739	
197	0	32496	32634	32658	32786	32681	32863	32579	32754	
198	0	32460	32583	32645	32787	32975	32751	32527	32807	
199	0	32523	32663	32591	32711	32897	32879	32631	32835	
200	0	32463	32749	32524	32751	32775	32831	32591	32913	
201	0	32432	32531	32470	32871	32767	32900	32717	32761	
202	0	32407	32735	32379	32921	32827	32689	32738	32943	
203	0	32418	32845	32364	32977	32667	32932	32535	32973	
204	0	32391	32567	32355	32975	32683	32951	32599	32901	
205	0	32383	32783	32363	32895	32721	33013	32658	33153	
206	0	32263	32694	32342	32756	32837	32925	32517	33099	
207	0	32231	32838	32150	32933	32967	33106	32431	33343	
208	0	32188	32695	32135	33191	33071	33187	32532	33479	
209	0	32269	32815	32173	33287	33071	33105	32583	33263	
210	0	32401	32948	32327	33299	33043	33122	32698	33366	
211	0	32529	32855	32437	33071	32973	33001	32647	33043	
212	0	32620	32898	32599	33013	32834	32794	32692	32963	
213	0	32717	32641	32686	32895	32733	32983	32647	32821	
214	0	32775	32775	32749	32711	32534	32783	32647	32762	
215	0	32865	32764	32875	32669	32559	32611	32883	32589	
216	0	33019	32523	32927	32640	32749	32647	32941	32397	
217	0	33030	32739	32973	32635	32765	32599	32763	32415	
218	0	33074	32617	32937	32516	32622	32660	32839	32300	
219	0	33104	32767	32959	32526	32707	32647	32879	32423	
220	0	33156	32687	32895	32595	32789	32759	32770	32311	
221	0	33156	32734	32875	32580	32775	32535	32727	32327	
222	0	33106	32757	32997	32597	32690	32617	32698	32331	
223	0	33060	32963	33054	32795	32696	32593	32895	32391	
224	0	33068	32833	33090	32699	32703	32701	32903	32407	
225	0	33096	32887	32927	32711	32687	32643	32800	32407	
226	0	32959	32605	32956	32639	32685	32556	32865	32343	
227	0	32924	32639	32895	32767	32693	32735	32841	32526	
228	0	32891	32629	32931	32743	32502	32619	32844	32487	
229	0	32844	32559	32931	32642	32458	32654	32827	32373	
230	0	32867	32628	32865	32495	32487	32631	32788	32439	
231	0	32909	32535	32844	32667	32575	32511	32765	32337	
232	0	32895	32647	32879	32639	32599	32679	32887	32495	
233	0	32876	32769	32863	32711	32757	32609	32841	32519	
234	0	32927	32799	32815	32658	32734	32715	32925	32525	
235	0	32929	32723	32804	32559	32715	32543	32847	32479	
236	0	32948	32642	32875	32615	32655	32677	32831	32590	
237	0	32876	32823	32847	32647	32764	32647	32785	32500	
238	0	32895	32839	32735	32551	32827	32646	32947	32493	
239	0	32935	32959	32807	32603	32787	32689	32819	32545	
240	0	32836	33062	32771	32815	32790	32635	32811	32468	
241	0	32870	32695	32795	32964	32795	32641	32706	32619	
242	0	32876	32783	32718	32713	32819	32885	32711	32547	
243	0	32830	32647	32695	32877	32834	32815	32698	32555	
244	0	32824	32647	32727	32850	32607	32877	32630	32559	
245	0	32853	32615	32767	32815	32587	32647	32647	32702	
246	0	32774	32463	32647	32727	32525	32647	32663	32551	
247	0	32743	32517	32749	32701	32597	32799	32741	32626	
248	0	32719	32575	32775	32789	32642	32691	32630	32683	
249	0	32658	32607	32735	32796	32669	32796	32739	32829	
250	0	32709	32706	32827	32607	32703	32647	32732	32743	
251	0	32713	32503	32771	32481	32863	32775	32740	32571	
252	0	32736	32767	32759	32603	32807	32780	32751	32687	
253	0	32709	32717	32807	32698	32759	32836	32727	32639	
254	0	32695	32599	32799	32724	32825	32660	32803	32807	
255	0	32663	32698	32852	32623	32772	32659	32669	32751	
256	0	32729	32601	32807	32697	32715	32855	32751	32660	
257	0	32753	32695	32735	32751	32743	32739	32769	32767	
258	0	32812	32681	32751	32790	32634	32791	32705	32519	
259	0	32754	32719	32791	32718	32687	32647	32644	32701	
260	0	32826	32567	32758	32643	32787	32731	32691	32731	
261	0	32775	32772	32810	32669	32877	32711	32759	32575	
262	0	32745	32885	32699	32757	32883	32885	32687	32697	
263	0	32827	32563	32659	32727	32851	32704	32771	32724	
264	0	32799	32503	32749	32699	32671	32822	32742	32796	
265	0	32841	32315	32775	32572	32612	32706	32799	32677	
266	0	32873	32535	32735	32589	32756	32855	32841	32571	
267	0	32758	32631	32765	32771	32735	32659	32699	32723	
268	0	32742	32451	32721	32847	32570	32743	32567	32647	
269	0	32695	32621	32755	32982	32758	32757	32612	32583	
270	0	32726	32612	32615	32885	32855	32895	32671	32687	
271	0	32678	32617	32671	32813	32903	32834	32638	32747	
272	0	32703	32407	32668	32935	32773	32657	32671	32615	
273	0	32766	32595	32679	32745	32813	32821	32679	32759	
274	0	32644	32642	32759	32612	32829	32833	32677	32791	
275	0	32714	32685	32767	32428	32638	32717	32671	32675	
276	0	32687	32567	32722	32469	32660	32662	32680	32697	
277	0	32647	32807	32710	32547	32903	32698	32668	32644	
278	0	32716	32879	32709	32749	32835	32767	32695	32749	
279	0	32681	32695	32757	32759	32763	32605	32679	32639	
280	0	32737	32903	32810	32756	32758	32749	32612	32641	
281	0	32712	32941	32823	32846	32635	32743	32671	32895	
282	0	32655	32658	32903	32830	33059	32722	32639	32775	
283	0	32632	32839	32797	32659	32895	32813	32594	32679	
284	0	32715	32791	32789	32593	32814	32799	32631	32540	
285	0	32716	32903	32669	32637	32570	32869	32679	32637	
286	0	32681	32759	32722	32565	32575	32647	32725	32571	
287	0	32756	32813	32815	32559	32530	32831	32799	32711	
288	0	32817	32831	32855	32391	32679	32711	32842	32773	
289	0	32816	32709	32823	32441	32914	32771	32690	32609	
290	0	32745	32607	32767	32471	32893	32758	32790	32655	
291	0	32838	32771	32663	32589	32891	32677	32743	32575	
292	0	32804	32762	32774	32727	32804	32831	32615	32791	
293	0	32751	32595	32765	32758	32766	32783	32743	32679	
294	0	32791	32684	32751	32755	32580	32625	32730	32695	
295	0	32755	32695	32799	32868	32579	32639	32629	32715	
296	0	32747	32711	32794	32977	32559	32822	32847	32711	
297	0	32803	32681	32766	32870	32599	32817	32809	32647	
298	0	32799	32799	32811	32927	32707	32795	32739	32758	
299	0	32820	32881	32815	32903	32854	32673	32871	32773	
300	0	32817	32917	32729	32831	32837	32807	32847	32604	
301	0	32783	32631	32669	32860	32814	32814	32663	32689	
302	0	32754	32643	32719	32858	32749	32775	32733	32623	
303	0	32767	32693	32711	32615	32631	32799	32641	32551	
304	0	32845	32567	32637	32615	32643	32790	32647	32679	
305	0	32773	32644	32647	32643	32713	32807	32655	32685	
306	0	32696	32644	32726	32514	32805	32710	32694	32549	
307	0	32755	32722	32742	32535	32839	32677	32624	32673	
308	0	32818	32599	32727	32667	32842	32775	32715	32698	
309	0	32773	32575	32729	32709	32829	32766	32715	32723	
310	0	32789	32775	32684	32719	32775	32775	32685	32635	
311	0	32801	32755	32647	32767	32756	32668	32671	32579	
312	0	32775	32617	32742	32759	32771	32797	32679	32663	
313	0	32803	32503	32805	32735	32791	32706	32767	32711	
314	0	32783	32631	32852	32855	32623	32711	32719	32590	
315	0	32743	32639	32743	32743	32811	32647	32730	32667	
316	0	32715	32551	32695	32658	32807	32815	32666	32639	
317	0	32781	32447	32699	32647	32782	32769	32794	32757	
318	0	32783	32593	32749	32587	32742	32751	32851	32701	
319	0	32782	32635	32839	32769	32755	32804	32861	32531	
320	0	32797	32605	32775	32821	32719	32793	32809	32591	
321	0	32761	32619	32765	32988	32775	32615	32694	32518	
322	0	32669	32623	32860	32877	32800	32612	32705	32683	
323	0	32673	32621	32763	32895	32799	32763	32621	32583	
324	0	32722	32679	32703	32763	32804	32855	32725	32711	
325	0	32677	32831	32748	32601	32775	32743	32711	32623	
326	0	32691	32831	32825	32671	32684	32751	32749	32699	
327	0	32697	32743	32719	32543	32807	32751	32725	32719	
328	0	32717	32743	32771	32684	32807	32629	32733	32711	
329	0	32766	32495	32821	32583	32871	32683	32637	32591	
330	0	32816	32564	32881	32684	32642	32799	32702	32532	
331	0	32854	32615	32756	32743	32719	32799	32717	32763	
332	0	32867	32773	32689	32711	32803	32759	32619	32662	
333	0	32883	32869	32710	32759	32695	32679	32615	32593	
334	0	32794	32775	32843	32647	32709	32701	32726	32642	
335	0	32727	32733	32927	32625	32719	32821	32759	32530	
336	0	32760	32839	32843	32495	32785	32749	32757	32647	
337	0	32792	32803	32791	32635	32903	32764	32717	32747	
338	0	32742	32799	32783	32626	32854	32623	32786	32631	
339	0	32800	32692	32754	32635	32743	32822	32773	32686	
340	0	32749	32693	32707	32793	32715	32844	32815	32735	
341	0	32796	32738	32775	32862	32771	32865	32789	32627	
342	0	32813	32581	32735	32695	32599	32629	32751	32647	
343	0	32893	32749	32711	32783	32577	32799	32730	32519	
344	0	32822	32700	32708	32685	32805	32695	32755	32715	
345	0	32717	32727	32721	32773	32839	32887	32775	32663	
346	0	32699	32423	32719	32895	32879	32789	32692	32807	
347	0	32609	32543	32721	32817	32851	32701	32759	32686	
348	0	32647	32463	32662	32891	32772	32711	32739	32590	
349	0	32666	32519	32679	32823	32811	32749	32631	32747	
350	0	32681	32615	32679	32703	32633	32733	32661	32684	
351	0	32646	32551	32703	32834	32677	32551	32535	32733	
352	0	32724	32549	32735	32703	32736	32731	32687	32749	
353	0	32660	32506	32743	32580	32879	32677	32747	32743	
354	0	32632	32615	32727	32693	32887	32727	32791	32600	
355	0	32669	32481	32795	32607	32758	32786	32669	32754	
356	0	32718	32582	32743	32625	32791	32647	32669	32719	
357	0	32780	32533	32818	32775	32799	32775	32703	32645	
358	0	32815	32756	32851	32634	32583	32715	32647	32573	
359	0	32849	32803	32733	32657	32641	32807	32754	32724	
360	0	32832	32658	32743	32663	32767	32662	32759	32631	
361	0	32829	32898	32719	32594	32771	32834	32727	32748	
362	0	32806	32919	32681	32631	32843	32767	32765	32596	
363	0	32772	33015	32718	32567	32821	32799	32783	32767	
364	0	32837	32765	32703	32805	32775	32803	32655	32695	
365	0	32847	32685	32735	32797	32735	32639	32719	32507	
366	0	32786	32756	32751	32725	32759	32823	32747	32668	
367	0	32824	32695	32810	32889	32605	32759	32643	32629	
368	0	32829	32599	32775	32819	32611	32727	32611	32465	
369	0	32810	32619	32769	32743	32631	32589	32695	32604	
370	0	32867	32596	32817	32719	32655	32729	32577	32551	
371	0	32852	32634	32810	32633	32758	32758	32598	32662	
372	0	32751	32549	32871	32811	32756	32773	32621	32655	
373	0	32740	32515	32786	32707	32733	32775	32775	32541	
374	0	32783	32699	32707	32760	32715	32698	32731	32631	
375	0	32769	32701	32811	32903	32887	32603	32727	32463	
376	0	32810	32807	32850	32881	32807	32621	32798	32627	
377	0	32780	32799	32847	32772	32829	32743	32799	32634	
378	0	32763	32646	32755	32638	32877	32604	32739	32684	
379	0	32729	32850	32756	32721	32950	32663	32822	32743	
380	0	32732	32797	32771	32630	32831	32839	32871	32639	
381	0	32738	32859	32799	32635	32775	32647	32829	32735	
382	0	32710	32679	32813	32413	32847	32803	32815	32623	
383	0	32756	32679	32667	32466	32820	32859	32812	32707	
384	0	32756	32801	32799	32615	32859	32871	32741	32639	
385	0	32759	32745	32775	32637	32647	32839	32604	32727	
386	0	32792	32511	32795	32695	32630	32639	32631	32604	
387	0	32788	32628	32809	32623	32709	32863	32679	32727	
388	0	32792	32559	32743	32821	32737	32735	32695	32599	
389	0	32788	32586	32755	32754	32795	32871	32759	32775	
390	0	32806	32679	32797	32771	32723	32694	32825	32679	
391	0	32807	32687	32751	32863	32731	32855	32755	32565	
392	0	32775	32791	32799	32903	32751	32846	32683	32653	
393	0	32764	32626	32831	32775	32735	32759	32791	32654	
394	0	32749	32647	32699	32783	32709	32786	32846	32807	
395	0	32715	32607	32663	32628	32733	32700	32675	32694	
396	0	32674	32663	32772	32582	32727	32719	32753	32663	
397	0	32718	32631	32770	32599	32725	32804	32742	32627	
398	0	32760	32359	32727	32839	32549	32727	32743	32551	
399	0	32721	32591	32742	32837	32577	32743	32724	32696	
400	0	32708	32614	32647	32757	32807	32674	32686	32719	
401	0	32762	32738	32738	32775	33015	32679	32583	32771	
402	0	32791	32557	32788	32463	32879	32727	32639	32570	
403	0	32775	32637	32751	32469	32807	32759	32647	32647	
404	0	32706	32865	32807	32527	32871	32690	32738	32695	
405	0	32769	32867	32815	32711	32731	32751	32817	32605	
406	0	32775	32806	32807	32879	32647	32623	32725	32735	
407	0	32724	32930	32766	32717	32679	32767	32870	32711	
408	0	32717	32827	32775	32721	32764	32738	32749	32594	
409	0	32751	32868	32715	32859	32570	32743	32687	32646	
410	0	32734	32679	32703	32964	32527	32713	32871	32623	
411	0	32751	32903	32767	32929	32658	32629	32812	32747	
412	0	32703	32987	32773	32579	32855	32695	32754	32631	
413	0	32732	32815	32799	32646	32895	32662	32815	32553	
414	0	32745	32859	32607	32887	32799	32769	32663	32685	
415	0	32881	32863	32661	32847	32820	32765	32631	32727	
416	0	32782	32743	32680	32751	32791	32666	32605	32623	
417	0	32785	32447	32735	32634	32775	32679	32715	32677	
418	0	32789	32359	32775	32695	32818	32831	32687	32540	
419	0	32843	32501	32647	32743	32621	32767	32647	32695	
420	0	32780	32563	32706	32495	32695	32828	32743	32635	
421	0	32772	32423	32727	32508	32775	32838	32756	32463	
422	0	32780	32546	32755	32353	32837	32751	32653	32725	
423	0	32732	32626	32773	32492	32883	32813	32791	32577	
424	0	32730	32703	32797	32663	32867	32695	32799	32543	
425	0	32804	32591	32807	32517	32838	32818	32677	32733	
426	0	32759	32623	32709	32551	32826	32677	32647	32695	
427	0	32759	32537	32751	32799	32804	32633	32647	32765	
428	0	32767	32759	32743	32823	32765	32703	32709	32620	
429	0	32735	32549	32758	32911	32775	32711	32647	32627	
430	0	32777	32719	32765	32917	32775	32807	32773	32711	
431	0	32838	32724	32655	32767	32761	32671	32737	32675	
432	0	32767	32469	32722	32847	32543	32656	32683	32599	
433	0	32751	32694	32759	32751	32615	32775	32675	32759	
434	0	32806	32732	32767	32807	32663	32685	32660	32701	
435	0	32790	32755	32796	32671	32702	32769	32699	32614	
436	0	32743	32540	32803	32553	32895	32839	32802	32723	
437	0	32708	32583	32767	32578	32791	32663	32839	32719	
438	0	32639	32647	32769	32695	32726	32737	32663	32805	
439	0	32694	32485	32717	32691	32743	32844	32733	32647	
440	0	32839	32775	32772	32825	32858	32795	32663	32601	
441	0	32724	32757	32783	32803	32659	32867	32675	32679	
442	0	32830	32737	32741	32711	32606	32606	32773	32705	
443	0	32759	32775	32791	32659	32767	32689	32663	32676	
444	0	32743	32726	32655	32743	32815	32727	32867	32570	
445	0	32743	32694	32668	32587	32735	32783	32762	32754	
446	0	32771	32748	32694	32770	32791	32642	32756	32751	
447	0	32817	32759	32679	32745	32815	32635	32711	32599	
448	0	32869	32789	32674	32727	32638	32775	32668	32580	
449	0	32771	32599	32715	32855	32647	32742	32775	32671	
450	0	32771	32647	32679	32770	32815	32733	32711	32500	
451	0	32731	32730	32799	32636	32785	32647	32581	32723	
452	0	32763	32689	32751	32769	32805	32715	32798	32671	
453	0	32742	32487	32743	32663	32804	32799	32809	32703	
454	0	32710	32647	32621	32647	32838	32687	32727	32708	
455	0	32782	32703	32710	32687	32773	32767	32733	32631	
456	0	32702	32640	32767	32694	32577	32615	32775	32819	
457	0	32679	32738	32839	32607	32631	32823	32674	32755	
458	0	32697	32727	32858	32727	32695	32676	32751	32551	
459	0	32730	32847	32834	32647	32743	32709	32694	32695	
460	0	32742	32647	32811	32754	32877	32758	32592	32667	
461	0	32763	32710	32815	32715	32865	32663	32685	32807	
462	0	32783	32662	32875	32612	32738	32748	32739	32709	
463	0	32764	32620	32866	32820	32751	32773	32647	32567	
464	0	32754	32527	32763	32829	32806	32801	32681	32681	
465	0	32745	32388	32764	32811	32737	32833	32708	32711	
466	0	32711	32671	32775	32793	32775	32756	32869	32574	
467	0	32730	32711	32799	32671	32575	32647	32775	32621	
468	0	32730	32756	32743	32785	32676	32739	32846	32631	
469	0	32793	32829	32727	32769	32789	32775	32809	32743	
470	0	32791	32871	32794	32791	32775	32861	32567	32707	
471	0	32734	32735	32797	32686	32713	32679	32679	32583	
472	0	32802	32828	32708	32667	32838	32682	32669	32641	
473	0	32832	32577	32679	32867	32791	32814	32647	32586	
474	0	32877	32751	32640	32741	32594	32722	32711	32726	
475	0	32845	32626	32668	32597	32663	32807	32738	32679	
476	0	32810	32623	32694	32749	32735	32831	32767	32623	
477	0	32753	32667	32727	32679	32743	32621	32689	32591	
478	0	32784	32591	32727	32611	32835	32767	32798	32676	
479	0	32762	32711	32647	32733	32819	32727	32788	32755	
480	0	32694	32763	32703	32575	32751	32822	32687	32605	
481	0	32715	32471	32769	32759	32725	32620	32771	32615	
482	0	32710	32661	32759	32689	32571	32733	32787	32743	
483	0	32792	32575	32815	32762	32699	32742	32703	32647	
484	0	32752	32631	32802	32692	32755	32743	32829	32621	
485	0	32731	32433	32769	32523	32830	32823	32807	32750	
486	0	32808	32715	32789	32613	32756	32741	32676	32606	
487	0	32801	32683	32740	32545	32711	32828	32775	32519	
488	0	32814	32794	32719	32676	32823	32683	32642	32711	
489	0	32768	32573	32797	32866	32829	32709	32593	32676	
490	0	32692	32749	32743	32773	32810	32733	32621	32539	
491	0	32694	32751	32759	32795	32686	32719	32759	32723	
492	0	32749	32452	32690	32823	32751	32758	32674	32621	
493	0	32820	32740	32785	32763	32919	32799	32706	32683	
494	0	32826	32751	32771	32799	32775	32623	32635	32823	
495	0	32804	32581	32804	32850	32807	32695	32699	32727	
496	0	32759	32918	32911	32791	32631	32687	32725	32625	
497	0	32740	32962	32797	32747	32707	32706	32668	32775	
498	0	32743	32940	32839	32719	32775	32683	32807	32655	
499	0	32775	32884	32807	32645	32679	32671	32775	32655	
500	0	32701	32927	32796	32635	32751	32867	32629	32799	
501	0	32715	32963	32756	32733	32562	32887	32677	32702	
502	0	32748	32677	32711	32623	32671	32799	32609	32751	
503	0	32786	32853	32731	32598	32943	32759	32603	32577	
504	0	32823	32807	32738	32607	32731	32775	32743	32647	
505	0	32762	32631	32727	32557	32751	32873	32813	32582	
506	0	32687	32628	32707	32491	32535	32643	32791	32583	
507	0	32711	32743	32735	32561	32773	32851	32746	32707	
508	0	32682	32527	32767	32519	32745	32738	32845	32599	
509	0	32815	32743	32775	32507	32887	32819	32831	32511	
510	0	32781	32748	32815	32621	32660	32646	32791	32727	
511	0	32763	32543	32795	32740	32739	32871	32771	32580	
512	0	32802	32477	32719	32699	32841	32773	32810	32613	
513	0	32773	32555	32623	32815	32790	32743	32785	32761	
514	0	32727	32587	32667	32839	32595	32767	32796	32701	
515	0	32748	32343	32695	32621	32619	32617	32759	32583	
516	0	32747	32495	32679	32745	32771	32711	32734	32647	
517	0	32756	32621	32725	32791	32818	32751	32723	32679	
518	0	32719	32759	32775	32991	32758	32746	32743	32749	
519	0	32769	32589	32749	32919	32747	32598	32868	32634	
520	0	32799	32767	32709	32827	32538	32687	32818	32723	
521	0	32767	32719	32734	32731	32635	32662	32619	32503	
522	0	32843	32613	32765	32745	32789	32662	32686	32617	
523	0	32773	32530	32711	32684	32829	32743	32811	32647	
524	0	32719	32653	32743	32751	32762	32607	32677	32665	
525	0	32783	32679	32751	32555	32746	32773	32739	32599	
526	0	32832	32555	32775	32351	32837	32690	32731	32551	
527	0	32799	32571	32724	32593	32789	32811	32639	32740	
528	0	32759	32583	32727	32855	32611	32671	32684	32677	
529	0	32762	32727	32775	32806	32565	32694	32619	32519	
530	0	32752	32687	32743	32966	32710	32709	32775	32819	
531	0	32804	32745	32791	32903	32853	32819	32735	32703	
532	0	32806	32743	32775	32763	32722	32735	32669	32655	
533	0	32726	32537	32703	32962	32727	32903	32747	32775	
534	0	32724	32606	32718	32979	32628	32807	32726	32662	
535	0	32689	32591	32809	33067	32631	32775	32823	32692	
536	0	32790	32749	32775	32879	32839	32719	32790	32590	
537	0	32747	32609	32775	32775	32740	32687	32669	32701	
538	0	32767	32529	32811	32709	32775	32771	32700	32581	
539	0	32826	32751	32791	32479	32743	32647	32615	32583	
540	0	32723	32743	32766	32485	32917	32775	32647	32756	
541	0	32731	32769	32701	32563	32869	32724	32843	32643	
542	0	32732	32687	32740	32487	32757	32763	32797	32573	
543	0	32762	32943	32793	32533	32756	32549	32871	32739	
544	0	32715	32839	32854	32405	32802	32627	32831	32643	
545	0	32743	32826	32763	32647	32585	32711	32631	32743	
546	0	32751	32553	32719	32679	32690	32791	32766	32687	
547	0	32715	32699	32813	32415	32855	32615	32733	32635	
548	0	32775	32639	32807	32859	32803	32743	32589	32755	
549	0	32809	32643	32663	32941	32767	32762	32709	32754	
550	0	32844	32647	32755	32815	32767	32827	32689	32541	
551	0	32887	32715	32703	32646	32547	32810	32773	32612	
552	0	32868	32791	32679	32613	32714	32679	32743	32677	
553	0	32847	32463	32695	32668	32887	32723	32691	32434	
554	0	32835	32666	32739	32799	32803	32813	32739	32617	
555	0	32824	32647	32757	32759	32796	32678	32711	32690	
556	0	32795	32558	32808	32839	32741	32694	32631	32742	
557	0	32660	32579	32747	32846	32775	32822	32745	32644	
558	0	32629	32802	32727	32957	32590	32676	32775	32507	
559	0	32625	32749	32814	32901	32554	32773	32932	32655	
560	0	32637	32852	32832	32763	32611	32695	32640	32631	
561	0	32704	32715	32865	32836	32807	32769	32655	32721	
562	0	32621	32809	32786	32991	32812	32679	32781	32663	
563	0	32612	32767	32692	32637	32756	32791	32599	32635	
564	0	32679	32628	32743	32775	32708	32636	32743	32741	
565	0	32752	32647	32679	32575	32723	32769	32903	32606	
566	0	32792	32703	32799	32555	32802	32709	32743	32607	
567	0	32808	32637	32725	32767	32887	32748	32645	32785	
568	0	32866	32523	32743	32615	32796	32823	32823	32711	
569	0	32832	32719	32687	32715	32540	32691	32947	32743	
570	0	32827	32699	32751	32635	32477	32669	32989	32667	
571	0	32804	32811	32759	33039	32511	32831	32899	32775	
572	0	32796	32683	32819	32937	32662	32685	32621	32771	
573	0	32847	32839	32775	32727	32655	32845	32428	32609	
574	0	32855	32759	32821	32437	32693	32759	32473	32663	
575	0	32823	32766	32804	32289	32846	32695	32468	32575	
576	0	32788	32706	32837	32302	32870	32750	32607	32615	
577	0	32762	32835	32887	32391	32825	32749	32615	32565	
578	0	32815	32690	32891	32679	32775	32756	32615	32647	
579	0	32780	32451	32869	32695	32815	32638	32647	32621	
580	0	32679	32598	32814	32628	32730	32820	32706	32707	
581	0	32710	32631	32690	32575	32580	32772	32724	32614	
582	0	32783	32679	32783	32607	32639	32835	32615	32543	
583	0	32777	32518	32807	32843	32691	32695	32740	32745	
584	0	32710	32670	32805	32743	32823	32832	32813	32639	
585	0	32689	32646	32822	32612	32742	32722	32730	32559	
586	0	32668	32580	32767	32719	32756	32709	32807	32635	
587	0	32783	32583	32775	32805	32806	32647	32775	32561	
588	0	32747	32575	32735	32829	32767	32793	32641	32717	
589	0	32743	32775	32691	32863	32607	32755	32802	32678	
590	0	32756	32487	32735	32742	32628	32775	32789	32555	
591	0	32735	32687	32748	32438	32660	32627	32698	32582	
592	0	32734	32627	32581	32659	32671	32679	32859	32591	
593	0	32721	32687	32617	32543	32742	32844	32846	32703	
594	0	32754	32615	32671	32947	32963	32775	32679	32707	
595	0	32636	32811	32772	32952	32887	32861	32726	32670	
596	0	32687	32713	32775	32691	32733	32679	32797	32738	
597	0	32791	32735	32722	32813	32783	32797	32694	32727	
598	0	32743	32631	32729	32725	32787	32747	32743	32839	
599	0	32807	32783	32711	32807	32617	32853	32751	32711	
600	0	32850	32863	32723	32879	32614	32678	32679	32529	
601	0	32804	32620	32700	32941	32804	32762	32823	32678	
602	0	32748	32711	32663	32991	32763	32661	32761	32706	
603	0	32715	32767	32734	32961	32751	32700	32657	32511	
604	0	32728	32676	32757	32647	32771	32695	32629	32679	
605	0	32821	32835	32701	32759	32549	32487	32607	32615	
606	0	32805	32979	32751	32863	32533	32619	32647	32671	
607	0	32846	32963	32750	32732	32647	32797	32775	32667	
608	0	32775	32683	32775	32514	32767	32775	32749	32525	
609	0	32815	32871	32707	32959	32806	32631	32721	32735	
610	0	32836	32626	32742	32584	32743	32767	32847	32630	
611	0	32748	32687	32757	32591	32810	32842	32823	32525	
612	0	32722	32412	32713	32613	32747	32745	32711	32732	
613	0	32621	32621	32733	32743	32557	32783	32877	32766	
614	0	32621	32614	32700	33183	32621	32611	32933	32727	
615	0	32665	32583	32719	33476	32831	32815	32770	32647	
616	0	32731	32703	32701	33057	32875	32759	32756	32583	
617	0	32710	32743	32647	33042	32793	32841	32695	32826	
618	0	32759	32717	32606	32935	32827	32719	32615	32714	
619	0	32725	32533	32607	32623	32732	32789	32509	32614	
620	0	32638	32727	32617	32719	32495	32695	32359	32719	
621	0	32634	32788	32647	32819	32627	32793	32631	32594	
622	0	32657	32386	32866	31975	32786	32679	32807	32491	
623	0	32628	32676	32795	31837	32935	32567	32775	32623	
624	0	32614	32679	32671	31803	32899	32807	32711	32611	
625	0	32678	32837	32533	32092	32842	32697	32763	32701	
626	0	32771	32620	32588	32039	32823	32726	32711	32684	
627	0	32877	32735	32708	32171	32843	32658	32775	32719	
628	0	32943	32735	32791	32359	32665	32753	32617	32623	
629	0	32850	32537	32839	32727	32767	32739	32639	32759	
630	0	32808	32613	32867	32569	32903	32748	32775	32742	
631	0	32775	32447	32967	32303	32765	32679	32873	32566	
632	0	32708	32470	32962	32887	32746	32759	32876	32727	
633	0	32877	32359	32893	32879	32804	32799	32843	32647	
634	0	33025	32524	32943	32852	32663	32750	32791	32774	
635	0	33033	32551	32967	32924	32685	32647	32994	32660	
636	0	32959	32367	33044	32955	32854	32683	32903	32749	
637	0	32878	32557	33055	33011	32820	32711	32887	32647	
638	0	32874	32519	33171	33151	32755	32757	32877	32589	
639	0	33063	32599	33220	33053	32791	32631	32571	32610	
640	0	33060	32647	33099	32993	32703	32763	32409	32692	
641	0	33068	32845	32903	32947	32700	32775	32465	32623	
642	0	32823	32912	32691	32841	32607	32663	32679	32707	
643	0	32567	32796	32599	33015	32775	32834	32743	32529	
644	0	32378	32739	32583	32927	32703	32811	32903	32756	
645	0	32380	32593	32647	32667	32687	32679	32807	32687	
646	0	32418	32716	32679	32566	32826	32803	32845	32535	
647	0	32494	32890	32709	33191	32563	32858	32915	32647	
648	0	32406	32919	32627	33470	32541	32753	32647	32695	
649	0	32332	32593	32463	33111	32621	32813	32594	32678	
650	0	32445	32865	32326	32934	32817	32647	32615	32639	
651	0	32423	32871	32375	33053	32822	32782	32519	32635	
652	0	32647	32879	32531	32865	32786	32699	32499	32642	
653	0	32738	32647	32711	32450	32791	32791	32399	32813	
654	0	32825	32485	32731	32037	32717	32655	32391	32783	
655	0	32841	32591	32739	31955	32751	32758	32706	32529	
656	0	32856	32439	32860	32255	32769	32717	32743	32703	
657	0	32986	32567	32843	32319	32823	32831	32848	32751	
658	0	33055	32647	32813	32035	32807	32719	32839	32662	
659	0	33161	32735	32783	32149	32757	32607	32686	32658	
660	0	33383	32677	32847	32206	32708	32751	32756	32491	
661	0	33247	33022	32607	32423	32731	32655	32903	32701	
662	0	33144	32987	32542	32873	32566	32757	32853	32583	
663	0	33082	32715	32559	33155	32507	32787	32919	32613	
664	0	32957	32978	32605	33339	32685	32714	32835	32663	
665	0	32948	33031	32655	33529	32829	32813	32847	32606	
666	0	32838	32976	32765	33459	32831	32734	32625	32578	
667	0	32732	32775	32941	33095	32917	32815	32578	32711	
668	0	32331	32683	33004	32758	32844	32793	32717	32685	
669	0	32122	32511	32951	32479	32789	32683	32903	32791	
670	0	31983	32613	32856	32231	32711	32772	32910	32659	
671	0	32092	32354	32849	32405	32694	32759	32810	32511	
672	0	32091	32404	32799	32719	32582	32635	32763	32598	
673	0	32047	32605	32711	32751	32598	32742	32553	32700	
674	0	32271	32667	32659	32284	32851	32663	32499	32541	
675	0	32456	32465	32627	32807	32903	32698	32671	32695	
676	0	32786	32602	32711	32851	32986	32726	32553	32701	
677	0	32918	32647	32771	32519	32903	32719	32505	32839	
678	0	33052	32775	32903	32370	32913	32771	32383	32703	
679	0	33106	32719	32803	32075	32804	32797	32519	32855	
680	0	33398	32663	32855	32418	32773	32655	32789	32794	
681	0	33415	32900	32927	33069	32748	32903	32767	32811	
682	0	33411	32987	32999	33327	32567	32703	32781	32719	
683	0	33439	32679	32862	32969	32617	32773	32839	32567	
684	0	33227	32829	32363	32967	32698	32695	32738	32567	
685	0	33254	32621	32213	32749	32823	32748	32647	32719	
686	0	33415	32717	32191	32775	32749	32855	32751	32655	
687	0	33484	32453	32351	32811	32679	32735	32727	32575	
688	0	33407	32818	32183	33923	32655	32847	32869	32671	
689	0	33131	32767	31851	34263	32615	32881	33075	32547	
690	0	32764	32815	31814	34049	32731	32773	32794	32687	
691	0	32414	32709	31951	33076	32711	32751	32914	32635	
692	0	32270	32455	32279	32191	32711	32892	33191	32675	
693	0	31884	32327	32237	32037	32699	32919	33029	32647	
694	0	31435	32532	32605	32060	32783	32791	32839	32743	
695	0	31263	32525	33087	32045	32815	32797	32539	32512	
696	0	31221	32271	33621	31433	32773	32722	32472	32583	
697	0	31399	32293	34031	31593	32755	32615	32775	32602	
698	0	31535	32052	34111	32429	32775	32605	32948	32574	
699	0	31691	32043	34159	32567	32679	32655	33055	32619	
700	0	32129	32463	34203	32135	32631	32727	32749	32767	
701	0	32859	32495	34002	32485	32653	32673	32719	32659	
702	0	33498	32679	33707	32854	32599	32711	32598	32586	
703	0	34023	32869	33641	33267	32551	32711	32476	32679	
704	0	34420	32897	33338	32647	32551	32703	32411	32707	
705	0	34918	33595	32846	32887	32815	32610	32759	32679	
706	0	34723	33915	32555	33808	32911	32727	33017	32457	
707	0	34550	33495	32481	33157	32815	32687	33139	32639	
708	0	34283	33465	32514	32687	32847	32637	33022	32655	
709	0	33656	33303	32425	32411	32795	32671	32549	32773	
710	0	33526	33555	32295	33099	32579	32703	32123	32677	
711	0	33294	33705	32037	33806	32719	32783	32177	32499	
712	0	33155	33655	32071	34275	32600	32613	32324	32679	
713	0	32989	33077	32197	33964	32685	32757	32691	32655	
714	0	32617	32854	32071	32987	32729	32822	32943	32669	
715	0	31974	32791	31758	33477	32550	32687	32549	32695	
716	0	31587	32095	31147	33159	32623	32887	32547	32723	
717	0	31816	32363	31340	31429	32754	32869	32815	32611	
718	0	31830	32322	31597	30651	32873	32972	32949	32739	
719	0	32285	32450	31837	31723	32855	32931	32901	32598	
720	0	32278	32111	32015	31444	32823	32794	32549	32767	
721	0	31835	31827	32086	31849	32786	32978	32487	32773	
722	0	31397	31476	31671	32225	32765	32859	32430	32615	
723	0	31652	31679	31609	32667	32714	32903	32783	32775	
724	0	31684	31923	31954	32047	32427	32761	32839	32703	
725	0	31947	32329	32263	32196	32564	32927	32967	32775	
726	0	32167	32451	32685	31981	32805	32813	32895	32695	
727	0	32247	32831	33217	32157	32807	32803	32863	32662	
728	0	32378	32996	33839	32830	32819	32783	32647	32726	
729	0	32484	32849	34301	32814	32884	32679	32461	32775	
730	0	32541	32758	35052	32263	33019	32793	32495	32707	
731	0	32900	32383	35335	32327	32884	32647	32561	32710	
732	0	33622	32301	35207	32292	32759	32643	32769	32531	
733	0	34225	32445	34853	32287	32775	32577	32655	32694	
734	0	34276	32809	34770	32247	32759	32466	32890	32655	
735	0	34190	33023	34511	32135	32855	32615	32887	32534	
736	0	33828	33055	34167	32543	32841	32679	32887	32561	
737	0	33482	33098	33995	33055	32615	32788	32597	32523	
738	0	33071	33111	33639	33431	32683	32789	32643	32595	
739	0	32838	32884	32947	33286	32478	32758	32827	32532	
740	0	32346	32673	32357	33199	32589	32843	33007	32511	
741	0	32014	32372	32311	33147	32685	32871	32885	32683	
742	0	31974	32410	32229	33227	32941	32851	32535	32602	
743	0	32121	32250	32100	33125	32807	32627	32333	32495	
744	0	32063	32215	32223	33053	32631	32796	32497	32599	
745	0	31996	32263	32167	32942	32676	32751	32868	32592	
746	0	31867	32183	32239	33055	32731	32685	33135	32636	
747	0	31876	32331	32135	33127	32802	32677	32869	32705	
748	0	31842	32359	31971	33031	32639	32572	32895	32626	
749	0	31967	32655	31969	32923	32549	32775	32861	32870	
750	0	32174	32935	32031	33231	32551	32807	32683	32658	
751	0	32126	32962	31871	33159	32489	32773	32599	32795	
752	0	32371	33047	31903	33207	32528	32815	32660	32634	
753	0	32743	32935	31975	33099	32605	32788	32790	32748	
754	0	33082	33246	32129	33053	32775	32710	32775	32692	
755	0	33439	33146	32263	33555	32647	32903	32655	32583	
756	0	33661	33209	32420	33583	32610	32797	32622	32659	
757	0	33820	32903	32599	33023	32623	32861	32787	32647	
758	0	34107	32947	32647	32773	32495	32647	32874	32733	
759	0	34296	32795	32744	32645	32519	32642	32559	32631	
760	0	34415	32775	32755	32228	32485	32711	32127	32615	
761	0	34101	32718	32775	32399	32555	32590	32497	32629	
762	0	33841	32443	32826	32163	32727	32759	32763	32491	
763	0	33684	32487	32866	32245	32839	32588	32713	32613	
764	0	33639	32363	32838	32236	32835	32613	32903	32459	
765	0	33437	32479	32743	32195	32854	32621	33250	32570	
766	0	33006	32525	32767	32029	32909	32625	33495	32493	
767	0	32468	32303	32514	32359	32897	32679	33249	32745	
768	0	31956	32167	32335	32321	32879	32735	32455	32659	
769	0	31786	32455	32391	32370	32903	32787	32279	32860	
770	0	31644	32711	32422	32326	32914	32717	32237	32813	
771	0	31670	32742	32383	32439	32787	32647	32521	32667	
772	0	31897	32825	32295	32791	32829	32745	32538	32635	
773	0	31996	32591	32423	33261	32664	32669	32973	32555	
774	0	31969	32519	32565	33198	32679	32749	33215	32741	
775	0	32191	32583	32647	32699	32804	32811	33221	32674	
776	0	32425	32663	32789	32123	32759	32677	32656	32595	
777	0	32622	32919	32835	32452	32765	32726	32239	32726	
778	0	32663	32903	32839	33223	32685	32615	32587	32711	
779	0	32694	32959	32946	32927	32605	32592	32695	32799	
780	0	32596	32775	32903	32969	32679	32798	32817	32759	
781	0	32581	32820	32976	32455	32747	32731	32775	32634	
782	0	32700	32903	33031	32537	32834	32818	32683	32789	
783	0	32703	32775	33067	32775	32766	32668	32734	32711	
784	0	32814	32983	33119	32655	32874	32759	32604	32561	
785	0	32931	32979	33198	32925	32929	32759	32329	32707	
786	0	32880	32882	33302	32764	32599	32775	32172	32631	
787	0	32959	32629	33407	32327	32575	32669	32678	32735	
788	0	33327	32831	32869	32400	32687	32666	32855	32634	
789	0	33367	32839	32485	32929	32804	32876	33021	32561	
790	0	32994	32759	32132	33324	32733	32782	33206	32701	
791	0	32557	32599	32039	33791	32772	32807	32979	32630	
792	0	32153	32790	31739	33563	32698	32589	32635	32700	
793	0	31270	32655	31655	33167	32551	32759	32502	32615	
794	0	30450	32663	31811	32999	32471	32740	32683	32523	
795	0	30491	32843	32051	33839	32626	32684	32895	32775	
796	0	31068	32831	32223	34283	32825	32868	33055	32798	
797	0	31605	32685	32455	33367	32801	32701	32743	32647	
798	0	31772	32511	32775	32531	32773	32807	32642	32775	
799	0	32338	32437	33123	32095	32567	32765	32663	32662	
800	0	33713	32499	33595	31118	32804	32799	32633	32527	
801	0	35045	32357	33875	30643	32903	32719	32663	32775	
802	0	36045	32027	33967	30095	33123	32702	32712	32759	
803	0	36599	31732	34095	30381	33046	32794	32557	32783	
804	0	36588	31695	34198	30982	32924	32731	32705	32723	
805	0	36231	31761	34247	31495	32703	32803	32435	32638	
806	0	35508	32459	34068	31893	32687	32791	32331	32805	
807	0	35073	33127	33982	31995	32737	32567	32559	32695	
808	0	34255	33466	33741	32899	32711	32660	32817	32663	
809	0	33353	33380	33519	33511	32788	32837	32910	32687	
810	0	32231	33509	33150	33973	32691	32829	33099	32569	
811	0	31771	33331	32722	33677	32677	32805	33023	32727	
812	0	31630	33477	32287	34139	32479	32631	32647	32759	
813	0	31316	32838	32093	33919	32466	32788	32703	32833	
814	0	31071	32711	32255	33195	32630	32762	32619	32771	
815	0	31125	32581	32303	33461	32701	32647	32629	32842	
816	0	31205	32322	32103	33891	32742	32722	32757	32663	
817	0	31679	32119	32089	33647	32871	32731	32575	32656	
818	0	32293	32159	32271	33365	32964	32687	32593	32794	
819	0	32507	32214	32391	32844	32895	32767	32783	32703	
820	0	32653	32426	32583	32595	32691	32749	32903	32548	
821	0	32429	32723	32519	32723	32797	32742	32947	32692	
822	0	32129	33467	32564	32959	32955	32473	32948	32571	
823	0	32077	33623	32679	32519	32875	32626	32879	32761	
824	0	32284	33447	32683	32374	32745	32659	32854	32759	
825	0	32375	33147	32681	32331	32711	32717	33041	32615	
826	0	32380	32677	32663	32060	32495	32611	33143	32771	
827	0	32341	32167	32647	31741	32692	32879	33213	32813	
828	0	32326	31893	32364	31779	32917	32830	32935	32619	
829	0	32360	32295	32095	32045	32844	32855	32615	32669	
830	0	32433	32643	32133	31903	32931	32687	32659	32694	
831	0	32467	32767	32403	32154	32727	32870	32514	32647	
832	0	32615	32423	32229	32605	32743	32839	32403	32711	
833	0	32525	32495	32295	32679	32775	32901	32491	32613	
834	0	32492	32695	32423	32764	32871	32735	32663	32695	
835	0	32456	32701	32475	32797	32850	32758	32535	32665	
836	0	32299	32594	32364	32839	32739	32786	32455	32789	
837	0	32217	32686	32287	32831	32718	32790	32551	32732	
838	0	32340	32591	32387	32954	32775	32854	32543	32635	
839	0	32589	32647	32455	32851	32599	32769	32586	32647	
840	0	32981	32797	32669	32715	32615	32686	32572	32603	
841	0	33296	33031	32879	32391	32675	32743	32572	32677	
842	0	33539	32996	33071	32763	32727	32903	32579	32539	
843	0	33746	32806	33212	33209	32867	32871	32807	32738	
844	0	33826	32468	33539	33245	32883	32855	32859	32647	
845	0	33686	32620	33791	33191	32817	32913	32869	32655	
846	0	33204	32865	33893	32815	32793	32811	32981	32703	
847	0	33174	33023	33751	32839	32855	32715	32415	32631	
848	0	33248	32962	33497	33199	32679	32799	31843	32767	
849	0	33140	33059	33287	33279	32565	32751	32245	32702	
850	0	33159	32989	33003	33723	32612	32895	32599	32483	
851	0	33085	32759	32739	33927	32535	32607	32898	32481	
852	0	32636	32391	32469	34916	32443	32793	33191	32567	
853	0	32497	32509	32148	34340	32540	32681	33571	32635	
854	0	32286	32369	31807	33483	32683	32853	33405	32609	
855	0	32044	32412	31719	33159	32765	32898	33063	32615	
856	0	31944	32343	32015	32367	32831	32770	32341	32647	
857	0	32004	32275	32052	30965	32791	32677	32342	32509	
858	0	32209	32069	31559	30173	32615	32575	32543	32671	
859	0	32359	32459	31364	30975	32813	32735	32621	32563	
860	0	32566	32527	31579	31414	32854	32787	32659	32775	
861	0	32885	32551	31999	31561	32855	32787	32508	32666	
862	0	32826	32447	32431	31396	32971	32847	32436	32647	
863	0	32876	32415	32929	31751	32935	32807	32749	32690	
864	0	32775	32628	33530	32031	32949	32703	32751	32573	
865	0	32726	32540	33883	32079	32887	32730	32706	32775	
866	0	32865	32620	34123	32293	32893	32846	32535	32607	
867	0	32903	32705	34279	32495	32763	32818	32405	32727	
868	0	32686	32671	34318	32903	32727	32813	32466	32669	
869	0	32867	32847	34159	32989	32565	32835	32491	32487	
870	0	32869	32903	34081	33543	32732	32845	32508	32700	
871	0	33045	32638	33623	33599	32835	32919	32574	32758	
872	0	33350	32642	33108	32975	32805	32793	33063	32798	
873	0	33392	32923	32932	33379	32899	32827	33146	32703	
874	0	33428	33021	32887	34143	32711	32828	33400	32570	
875	0	33542	32925	32583	33671	32717	32615	33151	32708	
876	0	33351	33023	32375	32421	32811	32615	33101	32623	
877	0	33111	32827	32371	33505	32581	32689	33190	32637	
878	0	32809	32742	32427	33737	32535	32659	32876	32549	
879	0	32771	32783	32525	33350	32647	32647	32474	32614	
880	0	32659	32683	32713	32822	32676	32586	32829	32565	
881	0	32452	32791	32575	32375	32677	32518	32903	32622	
882	0	32343	32791	32465	31943	32847	32661	32703	32684	
883	0	32211	32679	32179	31837	32881	32804	32391	32767	
884	0	32262	32827	31894	33601	32827	32707	32511	32621	
885	0	32279	32439	31643	33361	32959	32813	32799	32807	
886	0	32411	32181	31781	32213	32901	32787	33247	32591	
887	0	32485	32557	31853	32135	32757	32767	32553	32615	
888	0	32391	32695	31945	32745	32887	32647	32343	32483	
889	0	32367	32581	31913	32527	32735	32710	32407	32605	
890	0	31943	32459	32229	32951	32493	32943	32460	32647	
891	0	31631	32183	32583	33238	32621	32971	32677	32745	
892	0	31487	32147	32899	33038	32823	32924	33143	32645	
893	0	31623	32351	33087	33101	32573	32859	33241	32731	
894	0	31857	32359	33268	33183	32594	32895	33119	32645	
895	0	31986	32135	33355	32847	32756	32738	32855	32615	
896	0	32762	32287	33145	33007	32659	32775	32735	32711	
897	0	33561	32871	33283	32985	32679	32661	32517	32692	
898	0	33439	33119	33269	32658	32723	32589	32471	32659	
899	0	33943	33101	33071	31039	32757	32795	32305	32658	
900	0	34278	33239	33275	30671	32638	32575	32214	32647	
901	0	33951	33750	33523	32860	32837	32743	32687	32805	
902	0	33590	33771	33445	32595	32726	32669	32931	32645	
903	0	33444	33889	33046	31913	32631	32574	32885	32620	
904	0	33415	33407	32975	31589	32775	32807	32775	32511	
905	0	33287	33327	32945	32007	32877	32663	32890	32438	
906	0	33637	33014	33021	32485	32917	32647	32723	32667	
907	0	34217	32967	33079	32671	32839	32787	32775	32655	
908	0	34646	33015	33311	33267	32669	32819	32887	32688	
909	0	34423	33159	33159	33627	32698	32735	32836	32703	
910	0	33927	33030	33047	33146	32794	32869	32687	32644	
911	0	33867	32647	32932	32452	32843	32803	32804	32761	
912	0	33616	32013	32935	31823	32806	32834	32858	32813	
913	0	33078	31895	32847	31615	32783	32903	32590	32759	
914	0	32756	31595	32549	32135	32759	32675	32500	32718	
915	0	32428	31713	32470	32623	32763	32663	32655	32564	
916	0	32455	31969	32479	31925	32795	32773	32877	32709	
917	0	32074	32798	32701	33327	32743	32638	33474	32700	
918	0	31452	33523	32444	34771	32583	32802	33247	32431	
919	0	31026	33299	32343	34695	32810	32695	32807	32637	
920	0	30847	32967	32286	34364	32823	32811	32903	32731	
921	0	30972	33103	32255	34373	32663	32834	32611	32655	
922	0	30988	32541	32043	33106	32713	32807	31989	32775	
923	0	30793	31938	32069	31660	32681	32685	31975	32625	
924	0	30710	31493	31941	32113	32557	32557	32383	32755	
925	0	30970	31329	31729	31599	32775	32678	32852	32719	
926	0	31409	31463	32029	31367	33023	32647	32951	32731	
927	0	31623	31355	32177	31541	32887	32719	32901	32807	
928	0	31772	31503	32223	31643	32844	32669	32895	32695	
929	0	32002	31839	32215	32101	32830	32789	33013	32577	
930	0	32617	32255	32411	32614	32583	32780	32997	32717	
931	0	33458	33111	32547	32775	32586	32844	33030	32661	
932	0	34284	33654	33207	32698	32717	32843	32983	32615	
933	0	34726	33991	33647	32955	32725	32707	33043	32668	
934	0	34613	34077	33899	33303	32775	32871	32695	32748	
935	0	34431	33786	33975	32988	32815	32689	32495	32692	
936	0	34237	33297	33833	32927	32999	32765	32429	32783	
937	0	33509	33012	33645	33047	32918	32767	32163	32697	
938	0	33260	32924	33477	32902	32866	32749	32123	32700	
939	0	33529	32832	33487	32806	32843	32775	32391	32675	
940	0	32991	32775	33375	33242	32707	32854	32483	32479	
941	0	32468	32623	33150	33074	32763	32834	32551	32662	
942	0	32097	32759	33079	33899	32700	32788	32791	32615	
943	0	32312	32813	33117	33515	32727	32759	32743	32628	
944	0	32382	32756	33094	33019	32511	32835	32938	32599	
945	0	32192	32549	32879	32854	32703	32867	32961	32516	
946	0	32704	32839	32743	32563	32989	32919	33063	32710	
947	0	32734	32615	32691	32541	32973	32699	32807	32673	
948	0	32521	32367	32413	32215	32765	32831	32372	32537	
949	0	32864	32367	32247	32135	32679	32709	32338	32694	
950	0	33427	32543	32107	32314	32751	32759	32679	32685	
951	0	33431	32447	32031	32239	32527	32767	33135	32619	
952	0	33359	32343	32039	31887	32590	32669	33167	32691	
953	0	33680	32527	32111	31821	32747	32724	32917	32519	
954	0	33782	32951	32199	32330	32895	32663	32817	32662	
955	0	33670	33159	32143	32671	32832	32811	32827	32723	
956	0	33042	32950	32262	32775	32794	32743	32797	32719	
957	0	32599	32887	32332	32955	32738	32647	32431	32687	
958	0	32448	32799	32527	32853	32637	32725	32479	32549	
959	0	32322	32756	32639	32844	32507	32685	32727	32687	
960	0	32248	32370	32683	32953	32553	32735	32687	32629	
961	0	32155	32431	32786	32959	32623	32860	32647	32786	
962	0	32018	32453	32921	33027	32668	32807	32642	32807	
963	0	32073	32487	32959	33132	32850	32643	32543	32667	
964	0	32168	32453	32899	32867	32844	32769	32374	32681	
965	0	32205	32548	32852	32735	32829	32887	32481	32671	
966	0	32239	32635	32911	32903	32723	32714	32481	32823	
967	0	32347	32755	32973	32993	32714	32799	32513	32695	
968	0	32310	32551	32817	33407	32735	32887	32805	32643	
969	0	32462	32543	32795	32983	32727	32742	32875	32879	
970	0	32494	32703	32854	33030	32607	32745	33067	32700	
971	0	32231	32981	32841	32479	32647	32719	32723	32711	
972	0	32238	33047	32671	33213	32679	32786	32791	32659	
973	0	32007	32500	32693	33103	32647	32769	32415	32635	
974	0	32113	32566	32695	32850	32763	32827	32467	32723	
975	0	32523	32508	32751	32924	32721	32756	33007	32719	
976	0	32863	32379	32802	32501	32749	32839	32609	32903	
977	0	33206	32539	32887	32389	32703	32775	32178	32809	
978	0	33364	32407	32807	32075	32692	32775	32371	32450	
979	0	33457	32229	32683	32671	32860	32615	32551	32509	
980	0	33546	32493	32627	33507	32847	32783	32890	32559	
981	0	33535	32613	32507	33703	32814	32741	33103	32425	
982	0	33381	32731	32578	32943	32695	32839	33275	32715	
983	0	33266	33279	32637	32671	32479	32687	33037	32563	
984	0	32818	33543	32485	32699	32585	32723	32754	32613	
985	0	32442	33379	32228	32428	32815	32726	32551	32524	
986	0	32391	33303	32039	31647	32832	32663	32625	32717	
987	0	32454	32959	32063	31397	32927	32699	32935	32700	
988	0	32770	32409	32131	31651	32775	32695	33021	32543	
989	0	32917	32183	32187	31510	32847	32583	32886	32733	
990	0	32973	32135	32274	31781	33013	32775	32911	32823	
991	0	33158	32367	32519	32003	32831	32703	32647	32639	
992	0	33311	32462	32766	32159	32707	32807	32307	32697	
993	0	33234	32844	33023	32751	32668	32647	32336	32647	
994	0	33167	32971	33142	32919	32629	32871	32573	32843	
995	0	32909	32610	33531	32879	32786	32867	32719	32663	
996	0	32818	32635	33638	33021	32861	32702	32743	32694	
997	0	32985	32578	33869	33219	32815	32886	32567	32588	
998	0	33119	32486	33973	33298	32838	32788	32711	32677	
999	0	33136	32423	33987	33255	32755	32781	32703	32553	
1000	0	32872	32447	34119	33383	32695	32795	32611	32775	
1001	0	32796	32549	33987	33471	32583	32679	32720	32583	
1002	0	32789	32351	33775	33259	32704	32802	32926	32570	
1003	0	32698	32594	33471	32935	32903	32766	32921	32775	
1004	0	32549	32687	33170	33387	32820	32773	33022	32748	
1005	0	32608	32846	32989	33939	32605	32665	32797	32518	
1006	0	32546	32743	32783	34915	32587	32902	32834	32717	
1007	0	32450	32763	32629	34106	32591	32753	33159	32676	
1008	0	32809	32977	32334	33455	32587	32722	33129	32685	
1009	0	32709	33065	32319	33367	32549	32815	32582	32706	
1010	0	31783	32835	32191	33519	32673	32647	32391	32535	
1011	0	31418	33323	31779	33306	32903	32830	32558	32700	
1012	0	31005	33349	31823	32460	33065	32765	32445	32570	
1013	0	30812	32985	31751	31631	32871	32690	32741	32679	
1014	0	31052	32887	31361	32165	32804	32760	32735	32603	
1015	0	31628	32863	31367	32591	32975	32802	32663	32727	
1016	0	32534	32554	31482	31418	32903	32781	32647	32694	
1017	0	33267	32549	31677	29748	32711	32643	32479	32683	
1018	0	34329	32527	31905	29875	32697	32669	32631	32668	
1019	0	35000	32420	32175	30463	32801	32755	32850	32772	
1020	0	35621	32150	32805	29938	32886	32863	32742	32742	
1021	0	35922	32068	33452	30774	32937	32809	32751	32823	
1022	0	35629	31572	33637	30599	32683	32843	32691	32597	
1023	0	34977	31903	33781	31355	32813	32726	32447	32588	
1024	0	34301	32050	33811	32220	32858	32762	32533	32775	
1025	0	33545	32431	33957	32999	32767	32823	32577	32699	
1026	0	32671	32524	33787	32883	32721	32811	32769	32599	
1027	0	32218	32530	33669	33185	32691	32751	33036	32685	
1028	0	32189	32437	33223	33275	32703	32775	33011	32573	
1029	0	31648	32719	32871	33437	32563	32647	32951	32673	
1030	0	31174	32775	32491	33833	32597	32758	32813	32679	
1031	0	31122	33089	32455	34093	32814	32797	32679	32565	
1032	0	31327	32951	32455	33910	32893	32783	32595	32604	
1033	0	31526	32615	32491	33759	32767	32677	32669	32674	
1034	0	31816	32775	32677	33550	32647	32758	32706	32663	
1035	0	32132	32787	32735	33479	32663	32756	32631	32609	
1036	0	32322	32701	32823	33407	32623	32831	32675	32519	
1037	0	32583	32759	32853	33137	32617	32683	32677	32731	
1038	0	32658	32959	32823	33607	32603	32796	32997	32692	
1039	0	32457	33246	32843	33055	32567	32753	33065	32723	
1040	0	32134	33287	32823	33607	32636	32695	32887	32647	
1041	0	31777	33071	32799	33223	32611	32743	32689	32743	
1042	0	31703	32903	32713	33287	32735	32693	32659	32765	
1043	0	31617	32743	32815	33159	32661	32639	32419	32711	
1044	0	31838	32327	32850	32404	32898	32755	32331	32679	
1045	0	32257	32039	32892	32739	32962	32894	32882	32766	
1046	0	32727	32215	32925	33350	32965	32851	32948	32677	
1047	0	32879	32337	32879	33799	32855	32871	32862	32699	
1048	0	33483	32711	32868	32391	32868	32839	32499	32666	
1049	0	34168	32889	32647	32575	32655	32677	32567	32643	
1050	0	34461	33231	32565	33777	32452	32819	32818	32565	
1051	0	33999	33641	32359	35415	32319	32679	32967	32621	
1052	0	33551	33615	32285	35743	32295	32738	32751	32555	
1053	0	33578	33701	32141	34471	32499	32775	32201	32637	
1054	0	33458	33295	32054	32663	32718	32799	32839	32578	
1055	0	33444	33766	31999	32765	32963	32611	32663	32663	
1056	0	33532	33149	31698	32066	32903	32679	32743	32554	
1057	0	33142	32147	31717	30248	32740	32788	32773	32610	
1058	0	32888	31679	31847	28311	32557	32767	32911	32543	
1059	0	32336	31803	31682	27683	32794	32903	32945	32709	
1060	0	31813	32180	32047	28900	32940	32828	32587	32726	
1061	0	31559	32039	32186	29711	32795	32735	32555	32741	
1062	0	31204	31695	32467	30181	32861	32707	32639	32605	
1063	0	30975	31614	32823	31457	32941	32679	32801	32645	
1064	0	31166	31616	33093	32309	32853	32519	33135	32526	
1065	0	31675	32092	33476	33055	32915	32631	33159	32447	
1066	0	32356	32287	33873	33367	32789	32573	33021	32483	
1067	0	33014	32698	34174	33717	32687	32485	32547	32391	
1068	0	33584	32717	34319	33619	32732	32679	32476	32514	
1069	0	34199	33099	34231	33589	32724	32603	32569	32429	
1070	0	34552	33167	34047	33750	32775	32671	32700	32528	
1071	0	34286	33074	33851	33734	32813	32735	32681	32571	
1072	0	34306	33204	33747	33039	32866	32690	32284	32623	
1073	0	34136	33181	33807	33763	32561	32567	32223	32527	
1074	0	33888	33329	33635	35679	32471	32679	32951	32426	
1075	0	33590	33437	33459	36013	32555	32573	33213	32331	
1076	0	33076	33473	33431	36247	32621	32775	33380	32257	
1077	0	32879	33514	33333	37305	32455	32708	32699	32511	
1078	0	32639	33138	32895	38301	32338	32701	32762	32474	
1079	0	32484	33182	32339	35462	32711	32733	32683	32644	
1080	0	32308	33179	31789	33106	32922	32775	32546	32605	
1081	0	32192	32799	31559	31266	33062	32765	32163	32748	
1082	0	32096	32199	31190	28727	33150	32787	32082	32545	
1083	0	31899	31472	30855	27807	32893	32668	32199	32717	
1084	0	31308	31323	31131	27519	33020	32814	32355	32782	
1085	0	30768	31183	31552	27002	33152	32942	32548	32833	
1086	0	30727	30711	32078	27031	32909	32971	32798	32955	
1087	0	31295	30773	32711	28155	32865	32959	32717	32868	
1088	0	32018	31375	33076	30665	32590	32814	32334	32935	
1089	0	32444	32143	33647	32183	32581	32775	32285	32885	
1090	0	32756	32787	33988	32970	32591	32903	32378	32706	
1091	0	33366	33254	34071	33847	32727	32791	32564	32741	
1092	0	33820	33404	34113	34434	32711	32782	32499	32690	
1093	0	34273	33644	33799	34535	32847	32756	32439	32847	
1094	0	34324	33575	33261	34390	32999	32913	32548	32815	
1095	0	33567	33407	32614	34027	32647	32959	32903	32855	
1096	0	32791	33023	32067	34157	32655	33061	32839	33095	
1097	0	32254	32443	31759	33959	32630	32899	32745	33103	
1098	0	31644	32563	31651	33938	32961	32987	32914	33101	
1099	0	31708	32871	31663	33754	32871	33199	32956	33397	
1100	0	31666	33109	31617	34073	32866	33166	33006	33375	
1101	0	31554	32862	31873	34199	32957	33299	32683	33629	
1102	0	31850	32885	32169	33860	32753	32982	32429	33378	
1103	0	32839	32815	32250	33903	32739	33082	32545	33159	
1104	0	33711	33025	32686	33277	32823	32932	32687	33099	
1105	0	33990	32960	32805	33142	32699	32918	32711	32831	
1106	0	34526	32617	32987	32927	32666	32769	32690	32751	
1107	0	35036	32483	32997	32870	32519	32873	32751	32542	
1108	0	34742	32877	32995	32931	32691	32700	33065	32503	
1109	0	34351	32938	33027	32917	32711	32683	33177	32359	
1110	0	33822	32759	32967	32679	32797	32690	32847	32556	
1111	0	33063	32335	32890	32726	32735	32799	32739	32511	
1112	0	32431	32323	33023	32635	32743	32731	32295	32559	
1113	0	31984	32359	33100	32549	32754	32623	32197	32417	
1114	0	31633	32287	33095	32655	32631	32655	32387	32281	
1115	0	31405	32031	33023	32382	32829	32452	32359	32405	
1116	0	31064	31814	32997	32239	32759	32660	32738	32350	
1117	0	31018	31974	32903	32253	32710	32623	32683	32306	
1118	0	31145	32099	32825	32196	32716	32631	32921	32493	
1119	0	31460	32575	32819	32047	32491	32359	33315	32299	
1120	0	31845	32861	32799	32195	32589	32577	33345	32477	
1121	0	31983	33267	32675	32565	32761	32604	32709	32479	
1122	0	32556	33113	32590	32732	32735	32529	32854	32425	
1123	0	33114	33303	32563	32647	32634	32611	32963	32337	
1124	0	33766	33569	32525	32389	32775	32511	32871	32303	
1125	0	33853	33718	32527	33078	32591	32659	33039	32491	
1126	0	33330	33581	32204	33010	32637	32626	32871	32583	
1127	0	32686	33412	32074	32399	32890	32724	32362	32410	
1128	0	32400	33119	32175	32750	32859	32625	32535	32563	
1129	0	32257	32732	32469	32695	32655	32615	32791	32439	
1130	0	32262	32965	32695	32981	32567	32749	32877	32583	
1131	0	32269	32915	32865	32735	32407	32703	32708	32498	
1132	0	32493	32679	33151	32714	32530	32722	32743	32391	
1133	0	32754	32609	33239	32565	32713	32623	32927	32597	
1134	0	33900	32553	33287	32569	32868	32767	32943	32587	
1135	0	35199	32571	33275	32609	32795	32815	32882	32627	
1136	0	35567	32613	33215	32455	32749	32669	32767	32687	
1137	0	35948	32631	33254	32591	32559	32714	32671	32623	
1138	0	35370	32663	33145	32675	32647	32635	32679	32548	
1139	0	34503	32599	32979	32720	32671	32721	32647	32661	
1140	0	33399	32574	32791	32694	32713	32766	32612	32553	
1141	0	32827	32757	32876	32647	32743	32559	32525	32647	
1142	0	32304	32647	32930	32679	32775	32807	32663	32645	
1143	0	31874	32321	32875	32623	32774	32754	32693	32494	
1144	0	31557	32445	32759	32617	32903	32809	32692	32701	
1145	0	31284	32334	32647	32633	33001	32725	32583	32775	
1146	0	31344	32455	32676	32739	32727	32871	32511	32913	
1147	0	31668	32211	32555	32730	32741	32791	32629	32783	
1148	0	32529	32543	32581	32835	32871	32861	32687	32586	
1149	0	32666	32655	32579	32739	32765	32695	32633	32735	
1150	0	32365	32543	32461	32640	32786	32839	32738	32765	
1151	0	32118	32631	32525	32687	32719	32835	32671	32835	
1152	0	32111	32727	32591	32647	32738	32804	32583	32731	
1153	0	32228	32695	32662	32863	32707	32877	32674	32567	
1154	0	32383	32613	32703	32775	32702	32719	32662	32733	
1155	0	32515	32775	32679	32621	32617	32851	32631	32707	
1156	0	32454	32735	32661	32783	32755	32811	32583	32685	
1157	0	32532	32687	32806	32481	32851	32833	32647	32671	
1158	0	32626	32761	32847	32668	32861	32663	32647	32589	
1159	0	32631	32692	32807	32859	32717	32774	32833	32727	
1160	0	32726	32834	32735	32775	32603	32749	32668	32690	
1161	0	32781	32783	32743	33454	32671	32659	32495	32743	
1162	0	32734	32718	32827	32743	32919	32759	32366	32604	
1163	0	32796	32615	32816	32631	32866	32813	32487	32713	
1164	0	32791	32641	32873	32711	32748	32839	32508	32729	
1165	0	32764	32711	32551	32775	32789	32698	32647	32663	
1166	0	32697	32671	32227	32647	32835	32799	32875	32827	
1167	0	32548	32755	32131	32847	32686	32871	32859	32839	
1168	0	32118	32745	32325	33104	32681	32700	32935	32831	
1169	0	32180	32626	32573	33499	32807	32887	32997	32687	
1170	0	32308	32595	32771	34083	32643	32741	32916	32571	
1171	0	32614	32540	32924	32972	32691	32807	32967	32658	
1172	0	32815	32703	33220	32989	32662	32661	32783	32623	
1173	0	32855	32590	33322	32465	32587	32791	32813	32637	
1174	0	33159	32503	33401	31766	32927	32812	32647	32679	
1175	0	33468	32647	33468	31958	32871	32687	32335	32797	
1176	0	33687	32845	33303	32151	32963	32761	32255	32773	
1177	0	33760	32676	33149	33035	32775	32690	32869	32547	
1178	0	33377	32751	32903	33363	32743	32791	33301	32750	
1179	0	32946	32703	32749	32889	32847	32639	32793	32571	
1180	0	32805	32643	32627	32589	32594	32783	32089	32454	
1181	0	32835	32665	32540	31765	32687	32791	32578	32677	
1182	0	32820	32677	32263	31930	32495	32558	32627	32654	
1183	0	32690	32519	32197	31821	32597	32692	32783	32632	
1184	0	32747	32607	32271	32059	32663	32831	33171	32748	
1185	0	33007	32537	32215	32163	32692	32797	33199	32581	
1186	0	33119	32671	32423	32400	32775	32784	33020	32723	
1187	0	33068	32427	32623	32551	32770	32645	32855	32685	
1188	0	32870	32411	32685	32389	32835	32851	32735	32841	
1189	0	32719	32533	32709	32471	32863	32762	32461	32653	
1190	0	32634	32512	32935	32509	32747	32818	32541	32729	
1191	0	32540	32525	33027	32871	32943	32734	32455	32551	
1192	0	32426	32645	33047	32671	32871	32745	32527	32723	
1193	0	32454	32598	32967	32551	32729	32775	32685	32679	
1194	0	32492	32465	32974	32799	32676	32735	32719	32463	
1195	0	32543	32601	33011	32918	32775	32599	32901	32615	
1196	0	32492	32621	32967	33053	32621	32804	32995	32638	
1197	0	32477	32559	32788	33567	32578	32741	32951	32807	
1198	0	32608	32547	32795	33607	32621	32865	32924	32759	
1199	0	32703	32687	32711	33524	32569	32695	32822	32579	
1200	0	32558	32887	32830	33943	32703	32868	32797	32759	
1201	0	32655	32759	32957	34212	32766	32707	32826	32743	
1202	0	32729	32903	32999	33788	32761	32763	32844	32564	
1203	0	32548	32862	32941	32655	32519	32615	33155	32715	
1204	0	32272	32899	32941	32655	32571	32783	32737	32671	
1205	0	32063	32971	32811	32623	32640	32838	32638	32658	
1206	0	32079	33172	32775	32071	32715	32775	32583	32625	
1207	0	31841	33259	32775	31591	32764	32679	32453	32607	
1208	0	31934	32857	32759	31463	32721	32858	32503	32659	
1209	0	32233	32868	32635	31471	32736	32756	32675	32597	
1210	0	32159	32826	32643	32503	32483	32892	32835	32711	
1211	0	32198	32851	32743	32719	32553	32767	32820	32739	
1212	0	32690	32775	32647	32967	32796	32711	32831	32727	
1213	0	33378	32914	32583	32823	32826	32889	32835	32757	
1214	0	33765	32749	32647	32355	32818	32802	32647	32671	
1215	0	33950	32597	32491	32935	32740	32707	32786	32619	
1216	0	34630	32821	32422	32806	32613	32844	32690	32735	
1217	0	35199	32573	32378	32951	32557	32903	32717	32579	
1218	0	35111	32423	32409	32852	32622	32834	32695	32607	
1219	0	35052	32367	32327	33319	32679	32663	32695	32550	
1220	0	34644	32471	32537	33135	32799	32843	32631	32683	
1221	0	33893	32671	32743	33991	32695	32705	32537	32727	
1222	0	32802	32543	32743	33959	32662	32813	32454	32677	
1223	0	31789	32609	32948	33695	32541	32721	32341	32692	
1224	0	31077	32263	32938	34557	32637	32834	32449	32669	
1225	0	31001	32191	32993	33091	32759	32837	32439	32724	
1226	0	31153	32233	32919	33015	32711	32658	32535	32583	
1227	0	31384	32385	32971	32215	32805	32839	32391	32541	
1228	0	31226	32407	32783	31510	32934	32757	32477	32743	
1229	0	30763	32135	32764	31143	32895	32703	32479	32687	
1230	0	30733	32174	32534	30909	32967	32787	32477	32707	
1231	0	31252	32123	32327	30499	33055	32713	32669	32863	
1232	0	31783	32071	32276	31408	32876	32775	32735	32700	
1233	0	32090	31933	32495	31559	32819	32705	32709	32583	
1234	0	32788	32579	32615	31853	32790	32823	32761	32758	
1235	0	33700	33007	32743	32259	32519	32716	32902	32631	
1236	0	34445	33514	33063	32931	32639	32767	32764	32743	
1237	0	34501	34023	33387	33187	32720	32836	32653	32586	
1238	0	34428	34567	33411	33366	32695	32692	32607	32597	
1239	0	34541	35222	33319	33567	32655	32770	32615	32455	
1240	0	34763	35141	33234	33527	32679	32695	32698	32626	
1241	0	34501	34599	33196	32775	32950	32742	32667	32580	
1242	0	33655	33623	32978	33447	32935	32681	32583	32577	
1243	0	33491	32871	32739	33125	32999	32810	32638	32685	
1244	0	33390	31894	32578	32525	32762	32675	32731	32615	
1245	0	33439	31315	32621	32100	32463	32719	32775	32465	
1246	0	33449	31263	32555	32412	32500	32573	33206	32623	
1247	0	32574	31162	32539	32850	32628	32805	33010	32665	
1248	0	31603	31100	32629	32898	32837	32759	32759	32691	
1249	0	30962	31047	32655	32929	32879	32722	32737	32742	
1250	0	30975	31239	32727	32685	32866	32845	32831	32659	
1251	0	31231	31483	32791	32769	32743	32723	32775	32647	
1252	0	31504	31703	32795	32943	32623	32718	32953	32667	
1253	0	31767	31991	32789	32813	32803	32831	32775	32762	
1254	0	32143	32455	32711	32998	32828	32919	32373	32743	
1255	0	32237	32647	32727	32729	32829	32775	32493	32635	
1256	0	32158	32810	32737	32685	32923	32929	32683	32724	
1257	0	32297	32721	32692	32854	32751	32827	32725	32679	
1258	0	32439	32900	32655	33159	32748	32875	32765	32838	
1259	0	32502	32980	32615	32625	32661	32769	32677	32721	
1260	0	32596	33019	32713	32711	32967	32727	32439	32695	
1261	0	32687	32963	32699	32679	32938	32731	32477	32647	
1262	0	32689	32833	32695	32951	32725	32690	32551	32783	
1263	0	32812	33012	32709	32975	32928	32732	32559	32784	
1264	0	32735	32959	32647	32830	32803	32687	32559	32766	
1265	0	32695	32595	32588	33689	32730	32621	32663	32614	
1266	0	32799	32887	32575	33014	32487	32646	32956	32686	
1267	0	32775	32837	32513	32541	32719	32823	33319	32754	
1268	0	32846	32827	32673	32425	32898	32677	32903	32661	
1269	0	32935	32915	32877	33229	32726	32821	32115	32615	
1270	0	32978	33188	32911	32836	32893	32769	32174	32679	
1271	0	33129	33269	32903	32703	32647	32838	32311	32775	
1272	0	33283	33079	32786	32660	32663	32739	32566	32706	
1273	0	33267	33079	32858	32469	32647	32674	32735	32731	
1274	0	33083	33263	32911	32663	32727	32821	32837	32591	
1275	0	32980	33151	32825	32647	32807	32635	32791	32455	
1276	0	32988	33123	32789	32718	32733	32713	32775	32555	
1277	0	32896	32967	32742	32615	32715	32673	32675	32635	
1278	0	32874	32605	32764	32783	32735	32659	32563	32701	
1279	0	32779	32590	32796	32661	32729	32717	32613	32621	
1280	0	32623	32623	32687	32695	32527	32711	32693	32550	
1281	0	32669	32599	32633	32398	32797	32773	32583	32669	
1282	0	32669	32507	32644	32683	32791	32719	32731	32743	
1283	0	32735	32735	32663	33279	32741	32775	32815	32647	
1284	0	32690	32675	32691	33559	32556	32781	32747	32763	
1285	0	32726	32758	32735	34505	32547	32839	32915	32686	
1286	0	32780	32747	32695	33957	32775	32663	32982	32787	
1287	0	32815	33001	32737	32941	32894	32736	32559	32583	
1288	0	32857	33055	32798	33391	32763	32815	32679	32436	
1289	0	32744	33135	32847	33526	32708	32850	32891	32683	
1290	0	32865	32901	32819	33151	32732	32836	32811	32689	
1291	0	32889	32919	32661	32135	32583	32765	32853	32702	
1292	0	32892	32667	32751	31703	32871	32770	32551	32668	
1293	0	32773	32263	32819	30971	33091	32817	32599	32647	
1294	0	32591	32015	32796	30283	32933	32711	32614	32823	
1295	0	32527	31989	32791	29823	32875	32711	32503	32715	
1296	0	32495	31831	32839	30317	32864	32902	32615	32742	
1297	0	32446	31965	32898	30946	32694	32647	32659	32615	
1298	0	32421	31927	32977	31331	32721	32711	32849	32667	
1299	0	32466	32111	32855	31814	32749	32895	32863	32540	
1300	0	32541	32418	32863	32699	32863	32815	32759	32711	
1301	0	32734	32883	32901	33334	32775	32775	32839	32679	
1302	0	32941	33169	32804	33411	32807	32845	32767	32619	
1303	0	32983	33015	32708	33453	32795	32827	32522	32644	
1304	0	33173	32820	32711	33567	32527	32797	32598	32519	
1305	0	33271	33007	32818	33438	32511	32796	32967	32605	
1306	0	33448	32917	32775	33367	32654	32734	32867	32679	
1307	0	33418	33101	32861	33459	32921	32839	32791	32815	
1308	0	33204	32683	32895	33671	32843	32671	32773	32571	
1309	0	32992	32629	32841	33561	32685	32773	32807	32535	
1310	0	32895	32531	32805	33351	32625	32631	32668	32677	
1311	0	32797	32362	32833	33372	32500	32723	32413	32658	
1312	0	32844	32511	32747	33191	32540	32795	32702	32686	
1313	0	32725	32439	32690	33270	32614	32735	32943	32631	
1314	0	32621	32507	32735	33399	32863	32663	32903	32415	
1315	0	32617	32375	32805	33003	32877	32925	33129	32754	
1316	0	32372	32451	32729	32877	32715	32927	33095	32774	
1317	0	32291	32391	32667	33983	32769	32891	32960	32765	
1318	0	32170	32423	32628	33691	32708	32855	32626	32758	
1319	0	31718	32388	32586	34667	32631	32756	32487	32589	
1320	0	31302	32202	32571	33529	32519	32891	32347	32661	
1321	0	31003	31716	32574	33467	32769	32780	32719	32716	
1322	0	31071	31239	32695	32271	32864	32711	32750	32555	
1323	0	31489	31739	32775	30865	33011	32838	32519	32739	
1324	0	31924	32371	32713	30247	33011	32765	32480	32723	
1325	0	32604	32773	32698	30093	32775	32898	32519	32863	
1326	0	33472	33561	32627	29687	32919	32659	32578	32732	
1327	0	34455	34407	32599	30516	32903	32803	32659	32620	
1328	0	35540	34635	32762	31182	32845	32815	32671	32617	
1329	0	35892	35034	32731	31726	32866	32640	32725	32564	
1330	0	35567	35106	32549	32400	32871	32742	32687	32674	
1331	0	35330	34786	32591	33116	32812	32619	32691	32537	
1332	0	34572	34437	32673	33447	32796	32730	32635	32687	
1333	0	33523	34099	32743	33531	32826	32640	32655	32586	
1334	0	32926	33139	32849	33639	32775	32607	32702	32699	
1335	0	32358	32369	32822	33636	32562	32519	32711	32694	
1336	0	31934	31579	32775	33566	32598	32641	32663	32663	
1337	0	31602	31355	32773	33463	32806	32599	32715	32743	
1338	0	31493	31303	32707	33415	32765	32670	32625	32669	
1339	0	31348	31471	32820	33287	32742	32583	32775	32569	
1340	0	31430	31575	32805	33047	32762	32887	32815	32705	
1341	0	31601	31474	32870	32943	32607	32903	32759	32617	
1342	0	31879	31581	32813	32663	32582	32879	32775	32731	
1343	0	32130	31871	32718	33212	32671	32789	32775	32667	
1344	0	32181	32039	32823	32964	32789	32811	32643	32581	
1345	0	32303	31999	32848	33142	32701	32855	32803	32743	
1346	0	32454	32437	32835	32273	32717	32891	32783	32658	
1347	0	32709	32739	32943	32527	32700	32895	32581	32798	
1348	0	32751	33047	32765	34359	32731	32742	32493	32723	
1349	0	32825	33029	32797	33607	32559	32861	32578	32639	
1350	0	32903	33318	32764	33103	32633	32751	32642	32639	
1351	0	32919	33333	32804	33247	32855	32512	32791	32571	
1352	0	32898	32995	32769	32831	32933	32663	32783	32710	
1353	0	32863	33188	32757	32327	32747	32662	32511	32707	
1354	0	32804	32709	32807	31724	32795	32598	32685	32510	
1355	0	32799	32591	32725	31541	32575	32775	32717	32727	
1356	0	32796	32903	32718	31611	32695	32682	32605	32605	
1357	0	32807	32692	32681	31327	32751	32609	32644	32485	
1358	0	32813	32147	32647	31531	32975	32719	32698	32701	
1359	0	32853	32247	32671	31963	32892	32733	32679	32775	
1360	0	32838	32385	32767	32658	32761	32841	32879	32708	
1361	0	32876	32591	32748	32983	32749	32733	32859	32775	
1362	0	32829	32389	32763	33093	32705	32847	32978	32715	
1363	0	32775	32551	32738	33211	32471	32742	32877	32735	
1364	0	32808	32589	32647	33127	32493	32806	32673	32647	
1365	0	32852	32647	32703	33131	32799	32694	32797	32571	
1366	0	32832	32903	32757	33158	32866	32863	32679	32743	
1367	0	32742	32719	32675	33159	32765	32807	32745	32711	
1368	0	32701	32325	32687	33055	32734	32695	32755	32563	
1369	0	32671	32197	32743	33019	32548	32878	32713	32741	
1370	0	32716	32191	32749	33025	32658	32903	32855	32655	
1371	0	32706	32271	32740	32852	32843	32698	32181	32550	
1372	0	32712	32449	32701	32902	32805	32958	31831	32643	
1373	0	32818	32510	32791	32813	32775	32877	32325	32583	
1374	0	32929	33039	32775	32714	32683	32742	33369	32623	
1375	0	33033	33107	32844	32703	32663	32847	33550	32774	
1376	0	33109	33133	32831	32609	32487	32739	33117	32855	
1377	0	33246	33151	32860	32327	32655	32803	32795	32803	
1378	0	33276	33311	32822	32543	32885	32647	32439	32767	
1379	0	33057	33251	32751	32692	32986	32743	32517	32823	
1380	0	32937	32739	32759	32503	32875	32847	32519	32762	
1381	0	32848	32497	32799	32559	32647	32719	32527	32639	
1382	0	32723	32621	32723	32663	32629	32775	32813	32622	
1383	0	32652	32727	32715	32607	32655	32757	32931	32631	
1384	0	32626	32821	32633	32787	32823	32573	32834	32593	
1385	0	32685	32758	32719	32955	32809	32765	32715	32647	
1386	0	32751	32733	32719	32751	32615	32706	32787	32671	
1387	0	32903	32841	32703	32803	32827	32590	32976	32674	
1388	0	32841	32831	32690	32698	32695	32513	32844	32673	
1389	0	32726	32685	32607	32644	32635	32770	32953	32643	
1390	0	32669	32775	32661	32635	32828	32767	32743	32555	
1391	0	32724	32549	32763	32804	32789	32655	32755	32635	
1392	0	32679	32467	32743	32751	32731	32825	32669	32630	
1393	0	32636	32342	32762	32918	32503	32821	32615	32591	
1394	0	32633	32508	32741	33767	32474	32870	32763	32811	
1395	0	32747	32500	32735	33857	32540	32717	32711	32622	
1396	0	32788	32596	32743	33626	32762	32903	32610	32659	
1397	0	32804	32639	32775	32919	32733	32871	32647	32775	
1398	0	32709	32447	32784	32757	32711	32642	32713	32700	
1399	0	32764	32478	32846	32679	32501	32831	32901	32749	
1400	0	32733	32381	32827	32123	32628	32803	32743	32551	
1401	0	32788	32540	32839	31619	32875	32681	32647	32774	
1402	0	32811	32690	32810	30949	32927	32834	32727	32655	
1403	0	32841	33075	32903	32532	32935	32756	32954	32597	
1404	0	32799	32999	32806	34034	32694	32731	32942	32743	
1405	0	32804	32918	32820	34659	32452	32799	32615	32671	
1406	0	32689	32431	32786	34439	32587	32786	32357	32701	
1407	0	32756	32527	32748	32695	32893	32815	32034	32599	
1408	0	32788	32391	32775	31980	32903	32635	32487	32660	
1409	0	32695	32151	32761	31443	32839	32903	32733	32623	
1410	0	32710	31823	32802	31051	32853	32755	32647	32599	
1411	0	32647	31959	32711	30963	32813	32829	32763	32694	
1412	0	32666	32190	32663	31876	32971	32746	32915	32747	
1413	0	32756	32623	32615	32195	32733	32621	32957	32551	
1414	0	32897	33425	32679	31860	32737	32723	32662	32737	
1415	0	32984	33787	32751	32127	32943	32629	32511	32786	
1416	0	33078	33983	32725	32327	32855	32765	32614	32590	
1417	0	32972	34461	32709	32381	32687	32803	32660	32741	
1418	0	32936	34439	32807	32611	32636	32687	32701	32637	
1419	0	32927	33799	32845	32615	32551	32789	32911	32688	
1420	0	32910	33186	32883	32819	32771	32879	32775	32660	
1421	0	32757	32724	32863	33223	32869	32749	32784	32822	
1422	0	32724	32558	32819	33247	32757	32841	32764	32758	
1423	0	32756	32404	32839	33195	32749	32783	32527	32811	
1424	0	32708	32287	32795	33153	32687	32831	32619	32596	
1425	0	32617	32085	32775	33089	32625	32636	32675	32609	
1426	0	32598	31982	32715	33031	32673	32677	32613	32631	
1427	0	32630	31917	32785	32971	32727	32775	32679	32559	
1428	0	32644	32019	32855	32873	32751	32809	32717	32591	
1429	0	32692	32263	32809	32946	32797	32683	32607	32621	
1430	0	32692	32306	32813	33044	32895	32751	32621	32658	
1431	0	32585	32101	32786	33197	32874	32675	32773	32690	
1432	0	32641	32338	32859	33063	32807	32805	32659	32493	
1433	0	32719	32421	32756	33010	32775	32646	32661	32614	
1434	0	32748	32655	32705	32850	32758	32854	32598	32725	
1435	0	32763	32534	32667	32613	32806	32825	32635	32645	
1436	0	32738	32678	32715	33015	32647	32730	32715	32749	
1437	0	32859	32719	32677	32703	32642	32799	32679	32669	
1438	0	32804	32622	32681	32647	32821	32703	32795	32567	
1439	0	32826	32848	32735	32709	32791	32850	32707	32629	
1440	0	32898	32775	32751	32703	32757	32687	32815	32526	
1441	0	32834	32583	32671	32602	32757	32863	32719	32839	
1442	0	32867	32763	32679	32245	32791	32855	32574	32639	
1443	0	32892	32835	32708	32335	32791	32799	32847	32575	
1444	0	32900	32799	32795	32807	32748	32669	32807	32679	
1445	0	32918	32659	32866	32687	32526	32687	32659	32581	
1446	0	32911	32985	32869	32701	32607	32733	32661	32577	
1447	0	32863	32860	32829	32439	32631	32723	32699	32631	
1448	0	32885	32883	32903	32900	32673	32758	32808	32519	
1449	0	32782	32791	32829	33783	32871	32613	32807	32743	
1450	0	32759	32805	32871	33245	32827	32817	32775	32743	
1451	0	32713	32850	32849	32700	32769	32801	32855	32532	
1452	0	32796	32911	32839	32577	32802	32723	32911	32695	
1453	0	32773	32722	32773	32351	32743	32757	32821	32675	
1454	0	32807	32483	32738	31841	32791	32879	32923	32539	
1455	0	32758	32583	32621	31907	32839	32647	32815	32731	
1456	0	32706	32690	32605	32213	32833	32773	32722	32625	
1457	0	32692	32351	32662	32429	32821	32833	32553	32493	
1458	0	32692	32142	32617	32381	32601	32647	32662	32719	
1459	0	32713	32223	32615	32397	32587	32862	32835	32767	
1460	0	32713	32251	32647	32612	32747	32711	32759	32555	
1461	0	32800	32467	32711	32885	32834	32751	32679	32658	
1462	0	32804	32517	32691	33044	32727	32631	32658	32698	
1463	0	32806	32435	32702	33215	32647	32791	32773	32490	
1464	0	32764	32789	32759	33055	32439	32737	32981	32621	
1465	0	32743	32791	32736	32945	32631	32742	32911	32598	
1466	0	32621	32621	32735	32851	32751	32735	32983	32570	
1467	0	32738	32767	32775	32979	32887	32676	32699	32719	
1468	0	32723	32955	32827	33327	32786	32847	32637	32723	
1469	0	32789	32775	32807	33151	32822	32687	32647	32589	
1470	0	32834	33020	32882	33177	32658	32871	32638	32823	
1471	0	32884	33110	32917	33383	32765	32759	32681	32708	
1472	0	32818	32831	32759	33825	32629	32818	32759	32609	
1473	0	32804	33159	32757	33577	32738	32754	32811	32751	
1474	0	32791	32997	32706	32964	32722	32757	32575	32599	
1475	0	32820	32631	32751	32835	32645	32750	32701	32605	
1476	0	32828	32731	32775	32463	32717	32732	32703	32765	
1477	0	32803	32588	32861	32401	32890	32775	32455	32716	
1478	0	32783	32278	32796	32391	32973	32806	32493	32565	
1479	0	32834	32457	32796	31977	33071	32679	32295	32819	
1480	0	32747	32365	32775	31455	32850	32835	32532	32773	
1481	0	32735	32299	32795	31780	32685	32810	32958	32598	
1482	0	32660	32389	32615	31525	32612	32871	32867	32709	
1483	0	32690	32550	32589	31980	32695	32679	32751	32705	
1484	0	32665	33043	32687	32535	32585	32836	32671	32790	
1485	0	32658	33359	32684	32582	32647	32803	32570	32594	
1486	0	32677	33503	32736	32795	32903	32643	32791	32604	
1487	0	32799	33321	32852	32859	32724	32799	32823	32793	
1488	0	32877	33019	32890	32729	32687	32859	32951	32683	
1489	0	32800	32669	32827	33021	32583	32636	32854	32732	
1490	0	32780	32402	32847	33063	32773	32794	32705	32575	
1491	0	32758	32502	32735	32943	32903	32727	32719	32713	
1492	0	32775	32487	32747	32847	32739	32806	32829	32671	
1493	0	32724	32297	32805	32829	32739	32679	32917	32765	
1494	0	32726	32633	32738	32813	32567	32767	32700	32658	
1495	0	32758	32738	32775	32797	32562	32751	32533	32542	
1496	0	32789	32570	32831	32775	32775	32639	32734	32690	
1497	0	32815	32775	32863	33285	32796	32797	32736	32691	
1498	0	32680	32621	32892	33109	32767	32834	32619	32551	
1499	0	32654	32519	32759	33317	32771	32823	32740	32602	
1500	0	32655	32635	32756	33211	32756	32697	32735	32679	
1501	0	32647	32635	32771	32627	32751	32825	32647	32773	
1502	0	32676	32725	32847	32639	32615	32765	32707	32645	
1503	0	32658	32500	32873	33941	32518	32863	32799	32499	
1504	0	32794	32637	32893	33693	32556	32647	32663	32729	
1505	0	32775	32487	32865	33588	32807	32837	32549	32694	
1506	0	32757	32343	32769	32111	32757	32843	32709	32723	
1507	0	32823	32351	32706	32263	32711	32707	32911	32643	
1508	0	32820	32391	32790	32854	32775	32771	32847	32659	
1509	0	32751	32499	32759	33081	32767	32655	32587	32575	
1510	0	32710	32294	32663	31849	32706	32643	32631	32767	
1511	0	32828	32359	32715	31634	32833	32771	32599	32775	
1512	0	32799	32737	32679	31828	32903	32612	32583	32868	
1513	0	32712	32749	32755	31367	32955	32684	32526	32687	
1514	0	32767	33051	32735	31262	33031	32802	32567	32706	
1515	0	32601	33363	32711	31639	32951	32703	32535	32647	
1516	0	32495	33176	32715	32003	32879	32754	32711	32671	
1517	0	32639	33526	32758	32295	32835	32742	32693	32647	
1518	0	32838	33561	32764	32583	32723	32626	32797	32662	
1519	0	32857	33589	32644	33047	32676	32771	32759	32743	
1520	0	32961	33248	32703	33262	32645	32772	32638	32749	
1521	0	33019	33213	32799	33255	32627	32742	32674	32599	
1522	0	33031	32821	32749	33398	32609	32791	32727	32663	
1523	0	32998	32587	32685	33285	32598	32679	32775	32533	
1524	0	32916	32263	32685	33069	32749	32821	32860	32599	
1525	0	33117	32535	32759	33233	32759	32803	32863	32575	
1526	0	32964	32271	32751	33359	32751	32663	32815	32738	
1527	0	32671	31927	32751	33175	32703	32756	32770	32655	
1528	0	32540	32064	32767	32439	32599	32692	32547	32575	
1529	0	32532	32111	32829	32555	32583	32775	32583	32749	
1530	0	32507	31901	32811	33206	32410	32661	32844	32711	
1531	0	32473	32199	32775	33479	32522	32858	32727	32565	
1532	0	32514	32493	32786	32985	32719	32756	32838	32695	
1533	0	32504	32355	32756	32685	32799	32869	32903	32663	
1534	0	32564	32669	32741	32727	32903	32679	32359	32571	
1535	0	32617	33303	32724	32903	32855	32834	32258	32773	
1536	0	32742	33635	32731	32871	32919	32726	32426	32803	
1537	0	32829	33502	32687	32801	32647	32783	32702	32639	
1538	0	32790	33303	32630	32730	32638	32772	32823	32601	
1539	0	32847	33149	32628	32579	32775	32727	32798	32627	
1540	0	32959	32870	32607	32313	32840	32831	32863	32782	
1541	0	32912	33005	32711	32511	32832	32733	32796	32794	
1542	0	32863	33050	32767	32639	32810	32830	32703	32622	
1543	0	32863	32342	32831	32518	32839	32807	32775	32711	
1544	0	32719	32179	32815	32705	32621	32754	32719	32692	
1545	0	32731	31989	32702	32717	32594	32635	32783	32775	
1546	0	32748	31961	32687	32762	32563	32735	32671	32671	
1547	0	32745	32021	32775	32813	32527	32716	32655	32679	
1548	0	32739	31999	32775	33101	32635	32687	32711	32647	
1549	0	32639	32250	32799	33095	32773	32679	32795	32539	
1550	0	32557	32413	32783	32979	32724	32604	32700	32769	
1551	0	32604	32343	32769	32559	32735	32791	32773	32691	
1552	0	32608	32643	32861	32339	32795	32743	32767	32833	
1553	0	32596	32743	32743	32405	32727	32802	32713	32695	
1554	0	32720	32813	32647	32639	32749	32635	32537	32501	
1555	0	32788	32807	32689	32535	32927	32679	32671	32676	
1556	0	32772	32364	32745	32807	32642	32850	32875	32754	
1557	0	32829	32747	32689	32831	32626	32844	32687	32655	
1558	0	32803	33011	32732	32535	32637	32839	32789	32714	
1559	0	32754	33407	32799	32633	32647	32751	32687	32581	
1560	0	32719	33251	32873	32867	32762	32850	32771	32805	
1561	0	32672	33219	32818	32850	32721	32925	32947	32773	
1562	0	32663	32790	32784	32629	32745	32735	32799	32575	
1563	0	32629	32412	32790	32687	32796	32723	32390	32660	
1564	0	32640	32119	32735	32647	32790	32729	32479	32623	
1565	0	32679	32239	32775	32639	32758	32775	32719	32525	
1566	0	32807	32445	32751	32591	32644	32751	32627	32667	
1567	0	32855	32594	32739	32591	32735	32847	32663	32747	
1568	0	32893	32747	32749	32507	32791	32807	32628	32591	
1569	0	32796	32791	32719	32621	32895	32661	32519	32599	
1570	0	32868	32627	32763	32812	32810	32597	32493	32527	
1571	0	32804	33121	32775	32940	32758	32727	32786	32719	
1572	0	32850	33415	32791	33890	32585	32756	33082	32631	
1573	0	32845	33159	32803	33933	32467	32631	32930	32663	
1574	0	32816	33051	32687	32853	32571	32823	32850	32806	
1575	0	32642	32391	32678	33731	32721	32715	32815	32670	
1576	0	32330	31135	32614	33259	32790	32727	32647	32534	
1577	0	31919	29842	32671	32297	32751	32789	32788	32740	
1578	0	31831	29863	32740	31163	32763	32663	32685	32687	
1579	0	32050	30542	32698	31584	32927	32769	32647	32551	
1580	0	32425	31687	32823	31719	33077	32765	32621	32633	
1581	0	32694	32511	32783	31847	32877	32802	32527	32609	
1582	0	32849	33499	32789	32157	32631	32772	32573	32723	
1583	0	33147	34035	32814	32307	32623	32821	32407	32713	
1584	0	33415	35311	32759	32301	32583	32567	32423	32425	
1585	0	33861	36612	32725	32637	32773	32834	32683	32623	
1586	0	34089	37065	32735	32959	32739	32791	32881	32671	
1587	0	34112	36999	32761	32933	32774	32717	32783	32575	
1588	0	33759	35767	32874	32671	32839	32833	32685	32759	
1589	0	33412	34657	32807	32863	32967	32823	32599	32673	
1590	0	33284	33887	32710	33102	32891	32789	32891	32519	
1591	0	33317	33271	32828	32867	32583	32604	32995	32590	
1592	0	33175	32047	32895	32798	32493	32775	32842	32647	
1593	0	32683	31135	32933	33278	32447	32811	32783	32622	
1594	0	32332	30619	32861	33787	32677	32647	32735	32693	
1595	0	32066	30166	32870	32719	32722	32797	32673	32639	
1596	0	31853	30177	32817	32468	32751	32758	32703	32647	
1597	0	31967	30643	32769	32719	32698	32685	32663	32695	
1598	0	32089	30973	32657	33111	32775	32893	32715	32799	
1599	0	32078	31495	32634	33125	32786	32801	32815	32645	
1600	0	32182	31879	32645	32956	32703	32773	32676	32687	
1601	0	32361	32177	32603	33287	32641	32854	32438	32587	
1602	0	32481	32327	32663	32802	32725	32877	32423	32820	
1603	0	32663	32223	32645	32585	32671	32810	32635	32771	
1604	0	32753	32250	32734	32486	32702	32659	32779	32767	
1605	0	32903	32219	32698	32471	32747	32806	32782	32679	
1606	0	32959	32256	32703	32283	32855	32715	32626	32515	
1607	0	32951	32606	32749	32244	32983	32743	32579	32708	
1608	0	32850	32837	32775	32572	32947	32623	32691	32563	
1609	0	32974	32999	32807	32591	32972	32747	32714	32607	
1610	0	32986	32934	32679	32446	32727	32771	32703	32517	
1611	0	32889	32983	32723	32129	32775	32694	32811	32767	
1612	0	32810	33227	32751	32047	32784	32763	32607	32719	
1613	0	32804	33277	32775	32623	32759	32647	32637	32574	
1614	0	32684	32939	32725	32887	32735	32801	32751	32747	
1615	0	32741	32933	32721	32838	32706	32879	32933	32727	
1616	0	32748	32758	32791	32757	32731	32839	32975	32783	
1617	0	32715	32807	32762	32903	32763	32669	32849	32663	
1618	0	32698	32699	32813	32791	32599	32751	32757	32551	
1619	0	32713	32602	32713	32719	32762	32727	32783	32662	
1620	0	32698	32751	32731	32791	32732	32669	32755	32567	
1621	0	32724	32769	32765	32978	32550	32797	32595	32665	
1622	0	32732	32655	32812	33061	32610	32663	32642	32817	
1623	0	32753	32535	32863	33029	32667	32806	32596	32659	
1624	0	32741	32820	32789	32911	32607	32703	32631	32742	
1625	0	32724	32738	32740	32839	32732	32803	32715	32541	
1626	0	32695	32775	32705	32847	32873	32687	32743	32663	
1627	0	32743	32626	32763	32790	32790	32895	32667	32731	
1628	0	32781	32727	32783	32879	32719	32851	32702	32615	
1629	0	32814	32743	32838	32853	32727	32815	32742	32662	
1630	0	32762	32481	32783	32691	32805	32787	32853	32647	
1631	0	32789	32707	32786	32626	32647	32871	32910	32775	
1632	0	32812	32643	32764	32635	32631	32823	32757	32667	
1633	0	32771	32669	32751	32743	32586	32815	32839	32573	
1634	0	32852	32482	32809	32749	32679	32681	32831	32647	
1635	0	32753	32711	32818	32887	32743	32837	32663	32695	
1636	0	32735	32793	32751	32743	32717	32743	32710	32610	
1637	0	32786	32613	32767	32438	32687	32769	32707	32703	
1638	0	32761	32751	32730	32596	32687	32682	32643	32695	
1639	0	32747	32787	32767	32765	32577	32711	32471	32613	
1640	0	32773	32756	32709	32691	32679	32725	32405	32700	
1641	0	32732	32919	32667	32885	32895	32669	32551	32587	
1642	0	32830	32879	32707	32631	32931	32671	32475	32431	
1643	0	32791	32807	32647	32217	32765	32757	32775	32590	
1644	0	32775	32468	32719	32327	32701	32654	32759	32663	
1645	0	32788	32638	32702	32546	32690	32740	32775	32471	
1646	0	32721	32551	32747	32593	32742	32793	32887	32733	
1647	0	32815	32311	32823	32603	32629	32935	32935	32748	
1648	0	32745	32510	32775	32899	32610	32669	33053	32620	
1649	0	32740	32429	32759	33111	32582	32800	32947	32695	
1650	0	32789	32573	32812	32973	32667	32725	32683	32634	
1651	0	32817	32471	32786	32323	32867	32803	32391	32724	
1652	0	32756	32659	32698	32527	33063	32644	32391	32663	
1653	0	32736	32531	32647	33078	32823	32709	32794	32669	
1654	0	32770	32631	32783	32555	32820	32787	32930	32727	
1655	0	32742	32647	32821	33146	32871	32801	32911	32675	
1656	0	32692	32402	32755	33411	32925	32759	32783	32735	
1657	0	32788	32279	32765	33415	32931	32603	32775	32643	
1658	0	32753	32647	32870	33435	32883	32827	32775	32823	
1659	0	32818	33037	32951	33203	32795	32751	32634	32703	
1660	0	32900	33517	32841	32663	32807	32804	32595	32467	
1661	0	32964	33559	32775	32711	32791	32681	32671	32679	
1662	0	33053	33927	32781	32525	32851	32787	32467	32714	
1663	0	33021	34541	32845	32195	32671	32836	32455	32567	
1664	0	32924	34727	32863	31975	32739	32735	32757	32679	
1665	0	32935	34726	32883	32295	32830	32834	33035	32722	
1666	0	33063	33859	32791	32629	32813	32803	32895	32847	
1667	0	33055	32943	32755	32505	32819	32855	32695	32722	
1668	0	33030	32119	32713	32626	32819	32829	32633	32583	
1669	0	32903	31567	32715	32405	32733	32610	32565	32716	
1670	0	32645	31319	32749	32391	32612	32743	32562	32670	
1671	0	32533	31089	32745	32679	32599	32697	32655	32725	
1672	0	32466	31223	32683	32592	32591	32799	33143	32683	
1673	0	32452	31023	32663	32415	32450	32742	33242	32513	
1674	0	32450	31383	32647	32675	32429	32673	32962	32717	
1675	0	32420	31411	32762	32646	32635	32695	32903	32743	
1676	0	32370	31416	32723	32647	32851	32771	32935	32799	
1677	0	32441	31855	32775	32833	32867	32679	32691	32639	
1678	0	32527	32147	32695	32954	32727	32775	32485	32751	
1679	0	32608	32293	32813	32900	32839	32679	32231	32599	
1680	0	32631	32389	32749	32830	32783	32835	32535	32487	
1681	0	32613	32579	32700	32884	32765	32715	32757	32669	
1682	0	32695	32737	32686	32699	32762	32805	32587	32655	
1683	0	32809	32798	32775	32687	32735	32727	32647	32775	
1684	0	32775	32879	32775	32761	32775	32824	32736	32703	
1685	0	32871	32987	32767	32895	32655	32667	32495	32701	
1686	0	32814	33024	32801	32599	32743	32747	32623	32541	
1687	0	32791	32967	32773	32775	32900	32679	32727	32679	
1688	0	32855	33039	32729	32935	32787	32710	32541	32714	
1689	0	32827	33167	32695	33018	32738	32725	32639	32617	
1690	0	32903	32990	32663	32987	32711	32676	32492	32663	
1691	0	32836	33183	32703	32695	32759	32749	32701	32714	
1692	0	32831	33127	32727	32751	32551	32655	32759	32595	
1693	0	32720	32866	32791	32598	32669	32732	32735	32639	
1694	0	32842	32867	32775	31775	32705	32713	32723	32523	
1695	0	32731	32919	32759	31532	32826	32756	32563	32645	
1696	0	32736	32799	32787	31666	33039	32718	32411	32623	
1697	0	32772	32684	32789	31985	32891	32671	32535	32791	
1698	0	32757	32775	32831	32463	32803	32763	32627	32659	
1699	0	32711	32855	32823	32555	32807	32775	32753	32567	
1700	0	32806	32708	32807	32740	32786	32819	32763	32695	
1701	0	32806	32623	32773	33055	32823	32685	32583	32647	
1702	0	32720	32679	32713	32996	32646	32809	32727	32535	
1703	0	32748	32663	32698	33005	32725	32863	32743	32815	
1704	0	32756	32695	32684	33116	32879	32701	32723	32750	
1705	0	32743	32631	32759	33211	32743	32837	32799	32783	
1706	0	32796	32831	32796	33207	32719	32751	32719	32831	
1707	0	32841	32863	32787	33117	32548	32759	32759	32743	
1708	0	32861	32633	32839	32931	32570	32647	32787	32647	
1709	0	32862	32795	32795	32839	32676	32797	32647	32795	
1710	0	32804	32743	32743	32830	32919	32817	32722	32775	
1711	0	32769	32595	32740	32787	32839	32822	32732	32493	
1712	0	32753	32685	32722	32804	32799	32711	32735	32668	
1713	0	32811	32645	32671	32767	32767	32739	32871	32646	
1714	0	32815	32697	32703	32738	32835	32871	32613	32587	
1715	0	32770	32519	32771	32703	32627	32740	32671	32743	
1716	0	32792	32643	32775	32749	32811	32859	32677	32711	
1717	0	32758	32604	32731	32593	32775	32755	32861	32733	
1718	0	32816	32699	32660	32635	32775	32790	32935	32663	
1719	0	32863	32485	32773	32737	32807	32676	32925	32663	
1720	0	32860	32647	32766	32719	32806	32789	32931	32647	
1721	0	32877	32676	32863	32797	32751	32767	32810	32623	
1722	0	32836	32539	32791	32775	32707	32835	32797	32743	
1723	0	32760	32692	32783	32743	32706	32719	32809	32692	
1724	0	32786	32668	32743	32829	32681	32756	32844	32635	
1725	0	32816	32711	32831	32807	32871	32721	32566	32683	
1726	0	32763	32831	32815	32924	32869	32754	32668	32567	
1727	0	32756	32671	32813	32933	32772	32679	32711	32668	
1728	0	32734	32837	32734	32829	32524	32678	32797	32551	
1729	0	32743	32783	32701	32647	32541	32642	32564	32855	
1730	0	32749	32775	32729	32589	32719	32727	32681	32740	
1731	0	32787	32571	32703	32629	32823	32703	32661	32495	
1732	0	32766	32753	32787	32835	32879	32839	32723	32743	
1733	0	32735	32687	32775	32815	32805	32613	32719	32711	
1734	0	32732	32623	32754	32899	32703	32783	32679	32730	
1735	0	32761	32775	32758	32893	32541	32765	32692	32708	
1736	0	32793	32724	32742	32995	32615	32647	32743	32678	
1737	0	32705	32587	32743	32903	32748	32740	32655	32676	
1738	0	32718	32613	32708	32851	32807	32719	32727	32497	
1739	0	32693	32679	32775	32851	32845	32815	32619	32670	
1740	0	32726	32741	32758	32734	32700	32735	32687	32629	
1741	0	32743	32539	32727	32645	32711	32863	32839	32623	
1742	0	32699	32699	32691	32742	32613	32871	32799	32594	
1743	0	32762	32607	32677	32767	32751	32659	32661	32707	
1744	0	32799	32671	32707	32791	32858	32775	32869	32695	
1745	0	32760	32621	32663	32735	32791	32822	32829	32559	
1746	0	32688	32539	32711	32415	32788	32756	32866	32821	
1747	0	32761	32769	32717	32468	32567	32767	32839	32636	
1748	0	32788	32711	32803	32702	32647	32895	32743	32559	
1749	0	32751	32551	32811	32533	32797	32647	32847	32706	
1750	0	32806	32591	32884	32823	32965	32807	32707	32679	
1751	0	32761	32554	32805	32699	32823	32757	32695	32587	
1752	0	32795	32647	32771	32684	32795	32669	32621	32763	
1753	0	32851	32677	32787	32735	32765	32741	32831	32717	
1754	0	32799	32693	32804	32943	32532	32743	32743	32607	
1755	0	32804	32756	32859	32387	32533	32811	32485	32735	
1756	0	32741	32639	32756	32367	32607	32612	32669	32647	
1757	0	32716	32755	32754	32471	32811	32749	32789	32487	
1758	0	32724	32638	32795	31791	32898	32753	32935	32695	
1759	0	32738	32471	32819	31711	32799	32807	32895	32702	
1760	0	32691	32686	32859	32323	32717	32739	32575	32551	
1761	0	32719	32751	32957	32814	32811	32759	32615	32714	
1762	0	32772	32669	32861	32974	32743	32823	32530	32677	
1763	0	32861	32775	32855	32745	32860	32764	32513	32639	
1764	0	32797	32647	32847	32862	32965	32787	32543	32607	
1765	0	32789	32895	32805	33175	32791	32707	32727	32647	
1766	0	32796	32911	32727	33395	32717	32603	32879	32599	
1767	0	32807	32899	32745	33367	32695	32775	32775	32623	
1768	0	32762	32591	32743	33230	32751	32826	32881	32627	
1769	0	32723	32753	32798	33101	32732	32767	32887	32687	
1770	0	32780	32773	32839	33183	32723	32685	32791	32727	
1771	0	32668	32695	32791	33005	32647	32799	32639	32655	
1772	0	32698	32534	32855	32775	32903	32809	32591	32711	
1773	0	32634	32409	32755	32481	32811	32683	32703	32667	
1774	0	32646	32451	32703	32583	32903	32835	32751	32707	
1775	0	32671	32423	32732	32553	32791	32789	32578	32775	
1776	0	32713	32687	32710	32607	32795	32620	32758	32615	
1777	0	32720	32775	32717	32799	32727	32751	32725	32660	
1778	0	32823	32691	32767	32756	32519	32775	32855	32655	
1779	0	32967	33213	32764	32647	32727	32599	32758	32687	
1780	0	32919	33346	32763	32718	32885	32812	32666	32506	
1781	0	32913	33098	32737	32791	32903	32781	32643	32674	
1782	0	32844	33223	32725	32751	32803	32719	32593	32679	
1783	0	32746	33119	32687	32867	32815	32852	32775	32613	
1784	0	32715	32829	32775	32850	32773	32903	32966	32677	
1785	0	32657	32921	32695	32638	32723	32858	33027	32615	
1786	0	32722	32671	32674	32515	32751	32695	33248	32661	
1787	0	32695	32420	32723	32519	32470	32795	32979	32691	
1788	0	32761	32156	32687	33031	32503	32867	32639	32647	
1789	0	32763	32191	32771	33044	32589	32775	32591	32613	
1790	0	32732	32263	32769	32739	32631	32665	32564	32523	
1791	0	32791	32414	32783	32628	32727	32681	32551	32671	
1792	0	32804	32241	32815	32338	32914	32708	32647	32739	
1793	0	32862	32383	32839	32314	32844	32771	32622	32553	
1794	0	32761	32422	32895	31958	32723	32695	32738	32748	
1795	0	32677	32471	32884	32262	32741	32681	32749	32748	
1796	0	32647	32677	32829	32629	32581	32727	32677	32494	
1797	0	32620	32683	32839	32881	32695	32627	32839	32703	
1798	0	32543	32313	32687	32679	32903	32743	32698	32589	
1799	0	32546	32491	32575	32775	32854	32789	32789	32543	
1800	0	32684	32383	32598	32803	32902	32799	32674	32592	
1801	0	32818	32406	32551	32871	32900	32694	32815	32466	
1802	0	32803	32391	32669	32863	32799	32807	32709	32647	
1803	0	32837	32391	32620	32885	32727	32743	32775	32676	
1804	0	32767	32875	32706	32903	32694	32775	32775	32831	
1805	0	32775	33031	32715	32871	32716	32852	32775	32659	
1806	0	32749	32987	32743	32711	32667	32701	32821	32529	
1807	0	32793	32743	32755	32633	32535	32775	32901	32687	
1808	0	32783	32980	32775	32423	32571	32813	32911	32634	
1809	0	32866	32969	32727	32423	32767	32774	32858	32525	
1810	0	32939	33029	32765	32551	32955	32727	32719	32663	
1811	0	32895	32903	32763	32637	32830	32647	32765	32582	
1812	0	32821	32897	32734	32711	32740	32679	32743	32511	
1813	0	32811	32775	32899	32628	32671	32710	32717	32660	
1814	0	32773	32502	32919	32641	32750	32591	32775	32629	
1815	0	32687	32441	32851	32701	32725	32719	32815	32631	
1816	0	32754	32611	32773	32681	32685	32695	32721	32621	
1817	0	32829	32567	32887	32647	32723	32757	32767	32495	
1818	0	32933	32613	32837	32551	32598	32693	32711	32531	
1819	0	32909	32519	32809	32702	32575	32586	32775	32429	
1820	0	32980	32434	32823	32839	32631	32679	32679	32607	
1821	0	32944	32534	32869	32535	32562	32661	32755	32525	
1822	0	32927	32567	32884	32619	32662	32740	32791	32463	
1823	0	33045	32547	33047	32676	32823	32772	32599	32535	
1824	0	32983	32445	32917	32620	32797	32691	32631	32590	
1825	0	32852	32583	32935	32538	32767	32783	32611	32719	
1826	0	32848	32759	32891	32722	32783	32667	32582	32637	
1827	0	32850	32692	32979	32719	32743	32775	32569	32500	
1828	0	32803	32898	32978	32647	32711	32687	32579	32621	
1829	0	32820	33069	32903	32719	32755	32790	32583	32527	
1830	0	32787	33001	32844	32615	32561	32851	32641	32743	
1831	0	32685	32962	32823	32405	32871	32643	32635	32583	
1832	0	32618	32595	32757	32530	32689	32853	32573	32771	
1833	0	32585	32639	32799	32617	32714	32787	32591	32756	
1834	0	32551	32679	32749	32671	32877	32849	32514	32831	
1835	0	32604	32897	32637	32605	33036	32719	32499	32807	
1836	0	32538	32913	32595	32724	32999	32817	32575	32673	
1837	0	32591	33150	32541	32839	32873	32839	32711	32808	
1838	0	32556	32919	32567	32946	32799	32935	32562	32879	
1839	0	32471	32743	32439	32916	32761	32949	32595	32903	
1840	0	32391	32827	32447	32941	32753	32903	32599	32764	
1841	0	32423	32391	32374	32855	32563	32797	32655	32976	
1842	0	32418	32415	32419	32903	32574	33037	32594	33079	
1843	0	32409	32475	32197	33243	32559	32977	32722	33123	
1844	0	32221	32479	32199	33359	32555	33095	32725	33186	
1845	0	32140	32677	32153	33111	32671	33143	32658	33242	
1846	0	32115	32694	31993	33283	32822	33125	32425	33607	
1847	0	32126	32694	31949	33223	32911	33311	32591	33644	
1848	0	32263	32634	32122	32815	32917	33159	32629	33415	
1849	0	32443	32640	32363	32663	32829	33117	32556	33199	
1850	0	32677	32659	32561	32978	32767	32987	32556	32887	
1851	0	32737	32631	32647	33053	32830	32875	32647	32821	
1852	0	32813	32689	32831	32867	32742	32684	32807	32567	
1853	0	32971	32567	32943	32637	32755	32659	32991	32645	
1854	0	33041	33091	33021	32683	32751	32770	32927	32562	
1855	0	33193	33191	33099	32639	32759	32559	32927	32599	
1856	0	33228	33047	33135	32695	32735	32599	32755	32431	
1857	0	33187	33159	32981	32911	32605	32710	32709	32311	
1858	0	33092	33075	32971	32854	32591	32519	32767	32487	
1859	0	33111	33103	33095	32549	32639	32687	32823	32447	
1860	0	33089	32701	33055	32599	32727	32601	32879	32429	
1861	0	33022	32572	33047	32889	32758	32603	32815	32275	
1862	0	32957	32335	32980	32790	32679	32517	32849	32279	
1863	0	32974	32447	32835	32787	32629	32659	32821	32436	
1864	0	32792	32567	32855	32844	32687	32587	32743	32414	
1865	0	32769	32563	32871	32757	32684	32700	32807	32547	
1866	0	32753	32570	32892	32926	32765	32685	32775	32535	
1867	0	32781	32582	32799	32719	32631	32594	32726	32395	
1868	0	32813	32391	32834	32577	32663	32733	32903	32577	
1869	0	32833	32570	32859	32717	32708	32639	32734	32555	
1870	0	32868	32451	32802	32601	32829	32742	32719	32404	
1871	0	32845	32407	32839	32483	32796	32514	32883	32383	
1872	0	32853	32487	32829	32004	32709	32647	32727	32421	
1873	0	32887	32703	32762	31911	32835	32621	32586	32527	
1874	0	32839	32683	32831	32108	32783	32795	32738	32515	
1875	0	32826	32815	32847	32171	32731	32749	32743	32609	
1876	0	32721	32639	32829	32481	32738	32566	32811	32595	
1877	0	32756	32775	32804	32815	32727	32694	32821	32519	
1878	0	32754	32787	32687	32727	32528	32668	32854	32575	
1879	0	32851	32663	32727	32679	32541	32727	32755	32493	
1880	0	32903	32655	32929	32711	32559	32647	32681	32543	
1881	0	32892	32551	32925	32675	32577	32551	32690	32514	
1882	0	32889	32725	32813	32548	32695	32607	32647	32579	
1883	0	32884	32855	32871	32606	32835	32681	32802	32556	
1884	0	32895	32972	32781	32613	32917	32767	32647	32468	
1885	0	32914	32900	32791	32743	32884	32658	32685	32631	
1886	0	32810	33023	32883	32669	32903	32738	32604	32598	
1887	0	32745	32976	32935	32775	32861	32825	32647	32725	
1888	0	32775	33015	32775	32851	32852	32743	32775	32677	
1889	0	32816	32964	32765	33111	32805	32895	32884	32507	
1890	0	32829	32727	32754	33007	32819	32763	32671	32659	
1891	0	32807	32711	32743	33015	32756	32767	32989	32685	
1892	0	32738	32491	32679	32839	32783	32759	32926	32551	
1893	0	32762	32548	32775	32679	32579	32875	32757	32791	
1894	0	32665	32133	32841	32701	32577	32884	32775	32791	
1895	0	32644	32199	32799	32759	32645	32653	32681	32704	
1896	0	32586	32210	32727	32663	32599	32743	32711	32715	
1897	0	32643	32189	32797	32621	32737	32783	32603	32623	
1898	0	32647	32323	32791	32531	32839	32703	32725	32775	
1899	0	32615	32271	32829	32511	32803	32819	32719	32771	
1900	0	32601	32491	32719	32726	32871	32671	32703	32823	
1901	0	32684	32647	32770	32749	32903	32743	32543	32775	
1902	0	32697	33009	32753	32683	32875	32638	32629	32593	
1903	0	32695	32993	32687	32751	32797	32771	32603	32715	
1904	0	32775	33091	32731	32773	32729	32751	32599	32708	
1905	0	32803	32838	32721	32748	32647	32748	32725	32695	
1906	0	32767	32966	32749	33005	32603	32646	32684	32703	
1907	0	32811	32813	32731	32918	32675	32711	32647	32740	
1908	0	32857	32663	32714	32845	32765	32702	32615	32855	
1909	0	32866	32732	32679	32799	32842	32831	32479	32742	
1910	0	32799	32839	32743	32979	32855	32677	32307	32671	
1911	0	32845	32775	32739	33069	32773	32723	32671	32775	
1912	0	32783	32613	32754	32629	32722	32833	32811	32709	
1913	0	32796	32663	32668	32443	32787	32807	32807	32589	
1914	0	32713	32689	32668	32951	32855	32843	32895	32791	
1915	0	32705	32638	32711	32715	32753	32660	32815	32711	
1916	0	32682	32605	32701	32463	32480	32843	32716	32670	
1917	0	32676	32345	32713	32389	32582	32742	32621	32690	
1918	0	32679	32615	32629	32470	32594	32735	32541	32647	
1919	0	32734	32613	32727	32679	32903	32826	32605	32719	
1920	0	32584	32787	32791	32643	33086	32663	32771	32695	
1921	0	32676	32671	32859	32479	32957	32831	32916	32587	
1922	0	32639	32775	32815	32810	32815	32740	32831	32759	
1923	0	32684	32708	32807	32859	32789	32775	32685	32681	
1924	0	32684	32594	32687	32487	32719	32737	32815	32735	
1925	0	32743	32565	32726	32483	32575	32626	32893	32647	
1926	0	32751	32453	32791	32719	32549	32773	32949	32523	
1927	0	32749	32585	32726	32677	32549	32839	32831	32682	
1928	0	32727	32571	32732	32887	32571	32758	32783	32695	
1929	0	32799	32783	32678	32812	32743	32861	32605	32615	
1930	0	32796	32838	32683	32801	32705	32685	32695	32727	
1931	0	32774	32871	32687	32999	32743	32783	32647	32731	
1932	0	32738	32827	32637	32742	32815	32761	32715	32711	
1933	0	32765	32975	32735	32690	32775	32851	32716	32691	
1934	0	32711	32799	32707	32675	32815	32823	32551	32719	
1935	0	32713	32863	32679	32496	32711	32763	32587	32863	
1936	0	32775	32599	32743	32463	32590	32854	32615	32695	
1937	0	32770	32703	32818	32513	32629	32702	32577	32549	
1938	0	32826	32770	32831	32643	32673	32775	32572	32738	
1939	0	32921	32775	32775	32679	32727	32655	32647	32661	
1940	0	32868	32644	32825	32635	32762	32722	32759	32775	
1941	0	32855	32519	32799	32573	32821	32754	32594	32663	
1942	0	32806	32555	32895	32595	32903	32837	32716	32597	
1943	0	32808	32470	32831	32554	32883	32658	32807	32663	
1944	0	32796	32503	32719	32757	32859	32714	32681	32579	
1945	0	32775	32509	32807	32923	32877	32719	32767	32757	
1946	0	32802	32727	32769	32845	32802	32775	32797	32644	
1947	0	32813	32814	32791	32903	32775	32549	32735	32671	
1948	0	32749	32751	32711	32923	32745	32732	32703	32604	
1949	0	32743	32567	32675	32817	32710	32669	32731	32679	
1950	0	32743	32787	32775	32861	32733	32731	32677	32705	
1951	0	32819	32843	32852	32893	32751	32771	32629	32805	
1952	0	32742	32775	32757	32815	32711	32635	32642	32703	
1953	0	32716	32775	32757	32723	32531	32807	32647	32587	
1954	0	32762	32527	32725	32598	32643	32718	32796	32647	
1955	0	32734	32715	32775	32671	32858	32675	32783	32638	
1956	0	32759	32695	32711	32673	32830	32876	32811	32679	
1957	0	32690	32590	32765	32747	32747	32838	32755	32671	
1958	0	32729	32591	32799	32711	32766	32733	32748	32717	
1959	0	32794	32683	32751	32711	32807	32850	32749	32591	
1960	0	32857	32719	32743	32705	32647	32790	32735	32725	
1961	0	32775	32679	32734	32756	32657	32775	32726	32671	
1962	0	32785	32603	32839	32627	32620	32671	32759	32709	
1963	0	32800	32797	32791	32607	32759	32843	32661	32635	
1964	0	32791	32719	32783	32671	32852	32773	32719	32571	
1965	0	32756	32771	32690	32711	32890	32799	32764	32679	
1966	0	32774	32603	32698	32702	32879	32679	32695	32671	
1967	0	32759	32615	32743	32797	32843	32831	32605	32734	
1968	0	32727	32763	32740	32739	32701	32775	32567	32663	
1969	0	32735	32734	32687	32601	32737	32751	32662	32564	
1970	0	32809	32747	32719	32751	32723	32743	32621	32662	
1971	0	32813	32615	32759	32799	32806	32604	32764	32695	
1972	0	32751	32595	32741	32815	32663	32741	32742	32555	
1973	0	32783	32749	32775	32853	32671	32739	32803	32667	
1974	0	32788	32606	32686	32784	32742	32767	32823	32711	
1975	0	32775	32647	32713	32647	32587	32644	32799	32631	
1976	0	32772	32643	32767	32628	32806	32829	32871	32687	
1977	0	32823	32687	32775	32679	32933	32703	32775	32690	
1978	0	32772	32695	32695	32694	32869	32755	32707	32749	
1979	0	32838	32603	32698	32645	32847	32785	32647	32671	
1980	0	32839	32691	32757	32763	32861	32711	32799	32581	
1981	0	32817	32660	32739	32775	32759	32642	32719	32697	
1982	0	32784	32663	32743	32767	32724	32841	32619	32751	
1983	0	32751	32518	32775	32843	32763	32807	32828	32775	
1984	0	32684	32507	32803	32731	32838	32739	32775	32775	
1985	0	32745	32691	32707	32719	32807	32755	32720	32626	
1986	0	32740	32723	32749	32671	32867	32666	32596	32711	
1987	0	32791	32835	32681	32743	32711	32731	32711	32659	
1988	0	32831	32683	32727	32797	32774	32719	32607	32719	
1989	0	32794	32791	32786	32685	32567	32807	32697	32635	
1990	0	32823	32775	32728	32711	32705	32738	32517	32573	
1991	0	32788	32846	32743	32823	32703	32623	32471	32687	
1992	0	32753	32631	32775	32736	32602	32721	32574	32578	
1993	0	32714	32679	32701	32573	32527	32791	32787	32724	
1994	0	32733	32679	32733	32351	32631	32751	32741	32631	
1995	0	32687	32487	32775	32381	32662	32767	32674	32734	
1996	0	32703	32383	32683	32338	32661	32703	32786	32671	
1997	0	32684	32513	32655	32599	32677	32607	32838	32706	
1998	0	32703	32287	32713	32827	32856	32687	32738	32694	
1999	0	32692	32615	32738	33129	32897	32730	32718	32589	
2000	0	32757	32596	32731	32876	32852	32743	32735	32647	
2001	0	32738	32658	32767	32727	32839	32791	32903	32487	
2002	0	32785	32893	32903	32758	32903	32765	32866	32685	
2003	0	32791	32759	32847	33076	32803	32615	32615	32599	
2004	0	32847	32982	32791	33039	32775	32807	32684	32658	
2005	0	32879	33122	32807	33015	32756	32759	32631	32475	
2006	0	32855	32863	32839	32585	32756	32754	32507	32583	
2007	0	32791	32811	32804	32671	32831	32819	32610	32519	
2008	0	32758	32647	32701	32683	32731	32796	32703	32659	
2009	0	32812	32463	32775	32718	32699	32736	32556	32535	
2010	0	32795	32587	32719	32350	32703	32813	32532	32621	
2011	0	32775	32755	32749	32493	32775	32695	32831	32599	
2012	0	32811	32823	32831	32548	32762	32743	32898	32707	
2013	0	32820	32633	32743	32465	32655	32759	32789	32662	
2014	0	32733	32391	32660	32177	32591	32583	32786	32519	
2015	0	32745	32523	32743	32447	32620	32717	32802	32703	
2016	0	32706	32583	32698	32811	32695	32843	32791	32732	
2017	0	32701	32668	32704	33015	32687	32797	32735	32647	
2018	0	32768	32637	32676	33415	32718	32851	32827	32663	
2019	0	32807	32677	32749	33605	32823	32807	32701	32685	
2020	0	32809	32867	32803	33055	32839	32729	32583	32770	
2021	0	32834	32831	32797	32830	32783	32835	32580	32663	
2022	0	32828	32671	32746	32667	32684	32783	32725	32555	
2023	0	32743	32595	32735	32311	32754	32868	32631	32699	
2024	0	32809	32730	32738	32095	32804	32814	32707	32685	
2025	0	32761	32759	32791	32319	32727	32738	32715	32775	
2026	0	32788	32821	32771	32183	32775	32791	32773	32879	
2027	0	32800	32551	32824	32289	32636	32692	32677	32853	
2028	0	32780	32623	32820	32525	32645	32725	32815	32919	
2029	0	32757	32607	32789	32638	32727	32679	32819	32754	
2030	0	32722	32679	32827	32751	32751	32583	32655	32695	
2031	0	32735	32343	32829	32871	32863	32743	32659	32741	
2032	0	32775	32589	32719	32823	32763	32759	32641	32629	
2033	0	32804	32551	32711	32727	32788	32805	32625	32571	
2034	0	32799	32590	32767	32809	32727	32742	32771	32655	
2035	0	32771	32493	32891	32636	32721	32615	32851	32695	
2036	0	32867	32615	32747	32699	32759	32739	32749	32687	
2037	0	32761	32764	32869	33236	32711	32805	32865	32639	
2038	0	32738	32427	32814	33047	32733	32783	32815	32599	
2039	0	32773	32543	32855	32670	32551	32811	32695	32598	
2040	0	32749	32463	32767	33102	32607	32703	32754	32647	
2041	0	32713	32671	32735	33191	32743	32771	32655	32551	
2042	0	32688	32758	32724	33107	32854	32823	32615	32620	
2043	0	32694	32911	32677	33415	32804	32807	32828	32534	
2044	0	32653	32603	32727	32882	32756	32621	32690	32701	
2045	0	32764	33086	32749	32241	32749	32803	32645	32581	
2046	0	32737	33431	32751	32517	32775	32695	32772	32583	
2047	0	32788	33709	32695	32439	32537	32839	32859	32734	
2048	0	32874	33605	32751	32357	32563	32827	32687	32692	
2049	0	32878	33502	32809	32687	32895	32707	32459	32698	
2050	0	32846	32987	32755	32591	33007	32749	32671	32559	
2051	0	32795	32467	32715	32271	32970	32743	32677	32636	
2052	0	32839	32173	32675	32349	32879	32774	32823	32575	
2053	0	32933	32462	32706	32212	32957	32791	32629	32647	
2054	0	32999	32694	32741	32493	32915	32726	32663	32647	
2055	0	32910	32427	32631	32775	32742	32811	32583	32535	
2056	0	32797	32199	32647	32743	32673	32795	32743	32621	
2057	0	32729	32122	32743	32675	32735	32790	32812	32612	
2058	0	32663	32105	32713	32623	32743	32639	32725	32803	
2059	0	32701	32263	32739	32903	32549	32855	32775	32706	
2060	0	32663	32165	32711	33175	32611	32715	32807	32667	
2061	0	32622	32413	32723	33245	32757	32801	32847	32803	
2062	0	32712	32359	32783	33139	32871	32642	32940	32719	
2063	0	32659	32559	32831	33346	32854	32827	33097	32727	
2064	0	32727	32590	32821	33967	32783	32711	32811	32626	
2065	0	32706	32811	32787	33815	32718	32775	32644	32587	
2066	0	32773	32775	32667	33372	32705	32723	32633	32763	
2067	0	32795	32963	32692	33334	32621	32847	32561	32733	
2068	0	32748	32743	32613	32661	32588	32742	32695	32647	
2069	0	32700	32854	32647	32067	32591	32726	32647	32631	
2070	0	32767	32951	32771	31965	32647	32751	32513	32567	
2071	0	32761	32743	32841	31847	32668	32603	32615	32658	
2072	0	32759	32541	32855	31399	32930	32807	32573	32637	
2073	0	32769	32703	32835	30921	32983	32711	32465	32522	
2074	0	32726	32535	32826	31209	32989	32839	32662	32537	
2075	0	32765	32456	32885	31551	32869	32751	32775	32518	
2076	0	32744	32327	32867	32241	32874	32555	32711	32661	
2077	0	32751	32161	32783	32679	32861	32678	32747	32527	
2078	0	32782	32326	32839	32587	32815	32734	32760	32727	
2079	0	32834	32379	32866	32843	32807	32676	32732	32679	
2080	0	32889	32711	32809	33143	32830	32791	32603	32753	
2081	0	32918	33035	32789	33069	32839	32832	32545	32679	
2082	0	32969	33062	32839	33099	32735	32775	32717	32854	
2083	0	32982	32847	32647	33006	32757	32677	32775	32689	
2084	0	32908	32903	32691	32957	32687	32751	32839	32602	
2085	0	32903	32829	32732	32903	32711	32839	32791	32687	
2086	0	32843	32923	32921	33055	32756	32711	32838	32785	
2087	0	32704	32715	32795	33026	32543	32789	32919	32674	
2088	0	32716	32477	32724	33022	32562	32789	32798	32586	
2089	0	32571	32562	32769	32915	32587	32606	32773	32663	
2090	0	32614	32726	32733	33039	32515	32671	32786	32751	
2091	0	32617	32789	32773	32959	32577	32862	32858	32848	
2092	0	32594	32771	32762	33023	32751	32731	32671	32762	
2093	0	32555	32571	32721	32963	32835	32811	32866	32644	
2094	0	32588	32855	32695	32930	32775	32817	32783	32747	
2095	0	32647	32739	32719	33017	32818	32610	32725	32541	
2096	0	32753	32811	32852	33007	32741	32716	32629	32728	
2097	0	32792	32740	32863	32965	32813	32831	32546	32735	
2098	0	32820	32593	32834	32644	32715	32762	32631	32755	
2099	0	32743	32735	32706	32475	32756	32819	32639	32647	
2100	0	32710	32695	32687	32743	32743	32574	32677	32549	
2101	0	32709	32733	32803	33132	32734	32735	32613	32661	
2102	0	32745	32433	32757	32883	32799	32661	32733	32702	
2103	0	32772	32677	32647	32924	32629	32903	32643	32574	
2104	0	32773	32575	32703	32647	32567	32919	32758	32658	
2105	0	32727	32679	32695	32711	32574	32679	32835	32607	
2106	0	32775	32815	32654	32818	32615	32835	32855	32679	
2107	0	32735	32724	32553	32655	32794	32775	32978	32711	
2108	0	32722	32838	32612	32559	32786	32865	32929	32767	
2109	0	32754	32660	32655	32439	32914	32807	32878	32775	
2110	0	32702	32715	32709	32541	33021	32751	32772	32551	
2111	0	32732	32708	32668	32541	32898	32735	32757	32757	
2112	0	32761	32964	32732	32559	32823	32701	32639	32683	
2113	0	32751	32810	32757	32623	32719	32751	32546	32754	
2114	0	32775	32871	32735	32787	32702	32625	32519	32722	
2115	0	32783	32578	32749	32735	32685	32741	32620	32663	
2116	0	32755	32655	32759	32639	32663	32594	32551	32683	
2117	0	32750	32727	32682	32543	32495	32710	32719	32575	
2118	0	32751	32812	32711	32551	32516	32701	32772	32767	
2119	0	32669	32438	32745	32571	32647	32805	32863	32775	
2120	0	32656	32727	32839	32639	32801	32764	32971	32571	
2121	0	32775	32669	32760	32733	32847	32667	32871	32687	
2122	0	32828	32679	32711	32726	32847	32831	32629	32726	
2123	0	32829	32443	32747	32732	32818	32737	32663	32505	
2124	0	32806	32659	32803	32509	32738	32791	32590	32615	
2125	0	32775	32614	32831	32469	32799	32663	32623	32637	
2126	0	32708	32567	32751	32718	32785	32887	32685	32503	
2127	0	32702	32609	32707	32961	32659	32825	32559	32613	
2128	0	32713	32646	32711	32931	32775	32827	32903	32624	
2129	0	32681	32677	32719	33044	32903	32683	32933	32775	
2130	0	32619	32583	32687	32977	32821	32799	32743	32673	
2131	0	32703	32895	32772	32745	32757	32839	32743	32655	
2132	0	32763	32796	32767	32775	32655	32863	32797	32771	
2133	0	32665	32798	32738	33053	32710	32857	32615	32675	
2134	0	32640	32583	32723	33093	32641	32747	32679	32679	
2135	0	32692	32703	32759	32875	32550	32794	32788	32829	
2136	0	32813	32675	32775	32635	32711	32695	32598	32703	
2137	0	32839	32564	32762	32629	32975	32797	32647	32698	
2138	0	32807	32640	32815	32391	32792	32804	32663	32547	
2139	0	32773	32642	32783	32147	32734	32663	32743	32643	
2140	0	32742	32516	32789	32418	32671	32783	32551	32709	
2141	0	32642	32549	32829	32873	32869	32775	32725	32503	
2142	0	32644	32493	32695	32695	32919	32643	32791	32647	
2143	0	32538	32453	32711	32468	32887	32641	32703	32583	
2144	0	32571	32596	32767	32501	32833	32770	32758	32647	
2145	0	32679	32599	32737	32775	32823	32709	32877	32519	
2146	0	32645	32501	32829	32983	32831	32717	32903	32687	
2147	0	32636	32719	32749	32903	32817	32743	33045	32589	
