# OpenSignals Text File Format
# {"00:07:80:3B:46:38": {"sensor": ["CUSTOM/0.5/1.0/V", "CUSTOM/0.5/1.0/V", "CUSTOM/0.5/1.0/V", "CUSTOM/0.5/1.0/V", "CUSTOM/0.5/1.0/V", "CUSTOM/0.5/1.0/V", "CUSTOM/0.5/1.0/V", "CUSTOM/0.5/1.0/V"], "device name": "EMGs", "column": ["nSeq", "DI", "RA_L", "RA_R", "OE_L", "OE:R", "IL_L", "IL_R", "MF_L", "MF_R"], "sync interval": 2, "time": "14:33:16.191", "comments": "", "device connection": "BTH00:07:80:3B:46:38", "channels": [1, 2, 3, 4, 5, 6, 7, 8], "date": "2017-6-2", "mode": 0, "digital IO": [0, 1], "firmware version": 772, "device": "biosignalsplux", "position": 0, "sampling rate": 1000, "label": ["RA_L", "RA_R", "OE_L", "OE:R", "IL_L", "IL_R", "MF_L", "MF_R"], "resolution": [16, 16, 16, 16, 16, 16, 16, 16], "special": [{}, {}, {}, {}, {}, {}, {}, {}]}}
# EndOfHeader
0	0	32631	32693	32783	32756	31893	32863	32698	33104	
1	0	32508	32727	32819	31591	33319	32902	32647	32662	
2	0	32412	32810	32884	30111	35092	32698	32754	31543	
3	0	30391	32815	32657	27859	37161	32725	32725	29054	
4	0	28739	32811	32858	27033	38155	32839	32688	28011	
5	0	28998	32687	33272	27779	37759	32869	32731	28597	
6	0	30660	32525	32669	29794	35899	32706	32686	30519	
7	0	32135	32511	32559	31436	34273	32686	32725	32039	
8	0	32911	32669	32742	32455	33135	32710	32639	32750	
9	0	33244	32684	32627	32943	32631	32726	32749	33154	
10	0	33790	32663	32749	33473	31814	32746	32747	33807	
11	0	34094	32679	32711	34085	31399	32761	32667	34074	
12	0	33638	32711	32761	33605	31751	32731	32701	33651	
13	0	33583	32684	32850	33692	31823	32727	32647	33519	
14	0	33269	32711	32823	33431	32007	32797	32722	33324	
15	0	33775	32769	32731	33719	31483	32765	32759	33910	
16	0	35277	32647	32739	35359	30183	32643	32703	35442	
17	0	34319	32590	32783	36050	29463	32660	32751	36070	
18	0	32877	32698	32858	36415	28941	32733	32647	33862	
19	0	32607	32730	32724	35449	29794	32708	32764	33207	
20	0	32572	32742	32711	33671	31509	32695	32709	32848	
21	0	32473	32707	32742	31799	33159	32844	32734	32684	
22	0	32362	32675	32805	29724	35435	32729	32718	31630	
23	0	30629	32647	32932	27783	37255	32810	32647	29278	
24	0	28768	32761	32895	26799	38447	32772	32728	27886	
25	0	28782	32775	33435	27419	37879	32751	32757	28347	
26	0	30692	32751	32775	29663	36039	32706	32693	30529	
27	0	32221	32582	32407	31559	34311	32815	32731	32005	
28	0	32935	32546	32691	32538	33157	32707	32662	32918	
29	0	33559	32610	32590	33307	32357	32675	32753	33429	
30	0	34017	32755	32721	34021	31635	32756	32687	34013	
31	0	33902	32661	32763	33652	31591	32665	32751	33778	
32	0	33764	32727	32988	33735	31711	32706	32695	33769	
33	0	33641	32775	32955	33807	31725	32685	32740	33719	
34	0	33441	32755	32748	33331	31785	32677	32661	33455	
35	0	33987	32773	32638	34074	31348	32749	32728	34062	
36	0	35463	32720	32647	35506	29991	32767	32764	35643	
37	0	34080	32732	32709	36404	29239	32666	32679	35553	
38	0	32826	32682	32689	35945	29217	32839	32727	33699	
39	0	32571	32681	32755	35023	30196	32855	32765	33247	
40	0	32453	32695	32763	33309	31855	32714	32646	32857	
41	0	32355	32718	32847	31449	33655	32663	32742	32659	
42	0	32124	32626	32759	29531	35650	32784	32743	31001	
43	0	31098	32662	32621	28693	36710	32743	32692	29893	
44	0	29493	32722	32738	27747	37571	32825	32751	28630	
45	0	28751	32636	33337	27343	37748	32911	32697	28333	
46	0	30273	32621	32892	29318	36231	32871	32733	30077	
47	0	31836	32657	32563	31145	34394	32515	32658	31758	
48	0	33070	32647	32754	32631	32960	32764	32745	32897	
49	0	33599	32758	32846	33263	32268	32767	32743	33571	
50	0	33773	32711	32946	33703	31817	32717	32647	33857	
51	0	33995	32691	32993	33963	31535	32791	32755	33879	
52	0	33951	32703	32815	33679	31437	32663	32711	33997	
53	0	33730	32695	32573	33628	31511	32677	32775	33641	
54	0	33695	32709	32527	33799	31623	32791	32709	33798	
55	0	34077	32830	32545	34288	31251	32559	32706	34327	
56	0	35513	32749	32796	35659	29913	32685	32705	35687	
57	0	33530	32738	32885	36300	29343	32693	32716	35311	
58	0	32742	32743	32901	36173	29303	32663	32743	33562	
59	0	32593	32658	32612	34623	30306	32862	32775	33133	
60	0	32531	32711	32721	32717	32271	32673	32751	32889	
61	0	32514	32605	32822	31671	33587	32706	32673	32596	
62	0	32216	32593	32903	29716	35596	32862	32761	31027	
63	0	30688	32656	32954	28191	37046	32857	32748	29333	
64	0	29146	32498	32822	27373	37643	32655	32633	28287	
65	0	29031	32531	33317	27774	37746	32705	32749	28608	
66	0	30431	32626	32979	29689	36065	32775	32730	30223	
67	0	32346	32567	32151	31725	33951	32749	32698	32196	
68	0	33479	32593	32562	33119	32564	32719	32749	33353	
69	0	33705	32685	32673	33329	32179	32663	32711	33611	
70	0	33840	32596	32730	33527	31775	32662	32700	33845	
71	0	33942	32509	32738	33971	31463	32683	32667	33983	
72	0	34051	32621	32636	34021	31346	32668	32745	34069	
73	0	33932	32727	32739	34039	31478	32668	32627	33991	
74	0	33380	32769	32764	33295	31842	32846	32759	33359	
75	0	33964	32743	32854	34077	31239	32919	32732	34252	
76	0	35554	32772	32755	35529	29902	32811	32723	35778	
77	0	33239	32713	32751	35719	29575	32695	32690	34939	
78	0	32732	32641	32734	36050	29503	32738	32791	33515	
79	0	32624	32667	32724	34774	30471	32698	32743	33131	
80	0	32549	32775	32879	32931	32231	32711	32655	32715	
81	0	32497	32773	32873	31795	33412	32775	32734	32711	
82	0	32479	32742	32807	29839	35297	32774	32783	31570	
83	0	30924	32748	32856	28110	36892	32786	32671	29480	
84	0	29007	32599	32893	27057	37917	32764	32708	28018	
85	0	28741	32747	33326	27423	38095	32727	32743	28290	
86	0	30538	32811	32847	29549	36220	32658	32671	30257	
87	0	32061	32722	32325	31423	34389	32751	32708	31913	
88	0	33125	32711	32817	32532	33018	32767	32727	33014	
89	0	33373	32762	32543	33054	32437	32761	32685	33187	
90	0	33644	32833	32537	33391	31931	32727	32717	33671	
91	0	34074	32691	32694	33941	31506	32766	32693	34020	
92	0	34174	32553	32683	34153	31226	32791	32771	34225	
93	0	34120	32557	32745	33987	31261	32799	32775	34151	
94	0	33607	32607	32711	33751	31611	32711	32671	33571	
95	0	33976	32599	32804	34221	31249	32705	32758	34198	
96	0	35499	32595	32662	35593	29924	32674	32783	35719	
97	0	33530	32572	32684	36347	29357	32663	32659	35420	
98	0	32829	32635	32716	36437	29063	32700	32763	33600	
99	0	32736	32761	32687	35263	30189	32780	32758	33191	
100	0	32628	32603	32698	32997	32054	32801	32717	32927	
101	0	32615	32548	32834	31849	33277	32735	32645	32630	
102	0	32448	32553	32706	29973	35252	32749	32749	31709	
103	0	30983	32604	32758	28235	36887	32719	32751	29642	
104	0	29093	32579	32775	27092	37954	32762	32689	28074	
105	0	28684	32495	33583	27303	38271	32769	32771	28165	
106	0	30482	32599	33003	29375	36207	32835	32723	30255	
107	0	32065	32614	32199	31268	34267	32735	32695	31887	
108	0	32969	32617	32391	32423	33062	32669	32757	32837	
109	0	33720	32615	32894	33182	32172	32751	32747	33639	
110	0	33926	32671	32813	33650	31735	32809	32646	33973	
111	0	34006	32679	32793	33735	31503	32759	32756	33851	
112	0	33961	32735	32927	33951	31377	32770	32751	33967	
113	0	33806	32753	32735	33731	31519	32759	32681	33871	
114	0	33535	32713	33031	33703	31702	32802	32765	33595	
115	0	33940	32729	32995	34043	31342	32635	32701	34178	
116	0	35474	32733	33014	35634	29957	32647	32694	35714	
117	0	33431	32740	32832	35879	29607	32655	32727	35149	
118	0	32700	32694	32813	36255	29199	32699	32767	33495	
119	0	32621	32699	32715	35631	29906	32671	32669	33091	
120	0	32615	32726	32668	33158	31902	32851	32775	32894	
121	0	32527	32715	32711	31903	33426	32757	32751	32677	
122	0	32456	32647	32571	30102	35094	32679	32692	32021	
123	0	31218	32678	32735	28391	36743	32614	32727	29906	
124	0	29202	32824	32647	26993	38344	32743	32709	27975	
125	0	28439	32619	33569	27037	38569	33017	32718	27839	
126	0	30244	32485	33009	29149	36551	32799	32664	29985	
127	0	31806	32713	32372	30991	34643	32703	32735	31610	
128	0	32765	32722	32493	32233	33415	32924	32671	32621	
129	0	33567	32708	32765	33235	32375	32647	32722	33571	
130	0	34041	32798	32760	33900	31622	32562	32647	33976	
131	0	34100	32757	32756	34113	31332	32679	32743	34156	
132	0	34604	32691	32742	34515	30909	32701	32747	34667	
133	0	34286	32719	32591	34311	31035	32726	32646	34310	
134	0	33901	32703	32655	34070	31301	32757	32765	33927	
135	0	34080	32647	32805	34087	31103	32876	32771	34195	
136	0	35549	32749	32893	35703	29891	32844	32655	35758	
137	0	33196	32687	32789	35965	29425	32780	32754	34593	
138	0	32773	32675	32711	36015	29463	32613	32714	33303	
139	0	32647	32599	32715	34895	30179	32695	32699	32997	
140	0	32526	32588	32802	33102	31911	32742	32727	32867	
141	0	32474	32662	32850	31926	33378	32671	32679	32599	
142	0	32427	32765	32802	30112	35079	32756	32756	32187	
143	0	31160	32684	32892	28274	36911	32791	32720	29826	
144	0	29500	32530	32773	27308	38023	32771	32782	28382	
145	0	28945	32681	33143	27451	38127	32698	32735	28340	
146	0	30425	32773	32690	29426	36430	32711	32683	30189	
147	0	31991	32621	32615	31093	34579	32698	32743	31722	
148	0	32829	32564	32838	32245	33319	32732	32671	32743	
149	0	33407	32743	32625	33015	32518	32815	32775	33243	
150	0	33707	32703	32687	33271	31910	32810	32668	33691	
151	0	33948	32775	32625	33671	31556	32625	32722	33919	
152	0	33626	32743	32729	33437	31687	32822	32683	33569	
153	0	33452	32689	32935	33365	31931	32807	32732	33471	
154	0	33650	32607	32819	33731	31663	32714	32751	33715	
155	0	34230	32562	32696	34239	31060	32578	32685	34493	
156	0	35548	32786	32721	35742	29808	32731	32758	35769	
157	0	33636	32834	32721	35993	29349	32757	32679	35123	
158	0	32836	32806	32850	36267	29186	32775	32726	33500	
159	0	32698	32717	32719	35367	30013	32703	32679	33184	
160	0	32596	32743	32677	33266	31824	32759	32748	32825	
161	0	32534	32775	32819	31961	33415	32767	32749	32742	
162	0	32428	32669	32751	30166	35013	32793	32747	32157	
163	0	31303	32562	32725	28745	36463	32783	32745	30169	
164	0	29570	32503	32825	27485	37802	32625	32647	28494	
165	0	28914	32501	33281	27461	37910	32685	32762	28377	
166	0	30413	32540	32733	29429	36110	32745	32751	30167	
167	0	31814	32695	32725	31111	34549	32815	32663	31670	
168	0	33095	32790	32622	32654	33119	32679	32718	32980	
169	0	33842	32743	32891	33453	32059	32709	32693	33773	
170	0	33516	32662	32790	33251	31967	32679	32755	33481	
171	0	33562	32655	32887	33405	31803	32754	32759	33495	
172	0	33844	32685	32567	33868	31546	32854	32703	33887	
173	0	33757	32734	32767	33659	31638	32668	32751	33815	
174	0	33445	32727	32599	33613	31815	32692	32678	33463	
175	0	33794	32660	32715	33949	31407	32814	32763	34073	
176	0	35482	32565	32583	35749	29921	32727	32760	35594	
177	0	33644	32695	32650	36255	29265	32713	32731	34959	
178	0	32809	32749	32658	36383	29191	32749	32748	33383	
179	0	32633	32671	32847	35147	30239	32635	32679	33115	
180	0	32566	32755	32761	33215	31936	32659	32735	32843	
181	0	32552	32575	32850	31683	33476	32807	32679	32693	
182	0	32380	32567	32900	29877	35111	32775	32741	31783	
183	0	31035	32766	32892	28347	36787	32805	32723	29951	
184	0	29493	32827	32713	27532	37819	32881	32719	28690	
185	0	28745	32745	33549	27314	37943	32788	32655	28243	
186	0	30294	32773	33104	29311	36314	32604	32756	30130	
187	0	32162	32764	32211	31517	34158	32751	32710	32015	
188	0	33223	32548	32609	32775	32814	32815	32751	33055	
189	0	33782	32708	32727	33335	31979	32870	32719	33663	
190	0	33965	32850	32775	33698	31751	32799	32686	33839	
191	0	33685	32796	32901	33586	31732	32615	32772	33709	
192	0	33951	32739	32812	34002	31474	32775	32749	33998	
193	0	34120	32615	32699	34118	31290	32647	32759	34171	
194	0	33671	32489	32663	33810	31525	32767	32684	33689	
195	0	33487	32549	32735	33485	31623	32896	32734	33632	
196	0	35172	32757	32711	35360	30255	32703	32731	35377	
197	0	33515	32851	32874	36231	29491	32655	32789	34679	
198	0	32812	32795	32769	36231	29303	32759	32743	33366	
199	0	32647	32758	32705	35109	30105	32741	32647	33031	
200	0	32631	32700	32703	32961	32079	32669	32751	32805	
201	0	32552	32687	32719	32255	33199	32537	32734	32642	
202	0	32460	32620	32871	30182	34794	32729	32656	32359	
203	0	31138	32813	32604	28459	36739	32716	32729	30191	
204	0	29469	32616	32728	27383	38065	32692	32692	28521	
205	0	28806	32399	33331	27318	38151	32789	32749	28295	
206	0	30374	32423	32823	29356	36182	32737	32758	30175	
207	0	31799	32515	32473	31071	34595	32758	32663	31721	
208	0	32845	32525	32719	32340	33358	32753	32765	32773	
209	0	33491	32543	32807	32811	32420	32775	32767	33307	
210	0	33807	32643	32911	33571	31813	32890	32647	33772	
211	0	33937	32633	32833	33997	31573	32839	32763	33975	
212	0	33853	32757	32775	33651	31613	32759	32775	33771	
213	0	33689	32740	32707	33623	31659	32791	32692	33739	
214	0	33634	32775	32683	33639	31719	32581	32767	33575	
215	0	33885	32679	32694	34091	31398	32655	32659	34075	
216	0	35463	32635	32667	35463	29951	32781	32731	35654	
217	0	33908	32581	32623	36300	29177	32701	32708	34754	
218	0	32871	32621	32730	36299	29063	32791	32703	33511	
219	0	32637	32711	32876	35282	29970	32839	32719	33071	
220	0	32647	32759	32775	33333	31874	32534	32687	32891	
221	0	32514	32719	32825	32103	33084	32639	32719	32719	
222	0	32421	32815	32970	30719	34669	32810	32666	32413	
223	0	31316	32812	33069	28626	36607	32751	32772	30335	
224	0	29410	32599	32855	27269	38020	32725	32718	28527	
225	0	29044	32438	33056	27554	37895	32736	32633	28478	
226	0	30342	32599	32657	29309	36443	32799	32771	30199	
227	0	32124	32767	32551	31191	34477	32807	32773	31831	
228	0	32791	32738	32743	32095	33388	32742	32681	32700	
229	0	33415	32692	32677	33012	32514	32917	32732	33342	
230	0	33757	32749	32623	33395	31903	32721	32687	33773	
231	0	33956	32687	32745	33799	31655	32655	32765	33989	
232	0	33835	32692	32655	33461	31642	32695	32717	33751	
233	0	33573	32631	32636	33625	31824	32851	32731	33585	
234	0	33499	32566	32703	33475	31732	32838	32739	33535	
235	0	33759	32568	32655	33811	31551	32567	32726	33829	
236	0	35245	32755	32647	35188	30181	32578	32770	35440	
237	0	33862	32742	32653	36321	29148	32834	32769	35015	
238	0	32868	32693	32759	36486	28923	33015	32679	33362	
239	0	32687	32724	32999	35533	29810	33019	32766	33091	
240	0	32584	32635	33006	33227	31862	32567	32727	32893	
241	0	32481	32694	32821	31933	33311	32555	32663	32655	
242	0	32369	32707	32745	30071	35199	32903	32740	32050	
243	0	30944	32567	32911	28231	36887	32873	32684	29957	
244	0	29460	32538	32822	27393	37895	32802	32783	28715	
245	0	28969	32602	33193	27436	37943	32630	32714	28558	
246	0	30411	32607	32587	29471	36359	32679	32676	30322	
247	0	32039	32655	32567	31301	34471	32358	32682	31934	
248	0	32856	32756	32708	32319	33245	32531	32705	32807	
249	0	33467	32763	32826	33143	32381	32630	32660	33351	
250	0	33654	32701	32647	33194	31983	32894	32759	33551	
251	0	33687	32612	32703	33644	31774	32923	32742	33731	
252	0	33969	32598	32669	33959	31461	32866	32775	34113	
253	0	34182	32519	32929	34229	31139	32903	32767	34253	
254	0	33789	32655	32677	33895	31399	32655	32758	33766	
255	0	33677	32631	32775	33973	31507	32865	32727	33632	
256	0	35004	32841	32788	35119	30439	32775	32679	35146	
257	0	33888	32925	32720	36120	29537	32582	32742	35159	
258	0	32894	32975	32643	36396	29129	32629	32645	33415	
259	0	32711	32887	32721	35523	29871	32735	32772	33111	
260	0	32605	32810	32723	32975	31826	32837	32724	32867	
261	0	32521	32695	32687	31743	33375	32675	32647	32636	
262	0	32472	32663	32687	30081	34938	32841	32753	32183	
263	0	31111	32754	32855	28560	36538	32841	32671	30231	
264	0	29292	32692	32711	27262	38162	32717	32759	28363	
265	0	28787	32612	33330	27548	38060	32791	32737	28343	
266	0	30477	32725	32739	29563	36213	32775	32767	30310	
267	0	31929	32553	32295	31385	34543	32655	32745	31789	
268	0	32987	32507	32614	32439	33103	32702	32761	32821	
269	0	33476	32511	32895	33036	32343	32718	32718	33447	
270	0	33819	32570	32805	33678	31819	32635	32630	33734	
271	0	33920	32767	32951	33827	31551	32709	32739	33959	
272	0	33769	32773	32789	33839	31582	32863	32754	33731	
273	0	33902	32722	32919	33599	31395	32693	32771	33954	
274	0	33595	32745	32845	33709	31699	32687	32760	33595	
275	0	33830	32709	32785	33963	31459	32751	32647	34039	
276	0	35276	32713	32603	35404	30093	32832	32749	35402	
277	0	33806	32555	32692	36069	29307	32620	32695	34704	
278	0	32788	32638	32583	36226	29106	32794	32764	33447	
279	0	32698	32719	32577	35265	30009	32683	32671	33095	
280	0	32596	32751	32659	33139	31916	32719	32746	32819	
281	0	32580	32847	32674	31986	33425	32629	32756	32644	
282	0	32411	32902	32739	30214	34863	32601	32658	32218	
283	0	31052	32751	32826	28468	36706	32743	32710	30133	
284	0	29377	32581	32858	27317	38012	32871	32647	28583	
285	0	29147	32427	33263	27569	37779	32864	32773	28807	
286	0	30506	32701	32859	29438	36141	32819	32729	30365	
287	0	31663	32716	32695	30727	34695	32807	32759	31527	
288	0	32742	32755	32695	32215	33335	32740	32773	32692	
289	0	33562	32719	32807	33211	32239	32855	32677	33549	
290	0	33787	32787	32638	33633	31878	32725	32701	33743	
291	0	34079	32807	32654	33774	31453	32647	32665	34090	
292	0	33772	32687	32615	33751	31623	32699	32719	33685	
293	0	33436	32527	32770	33503	31893	32803	32673	33459	
294	0	33772	32550	32850	33903	31517	32697	32757	33853	
295	0	34057	32769	32807	34262	31257	32821	32733	34174	
296	0	35198	32711	32580	35357	30223	32519	32661	35401	
297	0	33812	32679	32663	36004	29535	32783	32727	34591	
298	0	32842	32759	32647	36244	29247	32775	32679	33138	
299	0	32617	32717	32647	35130	29839	32930	32743	33003	
300	0	32581	32647	32738	33463	31610	32658	32738	32875	
301	0	32526	32647	32815	32047	33182	32655	32692	32743	
302	0	32376	32579	32804	29980	35118	32598	32724	32274	
303	0	30948	32550	32718	28015	36972	32607	32647	30047	
304	0	29199	32711	32694	27151	38255	32676	32756	28531	
305	0	28841	32613	33287	27491	38082	32679	32748	28495	
306	0	30557	32775	32665	29687	35994	32770	32647	30538	
307	0	31870	32749	32683	31033	34476	32723	32766	31818	
308	0	32391	32629	32647	31975	33735	32839	32772	32384	
309	0	33551	32639	32737	33295	32359	32809	32713	33571	
310	0	34453	32705	32647	34230	31311	32698	32740	34487	
311	0	34514	32561	32850	34507	31011	33012	32660	34341	
312	0	33845	32598	32843	33660	31393	32609	32733	33829	
313	0	33806	32647	32671	33732	31538	32668	32711	33815	
314	0	33508	32727	32754	33453	31781	32708	32684	33553	
315	0	33959	32813	32918	34199	31341	32685	32710	34254	
316	0	35613	32790	32771	35533	29814	32655	32739	35727	
317	0	33375	32839	32607	35959	29517	32783	32677	33831	
318	0	32764	32798	32551	36267	29316	32755	32738	33172	
319	0	32725	32802	32607	35207	30007	32706	32767	33024	
320	0	32590	32751	32741	33285	31799	32818	32723	32854	
321	0	32534	32734	32828	32050	33270	32714	32709	32726	
322	0	32400	32783	32759	29981	35097	32615	32773	32207	
323	0	30991	32756	32914	28022	37111	32772	32758	30119	
324	0	29396	32722	32805	27314	37908	32824	32633	28756	
325	0	28692	32615	33461	27345	38191	32808	32720	28332	
326	0	30175	32647	33007	29252	36342	32774	32775	30175	
327	0	31948	32628	32231	31294	34509	32599	32695	31877	
328	0	33167	32805	32583	32541	33067	32699	32733	33181	
329	0	33806	32726	32927	33447	32122	32711	32647	33710	
330	0	33882	32598	32979	33547	31743	32719	32734	33876	
331	0	33892	32549	32917	33716	31551	32771	32743	33949	
332	0	33804	32580	32797	33874	31561	32727	32679	33767	
333	0	33734	32566	32730	33703	31660	32759	32727	33772	
334	0	33432	32559	32775	33431	31889	32734	32743	33445	
335	0	33687	32605	32589	33734	31530	32647	32671	33735	
336	0	35197	32673	32615	35425	30203	32717	32741	35410	
337	0	34050	32733	32510	36070	29430	32781	32737	34303	
338	0	32848	32711	32575	36333	29375	32815	32691	33308	
339	0	32620	32764	32725	35231	29973	32725	32742	33058	
340	0	32561	32783	32833	33206	31772	32783	32751	32699	
341	0	32527	32754	32775	32031	33060	32899	32677	32646	
342	0	32451	32775	32748	30479	34723	32775	32731	32500	
343	0	31196	32737	32791	28577	36527	32775	32730	30465	
344	0	29399	32703	32852	27293	37882	32614	32748	28704	
345	0	28892	32831	33302	27438	37767	32663	32742	28623	
346	0	30523	32863	32700	29566	36173	32747	32669	30527	
347	0	32083	32769	32707	31415	34335	32639	32727	32113	
348	0	32698	32598	32810	32229	33373	32743	32669	32639	
349	0	33262	32567	32983	32893	32518	32839	32758	33243	
350	0	33734	32624	32731	33531	31867	32791	32727	33605	
351	0	33556	32631	32686	33575	31968	32657	32671	33655	
352	0	33889	32612	32809	33767	31581	32677	32735	33979	
353	0	33993	32741	32701	33988	31327	32775	32743	34003	
354	0	33669	32702	32669	33783	31575	32629	32667	33671	
355	0	33695	32711	32827	33908	31588	32647	32729	33757	
356	0	35313	32803	32807	35311	30128	32727	32679	35559	
357	0	33935	32679	32916	36183	29140	32823	32759	34263	
358	0	32893	32673	32815	36188	29255	32751	32757	33317	
359	0	32642	32716	32775	35289	30082	32734	32644	32977	
360	0	32519	32807	32843	33278	31685	32767	32772	32746	
361	0	32497	32773	32703	31823	33359	32764	32804	32699	
362	0	32374	32686	32747	30228	34903	32738	32684	32340	
363	0	31134	32562	32968	28482	36676	32697	32720	30441	
364	0	29521	32481	32609	27518	37837	32818	32687	28834	
365	0	28684	32536	33303	27183	38333	32751	32775	28257	
366	0	29838	32715	33078	28959	36809	32647	32749	29821	
367	0	31945	32679	32045	31190	34578	32658	32671	31909	
368	0	33221	32703	32754	32495	32933	32813	32734	33197	
369	0	33782	32638	32643	33364	32018	32723	32711	33782	
370	0	33850	32575	32635	33511	31797	32844	32741	33743	
371	0	33871	32627	32631	33735	31623	32827	32655	33959	
372	0	34017	32709	32671	34035	31447	32743	32743	33991	
373	0	33969	32756	32699	33903	31354	32699	32757	33951	
374	0	33529	32754	32749	33665	31719	32797	32667	33533	
375	0	33745	32687	32763	33858	31551	32829	32735	33920	
376	0	35247	32621	32671	35473	30162	32617	32681	35462	
377	0	33711	32538	32601	35935	29403	32642	32721	34178	
378	0	32797	32606	32705	36372	29139	32647	32767	33239	
379	0	32640	32697	32743	35378	29975	32806	32695	32861	
380	0	32554	32617	32733	33015	32037	32855	32775	32799	
381	0	32519	32589	32783	31918	33183	32885	32738	32675	
382	0	32477	32581	32985	30429	34879	32747	32694	32420	
383	0	31116	32535	33095	28412	36743	32621	32695	30419	
384	0	29239	32685	32911	27164	37974	32647	32751	28502	
385	0	28898	32714	33383	27383	38178	32755	32679	28531	
386	0	30444	32754	32871	29345	36365	32695	32743	30365	
387	0	32140	32774	32359	31343	34382	32630	32718	32039	
388	0	33217	32787	32567	32671	33012	32739	32752	33242	
389	0	33735	32860	32807	33508	32119	32761	32731	33583	
390	0	33719	32855	32580	33374	31875	32761	32639	33773	
391	0	34035	32743	32669	33881	31435	32703	32748	34043	
392	0	33990	32599	32647	33927	31447	32743	32758	33999	
393	0	33624	32605	32484	33579	31562	32894	32663	33653	
394	0	33316	32679	32767	33328	32005	32706	32738	33243	
395	0	33522	32734	32947	33600	31811	32676	32679	33766	
396	0	35197	32658	32858	35135	30223	32729	32756	35319	
397	0	33671	32783	32671	36103	29420	32781	32758	34268	
398	0	32798	32727	32733	36263	29242	32700	32751	33147	
399	0	32670	32535	32773	35310	29935	32703	32758	32991	
400	0	32638	32719	32712	33241	31788	32694	32694	32756	
401	0	32588	32789	32773	31785	33357	32766	32770	32763	
402	0	32488	32755	32887	30279	34872	32767	32681	32405	
403	0	31195	32702	32935	28699	36538	32761	32716	30620	
404	0	29488	32502	32843	27330	37798	32793	32663	28730	
405	0	28706	32548	33365	27266	38255	32785	32730	28366	
406	0	30117	32755	33027	29188	36621	32703	32647	30095	
407	0	31866	32750	32135	31150	34637	32775	32695	31846	
408	0	33088	32630	32524	32479	33030	32787	32662	33111	
409	0	33773	32757	32843	33347	32173	32622	32759	33652	
410	0	33721	32709	32733	33687	31959	32724	32694	33711	
411	0	33726	32738	32913	33741	31843	32750	32758	33719	
412	0	33993	32685	32802	34088	31350	32733	32699	34093	
413	0	34078	32590	32735	34060	31281	32851	32769	34063	
414	0	33851	32789	32723	33783	31489	32723	32623	33895	
415	0	33630	32690	32703	33775	31606	32764	32749	33714	
416	0	35066	32711	32596	35159	30342	32802	32699	35243	
417	0	33735	32641	32743	35967	29607	32647	32730	34074	
418	0	32854	32629	32743	36159	29261	32645	32647	33255	
419	0	32688	32749	32767	35370	29983	32834	32748	32994	
420	0	32631	32807	32731	33175	31783	32719	32671	32791	
421	0	32543	32743	32597	31959	33153	32749	32723	32685	
422	0	32494	32646	32804	30511	34791	32775	32646	32487	
423	0	31252	32508	32818	28540	36419	32766	32737	30580	
424	0	29528	32535	32630	27352	37893	32827	32751	28759	
425	0	28621	32793	33421	27140	38167	32692	32767	28300	
426	0	30354	32745	32914	29314	36391	32622	32743	30343	
427	0	32018	32759	32391	31354	34519	32679	32663	31931	
428	0	32771	32723	32727	32448	33373	32641	32735	32815	
429	0	33369	32703	32747	33103	32508	32647	32643	33327	
430	0	33812	32676	32782	33668	31903	32884	32711	33842	
431	0	33943	32703	32723	33879	31561	32775	32659	33827	
432	0	33916	32679	32807	33666	31415	32901	32727	33937	
433	0	34083	32727	33003	34047	31319	32823	32694	34002	
434	0	33607	32719	32874	33661	31655	32711	32751	33591	
435	0	33620	32567	32786	33727	31575	32773	32759	33757	
436	0	35256	32711	32791	35318	30158	32625	32757	35481	
437	0	33746	32823	32769	36066	29474	32692	32775	34071	
438	0	32817	32791	32551	35759	29458	32910	32704	33321	
439	0	32692	32759	32529	35182	30115	32642	32716	33003	
440	0	32626	32839	32633	33366	31842	32735	32653	32799	
441	0	32584	32631	32735	31969	33287	32663	32723	32655	
442	0	32454	32587	32598	30453	34845	32558	32663	32466	
443	0	31219	32738	32765	28658	36255	32677	32747	30695	
444	0	29452	32679	32799	27559	37809	32739	32658	28802	
445	0	28577	32647	33457	27324	38257	32817	32769	28303	
446	0	30177	32693	32963	29391	36554	32787	32709	30143	
447	0	31857	32611	32253	31225	34583	32861	32759	31879	
448	0	32796	32519	32679	32281	33267	32887	32723	32787	
449	0	33709	32509	32935	33181	32102	32711	32671	33721	
450	0	34246	32599	32855	34054	31524	32707	32727	34242	
451	0	34404	32756	32505	34255	31119	32913	32739	34391	
452	0	34289	32755	32647	34287	31095	32453	32659	34295	
453	0	33871	32775	32679	34005	31359	32427	32742	33798	
454	0	33535	32796	32799	33509	31674	32952	32757	33463	
455	0	33370	32699	32655	33489	31798	32822	32745	33513	
456	0	34897	32547	32873	34875	30531	32860	32653	35052	
457	0	33552	32617	32858	35705	29791	32655	32742	33763	
458	0	32742	32733	32775	36066	29439	32655	32663	33145	
459	0	32563	32700	32775	35042	30071	32603	32726	32903	
460	0	32525	32660	32731	33140	31810	32875	32676	32749	
461	0	32477	32737	32623	31815	33316	32761	32751	32546	
462	0	32386	32633	32710	30300	34937	32879	32658	32426	
463	0	31135	32607	33004	28676	36524	32807	32785	30528	
464	0	29165	32805	32830	27195	38039	32714	32716	28539	
465	0	28866	32695	33415	27543	38023	32731	32743	28653	
466	0	30548	32775	32948	29775	36009	32726	32677	30541	
467	0	32226	32487	32729	31586	34193	32863	32724	32086	
468	0	33028	32719	32764	32647	33058	32742	32663	33026	
469	0	33630	32663	32679	33159	32215	32815	32749	33573	
470	0	33792	32762	32739	33415	31811	32686	32687	33719	
471	0	34012	32757	32751	33971	31543	32589	32735	34034	
472	0	33957	32630	32667	33887	31483	32631	32703	33934	
473	0	33332	32527	32621	33375	31837	32808	32775	33271	
474	0	33307	32560	32583	33138	31897	32785	32755	33319	
475	0	33550	32742	32487	33626	31623	32786	32690	33819	
476	0	35055	32739	32591	35120	30319	32638	32743	35245	
477	0	34710	32711	32607	35997	29553	32646	32668	34069	
478	0	32892	32727	32711	36063	29207	32576	32754	33285	
479	0	32694	32719	32871	35799	29649	32747	32736	33211	
480	0	32590	32710	32869	33671	31417	32815	32771	32823	
481	0	32576	32711	32759	31831	33190	32723	32753	32795	
482	0	32501	32832	32861	30586	34708	32775	32687	32447	
483	0	31205	32751	32903	28650	36367	32644	32726	30810	
484	0	29420	32747	32711	27298	37887	32647	32642	28967	
485	0	28774	32795	33415	27314	38119	32701	32743	28653	
486	0	30343	32764	32900	29471	36411	32775	32727	30455	
487	0	31799	32548	32335	31153	34649	32819	32759	31807	
488	0	32524	32513	32685	31991	33615	32819	32754	32543	
489	0	33295	32751	32986	32755	32615	33033	32703	33318	
490	0	33879	32686	32783	33611	31789	32687	32763	33874	
491	0	34021	32679	32961	33993	31486	32712	32655	34063	
492	0	34004	32703	32871	33993	31445	33046	32731	33962	
493	0	33964	32735	32811	34101	31396	32671	32703	33882	
494	0	33470	32582	32707	33269	31816	32477	32763	33486	
495	0	33697	32582	32774	33780	31623	32731	32721	33767	
496	0	35455	32605	32671	35513	30047	32661	32693	35538	
497	0	34209	32659	32751	36397	29338	32719	32724	34049	
498	0	32903	32775	32735	36212	29191	32711	32718	33195	
499	0	32679	32785	32819	35327	29882	32895	32756	32955	
500	0	32557	32799	32645	33709	31380	32797	32766	32866	
501	0	32543	32700	32647	32511	32775	32627	32679	32749	
502	0	32479	32592	32839	30261	34758	32647	32767	32547	
503	0	31424	32533	32703	28598	36427	32749	32657	31074	
504	0	29932	32710	32754	27629	37548	32775	32728	29495	
505	0	29024	32749	33086	27350	38011	32788	32632	28818	
506	0	30098	32679	32809	29078	36573	32663	32751	30162	
507	0	31724	32594	32597	30801	34767	32711	32751	31731	
508	0	32714	32745	32742	31961	33527	32789	32757	32631	
509	0	33238	32596	32929	32885	32693	32827	32717	33194	
510	0	33516	32495	32871	33287	32175	32847	32772	33413	
511	0	33762	32516	32685	33725	31737	32971	32727	33795	
512	0	33794	32679	32556	33850	31607	32567	32733	33767	
513	0	33750	32742	32686	33925	31571	32789	32699	33751	
514	0	33639	32743	32731	33627	31637	32685	32743	33599	
515	0	34162	32666	32819	34379	31196	32795	32757	34239	
516	0	35212	32659	32805	35375	30179	32578	32671	35383	
517	0	33645	32813	32914	36075	29399	32559	32756	33555	
518	0	32790	32693	32903	36271	29183	32647	32775	33103	
519	0	32690	32790	32830	35443	29907	32723	32762	33011	
520	0	32615	32612	32805	33713	31415	32615	32783	32796	
521	0	32486	32583	32757	32113	32869	32765	32722	32767	
522	0	32451	32825	32647	30185	34880	32775	32679	32567	
523	0	31442	32747	32687	28351	36692	32743	32735	31009	
524	0	29946	32703	32610	27488	37775	32769	32634	29539	
525	0	29063	32665	33005	27338	37983	32722	32763	28905	
526	0	30534	32831	32476	29259	36332	32670	32767	30599	
527	0	32044	32727	32489	31188	34479	32708	32674	32003	
528	0	32873	32639	32748	32239	33251	32802	32743	32783	
529	0	33508	32540	32808	33135	32427	32861	32727	33509	
530	0	33744	32519	33023	33587	32044	32797	32690	33783	
531	0	33711	32646	32795	33439	31851	32758	32749	33687	
532	0	33566	32754	32727	33429	31858	32775	32687	33679	
533	0	33497	32687	32863	33616	31722	32715	32751	33493	
534	0	33407	32733	32877	33489	31847	32679	32682	33413	
535	0	33700	32708	32887	33956	31565	32628	32766	33858	
536	0	35223	32743	32631	35314	30122	32687	32743	35275	
537	0	33407	32756	32617	35891	29556	32821	32620	33495	
538	0	32807	32679	32723	36112	29410	32788	32757	33114	
539	0	32711	32629	32826	35318	29863	32727	32775	32819	
540	0	32597	32581	32869	33775	31423	32679	32637	32775	
541	0	32497	32605	32739	32564	32564	32829	32748	32638	
542	0	32470	32587	32637	30802	34347	32775	32751	32527	
543	0	32070	32647	32703	28777	36177	32678	32687	31791	
544	0	30270	32690	32719	27524	37639	32673	32727	29757	
545	0	29458	32775	32806	27540	37780	32749	32655	29244	
546	0	30540	32679	32671	29191	36347	32727	32743	30558	
547	0	31810	32703	32941	30907	34853	32695	32661	31833	
548	0	32668	32709	32689	32070	33586	32762	32759	32641	
549	0	33276	32644	32683	32836	32762	32716	32765	33235	
550	0	33316	32631	32519	33195	32285	32663	32643	33349	
551	0	33587	32601	32578	33455	32007	32799	32738	33555	
552	0	33831	32519	32662	33626	31659	32898	32720	33794	
553	0	33692	32563	32614	33655	31731	32703	32679	33654	
554	0	33316	32638	32747	33343	31861	32727	32727	33268	
555	0	33255	32764	32629	33477	31924	32695	32725	33423	
556	0	34738	32739	32834	34759	30592	32767	32721	34838	
557	0	33787	32755	32631	35643	29733	32822	32694	33695	
558	0	32768	32669	32711	36070	29302	32660	32658	33159	
559	0	32695	32738	32862	35516	29877	32700	32738	32874	
560	0	32575	32692	32956	33260	31843	32737	32695	32781	
561	0	32483	32572	32834	32451	33007	32745	32731	32611	
562	0	32493	32646	32919	30567	34603	32769	32708	32493	
563	0	31476	32674	32969	28828	36110	32695	32783	31092	
564	0	29801	32684	32616	27698	37455	32758	32790	29465	
565	0	28953	32833	33227	27561	37941	32799	32698	28823	
566	0	30116	32731	33052	29293	36647	32690	32690	30259	
567	0	31637	32570	32471	30868	34817	32662	32669	31767	
568	0	32900	32615	32239	32343	33303	32863	32735	32903	
569	0	33373	32719	32516	32823	32419	32796	32765	33397	
570	0	33878	32725	32885	33499	31815	32727	32705	33799	
571	0	33947	32808	32647	33615	31559	32577	32720	33927	
572	0	33504	32739	33097	33524	31811	32734	32677	33526	
573	0	33685	32733	32863	33755	31623	32681	32725	33780	
574	0	33671	32615	32977	33795	31553	32735	32694	33735	
575	0	33655	32517	32807	33670	31567	32763	32769	33710	
576	0	34962	32679	32923	35165	30389	32756	32738	35207	
577	0	35383	32739	32813	36179	29449	32628	32775	34113	
578	0	33065	32662	32782	36395	29220	32719	32683	33319	
579	0	32753	32700	32931	35631	29879	32755	32749	33026	
580	0	32706	32812	32804	33605	31566	32669	32710	32913	
581	0	32556	32799	32759	31964	33147	32901	32687	32748	
582	0	32481	32596	32881	30609	34627	32877	32775	32527	
583	0	31124	32647	32683	28767	36332	32459	32683	30948	
584	0	29314	32828	32579	27492	37617	32603	32739	29203	
585	0	28730	32713	33455	27456	37739	32807	32711	28675	
586	0	30118	32644	33155	29302	36321	32793	32743	30299	
587	0	32002	32647	32155	31130	34362	32695	32711	32135	
588	0	32835	32628	32402	32388	33221	32765	32756	32860	
589	0	33287	32493	32503	33063	32570	32622	32701	33308	
590	0	33587	32615	32541	33411	32052	32791	32751	33593	
591	0	33910	32705	32506	33934	31631	32684	32687	34054	
592	0	34136	32639	32684	34157	31281	32694	32759	34033	
593	0	33679	32692	32839	33862	31603	32809	32735	33586	
594	0	33397	32543	32751	33293	31785	32706	32767	33327	
595	0	33431	32562	32835	33434	31835	32613	32759	33509	
596	0	34804	32647	32791	34951	30615	32615	32631	34991	
597	0	35892	32790	32768	35935	29567	32729	32765	34371	
598	0	33299	32685	32730	36494	29163	32713	32719	33274	
599	0	32791	32636	32738	35747	29735	32713	32761	32941	
600	0	32636	32791	32687	33926	31163	32817	32698	32852	
601	0	32587	32765	32712	32046	33060	32781	32756	32660	
602	0	32444	32599	32797	30331	34855	32809	32751	32507	
603	0	31225	32633	32884	29043	36222	32844	32748	31205	
604	0	29383	32760	32855	27655	37599	32708	32737	29327	
605	0	28765	32743	33495	27549	37631	32839	32741	28831	
606	0	30036	32701	33091	29175	36404	32749	32726	30281	
607	0	31719	32687	32375	31073	34535	32767	32756	31879	
608	0	32615	32589	32415	32170	33463	32741	32770	32691	
609	0	33249	32598	32532	32950	32607	32675	32678	33279	
610	0	33497	32565	32503	33143	32177	32695	32703	33567	
611	0	33730	32739	32652	33511	31746	32855	32675	33701	
612	0	33896	32735	32762	33725	31514	32671	32717	33909	
613	0	34073	32786	32855	34055	31236	32839	32679	34035	
614	0	33687	32775	33075	33623	31567	32740	32703	33666	
615	0	33568	32681	32919	33635	31682	32706	32645	33692	
616	0	34912	32611	32950	35075	30509	32775	32724	35143	
617	0	35572	32636	32891	35661	29555	32929	32751	33776	
618	0	33104	32626	32819	36487	29079	32632	32671	33133	
619	0	32695	32659	32789	35709	29690	32702	32731	32919	
620	0	32631	32791	32663	33597	31644	32725	32663	32885	
621	0	32550	32775	32804	32319	33007	32679	32748	32668	
622	0	32409	32729	32887	30471	34875	32897	32687	32592	
623	0	31143	32799	32773	28551	36358	32647	32765	31054	
624	0	29386	32764	32709	27365	37698	32788	32761	29439	
625	0	28608	32431	33415	27307	38199	32775	32679	28695	
626	0	30098	32579	32946	29292	36500	32754	32739	30405	
627	0	31889	32675	32132	31162	34541	32697	32668	32062	
628	0	32862	32638	32622	32403	33279	32623	32756	32962	
629	0	33445	32706	32787	33031	32471	32754	32759	33415	
630	0	33594	32601	32623	33330	32103	32659	32713	33575	
631	0	33807	32775	32875	33587	31695	32727	32727	33665	
632	0	33773	32677	32885	33671	31570	32700	32705	33791	
633	0	33660	32759	32719	33701	31623	32753	32743	33583	
634	0	33499	32495	32673	33573	31695	32799	32686	33505	
635	0	33702	32817	32762	33511	31526	32693	32755	33756	
636	0	35217	32787	32676	35244	30263	32791	32742	35293	
637	0	34934	32826	32690	36259	29302	32725	32789	33790	
638	0	33055	32739	32759	36199	29219	32715	32775	33135	
639	0	32735	32567	32775	35543	29988	32743	32711	32961	
640	0	32591	32499	32733	33235	31895	32807	32738	32903	
641	0	32489	32716	32790	31799	33431	32719	32644	32751	
642	0	32412	32717	32917	30551	34925	32707	32735	32567	
643	0	30932	32775	32931	28676	36713	32713	32692	30647	
644	0	28870	32665	32943	27353	38007	32852	32733	28686	
645	0	28518	32756	33679	27363	38109	32767	32654	28571	
646	0	30235	32775	33221	29382	36071	32727	32708	30391	
647	0	31901	32663	32443	31391	34362	32818	32706	32013	
648	0	32984	32695	32546	32543	33007	32647	32734	33053	
649	0	34040	32775	32725	33786	31867	32631	32733	34118	
650	0	34604	32738	32642	34135	31118	32679	32689	34587	
651	0	34711	32587	32557	34455	30879	32715	32759	34610	
652	0	34578	32635	32488	34380	30813	32711	32711	34494	
653	0	34120	32705	32487	34073	31103	32771	32727	34009	
654	0	33782	32759	32508	33671	31424	32727	32679	33730	
655	0	33741	32647	32708	33821	31503	32775	32743	33689	
656	0	34611	32631	32621	34863	30445	32711	32750	34311	
657	0	32903	32631	32598	35805	29591	32738	32685	33063	
658	0	32647	32662	32407	36009	29205	32640	32733	32927	
659	0	32535	32551	32402	35789	29493	32676	32647	32737	
660	0	32588	32454	32511	33943	31070	32719	32789	32483	
661	0	32505	32556	32615	32207	32550	32775	32756	32399	
662	0	32428	32516	32609	30450	34228	32685	32687	32305	
663	0	32377	32607	32694	28623	36359	32658	32739	32194	
664	0	31364	32503	32767	27727	37345	32714	32690	30727	
665	0	30363	32412	32666	27486	37575	32683	32727	29810	
666	0	31090	32607	32721	29075	36373	32775	32711	30847	
667	0	32269	32493	32753	30699	34564	32943	32754	32071	
668	0	33194	32495	32763	31991	33255	32643	32756	33119	
669	0	34131	32639	32695	33479	32073	32689	32695	34060	
670	0	34319	32747	32597	33831	31519	32775	32703	34287	
671	0	32799	32679	32723	33911	31407	32675	32645	33356	
672	0	32622	32711	32763	33679	31351	32630	32719	33003	
673	0	32560	32731	32903	33799	31549	32757	32711	33004	
674	0	32592	32883	33031	33349	32082	32819	32709	32775	
675	0	32644	32807	32943	32721	32902	32710	32751	32786	
676	0	32549	32743	33122	34191	31815	32612	32671	32699	
677	0	32595	32827	33184	34787	30983	32767	32702	32645	
678	0	32551	32850	33183	34965	30783	32669	32662	32582	
679	0	32534	32819	33303	34151	31783	32711	32738	32583	
680	0	32594	32877	33236	32263	33490	32701	32737	32573	
681	0	32496	32991	33223	31483	34485	32686	32788	32433	
682	0	32438	32897	33159	29693	35917	32595	32730	32492	
683	0	30683	32694	33047	27579	37919	32767	32658	30733	
684	0	28752	32668	33607	26613	38948	32892	32738	29114	
685	0	28341	32666	34477	26966	38739	32938	32773	28735	
686	0	29745	32723	34205	28985	36947	32812	32679	30262	
687	0	31337	32719	33270	30927	35181	32783	32751	31668	
688	0	32434	32839	32647	32079	33723	32695	32743	32674	
689	0	33460	32796	32087	33331	32500	32721	32679	33434	
690	0	34012	32799	31709	33751	31591	32755	32706	34035	
691	0	34157	32757	31691	34134	31203	32775	32647	34159	
692	0	34226	32703	31705	34287	31087	32852	32685	34063	
693	0	34505	32751	32059	34391	30790	32787	32763	34354	
694	0	34324	32701	32443	34437	30839	32701	32661	34151	
695	0	34207	32546	32655	34367	30838	32751	32751	34267	
696	0	35519	32663	32783	35663	29703	32653	32775	35535	
697	0	36299	32635	32668	36231	28958	32799	32698	35588	
698	0	35969	32557	32730	36754	28661	32793	32743	33767	
699	0	33490	32638	32855	36230	28999	32692	32745	33335	
700	0	33004	32717	32895	34562	30531	32697	32676	33133	
701	0	32741	32771	32692	32823	32190	32799	32719	32865	
702	0	32544	32743	32773	30991	33697	32834	32671	32713	
703	0	30811	32692	32661	29015	35869	32756	32775	31068	
704	0	28797	32598	32941	27652	37427	32762	32740	29063	
705	0	28744	32637	33807	27975	37462	32765	32687	29019	
706	0	30228	32591	33151	29799	35869	32711	32755	30647	
707	0	31915	32501	32255	31442	34093	32743	32647	32199	
708	0	32540	32775	32527	32274	33271	32791	32748	32610	
709	0	33270	32747	32846	33111	32445	32658	32703	33423	
710	0	33630	32671	32823	33535	31956	32775	32681	33665	
711	0	33570	32605	32670	33423	31874	32829	32647	33495	
712	0	33741	32692	32759	33670	31591	32739	32771	33731	
713	0	33833	32711	32729	33819	31613	32615	32740	33716	
714	0	33618	32621	32819	33585	31739	32707	32684	33579	
715	0	33766	32506	32715	33917	31535	32767	32748	33874	
716	0	34951	32563	32647	34871	30433	32655	32661	34994	
717	0	35536	32699	32595	35519	29774	32784	32748	33589	
718	0	33111	32686	32699	35839	29586	32717	32670	32957	
719	0	32694	32662	32722	35167	30129	32647	32715	32869	
720	0	32577	32815	32534	33307	31751	32715	32686	32647	
721	0	32538	32703	32689	32004	33191	32718	32749	32598	
722	0	32351	32665	32895	30367	34623	32703	32735	32482	
723	0	30877	32493	33036	28786	36409	32759	32680	31090	
724	0	29386	32534	32895	27904	37383	32804	32733	29727	
725	0	28740	32522	33527	27521	37511	32774	32725	29001	
726	0	29816	32559	33277	29005	36565	32756	32699	30231	
727	0	31529	32769	32531	31017	34813	32734	32739	31798	
728	0	32436	32725	32199	32097	33549	32855	32773	32583	
729	0	33364	32703	32455	33157	32439	32669	32741	33469	
730	0	33560	32739	32599	33260	32011	32695	32647	33593	
731	0	33458	32748	32783	33317	32005	32791	32759	33423	
732	0	34123	32740	32903	33995	31378	32711	32732	34116	
733	0	34145	32647	32865	34107	31330	32735	32766	34069	
734	0	33611	32647	32707	33436	31610	32726	32718	33471	
735	0	33832	32515	32903	33890	31509	32743	32692	33889	
736	0	35021	32578	32757	35013	30427	32775	32751	35094	
737	0	35712	32613	32769	36051	29617	32671	32734	33549	
738	0	33148	32655	32799	36708	29100	32759	32770	33027	
739	0	32692	32679	32763	35767	29651	32786	32749	32847	
740	0	32595	32705	32788	33703	31586	32541	32685	32773	
741	0	32522	32711	32801	31647	33399	32685	32743	32567	
742	0	32378	32679	32759	30399	34647	32871	32658	32579	
743	0	31165	32809	32735	28734	36354	32718	32713	31433	
744	0	29318	32788	32677	27423	37742	32802	32647	29525	
745	0	28700	32655	33622	27318	38044	32825	32741	28995	
746	0	29913	32570	33364	29033	36603	32730	32695	30333	
747	0	31618	32567	32540	31015	34795	32717	32734	31858	
748	0	32577	32702	32097	31930	33447	32763	32743	32683	
749	0	33098	32726	32591	32763	32703	32717	32695	33215	
750	0	33602	32695	32950	33523	32119	32734	32765	33635	
751	0	33698	32699	32919	33663	31850	32799	32655	33703	
752	0	33816	32727	32891	33692	31661	32577	32750	33794	
753	0	33982	32740	32959	33831	31391	32775	32679	33927	
754	0	33683	32619	32713	33671	31542	32727	32706	33566	
755	0	33888	32623	32612	33859	31359	32700	32677	33913	
756	0	35097	32687	32632	35231	30325	32749	32748	35199	
757	0	35644	32786	32674	35887	29699	32723	32671	33563	
758	0	33197	32655	32679	36247	29175	32693	32775	33095	
759	0	32768	32759	32627	35972	29477	32743	32707	32886	
760	0	32646	32715	32517	34327	30950	32678	32690	32786	
761	0	32603	32669	32794	32135	33001	32679	32731	32633	
762	0	32533	32602	32703	30727	34575	32751	32685	32558	
763	0	31644	32575	32685	29034	35815	32848	32748	32087	
764	0	29364	32476	32860	27166	37876	32815	32710	29541	
765	0	28239	32518	33825	26754	38562	32767	32663	28527	
766	0	29856	32509	33445	28839	36795	32787	32753	30268	
767	0	31751	32621	32495	31007	34614	32796	32762	32058	
768	0	32884	32719	32495	32363	33257	32773	32687	33084	
769	0	33478	32726	32674	33095	32399	32703	32775	33607	
770	0	33721	32677	32869	33567	31949	32769	32763	33783	
771	0	33771	32674	32599	33639	31830	32671	32771	33815	
772	0	33730	32523	32703	33615	31670	32735	32791	33731	
773	0	33856	32711	32812	33771	31519	32691	32714	33810	
774	0	33562	32676	32786	33607	31767	32759	32734	33389	
775	0	33579	32719	32699	33748	31732	32807	32711	33623	
776	0	34927	32765	32708	34995	30455	32739	32758	34630	
777	0	35313	32775	32698	36001	29616	32628	32794	33269	
778	0	33104	32635	32838	35931	29359	32698	32659	32927	
779	0	32736	32525	32845	35269	29879	32794	32719	32791	
780	0	32522	32684	32815	33223	31695	32943	32681	32730	
781	0	32423	32743	32871	31978	33023	32710	32711	32611	
782	0	32432	32783	32742	30870	34298	32638	32659	32519	
783	0	31150	32841	32970	28810	36206	32734	32759	31692	
784	0	29328	32874	32735	27318	37790	32599	32647	29620	
785	0	28629	32735	33592	27376	38004	32683	32747	28892	
786	0	29826	32635	33383	29087	36743	32789	32750	30261	
787	0	31716	32465	32455	31127	34639	32668	32671	31935	
788	0	32742	32797	32343	32377	33309	32751	32751	32927	
789	0	33490	32661	32749	33159	32283	32705	32765	33563	
790	0	33922	32821	32695	33635	31761	32751	32773	33975	
791	0	34084	32727	32669	34021	31475	32671	32687	34109	
792	0	33662	32623	32535	33639	31708	32661	32743	33575	
793	0	33862	32676	32647	33911	31575	32775	32691	33799	
794	0	33943	32745	32762	33983	31378	32727	32772	33961	
795	0	33815	32743	32815	33855	31419	32815	32717	33750	
796	0	34636	32727	32855	34609	30621	32860	32749	34437	
797	0	35256	32708	32851	35714	29735	32749	32663	33202	
798	0	33043	32701	32831	36250	29287	32754	32711	33003	
799	0	32732	32573	32756	35794	29609	32715	32681	32711	
800	0	32660	32529	32671	33644	31447	32623	32775	32685	
801	0	32525	32598	32701	31858	33110	32764	32742	32609	
802	0	32351	32762	32599	30536	34671	32807	32698	32570	
803	0	31191	32706	32703	28801	36337	32767	32712	31839	
804	0	29617	32717	32706	27666	37521	32773	32675	29974	
805	0	28727	32729	33471	27343	37970	32761	32749	29034	
806	0	29919	32775	33199	29017	36732	32767	32740	30307	
807	0	31632	32799	32437	30918	34795	32701	32679	31910	
808	0	32655	32642	32383	32210	33383	32749	32751	32892	
809	0	33337	32541	32684	32900	32471	32859	32660	33403	
810	0	33582	32603	32721	33317	32083	32711	32751	33682	
811	0	33824	32736	32654	33714	31751	32701	32725	33766	
812	0	33821	32727	32731	33671	31623	32816	32759	33792	
813	0	33775	32615	32871	33691	31567	32695	32762	33671	
814	0	33429	32660	32786	33500	31789	32682	32681	33373	
815	0	33685	32847	32806	33807	31517	32711	32730	33728	
816	0	35102	32679	32738	35255	30332	32601	32663	34861	
817	0	35711	32647	32817	35719	29603	32735	32719	33415	
818	0	33164	32647	32852	35861	29399	32799	32671	33062	
819	0	32724	32695	32799	35655	29746	32691	32775	32855	
820	0	32612	32743	32895	33943	31222	32828	32734	32783	
821	0	32630	32620	32725	32231	33025	32687	32771	32557	
822	0	32505	32673	32699	30239	34796	32666	32753	32687	
823	0	31623	32685	32647	29686	35547	32745	32645	32311	
824	0	29887	32601	32666	28056	37071	32749	32716	30303	
825	0	28957	32569	33268	27668	37767	32756	32655	29276	
826	0	29849	32607	33147	29075	36615	32845	32756	30278	
827	0	31273	32741	32606	30656	35047	32661	32736	31621	
828	0	32383	32759	32514	31985	33671	32679	32783	32553	
829	0	33096	32743	32921	32795	32775	32769	32725	33221	
830	0	33297	32727	32786	33183	32321	32759	32662	33257	
831	0	33476	32787	32647	33255	31987	32687	32743	33415	
832	0	33743	32748	32743	33542	31687	32665	32799	33757	
833	0	33782	32667	32619	33621	31608	32647	32642	33637	
834	0	33548	32695	32686	33502	31815	32786	32747	33497	
835	0	33538	32733	32635	33556	31647	32791	32760	33547	
836	0	34876	32748	32607	35097	30500	32718	32666	35003	
837	0	35966	32679	32623	35819	29467	32679	32731	33564	
838	0	33423	32519	32734	36143	29203	32809	32647	33018	
839	0	32842	32603	32727	35839	29607	32711	32730	32911	
840	0	32732	32817	32708	33893	31252	32694	32691	32736	
841	0	32573	32714	32663	32135	32994	32911	32759	32737	
842	0	32430	32726	32946	31031	34201	32771	32647	32543	
843	0	31348	32535	32759	29005	36015	32874	32751	32014	
844	0	29429	32541	32751	27588	37511	32903	32740	29971	
845	0	28502	32568	33553	27326	37895	32538	32702	29063	
846	0	29729	32575	33332	28935	36741	32479	32725	30390	
847	0	31562	32707	32441	30982	34810	32771	32668	31957	
848	0	32591	32658	32409	32293	33563	32676	32749	32868	
849	0	33309	32704	32725	32997	32615	32690	32771	33478	
850	0	33355	32692	32562	32993	32255	32758	32686	33223	
851	0	33558	32668	32666	33511	32027	32807	32740	33549	
852	0	33701	32698	32844	33575	31797	32678	32703	33724	
853	0	33788	32655	32671	33843	31671	32671	32763	33730	
854	0	33757	32676	32639	33695	31631	32646	32714	33645	
855	0	33676	32803	32827	33714	31535	32621	32679	33639	
856	0	35117	32806	32831	35220	30343	32639	32742	34945	
857	0	36033	32757	32775	35943	29444	32787	32679	33346	
858	0	33449	32698	32783	36415	28959	32831	32751	33106	
859	0	32869	32687	32847	36041	29245	32791	32719	32958	
860	0	32742	32678	32831	34074	31066	32765	32663	32743	
861	0	32567	32759	32874	32421	32749	32795	32695	32686	
862	0	32487	32727	32941	30982	34102	32871	32732	32591	
863	0	31477	32690	32698	28847	36280	32720	32677	32211	
864	0	29389	32889	32632	27224	37916	32679	32764	29977	
865	0	28340	32802	33587	26944	38176	32702	32758	28868	
866	0	29778	32503	33285	28863	36839	32739	32662	30479	
867	0	31655	32621	32363	30973	34863	32691	32726	32020	
868	0	32607	32619	32207	31967	33552	32742	32662	32886	
869	0	33344	32757	32701	33018	32617	32763	32743	33447	
870	0	33734	32699	32847	33523	31903	32729	32713	33875	
871	0	33828	32679	32807	33652	31759	32775	32720	33811	
872	0	33776	32679	32647	33807	31742	32797	32755	33742	
873	0	33721	32639	32754	33595	31709	32767	32703	33607	
874	0	33607	32738	32687	33543	31665	32709	32687	33503	
875	0	33526	32761	32807	33615	31773	32731	32761	33503	
876	0	34905	32764	32783	34836	30561	32837	32663	34102	
877	0	35622	32740	32735	35782	29771	32774	32743	33191	
878	0	33343	32543	32626	35940	29326	32724	32743	32903	
879	0	32871	32551	32745	35643	29751	32717	32671	32794	
880	0	32700	32573	32795	33868	31479	32785	32733	32615	
881	0	32455	32583	32846	32179	32983	32678	32656	32623	
882	0	32448	32775	32700	30575	34627	32710	32775	32543	
883	0	31204	32671	32719	29063	35971	32660	32751	32196	
884	0	29417	32866	32717	27697	37498	32807	32672	30135	
885	0	28508	32660	33678	27271	37957	32711	32749	29015	
886	0	29648	32629	33618	28861	36725	32711	32743	30247	
887	0	31132	32595	32959	30526	34941	32787	32687	31623	
888	0	32543	32567	32087	32143	33391	32865	32730	32829	
889	0	33502	32706	32103	33106	32383	32607	32634	33737	
890	0	33895	32785	32591	33666	31852	32631	32737	33883	
891	0	33825	32561	32711	33820	31727	32857	32647	33727	
892	0	33884	32687	32775	33850	31587	32714	32717	33706	
893	0	33978	32775	32643	33854	31455	32753	32668	33963	
894	0	34049	32735	32571	33974	31266	32679	32708	33955	
895	0	33767	32711	32627	33855	31388	32621	32671	33735	
896	0	35021	32690	32678	35039	30429	32723	32763	33647	
897	0	35708	32628	32701	36047	29556	32873	32749	33142	
898	0	33159	32534	32641	35787	29455	32677	32791	32923	
899	0	32786	32575	32668	35497	29799	32642	32764	32829	
900	0	32637	32543	32800	34159	31165	32767	32645	32767	
901	0	32586	32575	32797	32301	32940	32700	32781	32581	
902	0	32402	32715	32997	30620	34569	32617	32745	32525	
903	0	31179	32713	33069	28845	36230	32726	32626	32164	
904	0	29425	32583	33003	27465	37588	32775	32759	30319	
905	0	28530	32617	33606	27223	38125	32817	32765	29236	
906	0	29588	32591	33499	28767	36871	32734	32655	30372	
907	0	31413	32727	32667	30764	34926	32731	32765	31879	
908	0	32562	32733	32435	32141	33593	32863	32772	32829	
909	0	33241	32699	32605	32879	32626	32772	32687	33398	
910	0	33508	32775	32519	33215	32103	32668	32726	33567	
911	0	33819	32741	32487	33749	31685	32739	32673	33855	
912	0	33922	32642	32539	33895	31550	32707	32720	33911	
913	0	33730	32583	32759	33591	31662	32711	32726	33550	
914	0	33615	32535	32783	33658	31734	32751	32671	33543	
915	0	33831	32591	32806	33918	31495	32796	32741	33703	
916	0	34788	32747	32743	35031	30567	32661	32663	33844	
917	0	35772	32834	32817	35737	29657	32727	32727	33125	
918	0	33437	32756	32971	36359	29131	32787	32647	32915	
919	0	32858	32749	32827	35767	29655	32769	32731	32866	
920	0	32650	32647	32704	33765	31378	32733	32748	32711	
921	0	32591	32609	32736	32453	32625	32750	32707	32643	
922	0	32505	32578	32854	31009	34144	32833	32715	32568	
923	0	31191	32703	32952	28830	36175	32713	32647	32230	
924	0	29530	32767	32855	27584	37486	32798	32743	30324	
925	0	28503	32715	33584	27150	38175	32789	32738	29063	
926	0	29893	32661	33159	29015	36679	32745	32751	30607	
927	0	31696	32711	32231	30971	34735	32764	32742	32151	
928	0	32691	32575	32389	32186	33511	32655	32763	32971	
929	0	33235	32741	32860	33003	32660	32785	32711	33325	
930	0	33701	32713	32685	33504	32049	32645	32743	33799	
931	0	33959	32690	32575	33985	31639	32677	32751	33919	
932	0	34203	32743	32519	34039	31219	32788	32701	34221	
933	0	33969	32543	32527	33743	31303	32692	32765	33794	
934	0	33364	32743	32615	33326	31763	32764	32743	33287	
935	0	33115	32658	32605	33213	32135	32797	32749	33017	
936	0	34524	32675	32844	34737	30876	32700	32686	33613	
937	0	35743	32710	32755	35927	29703	32885	32737	33001	
938	0	33274	32679	32860	35935	29351	32766	32767	32802	
939	0	32783	32763	32723	35610	29779	32815	32714	32799	
940	0	32626	32719	32758	33590	31559	32701	32727	32593	
941	0	32567	32775	32814	32125	33055	32637	32669	32665	
942	0	32391	32662	32685	30727	34502	32727	32738	32560	
943	0	31087	32532	32834	29038	36268	32724	32747	32180	
944	0	29422	32441	32769	27749	37415	32690	32668	30287	
945	0	28669	32615	33618	27478	37917	32759	32710	29330	
946	0	29735	32784	33414	29019	36653	32743	32657	30468	
947	0	31734	32743	32413	30988	34557	32742	32732	32175	
948	0	32932	32783	32447	32391	33159	32799	32749	33229	
949	0	33439	32781	32707	33063	32376	32687	32757	33445	
950	0	33415	32796	32615	33155	32220	32687	32767	33460	
951	0	33852	32559	32843	33823	31735	32807	32762	33899	
952	0	34360	32795	32818	34311	31137	32683	32745	34309	
953	0	33792	32725	32883	33553	31541	32801	32756	33535	
954	0	33548	32595	32805	33639	31769	32727	32744	33463	
955	0	33693	32596	32763	33853	31623	32695	32661	33572	
956	0	34576	32632	32734	34931	30749	32708	32751	33175	
957	0	35446	32719	32741	35479	29913	32807	32679	33051	
958	0	33103	32560	32635	35989	29537	32627	32767	32759	
959	0	32717	32527	32685	35631	29773	32641	32736	32751	
960	0	32591	32645	32775	33951	31395	32734	32692	32615	
961	0	32482	32714	32685	32155	32957	32691	32703	32647	
962	0	32400	32782	32529	30790	34343	32667	32695	32619	
963	0	31172	32713	32596	28735	36261	32903	32743	32142	
964	0	29482	32742	32753	27501	37669	32799	32741	30343	
965	0	28535	32717	33594	27210	38070	32711	32662	29140	
966	0	29556	32691	33511	28779	37023	32738	32751	30285	
967	0	31567	32791	32540	30887	34790	32794	32700	32033	
968	0	32503	32755	32210	32108	33581	32709	32670	32678	
969	0	33389	32775	32519	32982	32517	32687	32731	33558	
970	0	33772	32775	32686	33399	31967	32685	32679	33815	
971	0	33849	32834	32878	33755	31635	32775	32695	33797	
972	0	33895	32799	32987	33679	31567	32823	32743	33871	
973	0	34071	32767	32830	33999	31357	32791	32714	34023	
974	0	33635	32771	32759	33645	31708	32687	32767	33428	
975	0	33644	32581	32962	33779	31612	32740	32791	33575	
976	0	34969	32580	33055	34927	30415	32786	32703	33709	
977	0	35767	32669	32824	35999	29692	32666	32735	33119	
978	0	33479	32628	32653	36371	29205	32637	32679	32863	
979	0	32802	32639	32679	36055	29490	32759	32715	32770	
980	0	32676	32767	32787	34041	31156	32581	32671	32695	
981	0	32537	32691	32729	32071	32787	32809	32725	32674	
982	0	32428	32594	32820	30855	34295	32647	32663	32567	
983	0	31409	32766	32802	29111	35911	32775	32742	32470	
984	0	29452	32695	32641	27497	37599	32804	32713	30398	
985	0	28306	32652	33661	26964	38421	32890	32720	28948	
986	0	29273	32723	33641	28365	37247	32843	32647	30057	
987	0	31270	32519	32674	30555	35171	32740	32713	31879	
988	0	32640	32773	31942	31948	33540	32823	32662	32936	
989	0	33464	32685	32468	33054	32500	32598	32748	33719	
990	0	33739	32699	32575	33627	31994	32710	32659	33799	
991	0	33902	32749	32692	33774	31551	32789	32727	33903	
992	0	33666	32721	32789	33754	31659	32679	32671	33558	
993	0	33701	32559	32617	33593	31623	32773	32738	33590	
994	0	34112	32557	32758	34169	31303	32767	32743	33980	
995	0	34021	32681	32655	34148	31293	32734	32685	33967	
996	0	35098	32735	32759	35191	30383	32643	32753	33447	
997	0	35785	32667	32815	35932	29604	32749	32659	33047	
998	0	33298	32737	32871	35775	29391	32799	32735	32927	
999	0	32727	32772	32706	35527	29792	32735	32687	32703	
1000	0	32677	32861	32543	33463	31530	32799	32759	32775	
1001	0	32551	32901	32500	32062	33101	32861	32773	32679	
1002	0	32423	32766	32526	30433	34595	32635	32721	32555	
1003	0	30991	32789	32631	28930	36327	32704	32722	32227	
1004	0	29356	32743	32844	27900	37335	32786	32678	30410	
1005	0	28182	32722	33891	27196	37914	32686	32735	28951	
1006	0	29404	32723	33718	28844	36871	32717	32719	30351	
1007	0	31732	32599	32469	31222	34611	32771	32647	32227	
1008	0	32908	32583	32533	32635	33159	32757	32752	33266	
1009	0	33632	32573	32783	33373	32135	32599	32754	33871	
1010	0	33854	32573	32695	33611	31735	32709	32679	33863	
1011	0	33908	32590	32677	33881	31617	32711	32711	33877	
1012	0	33905	32690	32724	33710	31580	32763	32687	33799	
1013	0	33904	32791	32737	33927	31527	32699	32775	33767	
1014	0	33437	32755	32711	33357	31794	32711	32787	33250	
1015	0	33541	32668	32541	33597	31723	32775	32679	33460	
1016	0	34642	32663	32623	34574	30801	32754	32727	33301	
1017	0	35735	32743	32581	35839	29751	32613	32716	32871	
1018	0	33461	32759	32873	36189	29236	32756	32742	32851	
1019	0	32740	32663	32722	35879	29651	32825	32743	32647	
1020	0	32614	32540	32749	33559	31332	32804	32684	32647	
1021	0	32593	32631	32829	32263	32966	32658	32775	32671	
1022	0	32415	32577	32747	30875	34345	32775	32671	32557	
1023	0	31172	32676	32975	28909	36196	32816	32765	32434	
1024	0	29451	32655	32829	27719	37342	32758	32754	30619	
1025	0	28367	32676	33724	27027	38215	32727	32698	29199	
1026	0	29372	32647	33543	28582	37149	32787	32727	30231	
1027	0	31421	32724	32491	30887	34939	32663	32703	32055	
1028	0	32373	32573	32087	31911	33718	32743	32742	32659	
1029	0	33050	32531	32491	32660	32702	32749	32647	33287	
1030	0	33653	32685	32701	33463	31951	32659	32731	33693	
1031	0	33735	32813	32732	33466	31781	32735	32661	33741	
1032	0	34209	32711	32586	34146	31298	32811	32734	34126	
1033	0	34297	32755	32676	34130	31205	32657	32634	34239	
1034	0	33659	32763	32573	33505	31645	32690	32733	33444	
1035	0	33403	32541	32735	33455	31911	32855	32717	33354	
1036	0	34760	32655	32647	34891	30628	32674	32751	33622	
1037	0	35768	32775	32687	35925	29702	32742	32749	33031	
1038	0	33784	32655	32603	36183	29295	32775	32706	32859	
1039	0	32854	32679	32727	35956	29589	32671	32735	32745	
1040	0	32703	32724	32655	34171	31145	32678	32633	32587	
1041	0	32596	32751	32711	32341	32639	32819	32755	32611	
1042	0	32482	32706	32764	30977	34235	32828	32775	32538	
1043	0	31157	32661	32700	29053	36047	32813	32660	32407	
1044	0	29515	32697	32767	27767	37314	32710	32753	30709	
1045	0	28316	32587	33500	27033	38242	32770	32765	29114	
1046	0	29425	32457	33458	28675	37142	32806	32687	30340	
1047	0	31636	32663	32295	31036	34769	32685	32743	32178	
1048	0	32708	32705	32356	32054	33359	32749	32682	33039	
1049	0	33131	32719	32647	32796	32731	32668	32749	33212	
1050	0	33315	32727	32743	33115	32277	32695	32669	33375	
1051	0	33641	32826	32692	33533	31799	32791	32727	33763	
1052	0	33926	32727	32703	33774	31503	32711	32713	33878	
1053	0	33858	32609	32768	33943	31581	32695	32749	33771	
1054	0	33750	32731	32838	33719	31647	32775	32759	33604	
1055	0	33473	32746	32723	33327	31813	32761	32759	33375	
1056	0	34525	32691	32719	34647	30911	32783	32782	33533	
1057	0	35735	32805	32967	35807	29739	32671	32693	32982	
1058	0	34149	32707	33063	36327	29232	32699	32729	32819	
1059	0	32902	32829	33060	35740	29557	32805	32751	32705	
1060	0	32681	32775	32922	33814	31247	32599	32740	32685	
1061	0	32573	32759	32774	32607	32646	32679	32701	32613	
1062	0	32404	32786	32807	31170	33983	32827	32734	32717	
1063	0	31262	32646	32687	29147	35926	32724	32675	32475	
1064	0	29516	32435	32673	27916	37335	32901	32751	30783	
1065	0	28408	32473	33316	27202	38225	32580	32738	29311	
1066	0	29207	32479	33415	28591	37187	32723	32657	30191	
1067	0	31300	32519	32507	30756	34951	32789	32741	31949	
1068	0	32532	32562	32011	32147	33562	32761	32735	32919	
1069	0	33185	32679	32365	32825	32689	32735	32711	33347	
1070	0	33587	32623	32790	33375	32059	32719	32707	33695	
1071	0	33807	32703	32637	33630	31683	32716	32687	33751	
1072	0	33864	32687	32599	33973	31638	32823	32756	33817	
1073	0	34036	32658	32690	34024	31431	32681	32758	33912	
1074	0	33730	32599	32791	33831	31687	32708	32663	33570	
1075	0	33549	32613	32790	33490	31795	32740	32721	33507	
1076	0	34754	32487	32697	34661	30630	32819	32681	33469	
1077	0	35719	32775	32740	35749	29721	32850	32758	32933	
1078	0	33951	32695	32723	36130	29152	32615	32671	32812	
1079	0	32883	32745	32858	35719	29475	32681	32734	32751	
1080	0	32679	32812	33070	33821	31205	32772	32668	32690	
1081	0	32497	32580	32829	32215	32890	32728	32732	32647	
1082	0	32404	32563	32864	30927	34215	32775	32687	32550	
1083	0	31190	32740	32682	29058	36013	32677	32751	32551	
1084	0	29385	32668	32726	27653	37511	32709	32745	30671	
1085	0	28420	32751	33495	27364	38208	32842	32759	29345	
1086	0	29505	32671	33407	28790	36917	32683	32759	30407	
1087	0	31048	32571	32788	30580	35316	32671	32647	31719	
1088	0	32175	32511	32327	31751	33839	32727	32751	32541	
1089	0	33339	32557	32607	32903	32551	32836	32780	33593	
1090	0	33748	32803	32576	33347	31954	32694	32691	33820	
1091	0	33882	32767	32601	33610	31732	32735	32748	33911	
1092	0	33953	32851	32791	33927	31555	32759	32684	33805	
1093	0	33924	32799	32662	33978	31548	32690	32711	33795	
1094	0	33649	32593	32677	33603	31663	32783	32679	33468	
1095	0	33577	32581	32717	33758	31655	32756	32739	33429	
1096	0	34751	32642	32644	34750	30631	32750	32676	33554	
1097	0	35764	32669	32809	35854	29711	32732	32749	32991	
1098	0	33997	32783	32718	36269	29220	32691	32698	32868	
1099	0	32871	32629	32739	35564	29626	32703	32751	32743	
1100	0	32724	32658	32703	33821	31191	32703	32761	32759	
1101	0	32607	32586	32775	32611	32549	32799	32642	32694	
1102	0	32454	32557	32841	31167	33941	32757	32773	32485	
1103	0	31206	32660	32803	29063	35983	32710	32771	32518	
1104	0	29546	32901	32775	27781	37367	32735	32708	30873	
1105	0	28265	32758	33671	27058	38290	32780	32740	29131	
1106	0	29340	32662	33559	28489	37191	32660	32633	30284	
1107	0	31284	32775	32559	30687	35121	32735	32737	31931	
1108	0	32462	32583	31993	31935	33589	32747	32694	32947	
1109	0	33415	32581	32623	33159	32463	32674	32747	33687	
1110	0	33701	32740	32805	33485	31991	32743	32715	33831	
1111	0	33893	32666	32757	33951	31683	32646	32759	33859	
1112	0	33908	32711	32455	33759	31495	32685	32757	33861	
1113	0	33876	32647	32605	33879	31519	32767	32703	33703	
1114	0	33719	32455	32647	33669	31645	32804	32730	33567	
1115	0	33601	32615	32727	33593	31744	32699	32646	33415	
1116	0	34740	32711	32674	34711	30588	32683	32765	33116	
1117	0	36005	32748	32875	36079	29479	32543	32747	33009	
1118	0	33566	32689	33012	36044	29292	32841	32679	32789	
1119	0	32849	32751	32993	35619	29842	32807	32731	32795	
1120	0	32647	32793	32871	33798	31414	32690	32734	32647	
1121	0	32578	32740	32921	32215	32902	32759	32707	32605	
1122	0	32391	32773	32743	31102	34218	32834	32709	32591	
1123	0	31187	32641	32863	29138	35975	32731	32662	32489	
1124	0	29460	32457	32623	27857	37415	32725	32737	30897	
1125	0	28496	32535	33327	27367	38046	32627	32786	29492	
1126	0	29282	32813	33378	28506	37191	32639	32710	30191	
1127	0	31004	32831	32756	30468	35334	32720	32733	31699	
1128	0	32376	32869	32038	31698	33728	32848	32711	32807	
1129	0	33263	32773	32387	32681	32583	32747	32743	33441	
1130	0	33594	32557	32761	33325	32123	32819	32637	33715	
1131	0	33618	32596	32647	33439	31847	32886	32718	33599	
1132	0	33777	32643	32789	33766	31597	32807	32647	33701	
1133	0	34017	32642	32903	33926	31366	32763	32743	33874	
1134	0	33971	32771	32827	33927	31386	32807	32667	33867	
1135	0	33943	32629	32877	34119	31382	32684	32731	33827	
1136	0	34802	32613	32820	34893	30594	32816	32655	33254	
1137	0	35628	32783	32746	35831	29831	32729	32767	32955	
1138	0	33982	32773	32804	36171	29213	32682	32707	32863	
1139	0	32892	32695	32753	35933	29575	32756	32758	32712	
1140	0	32615	32735	32855	33788	31179	32695	32723	32803	
1141	0	32535	32762	32755	32511	32783	32682	32682	32599	
1142	0	32455	32687	32827	31255	33959	32743	32719	32647	
1143	0	31430	32572	32950	29339	35671	32839	32669	32597	
1144	0	29551	32498	32654	27790	37417	32797	32775	30951	
1145	0	28337	32547	33454	27083	38334	32729	32762	29439	
1146	0	29609	32727	33095	28876	36787	32719	32708	30628	
1147	0	31480	32674	32261	30871	34935	32713	32743	32171	
1148	0	32351	32711	32302	31959	33703	32620	32663	32751	
1149	0	33095	32775	32603	32612	32737	32709	32715	33397	
1150	0	33430	32574	32627	33263	32204	32763	32669	33463	
1151	0	33488	32567	32975	33335	32031	32727	32741	33415	
1152	0	33474	32743	33100	33507	31943	32718	32677	33394	
1153	0	33872	32725	32694	33706	31549	32851	32773	33845	
1154	0	34049	32734	32687	34087	31365	32775	32694	33814	
1155	0	33482	32843	32723	33413	31709	32687	32717	33359	
1156	0	34650	32675	32677	34770	30662	32727	32676	33143	
1157	0	35988	32671	32646	35877	29532	32773	32763	32978	
1158	0	34083	32607	32753	36189	29213	32667	32754	32843	
1159	0	32969	32823	32693	35589	29746	32525	32739	32834	
1160	0	32660	32759	32735	33799	31269	32514	32722	32756	
1161	0	32537	32740	32739	32566	32575	32810	32679	32559	
1162	0	32416	32740	32942	30711	34311	32730	32751	32623	
1163	0	31349	32587	32799	29360	35884	32745	32685	32525	
1164	0	29483	32511	32761	28027	37068	32727	32715	31028	
1165	0	28414	32508	33468	27320	37625	32873	32699	29655	
1166	0	29275	32725	33441	28690	36887	32797	32739	30319	
1167	0	31122	32677	32669	30727	35111	32717	32735	31869	
1168	0	32367	32591	32322	32018	33716	32698	32679	32839	
1169	0	33198	32631	32515	33005	32644	32647	32735	33500	
1170	0	33571	32747	32740	33343	32058	32720	32654	33735	
1171	0	33900	32785	32815	33779	31611	32727	32772	33866	
1172	0	33799	32637	32709	33855	31711	32759	32773	33671	
1173	0	33713	32658	32637	33575	31726	32703	32677	33507	
1174	0	33607	32724	32753	33524	31759	32719	32755	33449	
1175	0	33702	32679	32771	33605	31679	32863	32708	33436	
1176	0	34692	32687	32627	34761	30727	32609	32761	33190	
1177	0	35924	32565	32670	35885	29583	32694	32675	32918	
1178	0	34112	32622	32943	36249	29301	32735	32731	32884	
1179	0	32916	32755	32999	35561	29660	32727	32666	32833	
1180	0	32663	32711	32755	33863	31364	32816	32743	32715	
1181	0	32526	32750	32983	32279	32761	32687	32668	32703	
1182	0	32457	32781	32996	31007	34271	32737	32741	32575	
1183	0	31130	32734	32945	29270	35826	32804	32724	32498	
1184	0	29337	32572	32756	27755	37337	32729	32765	30815	
1185	0	28236	32609	33415	27204	38183	32775	32775	29442	
1186	0	29380	32775	33411	28676	37087	32821	32687	30431	
1187	0	31329	32799	32359	30941	34951	32773	32731	32093	
1188	0	32556	32799	32269	32307	33459	32701	32748	33027	
1189	0	33309	32741	32505	32873	32471	32674	32701	33466	
1190	0	33645	32739	32415	33461	32021	32764	32739	33798	
1191	0	33828	32727	32557	33535	31783	32765	32773	33843	
1192	0	33772	32693	32932	33727	31607	32739	32681	33590	
1193	0	33852	32739	32567	33735	31551	32647	32707	33669	
1194	0	33534	32659	32628	33327	31798	32735	32671	33330	
1195	0	33382	32811	32693	33415	31879	32903	32807	33311	
1196	0	34788	32709	32737	34823	30583	32987	32727	33379	
1197	0	36155	32662	32837	36050	29417	32761	32663	32861	
1198	0	34149	32647	32793	36536	28959	32629	32757	32846	
1199	0	32897	32583	32767	35580	29667	32623	32727	32783	
1200	0	32678	32567	32787	33901	31150	32597	32647	32681	
1201	0	32545	32775	32803	32535	32477	32759	32743	32727	
1202	0	32463	32797	32931	31023	34180	32636	32671	32575	
1203	0	31469	32676	33055	29445	35703	32647	32751	32601	
1204	0	30372	32683	32713	28750	36639	32843	32761	31981	
1205	0	28888	32802	33227	27521	37556	32749	32662	30074	
1206	0	28961	32639	33267	28082	37342	32726	32731	30111	
1207	0	30978	32587	32411	30501	35422	32829	32676	31799	
1208	0	32127	32795	32607	31745	33977	32692	32703	32646	
1209	0	32937	32749	32755	32602	32877	32721	32671	33191	
1210	0	33264	32790	32767	33131	32331	32685	32767	33439	
1211	0	33524	32731	32676	33426	32111	32807	32771	33453	
1212	0	33790	32633	32700	33631	31741	32717	32675	33719	
1213	0	33932	32775	32571	33919	31541	32707	32723	33875	
1214	0	33861	32493	32530	33847	31471	32861	32685	33747	
1215	0	33644	32655	32641	33703	31607	32631	32751	33217	
1216	0	34678	32734	32517	34602	30759	32675	32623	32932	
1217	0	35824	32679	32595	35778	29687	32799	32747	32865	
1218	0	33604	32645	32687	36171	29247	32783	32719	32683	
1219	0	32869	32747	32802	36002	29516	32647	32773	32775	
1220	0	32642	32739	32918	33877	31057	32742	32735	32764	
1221	0	32543	32708	32948	32587	32622	32761	32759	32628	
1222	0	32485	32855	32966	31239	34095	32739	32727	32663	
1223	0	31668	32735	32914	29349	35847	32839	32747	32621	
1224	0	30032	32677	33144	28030	37133	32698	32760	31740	
1225	0	28310	32734	33203	26979	38300	32791	32683	29678	
1226	0	29351	32660	33102	28455	37092	32775	32733	30629	
1227	0	31422	32489	32317	30647	34967	32811	32655	32187	
1228	0	32579	32589	32643	31999	33623	32635	32743	33063	
1229	0	33339	32673	33039	32871	32609	32663	32694	33670	
1230	0	33658	32799	32690	33357	32116	32799	32729	33714	
1231	0	33904	32773	32683	33637	31651	32691	32647	33991	
1232	0	34087	32742	32685	33917	31359	32647	32734	33961	
1233	0	33900	32791	32674	33799	31571	32773	32720	33499	
1234	0	33567	32647	32687	33725	31740	32763	32781	33063	
1235	0	33238	32549	32647	33130	31986	32718	32757	33058	
1236	0	34561	32679	32641	34759	30834	32839	32710	32856	
1237	0	35621	32675	32620	35859	29823	32709	32727	32756	
1238	0	33295	32676	32623	35911	29343	32607	32662	32731	
1239	0	32783	32751	32735	35957	29471	32803	32739	32627	
1240	0	32636	32562	32903	34122	31079	32775	32647	32662	
1241	0	32575	32684	32821	32475	32692	32795	32756	32647	
1242	0	32485	32684	32799	31212	34167	32812	32658	32724	
1243	0	31839	32611	32829	29221	35867	32743	32723	32541	
1244	0	29814	32743	32642	27641	37417	32712	32666	31651	
1245	0	28523	32719	33087	27108	38344	32652	32756	30022	
1246	0	29228	32534	33185	28385	37447	32621	32731	30525	
1247	0	30929	32599	32742	30296	35519	32735	32767	31773	
1248	0	32121	32742	32551	31711	34156	32816	32775	32711	
1249	0	32948	32716	32772	32691	32924	32747	32713	33287	
1250	0	33401	32767	32874	32977	32285	32751	32769	33543	
1251	0	33887	32663	32795	33839	31687	32765	32663	33988	
1252	0	34031	32622	32815	33925	31447	32743	32769	33895	
1253	0	33835	32797	32923	33719	31580	32706	32647	33639	
1254	0	33766	32791	32743	33769	31595	32831	32743	33505	
1255	0	33753	32686	32598	33815	31513	32790	32719	33209	
1256	0	34724	32805	32532	34608	30617	32705	32666	33029	
1257	0	35705	32730	32505	35727	29759	32635	32743	32861	
1258	0	34005	32707	32679	36159	29369	32655	32679	32807	
1259	0	32910	32735	32823	35813	29603	32838	32757	32692	
1260	0	32763	32756	32775	33776	31183	32803	32745	32707	
1261	0	32606	32823	32797	32182	33004	32711	32702	32743	
1262	0	32460	32805	32903	30915	34330	32621	32774	32643	
1263	0	31026	32605	32984	29177	35835	32680	32789	32544	
1264	0	29386	32548	32831	27941	37158	32772	32773	31073	
1265	0	28602	32602	33415	27597	37842	32770	32759	29958	
1266	0	29076	32751	33591	28349	37093	32727	32727	30203	
1267	0	30749	32636	32933	30251	35410	32743	32745	31599	
1268	0	32461	32611	32049	32095	33444	32767	32673	33053	
1269	0	33335	32671	32399	33177	32399	32775	32714	33583	
1270	0	33666	32743	32687	33567	31989	32727	32707	33807	
1271	0	33889	32763	32564	33663	31646	32893	32765	33898	
1272	0	33933	32605	32527	33833	31535	32748	32771	33839	
1273	0	34022	32547	32671	34138	31375	32647	32695	33919	
1274	0	33750	32598	32687	33751	31585	32667	32722	33455	
1275	0	33445	32679	32791	33489	31879	32683	32663	33063	
1276	0	34495	32761	32751	34603	30885	32871	32764	32966	
1277	0	35857	32719	32743	35996	29643	32871	32767	32897	
1278	0	35079	32726	32626	36261	29109	32654	32687	32884	
1279	0	33104	32710	32634	35972	29543	32663	32734	32687	
1280	0	32801	32731	32727	34164	31111	32767	32679	32703	
1281	0	32624	32734	32700	32501	32670	32730	32727	32647	
1282	0	32504	32759	32847	31276	33919	32678	32767	32679	
1283	0	31009	32594	32903	29227	35940	32775	32686	32535	
1284	0	29178	32617	32887	27799	37451	32807	32773	31223	
1285	0	28015	32748	33835	27033	38314	32847	32772	29496	
1286	0	28798	32703	34013	28055	37413	32821	32751	30102	
1287	0	30989	32834	32959	30408	35271	32727	32749	31977	
1288	0	32171	32679	32316	31750	33887	32718	32748	32775	
1289	0	33191	32530	31785	32850	32556	32822	32698	33591	
1290	0	33789	32529	32326	33502	31866	32671	32732	33959	
1291	0	33894	32675	32575	33851	31650	32699	32722	33915	
1292	0	33927	32679	32615	33671	31573	32705	32725	33845	
1293	0	33965	32658	32679	33871	31471	32677	32677	33751	
1294	0	33846	32707	32935	33887	31431	32837	32767	33687	
1295	0	33858	32703	33044	33890	31388	32831	32734	33439	
1296	0	34698	32702	32791	34881	30708	32835	32701	32985	
1297	0	35897	32598	32807	36146	29566	32711	32735	32935	
1298	0	35053	32601	32775	36463	28932	32775	32677	32745	
1299	0	32977	32647	32711	36399	29141	32849	32719	32819	
1300	0	32705	32738	32645	34199	30966	32615	32647	32706	
1301	0	32595	32702	32663	32193	32763	32647	32781	32604	
1302	0	32455	32711	32759	31079	34258	32749	32761	32597	
1303	0	31095	32837	32846	29071	36020	32734	32765	32469	
1304	0	29020	32768	32903	27402	37724	32730	32751	31041	
1305	0	28325	32551	33671	27093	37956	32759	32679	29839	
1306	0	29080	32815	33798	28242	37219	32679	32742	30351	
1307	0	30953	32775	32895	30343	35279	32805	32646	31879	
1308	0	32324	32749	32287	31682	33799	32763	32723	32881	
1309	0	33238	32775	32156	32975	32707	32791	32695	33615	
1310	0	33613	32725	32430	33445	32061	32633	32684	33714	
1311	0	33863	32767	32647	33618	31607	32698	32706	33823	
1312	0	33799	32507	32643	33698	31594	32809	32703	33755	
1313	0	34050	32594	32537	34023	31451	32638	32775	33858	
1314	0	33919	32685	32839	33959	31484	32647	32647	33611	
1315	0	33635	32709	32794	33719	31713	32701	32762	33129	
1316	0	34504	32735	32826	34519	30845	32835	32685	33027	
1317	0	35894	32746	32892	35931	29601	32970	32738	32821	
1318	0	34933	32643	32781	36271	29306	32843	32671	32839	
1319	0	33042	32573	32941	35305	29951	32471	32743	32739	
1320	0	32749	32508	32960	34055	31299	32559	32751	32627	
1321	0	32527	32559	32903	32559	32629	32724	32667	32647	
1322	0	32413	32595	32842	30903	33937	32807	32751	32661	
1323	0	30727	32761	32765	29086	36092	32869	32703	32439	
1324	0	28857	32709	32818	27639	37471	32799	32713	30997	
1325	0	28118	32738	33580	27223	38098	32754	32765	29699	
1326	0	29161	32738	33639	28759	36951	32732	32703	30567	
1327	0	31361	32748	32506	30870	34763	32839	32759	32247	
1328	0	32390	32642	32052	32119	33639	32751	32673	32911	
1329	0	33178	32585	32456	32676	32667	32786	32724	33515	
1330	0	33547	32548	32811	33287	32135	32666	32695	33565	
1331	0	33555	32591	32745	33515	31948	32698	32788	33519	
1332	0	33746	32671	32891	33601	31759	32743	32740	33615	
1333	0	33842	32709	32611	33766	31695	32767	32647	33575	
1334	0	33852	32775	32847	33919	31591	32647	32737	33682	
1335	0	33497	32711	32758	33599	31901	32821	32655	33111	
1336	0	34306	32692	32581	34321	31023	32860	32769	33175	
1337	0	35816	32743	32607	35727	29748	32685	32735	32996	
1338	0	36407	32775	32681	36583	29076	32589	32679	32896	
1339	0	33396	32772	32721	36351	29181	32671	32743	32976	
1340	0	32869	32711	32823	34341	30855	32746	32700	32823	
1341	0	32583	32691	32827	32900	32587	32730	32692	32759	
1342	0	32419	32617	32758	31399	33850	32775	32729	32715	
1343	0	31365	32630	32726	29812	35254	32671	32663	32691	
1344	0	29561	32695	32711	28087	36973	32775	32740	31335	
1345	0	28588	32621	33124	27471	37825	32775	32695	30005	
1346	0	29276	32583	33223	28530	36871	32831	32743	30429	
1347	0	31215	32647	32359	30511	34973	32727	32751	32013	
1348	0	32437	32635	32570	31910	33471	32663	32759	33003	
1349	0	33287	32527	32837	32743	32503	32705	32759	33495	
1350	0	33597	32687	32753	33267	31913	32743	32695	33731	
1351	0	34111	32582	32623	33838	31341	32743	32757	34047	
1352	0	34240	32582	32669	34077	31222	32647	32671	34045	
1353	0	34235	32655	32564	34119	31182	32671	32727	33199	
1354	0	34032	32583	32429	33751	31323	32791	32711	32989	
1355	0	33704	32487	32431	33483	31510	32711	32775	32861	
1356	0	34796	32546	32493	34743	30594	32647	32740	32638	
1357	0	33763	32562	32447	35805	29326	32647	32747	32571	
1358	0	32700	32543	32391	36231	28915	32617	32711	32491	
1359	0	32580	32598	32479	36075	29127	32729	32767	32599	
1360	0	32442	32637	32596	34036	30765	32818	32770	32487	
1361	0	32433	32549	32657	32551	32391	32647	32775	32534	
1362	0	32364	32459	32757	31551	33681	32785	32705	32548	
1363	0	32369	32646	32880	30015	34973	32695	32739	32645	
1364	0	32229	32714	32839	28309	36754	32732	32633	32599	
1365	0	30964	32527	32943	27508	37471	32716	32696	32563	
1366	0	30495	32501	32957	28119	37359	32727	32673	32191	
1367	0	31736	32831	32845	30051	35691	32769	32742	32917	
1368	0	31833	32807	32745	30631	35044	32707	32663	32639	
1369	0	32037	32929	33159	31415	34437	32732	32743	32775	
1370	0	32165	32941	32931	31959	33855	32809	32761	32636	
1371	0	32391	32892	33061	32373	33427	32935	32671	32775	
1372	0	32306	32935	33287	32611	33326	32739	32719	32722	
1373	0	32135	32743	33115	32749	33355	32684	32655	32662	
1374	0	32018	32999	33499	32447	33431	32726	32719	32594	
1375	0	32090	32903	33431	32759	33207	32708	32671	32629	
1376	0	33382	32815	33199	34012	31879	32749	32710	32738	
1377	0	34194	32895	32919	34964	31047	32827	32677	32699	
1378	0	34735	32719	32877	35223	30493	32743	32733	32775	
1379	0	35087	32740	32935	35631	30239	32754	32693	32757	
1380	0	33119	32737	32858	33975	31443	32850	32786	32735	
1381	0	32481	32860	32873	32580	32771	32763	32767	32809	
1382	0	31559	32847	32845	31291	33871	32741	32677	32927	
1383	0	29928	32792	32750	29678	35527	32793	32754	32387	
1384	0	28662	32769	33330	28434	36721	32772	32763	30583	
1385	0	28124	32711	34674	28053	37333	32731	32690	29415	
1386	0	29061	32631	34763	28953	36487	32693	32729	30111	
1387	0	31153	32711	33486	30925	34571	32705	32743	31831	
1388	0	32604	32659	32469	32407	33097	32757	32671	32999	
1389	0	33749	32750	31679	33423	31771	32775	32730	33788	
1390	0	34492	32687	31217	34255	31046	32719	32683	34414	
1391	0	34913	32725	30951	34858	30511	32647	32671	34743	
1392	0	35052	32691	31866	34921	30387	32660	32729	34803	
1393	0	34525	32700	32307	34419	30775	32813	32694	34037	
1394	0	34057	32527	32380	34031	31238	32754	32758	33669	
1395	0	34254	32579	32611	33975	31123	32771	32711	33895	
1396	0	35497	32629	32535	35303	29998	32775	32701	33572	
1397	0	36391	32700	32588	36315	29191	32791	32773	33159	
1398	0	36278	32646	32532	36045	29199	32708	32679	32981	
1399	0	33593	32607	32663	36109	29371	32735	32727	32867	
1400	0	32956	32724	32683	34615	30658	32868	32693	32703	
1401	0	32686	32791	32671	32575	32359	32903	32735	32709	
1402	0	32376	32603	32775	30999	34087	32666	32746	32358	
1403	0	31220	32543	32806	29604	35558	32492	32692	32487	
1404	0	29286	32487	32842	28153	37151	32578	32757	31781	
1405	0	28173	32737	33535	27319	38052	32686	32665	29923	
1406	0	28600	32823	34075	27951	37458	32883	32746	30082	
1407	0	30643	32765	33131	30169	35396	32771	32787	31725	
1408	0	32175	32709	32231	31677	33787	32705	32657	32879	
1409	0	33150	32703	32327	32812	32738	32628	32735	33641	
1410	0	33569	32693	32763	33343	32183	32835	32655	33751	
1411	0	33774	32511	32793	33537	31879	32717	32753	33763	
1412	0	33431	32733	32762	33172	32029	32924	32663	33272	
1413	0	33321	32732	32765	33319	32167	32717	32733	33258	
1414	0	33538	32687	32635	33602	31812	32647	32658	33307	
1415	0	33484	32739	32583	33487	31802	32691	32758	33215	
1416	0	34388	32726	32604	34250	31005	32722	32749	33038	
1417	0	35725	32678	32655	35707	29799	33023	32678	32802	
1418	0	36141	32627	32639	36143	29352	32679	32767	32754	
1419	0	33447	32574	32797	35635	29591	32710	32637	32681	
1420	0	32801	32703	32823	34052	31029	32819	32708	32671	
1421	0	32572	32682	32759	32775	32561	32619	32666	32691	
1422	0	32325	32694	32687	31367	33927	32709	32730	32639	
1423	0	30780	32764	32818	29198	35844	32796	32687	32663	
1424	0	28975	32719	32846	27892	37354	32733	32763	31143	
1425	0	28102	32599	33655	27274	37907	32783	32747	29859	
1426	0	28924	32554	33894	28436	37199	32783	32692	30335	
1427	0	31022	32739	32903	30518	35123	32783	32749	31969	
1428	0	32358	32716	32214	31919	33636	32703	32679	32935	
1429	0	33168	32707	31828	32895	32579	32722	32765	33498	
1430	0	33598	32733	32263	33298	31978	32775	32748	33887	
1431	0	34106	32845	32767	33828	31475	32619	32775	34183	
1432	0	33789	32887	32870	33632	31748	32671	32764	33671	
1433	0	33742	32675	32805	33613	31717	32883	32759	33604	
1434	0	33914	32589	32831	33935	31568	32663	32743	33442	
1435	0	33267	32799	32837	33139	32012	32698	32710	32903	
1436	0	34264	32723	32970	34437	31068	32741	32759	33014	
1437	0	35734	32722	32833	35807	29857	32606	32791	32783	
1438	0	36157	32617	32833	36321	29301	32731	32759	32821	
1439	0	33409	32535	32903	36271	29165	32823	32663	32675	
1440	0	32807	32540	32839	34333	30781	32875	32731	32647	
1441	0	32632	32534	32985	32454	32754	32719	32674	32686	
1442	0	32409	32583	32698	31249	34035	32694	32753	32694	
1443	0	31018	32552	32709	29611	35583	32757	32751	32703	
1444	0	29074	32586	32673	27981	36946	32779	32655	31491	
1445	0	28114	32637	33533	27344	38046	32751	32749	30037	
1446	0	28842	32763	33772	28365	37343	32741	32757	30362	
1447	0	30756	32740	32967	30418	35411	32815	32678	31858	
1448	0	32097	32767	32308	31766	33951	32730	32742	32841	
1449	0	32982	32751	31917	32542	32751	32647	32647	33371	
1450	0	33516	32799	32209	33308	32173	32679	32756	33716	
1451	0	33911	32739	32524	33711	31703	32727	32749	33923	
1452	0	33786	32743	32621	33362	31695	32735	32647	33523	
1453	0	33900	32764	32775	33796	31503	32775	32719	33789	
1454	0	33817	32583	32579	33695	31527	32708	32660	33526	
1455	0	33518	32475	32851	33566	31818	32865	32745	33044	
1456	0	34157	32715	32828	34078	31190	32724	32724	33018	
1457	0	35698	32686	32908	35854	29831	32647	32684	32895	
1458	0	36175	32711	32903	36389	29295	32600	32749	32859	
1459	0	33546	32623	32831	36027	29364	32634	32711	32647	
1460	0	32881	32773	32721	34357	30920	32767	32773	32711	
1461	0	32626	32783	32823	32831	32383	32710	32743	32749	
1462	0	32358	32758	32735	31232	33831	32642	32692	32533	
1463	0	30776	32741	32941	29022	35959	32843	32724	32623	
1464	0	28942	32722	32952	27708	37366	32803	32684	31215	
1465	0	27986	32739	33783	27071	38159	32775	32775	29783	
1466	0	28956	32852	33927	28372	37151	32805	32740	30439	
1467	0	31318	32626	32671	30925	34743	32786	32671	32327	
1468	0	32442	32561	32100	32114	33542	32751	32718	33110	
1469	0	33227	32599	32069	32967	32609	32751	32679	33692	
1470	0	33723	32679	32427	33534	31935	32881	32733	33847	
1471	0	33590	32661	32449	33479	31943	32597	32647	33639	
1472	0	33666	32793	32641	33611	31747	32583	32727	33543	
1473	0	33695	32708	32675	33450	31713	32723	32647	33543	
1474	0	33847	32602	32759	33865	31527	32698	32756	33379	
1475	0	33976	32679	32864	33943	31396	32713	32645	33095	
1476	0	34672	32740	32767	34762	30737	32724	32705	32763	
1477	0	35811	32733	32756	35714	29711	32711	32669	32878	
1478	0	35474	32775	32740	36215	29337	32775	32751	32826	
1479	0	33140	32644	32683	35740	29669	32719	32669	32693	
1480	0	32760	32557	32684	34181	31015	32679	32758	32647	
1481	0	32550	32541	32775	32271	32700	32749	32754	32599	
1482	0	32314	32591	32694	31024	34235	32725	32677	32699	
1483	0	30816	32623	32713	29074	35933	32731	32724	32586	
1484	0	29126	32599	32684	27963	37119	32717	32678	31553	
1485	0	28313	32750	33530	27471	37894	32807	32775	30225	
1486	0	28843	32727	33941	28255	37422	32815	32771	30244	
1487	0	30716	32719	33151	30275	35437	32731	32687	31858	
1488	0	32135	32617	32415	31663	33935	32893	32757	32799	
1489	0	33121	32717	32147	32797	32695	32660	32692	33590	
1490	0	33612	32791	32997	33294	32021	32711	32735	33795	
1491	0	33873	32711	32773	33799	31613	32738	32711	33915	
1492	0	34032	32601	32551	33965	31455	32709	32755	33927	
1493	0	34146	32643	32638	34197	31301	32743	32631	33581	
1494	0	33874	32617	32825	33791	31543	32763	32751	33197	
1495	0	33608	32588	32612	33614	31661	32921	32769	33113	
1496	0	34250	32821	32641	34303	31130	32572	32647	32951	
1497	0	35423	32855	32633	35381	30084	32589	32749	32987	
1498	0	35924	32775	32791	36107	29575	32733	32671	32773	
1499	0	33435	32838	32818	36231	29372	32677	32716	32747	
1500	0	32786	32748	32823	34162	30771	32711	32666	32695	
1501	0	32596	32592	32717	32203	32827	32775	32743	32630	
1502	0	32391	32549	32817	31354	33959	32658	32741	32695	
1503	0	31107	32667	32892	29748	35442	32742	32767	32567	
1504	0	29250	32682	32711	27978	37060	32718	32723	31792	
1505	0	28076	32657	33513	27121	38083	32775	32647	29967	
1506	0	28548	32717	33907	28077	37435	32819	32751	30169	
1507	0	30876	32754	32767	30484	35092	32709	32751	32123	
1508	0	32324	32687	32060	32015	33591	32759	32669	33028	
1509	0	33144	32727	31750	32893	32721	32743	32769	33503	
1510	0	33495	32670	32455	33357	32175	32867	32759	33681	
1511	0	33900	32757	32575	33587	31721	32775	32694	33917	
1512	0	33875	32787	32602	33917	31523	32647	32743	33796	
1513	0	33910	32775	32676	33950	31535	32671	32647	33727	
1514	0	33732	32723	32899	33611	31711	32738	32743	33247	
1515	0	33639	32607	32735	33731	31843	32843	32722	33091	
1516	0	34394	32499	32759	34460	30980	32871	32790	32951	
1517	0	35569	32639	32791	35775	29942	32591	32727	32683	
1518	0	36089	32758	32847	36331	29423	32711	32681	32775	
1519	0	33412	32732	32963	35817	29501	32745	32743	32767	
1520	0	32740	32647	32951	34243	30983	32719	32694	32722	
1521	0	32610	32711	32799	32415	32559	32636	32703	32692	
1522	0	32423	32692	32800	31150	34055	32662	32710	32615	
1523	0	30871	32736	32782	29262	35731	32838	32692	32561	
1524	0	29128	32776	32708	27949	37217	32789	32708	31592	
1525	0	28196	32761	33479	27323	37891	32633	32738	30178	
1526	0	28903	32813	33783	28378	37165	32741	32694	30447	
1527	0	31087	32863	32715	30614	35061	32669	32711	32231	
1528	0	32271	32695	32158	31743	33616	32855	32679	32876	
1529	0	32943	32639	32033	32735	32858	32935	32738	33318	
1530	0	33561	32535	32623	33367	32135	32867	32762	33595	
1531	0	33847	32827	32804	33799	31765	32763	32771	33879	
1532	0	33855	32790	32702	33567	31721	32748	32775	33681	
1533	0	33914	32723	32799	33831	31501	32631	32666	33799	
1534	0	33786	32700	32827	33725	31557	32645	32715	33367	
1535	0	33711	32667	32887	33700	31675	32610	32678	32989	
1536	0	34429	32668	32775	34572	30967	32845	32720	32903	
1537	0	35462	32614	32815	35565	30055	32746	32682	32823	
1538	0	35948	32591	32898	35914	29549	32522	32765	32719	
1539	0	33384	32607	32623	35860	29591	32679	32756	32727	
1540	0	32758	32724	32643	34236	30915	32846	32668	32591	
1541	0	32637	32718	32615	32399	32605	32748	32727	32639	
1542	0	32450	32725	32551	31335	33959	32607	32661	32717	
1543	0	31016	32679	32615	29607	35473	32671	32734	32615	
1544	0	29284	32607	32567	28223	36983	32791	32756	31983	
1545	0	28188	32703	33550	27451	37955	32811	32767	30181	
1546	0	28727	32721	33915	28385	37237	32718	32771	30398	
1547	0	30630	32509	33143	30309	35463	32745	32678	31855	
1548	0	31871	32557	32559	31461	34143	32733	32731	32565	
1549	0	32739	32710	32223	32610	33028	32679	32663	33119	
1550	0	33217	32645	32311	33057	32380	32843	32733	33373	
1551	0	33607	32727	32647	33509	31911	32669	32669	33613	
1552	0	33872	32571	32775	33495	31554	32852	32769	33830	
1553	0	34235	32686	32833	34171	31279	32758	32702	34103	
1554	0	34287	32757	32588	34271	31169	32765	32757	33671	
1555	0	34290	32802	32631	34231	31135	32771	32749	33149	
1556	0	34970	32732	32642	34901	30445	32667	32758	33015	
1557	0	35754	32623	32727	35589	29719	32871	32699	32891	
1558	0	35656	32676	32747	36327	29117	32813	32748	32786	
1559	0	33226	32783	32929	35895	29405	32579	32755	32719	
1560	0	32756	32902	32991	34055	31014	32579	32727	32699	
1561	0	32600	32871	32967	32241	32743	32551	32748	32559	
1562	0	32447	32773	32869	31166	34047	32705	32727	32687	
1563	0	30953	32686	32900	29354	35815	32839	32660	32751	
1564	0	29282	32643	32716	27854	37190	32792	32766	31913	
1565	0	28335	32636	33348	27309	37975	32716	32749	30377	
1566	0	28883	32546	33751	28247	37411	32737	32644	30343	
1567	0	30540	32482	33124	30167	35567	32739	32786	31739	
1568	0	31975	32554	32377	31698	34105	32811	32739	32729	
1569	0	33050	32541	31868	32683	32860	32809	32693	33484	
1570	0	33579	32647	32479	33338	32119	32914	32763	33781	
1571	0	33823	32645	32567	33667	31723	32733	32775	33790	
1572	0	33804	32595	32717	33682	31673	32770	32663	33685	
1573	0	33744	32631	32772	33749	31671	32809	32729	33367	
1574	0	33656	32685	32807	33611	31750	32773	32676	33151	
1575	0	33545	32705	32996	33406	31721	32623	32743	32961	
1576	0	34256	32662	32868	34055	31143	32711	32691	32812	
1577	0	35559	32739	32829	35478	29995	32743	32784	32862	
1578	0	36057	32787	32756	36176	29427	32791	32762	32493	
1579	0	33824	32717	32735	36002	29357	32665	32647	32711	
1580	0	32832	32711	32789	34455	30787	32615	32767	32773	
1581	0	32599	32793	32783	32887	32319	32610	32743	32894	
1582	0	32456	32613	32626	31522	33831	32791	32700	32647	
1583	0	30874	32532	32824	29319	35682	32799	32727	32628	
1584	0	28989	32679	32711	27894	37357	32799	32748	31949	
1585	0	28442	32557	33297	27679	37713	32725	32663	30599	
1586	0	28861	32543	33819	28445	37030	32830	32757	30487	
1587	0	30820	32547	33007	30534	35234	32669	32733	32177	
1588	0	32230	32571	32222	31951	33814	32748	32694	33022	
1589	0	33132	32686	31879	32775	32678	32749	32745	33639	
1590	0	33541	32703	32525	33428	32162	32799	32662	33668	
1591	0	33927	32715	32631	33735	31591	32711	32745	33815	
1592	0	33881	32677	32729	33749	31634	32731	32757	33708	
1593	0	33703	32677	32903	33703	31699	32647	32657	33315	
1594	0	33685	32733	32843	33684	31719	32599	32747	33093	
1595	0	33424	32663	32715	33275	31879	32647	32709	33001	
1596	0	34075	32740	32703	33911	31309	32751	32700	32774	
1597	0	35509	32767	32647	35359	30022	32807	32711	32823	
1598	0	36059	32727	32754	35975	29440	32820	32700	32813	
1599	0	33641	32639	32827	35847	29495	32663	32761	32691	
1600	0	32897	32604	33026	34415	30767	32827	32689	32754	
1601	0	32724	32871	32953	32647	32347	32687	32747	32629	
1602	0	32455	32757	32893	31367	33783	32695	32663	32681	
1603	0	31005	32718	32876	29764	35581	32825	32738	32540	
1604	0	29167	32801	32861	28150	37037	32764	32738	32085	
1605	0	28268	32719	33357	27469	37575	32711	32772	30399	
1606	0	28769	32534	33651	28327	37284	32787	32775	30407	
1607	0	30744	32487	32763	30431	35332	32829	32684	32025	
1608	0	32206	32723	32123	31873	33828	32706	32727	32915	
1609	0	33116	32767	32397	32707	32718	32711	32644	33567	
1610	0	33407	32821	32485	33139	32250	32903	32743	33559	
1611	0	33671	32775	32423	33486	31911	32659	32667	33699	
1612	0	33820	32823	32531	33651	31623	32785	32725	33683	
1613	0	33788	32855	32735	33525	31651	32787	32695	33345	
1614	0	33640	32647	32731	33569	31773	32788	32738	33213	
1615	0	33781	32559	32836	33867	31638	32623	32751	32971	
1616	0	34254	32679	32722	34167	31165	32766	32742	32947	
1617	0	35430	32679	32775	35331	30075	32751	32637	32767	
1618	0	36398	32699	32799	36471	29092	32759	32714	32807	
1619	0	33607	32541	32719	36231	29199	32671	32677	32727	
1620	0	32822	32627	32770	35049	30403	32780	32759	32775	
1621	0	32647	32685	32835	32977	32315	32743	32718	32758	
1622	0	32479	32736	32784	31367	33910	32676	32767	32679	
1623	0	31013	32662	32806	29411	35854	32723	32765	32704	
1624	0	29313	32574	32647	28039	36998	32751	32655	32100	
1625	0	28368	32658	33239	27495	37937	32807	32737	30518	
1626	0	28813	32702	33714	28199	37410	32695	32684	30482	
1627	0	30976	32525	32677	30503	35305	32775	32794	32229	
1628	0	32348	32629	32033	31831	33716	32754	32781	33171	
1629	0	33097	32839	32571	32695	32755	32772	32758	33513	
1630	0	33538	32743	32813	33235	32196	32825	32711	33735	
1631	0	33799	32730	32771	33742	31807	32703	32755	33762	
1632	0	33810	32612	32751	33476	31645	32679	32770	33577	
1633	0	33702	32541	32922	33601	31670	32783	32681	33146	
1634	0	33330	32617	32842	33234	31970	32719	32769	33079	
1635	0	33491	32734	32846	33495	31926	32799	32694	32996	
1636	0	34374	32723	32785	34164	31044	32709	32739	32850	
1637	0	35604	32742	32797	35554	29924	32801	32694	32867	
1638	0	36021	32679	32575	35965	29401	32691	32791	32703	
1639	0	33276	32570	32589	35731	29539	32703	32647	32765	
1640	0	32804	32519	32519	34415	30864	32647	32708	32717	
1641	0	32608	32619	32679	32635	32539	32737	32686	32615	
1642	0	32447	32669	32844	31307	33937	32799	32757	32718	
1643	0	30976	32715	32828	29599	35727	32699	32769	32602	
1644	0	29217	32615	32756	28101	37157	32803	32788	31894	
1645	0	28346	32598	33564	27410	38022	32873	32729	30311	
1646	0	28885	32743	33807	28270	37357	32887	32644	30309	
1647	0	30656	32775	33039	30215	35519	32599	32723	31773	
1648	0	31930	32735	32428	31603	33967	32604	32745	32756	
1649	0	33319	32678	31679	32993	32487	32669	32682	33751	
1650	0	33676	32519	32535	33412	32057	32769	32705	33779	
1651	0	33888	32585	32723	33959	31623	32637	32660	34091	
1652	0	34324	32671	32689	34045	31218	32631	32727	34177	
1653	0	34196	32805	32695	34038	31147	32765	32698	33393	
1654	0	34228	32782	32733	34311	31143	32775	32788	33227	
1655	0	33903	32731	32749	33835	31429	32721	32775	32951	
1656	0	34197	32773	32850	34223	31188	32764	32677	32903	
1657	0	35139	32797	32698	35143	30319	32859	32726	32828	
1658	0	35804	32815	32799	35975	29634	32753	32711	32676	
1659	0	33140	32711	32865	35655	29687	32783	32753	32781	
1660	0	32708	32543	32931	34114	31078	32867	32681	32641	
1661	0	32503	32751	32869	32255	32895	32675	32715	32711	
1662	0	32362	32791	32764	31211	33951	32797	32716	32635	
1663	0	30897	32758	32911	29437	35666	32577	32747	32663	
1664	0	29335	32711	32713	28237	36781	32628	32768	32133	
1665	0	28418	32723	33097	27590	37495	32822	32705	30332	
1666	0	28771	32687	33671	28311	37126	32758	32694	30371	
1667	0	30770	32647	32956	30375	35207	32719	32647	31959	
1668	0	32183	32615	32355	31878	33772	32711	32759	32865	
1669	0	33002	32683	31927	32615	32775	32823	32743	33435	
1670	0	33476	32594	32356	33197	32143	32703	32699	33632	
1671	0	33745	32663	32639	33467	31842	32655	32767	33814	
1672	0	33969	32762	32730	33823	31532	32743	32687	33860	
1673	0	33762	32719	32698	33569	31661	32751	32739	33298	
1674	0	33538	32799	32875	33311	31813	32687	32737	33135	
1675	0	33486	32641	32721	33515	31815	32829	32735	32985	
1676	0	34454	32611	32660	34388	30949	32694	32784	32879	
1677	0	35708	32775	32861	35822	29807	32775	32742	32841	
1678	0	36159	32726	32957	36013	29351	32734	32757	32738	
1679	0	33460	32756	32841	36407	29142	32629	32763	32687	
1680	0	32891	32767	32911	34527	30745	32742	32793	32671	
1681	0	32665	32584	32913	32114	32891	32631	32726	32711	
1682	0	32374	32615	32719	31006	34311	32743	32687	32671	
1683	0	31048	32751	32758	29627	35567	32735	32730	32647	
1684	0	29400	32685	32676	28265	36911	32716	32732	32022	
1685	0	28373	32768	33287	27524	37775	32706	32703	30404	
1686	0	28845	32634	33703	28311	37281	32749	32743	30359	
1687	0	30782	32427	32887	30407	35335	32713	32727	31932	
1688	0	32233	32575	32178	31867	33734	32749	32691	33071	
1689	0	33166	32745	31799	32956	32666	32675	32757	33532	
1690	0	33562	32771	32541	33466	32092	32796	32630	33735	
1691	0	33734	32710	32707	33779	31772	32820	32743	33711	
1692	0	33757	32703	32731	33656	31639	32687	32693	33654	
1693	0	33754	32775	32810	33807	31631	32679	32743	33499	
1694	0	33676	32643	32843	33746	31619	32821	32715	32991	
1695	0	33623	32528	32919	33523	31702	32663	32747	33003	
1696	0	34199	32796	32930	34063	31127	32606	32743	32841	
1697	0	35512	32814	32931	35279	29946	32839	32669	32846	
1698	0	36150	32775	32799	36146	29318	32775	32694	32773	
1699	0	33561	32693	32749	35743	29530	32687	32676	32678	
1700	0	32860	32676	32719	34359	30831	32757	32769	32725	
1701	0	32655	32735	32967	32583	32484	32903	32758	32731	
1702	0	32434	32758	32711	31599	33701	32654	32775	32659	
1703	0	31442	32609	32681	30170	34914	32722	32747	32715	
1704	0	29780	32521	32877	28661	36545	32815	32743	32444	
1705	0	28188	32714	33066	27316	37895	32858	32756	30165	
1706	0	28191	32640	33833	27751	37791	32845	32751	30055	
1707	0	30415	32807	33057	30111	35719	32759	32749	31854	
1708	0	31682	32623	32451	31429	34303	32455	32747	32719	
1709	0	32500	32695	32233	32356	33245	32713	32615	33039	
1710	0	33270	32751	32407	33012	32375	32703	32719	33623	
1711	0	34064	32725	32415	33823	31484	32705	32675	34267	
1712	0	34289	32795	32533	34227	31175	32941	32770	34247	
1713	0	34130	32767	32663	34059	31297	32767	32743	33679	
1714	0	33889	32628	32695	33909	31505	32575	32753	33147	
1715	0	33547	32711	32758	33384	31833	32845	32769	33055	
1716	0	34300	32775	32903	34291	31071	32721	32749	32822	
1717	0	35628	32727	32841	35693	29927	32589	32703	32903	
1718	0	36001	32747	32729	36027	29484	32775	32775	32770	
1719	0	33586	32627	32840	35987	29543	32626	32738	32775	
1720	0	32784	32743	32839	34306	30715	32817	32725	32647	
1721	0	32634	32799	32762	32566	32327	32690	32686	32737	
1722	0	32457	32701	32771	31398	33677	32769	32742	32583	
1723	0	31094	32718	32833	29627	35350	32724	32703	32666	
1724	0	29369	32729	32726	28153	36813	32683	32775	32071	
1725	0	28230	32580	33273	27295	37767	32818	32759	30373	
1726	0	28724	32531	33799	28140	37423	32809	32759	30333	
1727	0	30563	32730	32988	30229	35599	32690	32763	31812	
1728	0	32054	32635	32317	31747	33975	32783	32747	32745	
1729	0	33038	32743	32055	32799	32830	32771	32715	33463	
1730	0	33534	32609	32503	33295	32183	32805	32737	33716	
1731	0	33854	32663	32743	33573	31783	32903	32695	33827	
1732	0	33867	32738	32775	33695	31623	32663	32759	33671	
1733	0	33859	32750	32782	33877	31590	32709	32720	33619	
1734	0	33650	32666	32775	33471	31679	32806	32770	33159	
1735	0	33542	32767	32735	33431	31775	32836	32743	32997	
1736	0	34147	32581	32943	34172	31135	32645	32699	32967	
1737	0	35661	32722	32723	35719	29831	32655	32783	32796	
1738	0	36231	32829	32841	36071	29275	32679	32698	32767	
1739	0	33679	32807	32647	35734	29574	32804	32743	32679	
1740	0	32913	32635	32731	34532	30747	32751	32719	32673	
1741	0	32625	32679	32764	32951	32165	32831	32682	32747	
1742	0	32448	32733	32583	31894	33359	32719	32742	32681	
1743	0	31444	32788	32617	30065	35090	32676	32750	32609	
1744	0	29510	32742	32946	28228	37027	32742	32704	32263	
1745	0	28358	32687	33170	27468	37950	32943	32788	30610	
1746	0	28639	32669	33599	28029	37563	32775	32732	30317	
1747	0	30567	32525	32903	30132	35559	32503	32756	31907	
1748	0	31934	32581	32262	31501	34011	32593	32789	32761	
1749	0	32950	32735	32207	32647	32868	32662	32775	33511	
1750	0	33512	32775	32655	33405	32163	32614	32660	33847	
1751	0	33896	32598	32672	33684	31670	32741	32732	33899	
1752	0	33902	32581	32743	33729	31586	32876	32733	33725	
1753	0	33839	32721	32875	33859	31575	32751	32743	33286	
1754	0	33671	32739	32775	33523	31659	32684	32734	33095	
1755	0	33430	32694	32734	33426	31841	32757	32749	33015	
1756	0	33975	32662	32637	34050	31380	32775	32756	32773	
1757	0	35415	32687	32798	35205	30119	32711	32677	32815	
1758	0	36007	32738	32766	36047	29462	32695	32735	32742	
1759	0	33671	32775	32669	35931	29502	32772	32647	32765	
1760	0	32813	32751	32647	34388	30853	32794	32743	32601	
1761	0	32671	32669	32775	32391	32585	32595	32661	32669	
1762	0	32476	32767	32931	31517	33769	32671	32743	32615	
1763	0	30884	32722	32927	29651	35565	32836	32715	32596	
1764	0	29326	32647	32765	28196	36973	32751	32756	32100	
1765	0	28419	32599	33321	27551	37669	32759	32696	30478	
1766	0	28620	32839	33899	28203	37353	32772	32751	30231	
1767	0	30691	32749	32969	30295	35383	32810	32725	31874	
1768	0	32655	32687	31773	32186	33412	32658	32757	33442	
1769	0	33612	32711	32353	33410	32295	32685	32758	34087	
1770	0	33786	32766	32662	33646	31943	32765	32660	33821	
1771	0	33537	32799	32783	33338	31975	32627	32710	33551	
1772	0	33782	32597	32541	33751	31739	32754	32681	33635	
1773	0	33804	32675	32669	33750	31674	32839	32759	33149	
1774	0	33620	32775	32965	33623	31751	32710	32691	33037	
1775	0	33662	32676	32605	33702	31751	32775	32731	32919	
1776	0	33975	32635	32788	33918	31430	32718	32705	32756	
1777	0	35234	32708	32699	35285	30265	32621	32735	32740	
1778	0	35880	32736	32795	35986	29623	32681	32703	32687	
1779	0	33449	32671	32826	35755	29562	32751	32695	32647	
1780	0	32775	32611	32735	34438	30757	32773	32732	32703	
1781	0	32609	32577	32653	32725	32487	32703	32675	32711	
1782	0	32384	32495	32735	31387	33641	32716	32732	32740	
1783	0	31199	32516	32860	29629	35463	32861	32739	32690	
1784	0	29384	32587	32844	28075	37052	32820	32687	32247	
1785	0	28484	32700	33282	27500	37743	32807	32735	30524	
1786	0	28736	32775	33683	28183	37383	32743	32662	30428	
1787	0	30609	32806	32959	30195	35559	32660	32751	31872	
1788	0	32040	32749	32340	31613	34031	32783	32754	32813	
1789	0	32770	32755	32475	32449	33005	32717	32668	33139	
1790	0	33319	32747	32528	32925	32314	32537	32771	33594	
1791	0	33901	32717	32647	33615	31643	32775	32756	33878	
1792	0	34153	32675	32903	34053	31346	32847	32731	34077	
1793	0	34094	32751	32823	34125	31279	32799	32773	33495	
1794	0	33980	32724	32718	33724	31401	32783	32642	33110	
1795	0	33560	32675	32542	33510	31743	32837	32741	33111	
1796	0	34021	32725	32809	33946	31330	32677	32683	32981	
1797	0	35554	32771	32775	35693	29987	32775	32711	32853	
1798	0	36070	32743	32705	35929	29449	32741	32631	32671	
1799	0	33671	32739	32789	35975	29531	32691	32711	32745	
1800	0	32823	32719	32893	34773	30540	32743	32666	32605	
1801	0	32623	32447	32734	32918	32315	32625	32695	32671	
1802	0	32445	32613	32822	31218	33866	32634	32647	32587	
1803	0	31082	32684	32733	29551	35516	32826	32732	32623	
1804	0	29553	32718	32698	28360	36757	32781	32743	32364	
1805	0	28544	32727	32992	27673	37581	32759	32782	30833	
1806	0	28788	32677	33554	28157	37327	32749	32745	30441	
1807	0	30340	32745	33148	29943	35735	32671	32666	31604	
1808	0	31744	32591	32503	31393	34275	32739	32736	32573	
1809	0	33001	32617	32119	32606	32869	32789	32671	33543	
1810	0	33707	32763	32687	33555	32029	32725	32747	33987	
1811	0	33943	32755	32695	33821	31716	32823	32697	33783	
1812	0	33669	32711	32636	33479	31831	32795	32730	33507	
1813	0	33585	32717	32747	33531	31851	32707	32726	33347	
1814	0	33621	32766	32847	33586	31789	32615	32711	33175	
1815	0	33782	32623	32659	33549	31613	32660	32756	33010	
1816	0	34550	32621	32742	34537	30835	32699	32690	32863	
1817	0	35765	32706	32826	35734	29766	32719	32745	32815	
1818	0	35943	32727	32775	36148	29487	32655	32679	32668	
1819	0	33449	32715	32927	35761	29556	32719	32747	32711	
1820	0	32770	32593	32854	34579	30703	32713	32684	32641	
1821	0	32632	32530	32884	32927	32246	32678	32747	32617	
1822	0	32443	32580	32767	31687	33583	32711	32684	32703	
1823	0	31191	32701	32884	29693	35541	32745	32708	32658	
1824	0	29568	32738	32716	28290	36743	32749	32700	32375	
1825	0	28402	32692	33101	27466	37925	32791	32770	30576	
1826	0	28495	32683	33852	27872	37407	32757	32735	30142	
1827	0	30445	32738	33191	30011	35599	32807	32671	31698	
1828	0	32007	32775	32371	31581	33961	32793	32739	32775	
1829	0	32915	32759	31987	32485	32883	32775	32711	33442	
1830	0	33439	32605	32559	33110	32325	32683	32757	33527	
1831	0	33713	32775	32613	33519	31879	32783	32692	33797	
1832	0	33873	32687	32646	33607	31631	32711	32743	33791	
1833	0	33972	32719	32601	33943	31489	32708	32749	33826	
1834	0	33956	32791	32695	33783	31481	32855	32671	33090	
1835	0	33654	32772	32679	33617	31711	32679	32735	32996	
1836	0	34128	32578	32603	34143	31251	32671	32693	32871	
1837	0	35583	32767	32725	35734	29931	32775	32752	32847	
1838	0	36156	32721	32695	36039	29343	32737	32681	32769	
1839	0	33543	32799	32711	36151	29348	32823	32711	32799	
1840	0	32862	32552	32726	34726	30468	32766	32663	32653	
1841	0	32701	32555	32799	32726	32347	32733	32719	32695	
1842	0	32390	32730	32830	30961	34002	32699	32641	32646	
1843	0	31052	32762	32854	29506	35444	32789	32751	32735	
1844	0	29208	32675	32854	28047	37186	32699	32755	31973	
1845	0	28127	32822	33501	27271	38038	32662	32740	30229	
1846	0	28844	32707	33732	28268	37293	32788	32755	30542	
1847	0	31191	32583	32605	30703	34949	32796	32690	32295	
1848	0	32363	32751	31981	32095	33574	32775	32751	33124	
1849	0	33026	32679	32486	32815	32772	32621	32647	33415	
1850	0	33277	32743	32715	33239	32413	32725	32719	33415	
1851	0	33737	32647	32937	33447	31897	32749	32663	33746	
1852	0	33746	32577	32607	33611	31725	32453	32723	33629	
1853	0	33730	32757	32946	33599	31563	32839	32669	33429	
1854	0	33685	32718	32599	33639	31606	32711	32727	33151	
1855	0	33383	32725	32647	33229	31887	32763	32687	33007	
1856	0	34087	32594	32647	34135	31266	32774	32748	32851	
1857	0	35444	32607	32831	35436	30029	32636	32659	32788	
1858	0	36014	32671	32791	35893	29410	32682	32755	32668	
1859	0	33938	32707	32730	36134	29319	32742	32759	32711	
1860	0	32962	32805	32681	34681	30557	32731	32705	32726	
1861	0	32747	32679	32797	32797	32327	32890	32758	32613	
1862	0	32561	32783	32839	31549	33595	32647	32665	32665	
1863	0	31180	32586	32939	30007	35282	32753	32763	32662	
1864	0	29508	32639	32756	28477	36790	32772	32644	32336	
1865	0	28268	32514	33339	27415	37808	32845	32735	30479	
1866	0	28495	32551	33887	27976	37503	32795	32735	30206	
1867	0	30396	32775	33159	30123	35689	32678	32735	31747	
1868	0	31853	32735	32460	31523	34183	32675	32701	32751	
1869	0	32839	32699	31971	32611	33031	32803	32749	33415	
1870	0	33445	32690	32426	33189	32245	32705	32767	33739	
1871	0	33769	32581	32623	33415	31803	32727	32647	33856	
1872	0	33862	32603	32847	33717	31674	32813	32742	33670	
1873	0	33804	32571	32775	33759	31675	32785	32716	33615	
1874	0	33495	32617	32699	33303	31919	32689	32775	33111	
1875	0	33544	32775	32815	33511	31906	32751	32775	33075	
1876	0	34337	32751	32621	34439	31078	32763	32663	32954	
1877	0	35879	32782	32671	35802	29703	32633	32735	32748	
1878	0	36138	32731	32747	36143	29369	32762	32658	32743	
1879	0	33967	32679	32750	36317	29271	32787	32735	32671	
1880	0	32973	32603	32791	34685	30413	32706	32669	32725	
1881	0	32663	32523	32763	32971	32055	32710	32735	32692	
1882	0	32476	32607	32810	31911	33269	32676	32687	32692	
1883	0	31410	32731	32902	29974	35128	32698	32743	32740	
1884	0	29502	32743	32775	28135	36940	32687	32674	32352	
1885	0	28310	32679	33223	27337	37961	32767	32742	30630	
1886	0	28444	32759	33917	27783	37692	32797	32767	30159	
1887	0	30418	32773	33111	29990	35750	32863	32687	31798	
1888	0	31810	32559	32391	31441	34117	32775	32771	32668	
1889	0	32678	32615	32151	32415	33213	32759	32701	33237	
1890	0	33301	32751	32586	32966	32461	32687	32711	33535	
1891	0	33815	32743	32703	33447	31842	32851	32735	33923	
1892	0	34028	32867	32587	33895	31562	32587	32671	33983	
1893	0	34089	32695	32594	33959	31383	32583	32733	33629	
1894	0	33989	32530	32642	34039	31500	32847	32703	33191	
1895	0	33479	32587	32612	33315	31826	32679	32731	32990	
1896	0	33916	32684	32603	33891	31397	32807	32679	32932	
1897	0	35486	32721	32826	35591	30082	32646	32745	32867	
1898	0	36349	32698	32797	36373	29147	32748	32695	32694	
1899	0	33790	32579	32775	36604	28979	32659	32767	32784	
1900	0	32892	32771	32903	34633	30567	32802	32751	32705	
1901	0	32607	32713	32919	32363	32559	32788	32719	32647	
1902	0	32514	32693	32988	31535	33757	32635	32739	32694	
1903	0	31349	32525	32982	30095	35207	32857	32668	32647	
1904	0	29951	32637	32918	28773	36405	32747	32707	32573	
1905	0	28644	32729	32903	27601	37613	32803	32706	30865	
1906	0	28326	32791	33610	27628	37717	32723	32762	30078	
1907	0	30196	32605	33077	29746	35913	32775	32679	31527	
1908	0	31774	32639	32391	31331	34339	32719	32762	32630	
1909	0	32614	32770	32308	32289	33156	32711	32767	33159	
1910	0	33311	32775	32525	32903	32257	32810	32734	33603	
1911	0	33658	32719	32817	33319	31893	32703	32743	33719	
1912	0	34001	32619	32591	33829	31510	32797	32725	33891	
1913	0	34166	32595	32825	34029	31343	32823	32773	33580	
1914	0	33810	32773	32703	33861	31591	32612	32711	33135	
1915	0	33663	32714	32659	33548	31764	32711	32766	33013	
1916	0	34221	32715	32725	34218	31186	32763	32743	32903	
1917	0	35719	32687	32590	35935	29814	32655	32676	32895	
1918	0	36250	32703	32677	36222	29178	32773	32716	32773	
1919	0	33447	32647	32615	36141	29351	32719	32631	32689	
1920	0	32871	32694	32759	34509	30639	32605	32716	32727	
1921	0	32638	32522	32957	32892	32399	32766	32647	32685	
1922	0	32491	32609	32947	31591	33650	32683	32741	32591	
1923	0	31367	32817	32924	29703	35324	32743	32653	32713	
1924	0	29887	32701	33011	28454	36717	32743	32709	32510	
1925	0	28575	32506	32916	27613	37798	32717	32704	30866	
1926	0	28636	32743	33364	28009	37545	32727	32767	30461	
1927	0	30562	32499	32812	30061	35655	32711	32663	31890	
1928	0	31811	32643	32342	31367	34255	32712	32719	32653	
1929	0	33104	32782	32783	32771	32814	32875	32679	33664	
1930	0	33734	32751	32599	33436	32033	32862	32742	34015	
1931	0	33799	32718	32903	33679	31824	32589	32695	33839	
1932	0	33864	32660	32795	33755	31666	32699	32751	33413	
1933	0	33769	32724	32727	33631	31674	32791	32759	33065	
1934	0	33734	32769	32663	33618	31743	32751	32684	32947	
1935	0	33499	32662	32783	33415	31869	32745	32711	32767	
1936	0	34012	32615	32627	33978	31358	32754	32695	32860	
1937	0	35510	32775	32669	35613	30041	32831	32775	32735	
1938	0	35542	32679	32759	36092	29227	32655	32671	32803	
1939	0	33089	32642	32812	36263	29225	32666	32729	32631	
1940	0	32734	32742	32730	34983	30333	32799	32695	32647	
1941	0	32580	32687	32875	32959	32167	32676	32765	32626	
1942	0	32508	32597	32830	31331	33783	32589	32771	32747	
1943	0	31711	32770	32885	29495	35463	32756	32751	32673	
1944	0	29881	32739	32940	28108	37160	32757	32727	32460	
1945	0	28570	32549	32898	27173	38211	32761	32679	30884	
1946	0	28620	32538	33501	27501	37925	32814	32759	30278	
1947	0	30380	32557	32877	29719	35999	32775	32697	31766	
1948	0	31911	32751	32207	31389	34287	32715	32719	32752	
1949	0	32998	32771	32444	32585	32981	32682	32667	33549	
1950	0	33620	32751	32583	33373	32150	32823	32749	33783	
1951	0	33656	32819	32647	33247	31871	32715	32661	33693	
1952	0	33714	32647	32690	33558	31691	32751	32727	33577	
1953	0	33799	32669	32719	33747	31623	32807	32709	33335	
1954	0	33804	32551	32975	33727	31537	32783	32749	33043	
1955	0	33767	32681	32831	33831	31543	32605	32713	32951	
1956	0	34059	32665	32717	34129	31205	32717	32757	32805	
1957	0	35468	32681	32700	35493	29965	32826	32729	32799	
1958	0	36034	32647	32775	36139	29405	32775	32666	32782	
1959	0	33268	32689	32711	35911	29495	32620	32732	32722	
1960	0	32807	32739	32647	34570	30549	32795	32663	32759	
1961	0	32682	32742	32697	32951	32124	32861	32743	32668	
1962	0	32490	32753	32775	31553	33671	32707	32749	32756	
1963	0	31273	32559	32929	29695	35515	32813	32751	32676	
1964	0	29567	32543	33006	28263	37051	32791	32764	32297	
1965	0	28224	32775	33339	27252	38181	32605	32703	30382	
1966	0	28472	32674	33887	27924	37735	32743	32759	30159	
1967	0	30706	32799	32781	30355	35529	32730	32765	32029	
1968	0	32105	32579	32183	31839	33927	32697	32683	32951	
1969	0	32741	32534	32258	32383	33086	32707	32748	33191	
1970	0	33156	32743	32671	32983	32535	32751	32695	33357	
1971	0	33596	32695	32679	33478	32001	32775	32743	33551	
1972	0	33799	32663	32751	33595	31751	32763	32663	33708	
1973	0	34095	32822	32830	33827	31396	32683	32711	33887	
1974	0	33997	32735	32893	33899	31439	32677	32663	33506	
1975	0	33766	32642	32799	33745	31501	32791	32735	33170	
1976	0	34276	32682	32663	34401	30971	32679	32647	33055	
1977	0	35559	32703	32678	35442	29877	32739	32772	32927	
1978	0	36230	32790	32677	36330	29211	32743	32675	32750	
1979	0	34005	32775	32691	36397	29077	32679	32751	32719	
1980	0	32922	32635	32746	34868	30388	32831	32677	32665	
1981	0	32709	32619	32725	32585	32308	32669	32788	32742	
1982	0	32468	32766	32677	31430	33735	32660	32708	32642	
1983	0	30930	32757	32799	29409	35663	32757	32769	32612	
1984	0	29487	32732	32611	28502	36927	32769	32764	32364	
1985	0	28726	32798	33181	27897	37511	32834	32705	30831	
1986	0	28523	32530	33999	27954	37524	32783	32745	30087	
1987	0	30375	32497	33195	30054	35651	32700	32726	31669	
1988	0	31946	32727	32366	31719	34099	32759	32733	32775	
1989	0	32960	32622	31985	32849	32891	32743	32663	33362	
1990	0	33403	32711	32549	33159	32263	32791	32723	33649	
1991	0	33599	32655	32599	33575	31955	32661	32663	33639	
1992	0	33734	32483	32789	33639	31827	32655	32699	33695	
1993	0	33898	32635	32757	33887	31563	32620	32679	33745	
1994	0	33601	32727	32695	33622	31719	32775	32748	33206	
1995	0	33202	32723	32783	33231	32029	32757	32687	33047	
1996	0	34111	32853	32587	34090	31208	32677	32759	33045	
1997	0	35868	32787	32757	35759	29737	32719	32683	32782	
1998	0	36335	32703	32975	36223	29217	32799	32727	32850	
1999	0	34268	32683	32819	36047	29285	32636	32695	32725	
2000	0	33016	32791	32749	34724	30551	32790	32748	32775	
2001	0	32733	32711	32813	32653	32367	32763	32739	32718	
2002	0	32517	32756	32911	31683	33498	32865	32710	32586	
2003	0	31142	32603	32937	29877	35207	32815	32751	32643	
2004	0	29472	32521	32745	28285	36711	32742	32757	32244	
2005	0	28220	32775	33269	27455	37782	32715	32759	30526	
2006	0	28618	32703	33708	28029	37507	32775	32692	30268	
2007	0	30413	32703	33111	30061	35762	32684	32759	31698	
2008	0	31684	32743	32563	31471	34293	32754	32659	32517	
2009	0	32673	32573	32135	32239	33101	32775	32717	33223	
2010	0	33341	32623	32358	33287	32309	32775	32676	33598	
2011	0	34037	32726	32822	33831	31523	32775	32748	34171	
2012	0	34237	32727	32790	34239	31279	32711	32679	34178	
2013	0	34025	32673	32615	33799	31461	32833	32773	33493	
2014	0	33581	32613	32710	33444	31763	32660	32787	33133	
2015	0	33439	32605	32617	33395	31943	32893	32685	33011	
2016	0	34191	32733	32683	34128	31236	32718	32751	33015	
2017	0	35572	32686	32684	35662	29943	32720	32656	32838	
2018	0	36172	32749	32735	36279	29318	32668	32723	32734	
2019	0	34093	32583	32757	35959	29255	32783	32709	32755	
2020	0	32911	32615	32740	34522	30573	32743	32783	32647	
2021	0	32711	32700	32866	32820	32256	32855	32690	32671	
2022	0	32546	32701	32759	31635	33594	32751	32733	32759	
2023	0	31143	32833	32791	29862	35295	32625	32775	32663	
2024	0	29412	32569	32801	28280	36976	32833	32703	32222	
2025	0	28018	32595	33303	27208	38124	32775	32738	30469	
2026	0	28326	32817	33927	27801	37763	32759	32661	30203	
2027	0	30332	32686	33237	29958	35804	32727	32742	31751	
2028	0	31782	32720	32461	31478	34231	32837	32703	32605	
2029	0	32662	32747	32103	32199	33159	32685	32751	33175	
2030	0	33396	32724	32257	33124	32317	32647	32719	33645	
2031	0	33811	32611	32607	33655	31751	32813	32772	33927	
2032	0	34067	32599	32679	33893	31477	32647	32751	34003	
2033	0	33939	32787	32553	33707	31523	32715	32739	33734	
2034	0	33831	32695	32645	33790	31563	32839	32733	33261	
2035	0	33679	32669	32570	33639	31742	32796	32751	32999	
2036	0	34189	32489	32612	34306	31184	32919	32647	32887	
2037	0	35506	32628	32758	35399	30075	32646	32731	32903	
2038	0	36061	32748	32834	36183	29434	32535	32658	32757	
2039	0	34560	32773	32766	36231	29307	32773	32734	32798	
2040	0	33046	32647	32791	34665	30669	32785	32775	32788	
2041	0	32679	32659	32939	33014	32262	32555	32762	32860	
2042	0	32492	32731	32994	31767	33577	32719	32685	32767	
2043	0	31153	32791	33056	30169	35151	32696	32765	32826	
2044	0	29492	32812	33071	28492	36702	32745	32684	32319	
2045	0	28294	32791	33226	27543	37836	32775	32756	30450	
2046	0	27971	32967	34247	27551	38044	32753	32683	29575	
2047	0	30112	32729	33283	29867	35945	32732	32751	31444	
2048	0	31947	32662	32305	31687	34023	32698	32738	32786	
2049	0	33220	32775	31762	32999	32676	32701	32727	33679	
2050	0	33878	32685	32465	33658	31799	32737	32761	34119	
2051	0	34416	32755	32615	34263	31239	32553	32735	34494	
2052	0	34388	32479	32613	34237	31134	32775	32743	34179	
2053	0	34047	32391	32564	33878	31328	32827	32731	33602	
2054	0	34066	32583	32677	33985	31309	32887	32749	33239	
2055	0	33975	32609	32647	33587	31367	32647	32695	33055	
2056	0	34616	32655	32588	34331	30802	32655	32741	32887	
2057	0	35852	32547	32604	35705	29638	32722	32691	32683	
2058	0	34262	32489	32659	36061	29255	32646	32691	32623	
2059	0	32989	32627	32583	36039	29339	32815	32677	32535	
2060	0	32694	32583	32517	34521	30398	32647	32749	32556	
2061	0	32518	32699	32630	32895	32020	32743	32694	32454	
2062	0	32452	32511	32623	31607	33335	32694	32751	32503	
2063	0	32287	32502	32544	29766	35027	32692	32686	32418	
2064	0	31100	32614	32412	28350	36575	32696	32791	32450	
2065	0	29478	32556	32485	27343	37719	32658	32700	31861	
2066	0	29314	32527	32550	27783	37531	32799	32751	31260	
2067	0	31171	32667	32775	30087	35428	32686	32748	32564	
2068	0	32452	32556	32739	31441	33839	32669	32747	33403	
2069	0	33371	32493	32671	32806	32591	32775	32718	32767	
2070	0	33935	32567	32811	33575	31831	32623	32731	32677	
2071	0	34194	32679	32903	33879	31348	32743	32767	32771	
2072	0	34268	32663	32871	34108	31151	32781	32738	32767	
2073	0	34263	32595	32804	34309	31066	32755	32671	32845	
2074	0	32817	32719	32858	33811	31565	32751	32767	32749	
2075	0	32638	32855	32895	32775	32754	32935	32655	32763	
2076	0	32647	32823	33015	32723	32994	32879	32727	32735	
2077	0	32574	32775	32975	34219	31733	32847	32677	32775	
2078	0	32554	33007	33031	34979	30995	32793	32738	32787	
2079	0	32482	32969	33063	34943	31131	32487	32670	32815	
2080	0	32409	32910	33255	33311	32449	32804	32735	32771	
2081	0	32347	32948	33212	31253	34291	32726	32671	32731	
2082	0	32137	32863	33140	30447	35383	32800	32730	32594	
2083	0	30352	32729	33175	28831	36835	32660	32659	32647	
2084	0	28629	32724	33262	27503	38069	32733	32747	31783	
2085	0	27320	32922	34732	26710	38996	32750	32671	29623	
2086	0	27631	32731	35598	27381	38535	32839	32733	29389	
2087	0	29961	32759	34395	29769	36199	32799	32736	31316	
2088	0	32033	32711	33014	31830	34021	32871	32661	32807	
2089	0	33192	32775	32225	33003	32718	32821	32759	33503	
2090	0	33622	32889	31972	33415	32047	32754	32652	33604	
2091	0	34079	32789	31751	33891	31433	32823	32754	33927	
2092	0	34439	32727	31533	34205	31047	32735	32735	34099	
2093	0	34744	32692	31393	34359	30706	32701	32700	34284	
2094	0	34791	32555	31687	34567	30525	32707	32775	34351	
2095	0	34586	32700	32186	34479	30639	32751	32663	33911	
2096	0	34855	32695	32303	34873	30343	32660	32754	34127	
2097	0	36508	32721	32607	36359	28972	32653	32679	33259	
2098	0	37128	32655	32587	37039	28329	32799	32741	33146	
2099	0	36668	32628	32587	36701	28629	32733	32695	33035	
2100	0	34319	32567	32620	35108	29855	32694	32735	32823	
2101	0	33159	32707	32772	33639	31343	32669	32747	32773	
2102	0	32774	32615	32806	32645	32452	32876	32763	32669	
2103	0	31247	32511	32713	30540	34518	32765	32765	32686	
2104	0	29126	32496	32846	28564	36505	32740	32679	32231	
2105	0	27939	32699	33501	27442	37612	32743	32727	30445	
2106	0	28161	32704	34212	27803	37543	32730	32667	30099	
2107	0	30189	32765	33383	29901	35567	32704	32743	31599	
2108	0	31781	32634	32551	31657	33959	32796	32686	32773	
2109	0	32693	32769	32101	32471	33014	32800	32759	33247	
2110	0	33333	32799	31815	32976	32318	32707	32716	33655	
2111	0	33764	32594	32386	33657	31799	32786	32735	33815	
2112	0	33871	32660	32547	33779	31648	32719	32717	33823	
2113	0	33846	32719	32549	33847	31623	32655	32761	33574	
2114	0	33721	32655	32807	33567	31623	32855	32646	33137	
2115	0	33551	32719	32916	33577	31803	32647	32733	32980	
2116	0	33897	32599	32795	33991	31451	32675	32654	32902	
2117	0	35412	32564	32959	35495	30151	32885	32729	32707	
2118	0	36050	32639	32822	35901	29479	32709	32647	32653	
2119	0	35492	32719	32914	36151	29391	32661	32745	32643	
2120	0	33125	32857	32731	34814	30436	32797	32704	32644	
2121	0	32683	32767	32775	32847	32150	32723	32736	32615	
2122	0	32359	32774	32694	31473	33671	32623	32695	32654	
2123	0	30743	32677	32831	29693	35523	32711	32733	32561	
2124	0	28964	32759	32655	28183	36909	32739	32733	32247	
2125	0	27970	32507	33584	27355	37785	32743	32749	30511	
2126	0	28174	32615	34239	27762	37650	32757	32703	30069	
2127	0	30014	32662	33575	29724	35911	32791	32727	31471	
2128	0	31711	32679	32647	31481	34269	32775	32687	32736	
2129	0	32718	32767	32039	32463	33009	32623	32726	33253	
2130	0	33214	32597	31919	33087	32362	32765	32695	33483	
2131	0	33560	32591	32407	33334	31989	32643	32745	33605	
2132	0	33730	32743	32509	33654	31791	32707	32657	33581	
2133	0	33919	32695	32551	33787	31588	32733	32743	33703	
2134	0	33725	32663	32647	33687	31711	32742	32663	33445	
2135	0	33607	32748	32591	33404	31806	32794	32730	33117	
2136	0	34277	32596	32839	34199	31149	32775	32631	33014	
2137	0	35822	32583	32825	35822	29751	32690	32733	32801	
2138	0	36333	32659	32899	36271	29217	32703	32662	32785	
2139	0	35838	32713	32811	36390	29149	32783	32723	32734	
2140	0	33312	32755	32775	35039	30204	32814	32710	32674	
2141	0	32770	32699	32808	33199	31965	32696	32755	32679	
2142	0	32476	32677	32807	31730	33405	32598	32743	32647	
2143	0	31027	32654	33033	29959	35111	32676	32647	32655	
2144	0	29233	32710	32655	28332	36853	32843	32727	32525	
2145	0	27922	32751	33380	27138	37895	32698	32713	30650	
2146	0	27972	32789	34309	27487	37871	32749	32753	29989	
2147	0	30055	32518	33437	29831	35975	32893	32684	31610	
