# OpenSignals Text File Format
# {"00:07:80:64:6D:DA": {"sensor": ["CUSTOM/0.5/1.0/V", "CUSTOM/0.5/1.0/V", "CUSTOM/0.5/1.0/V", "CUSTOM/0.5/1.0/V"], "device name": "Plataforma", "column": ["nSeq", "DI", "CH1", "CH2", "CH3", "CH4"], "sync interval": 2, "time": "14:13:51.161", "comments": "", "device connection": "BTH00:07:80:64:6D:DA", "channels": [1, 2, 3, 4], "date": "2017-6-2", "mode": 0, "digital IO": [0, 1], "firmware version": 772, "device": "biosignalsplux", "position": 0, "sampling rate": 1000, "label": ["CH1", "CH2", "CH3", "CH4"], "resolution": [16, 16, 16, 16], "special": [{}, {}, {}, {}]}, "00:07:80:3B:46:38": {"sensor": ["CUSTOM/0.5/1.0/V", "CUSTOM/0.5/1.0/V", "CUSTOM/0.5/1.0/V", "CUSTOM/0.5/1.0/V", "CUSTOM/0.5/1.0/V", "CUSTOM/0.5/1.0/V", "CUSTOM/0.5/1.0/V", "CUSTOM/0.5/1.0/V"], "device name": "EMGs", "column": ["nSeq", "DI", "RA_L", "RA_R", "OE_L", "OE:R", "IL_L", "IL_R", "MF_L", "MF_R"], "sync interval": 2, "time": "14:13:51.161", "comments": "", "device connection": "BTH00:07:80:3B:46:38", "channels": [1, 2, 3, 4, 5, 6, 7, 8], "date": "2017-6-2", "mode": 0, "digital IO": [0, 1], "firmware version": 772, "device": "biosignalsplux", "position": 1, "sampling rate": 1000, "label": ["RA_L", "RA_R", "OE_L", "OE:R", "IL_L", "IL_R", "MF_L", "MF_R"], "resolution": [16, 16, 16, 16, 16, 16, 16, 16], "special": [{}, {}, {}, {}, {}, {}, {}, {}]}}
# EndOfHeader
910	0	4760	6630	3971	7632	0	0	32480	32751	32749	32953	32631	32455	32750	32540	
911	0	4717	6561	3960	7586	1	0	32602	32813	32726	32930	32957	32742	33281	32583	
912	0	4729	6603	3997	7608	2	0	32647	32767	32743	32839	33700	32707	33319	32588	
913	0	4729	6568	3939	7640	3	0	32783	32815	32843	32775	33813	32548	32827	32687	
914	0	4742	6628	3987	7638	4	0	32860	32796	32831	32661	33367	32797	32229	32661	
915	0	4760	6624	3942	7612	5	0	32873	32823	32745	32658	32538	32851	32391	32364	
916	0	4746	6624	3954	7648	6	0	32844	32798	32801	32591	32300	32839	33079	32397	
917	0	4773	6627	3980	7626	7	0	32841	32790	32866	32527	32270	32887	33327	32359	
918	0	4720	6630	3986	7600	8	0	32877	32734	32811	32599	32239	32607	32901	32629	
919	0	4760	6640	3970	7630	9	0	32984	32749	32735	32602	32429	32404	32380	32765	
920	0	4736	6596	3939	7619	10	0	32978	32708	32773	32667	32524	32615	32317	32957	
921	0	4763	6634	3975	7617	11	0	32992	32615	32730	32514	32511	32687	32535	32889	
922	0	4713	6634	3979	7600	12	0	33097	32601	32709	32406	32258	32837	32937	32727	
923	0	4766	6605	3961	7679	13	0	33057	32669	32693	32509	32293	33038	32841	32749	
924	0	4733	6595	3975	7588	14	0	33058	32669	32711	32540	32551	32826	32255	32793	
925	0	4778	6630	4000	7596	15	0	33052	32717	32669	32613	32527	32646	32124	32837	
926	0	4760	6563	3945	7623	16	0	33044	32767	32701	32757	32444	32873	32489	32648	
927	0	4758	6624	3985	7674	17	0	33053	32789	32705	32817	32397	32822	33095	32703	
928	0	4762	6580	3927	7660	18	0	33068	32815	32660	32638	32439	32642	33263	32503	
929	0	4754	6563	4018	7594	19	0	33033	32823	32803	32594	32689	32887	32903	32626	
930	0	4741	6608	3968	7626	20	0	32885	32733	32827	32407	32579	32836	32339	32598	
931	0	4724	6558	4009	7602	21	0	32956	32742	32785	32295	32495	32799	32455	32492	
932	0	4705	6582	3940	7633	22	0	32874	32681	32831	32307	32359	32976	33148	32565	
933	0	4750	6604	3942	7626	23	0	32824	32634	32828	32339	32478	32847	33435	32559	
934	0	4762	6623	3925	7620	24	0	32775	32535	32805	32474	32391	32692	33046	32671	
935	0	4754	6642	4006	7617	25	0	32791	32607	32719	32531	32306	32877	32540	32647	
936	0	4718	6608	3939	7648	26	0	32775	32683	32675	32745	32543	32838	32359	32671	
937	0	4744	6630	3960	7612	27	0	32724	32639	32628	32780	32762	32636	32735	32789	
938	0	4765	6573	4000	7656	28	0	32673	32483	32639	32739	33057	32775	33263	33007	
939	0	4722	6621	3972	7645	29	0	32636	32455	32631	32743	33110	32659	33255	33189	
940	0	4740	6618	3973	7610	30	0	32683	32529	32647	32719	32829	32675	32647	32919	
941	0	4713	6648	4012	7639	31	0	32718	32537	32607	32756	32580	32709	32167	32902	
942	0	4731	6644	3993	7612	32	0	32738	32657	32692	32688	32535	32794	32516	32911	
943	0	4813	6619	3965	7626	33	0	32695	32559	32883	32677	32566	32711	33063	32961	
944	0	4781	6589	3945	7601	34	0	32676	32577	32935	32756	32590	32551	33159	32738	
945	0	4773	6614	3954	7620	35	0	32685	32647	32881	32861	32711	32655	32775	32697	
946	0	4780	6608	3984	7625	36	0	32697	32557	32843	32839	32684	32551	32286	32630	
947	0	4758	6604	3989	7613	37	0	32692	32527	32805	32924	32725	32519	32488	32751	
948	0	4765	6636	3980	7672	38	0	32646	32743	32786	32982	32611	32977	33009	32753	
949	0	4741	6596	3972	7647	39	0	32686	32541	32740	32892	32718	32975	33311	32703	
950	0	4772	6628	3940	7678	40	0	32655	32573	32793	32863	32856	33069	32999	32796	
951	0	4733	6672	3943	7625	41	0	32693	32591	32866	32673	32711	33041	32303	32669	
952	0	4752	6621	3948	7625	42	0	32756	32679	32679	32681	32685	32985	32106	32952	
953	0	4727	6634	3976	7626	43	0	32756	32748	32551	32761	32741	32716	32423	32901	
954	0	4767	6613	3982	7652	44	0	32732	32748	32555	32682	32775	32700	33031	32941	
955	0	4760	6612	3994	7622	45	0	32807	32626	32500	32623	32883	32663	32959	32775	
956	0	4716	6626	3928	7652	46	0	32724	32719	32573	32548	32759	32766	32551	32705	
957	0	4779	6604	3985	7621	47	0	32783	32735	32711	32533	32850	32843	32255	32745	
958	0	4796	6665	3940	7611	48	0	32724	32772	32660	32541	33047	32647	32551	32769	
959	0	4747	6606	3992	7612	49	0	32625	32669	32738	32604	32956	32600	33175	33055	
960	0	4757	6634	3998	7689	50	0	32671	32551	32820	32559	32583	32451	33076	32895	
961	0	4744	6633	4008	7685	51	0	32702	32527	32847	32543	32287	32727	32714	32709	
962	0	4752	6610	3955	7589	52	0	32788	32503	32825	32716	32404	32877	32283	32579	
963	0	4758	6656	3992	7644	53	0	32759	32623	32811	32792	32890	32767	32321	32612	
964	0	4744	6646	3969	7582	54	0	32748	32775	32839	32884	33026	33055	32873	32734	
965	0	4785	6603	3972	7619	55	0	32717	32741	32857	32847	32813	32903	33206	32685	
966	0	4705	6620	3969	7664	56	0	32765	32711	32854	32773	32742	32599	32973	32863	
967	0	4758	6616	3986	7637	57	0	32758	32734	32731	32682	32861	32635	32521	32869	
968	0	4767	6605	3962	7646	58	0	32761	32717	32741	32663	33031	32395	32516	32855	
969	0	4787	6665	3966	7670	59	0	32773	32749	32775	32740	33014	32473	33021	32738	
970	0	4774	6664	3987	7661	60	0	32802	32632	32712	32726	33254	32387	33399	33030	
971	0	4748	6632	3981	7661	61	0	32789	32775	32724	32829	33255	32676	33355	33004	
972	0	4784	6606	3962	7612	62	0	32765	32561	32758	32727	32790	32843	32671	32734	
973	0	4771	6600	3956	7621	63	0	32684	32703	32713	32697	32610	32781	32293	32642	
974	0	4781	6616	3957	7657	64	0	32716	32537	32822	32659	32564	32895	32435	32523	
975	0	4773	6611	4003	7617	65	0	32788	32713	32930	32617	32375	32775	33047	32471	
976	0	4813	6569	3972	7640	66	0	32763	32775	32879	32593	32183	32748	33159	32601	
977	0	4726	6619	4003	7619	67	0	32781	32767	32892	32591	32451	32607	32903	32903	
978	0	4757	6590	3998	7614	68	0	32696	32727	32995	32647	32730	32655	32249	32863	
979	0	4764	6617	3967	7606	69	0	32742	32518	32831	32645	32864	32816	32398	32775	
980	0	4792	6618	4001	7640	70	0	32734	32597	32835	32698	32913	32967	32660	32719	
981	0	4690	6615	4013	7634	71	0	32671	32529	32866	32609	32887	32913	33271	32719	
982	0	4723	6613	3957	7620	72	0	32756	32717	32799	32790	32903	32969	33143	32742	
983	0	4752	6597	3960	7600	73	0	32765	32523	32693	32765	32942	32727	32447	32837	
984	0	4743	6594	3924	7619	74	0	32735	32723	32655	32703	32940	32721	32028	32829	
985	0	4769	6627	3937	7652	75	0	32694	32583	32682	32706	32665	32854	32303	32754	
986	0	4755	6642	3922	7664	76	0	32780	32719	32677	32679	32513	32829	33003	32829	
987	0	4738	6636	3975	7604	77	0	32767	32519	32615	32785	32636	32447	33335	32839	
988	0	4750	6633	3960	7612	78	0	32823	32659	32679	32711	32669	32615	33003	32815	
989	0	4762	6618	3997	7632	79	0	32718	32623	32699	32831	32677	32775	32470	32893	
990	0	4744	6596	3933	7589	80	0	32783	32743	32678	32937	32703	32671	32497	33039	
991	0	4740	6645	3956	7656	81	0	32728	32637	32705	32876	32807	32450	32985	32920	
992	0	4710	6641	4001	7600	82	0	32717	32719	32847	32825	32639	32726	33493	32789	
993	0	4770	6638	3979	7608	83	0	32711	32590	32974	32725	32527	32924	33303	32717	
994	0	4746	6656	4004	7618	84	0	32775	32719	32929	32556	32643	32787	32671	32718	
995	0	4770	6632	3939	7625	85	0	32862	32530	32871	32574	32582	32763	32206	32682	
996	0	4727	6608	3973	7625	86	0	32846	32713	32798	32657	32406	32865	32495	32569	
997	0	4748	6632	3978	7599	87	0	32767	32567	32751	32875	32575	32895	33030	32636	
998	0	4786	6644	3962	7645	88	0	32791	32788	32698	32711	32631	32550	33287	32730	
999	0	4744	6604	3941	7618	89	0	32845	32722	32707	32727	32631	32589	32999	32839	
1000	0	4763	6597	3981	7592	90	0	32767	32765	32647	32757	32839	32647	32391	32775	
1001	0	4747	6644	3952	7624	91	0	32804	32687	32583	32758	32983	32873	32316	32797	
1002	0	4703	6656	3937	7580	92	0	32800	32759	32665	32681	32975	32774	32811	32759	
1003	0	4733	6584	3948	7620	93	0	32773	32589	32659	32580	32759	32879	33249	32775	
1004	0	4734	6669	3998	7608	94	0	32791	32811	32671	32471	32668	32819	33159	32719	
1005	0	4768	6602	3954	7583	95	0	32807	32818	32770	32519	32743	32811	32519	32834	
1006	0	4787	6571	3940	7632	96	0	32812	32602	32759	32511	32584	32845	32215	32869	
1007	0	4731	6640	3933	7621	97	0	32788	32620	32836	32695	32367	32985	32381	32759	
1008	0	4731	6619	3985	7630	98	0	32778	32605	32871	32809	32031	32746	32971	32726	
1009	0	4741	6638	3974	7612	99	0	32728	32739	32833	32891	32037	32974	33079	32719	
1010	0	4720	6632	3969	7576	100	0	32756	32781	32801	32803	32349	32837	32895	32791	
1011	0	4740	6656	3940	7651	101	0	32687	32663	32885	32786	32764	32601	32173	32914	
1012	0	4733	6632	3990	7656	102	0	32679	32711	32796	32868	33405	32532	32156	32957	
1013	0	4754	6653	3966	7592	103	0	32710	32676	32771	32911	33581	32631	32533	32952	
1014	0	4730	6620	3976	7658	104	0	32677	32735	32642	32763	33138	32726	33007	32770	
1015	0	4730	6572	3932	7610	105	0	32796	32631	32579	32742	32899	32471	33093	32687	
1016	0	4768	6599	3945	7630	106	0	32763	32767	32669	32605	32993	32645	32676	32695	
1017	0	4734	6620	3952	7578	107	0	32708	32643	32775	32439	33017	32751	32391	32620	
1018	0	4810	6603	3976	7587	108	0	32732	32683	32828	32527	32830	32666	32495	32572	
1019	0	4763	6628	3952	7617	109	0	32740	32574	32671	32557	32647	32711	32835	32511	
1020	0	4765	6610	3932	7565	110	0	32780	32775	32681	32511	32469	32822	33244	32477	
1021	0	4707	6607	3960	7648	111	0	32712	32681	32813	32637	32621	32743	32885	32719	
1022	0	4804	6660	3952	7598	112	0	32701	32725	32863	32631	32627	32775	32567	32861	
1023	0	4712	6662	3982	7645	113	0	32734	32717	32879	32747	32542	32642	32312	32891	
1024	0	4780	6670	3978	7634	114	0	32792	32713	32992	32733	32543	32731	32525	32901	
1025	0	4772	6648	3949	7646	115	0	32737	32673	32987	32612	32454	32818	33199	32878	
1026	0	4748	6593	3943	7588	116	0	32790	32709	32862	32669	32466	32769	33179	32775	
1027	0	4782	6604	3971	7600	117	0	32780	32631	32790	32595	32412	32614	32735	32687	
1028	0	4722	6595	3949	7617	118	0	32828	32645	32748	32700	32583	32747	32226	32703	
1029	0	4741	6641	3974	7634	119	0	32822	32567	32738	32835	32999	32754	32316	32723	
1030	0	4773	6625	3900	7620	120	0	32756	32702	32727	32846	33065	32655	32837	32623	
1031	0	4723	6615	3954	7640	121	0	32726	32556	32647	32861	32587	32687	33251	32739	
1032	0	4768	6632	3981	7573	122	0	32840	32711	32687	32802	32621	32670	33189	32843	
1033	0	4764	6606	3971	7622	123	0	32764	32594	32567	32858	32767	32679	32685	32806	
1034	0	4751	6616	3944	7642	124	0	32775	32757	32631	32817	32855	32475	32441	32647	
1035	0	4743	6662	4012	7605	125	0	32743	32647	32757	32846	33019	32740	32702	32814	
1036	0	4741	6616	3998	7596	126	0	32735	32713	32736	32927	33270	32926	33247	32847	
1037	0	4732	6611	3981	7619	127	0	32730	32551	32751	32868	32917	33181	33300	32868	
1038	0	4786	6582	3949	7612	128	0	32712	32733	32735	32887	32285	32959	32983	32887	
1039	0	4750	6598	3950	7628	129	0	32708	32660	32788	32749	32351	32937	32375	32809	
1040	0	4690	6594	4000	7633	130	0	32722	32787	32743	32743	32620	32980	32516	32750	
1041	0	4806	6605	3951	7576	131	0	32713	32740	32660	32713	32719	32620	32952	32801	
1042	0	4765	6628	3942	7622	132	0	32770	32694	32643	32668	32749	32731	33363	32851	
1043	0	4712	6588	3932	7616	133	0	32826	32719	32575	32609	32573	32794	33207	32775	
1044	0	4752	6624	3978	7634	134	0	32839	32607	32663	32575	32663	32493	32607	32769	
1045	0	4745	6665	3974	7625	135	0	32807	32751	32709	32565	32740	32602	32359	32780	
1046	0	4737	6594	3940	7632	136	0	32808	32724	32821	32593	32749	32750	32621	32737	
1047	0	4725	6613	3952	7611	137	0	32801	32724	32809	32590	32903	32869	33086	32615	
1048	0	4738	6582	3914	7586	138	0	32796	32743	32884	32667	32869	32739	33074	32605	
1049	0	4734	6661	3939	7559	139	0	32807	32598	32895	32685	32797	32695	32767	32575	
1050	0	4740	6617	3949	7624	140	0	32707	32611	32927	32671	32743	32707	32177	32622	
1051	0	4741	6628	3964	7646	141	0	32689	32477	32879	32775	32663	32765	32352	32775	
1052	0	4740	6599	3954	7614	142	0	32713	32736	32820	32786	32505	32436	32838	32978	
1053	0	4781	6634	3972	7651	143	0	32698	32623	32839	32939	32716	32639	33295	33111	
1054	0	4732	6657	4033	7631	144	0	32672	32775	32799	32771	32823	32871	33142	33241	
1055	0	4721	6583	3969	7630	145	0	32679	32711	32791	32773	32989	32789	32548	33151	
1056	0	4722	6614	3978	7618	146	0	32743	32497	32806	32626	32971	32727	32255	33086	
1057	0	4761	6618	3952	7580	147	0	32702	32677	32692	32644	32644	32540	32535	32931	
1058	0	4692	6640	4024	7589	148	0	32759	32631	32669	32662	32763	32727	32988	32848	
1059	0	4746	6629	3934	7602	149	0	32748	32695	32762	32639	32925	32775	33145	32775	
1060	0	4745	6660	3961	7634	150	0	32746	32551	32783	32869	32987	32647	32927	32690	
1061	0	4729	6656	3940	7590	151	0	32772	32722	32802	32799	33042	32765	32113	32663	
1062	0	4764	6626	3957	7637	152	0	32785	32687	32721	32807	32705	32800	32205	32615	
1063	0	4757	6612	3940	7655	153	0	32756	32500	32737	32722	32567	32532	32554	32639	
1064	0	4702	6632	3992	7585	154	0	32804	32661	32735	32662	32657	32679	33100	32693	
1065	0	4745	6622	3991	7618	155	0	32863	32567	32700	32587	32551	32739	33153	32659	
1066	0	4707	6657	3963	7574	156	0	32810	32727	32791	32503	32559	32775	32534	32635	
1067	0	4798	6576	3969	7597	157	0	32806	32647	32765	32503	32583	32663	32135	32587	
1068	0	4761	6610	3967	7602	158	0	32792	32732	32748	32592	32527	33000	32380	32551	
1069	0	4737	6621	3948	7660	159	0	32861	32689	32767	32541	32628	32961	32919	32500	
1070	0	4732	6597	3944	7621	160	0	32781	32605	32703	32682	32535	32775	33287	32563	
1071	0	4746	6591	3954	7606	161	0	32775	32695	32818	32675	32613	32567	32955	32859	
1072	0	4740	6581	3963	7645	162	0	32733	32669	32884	32727	32689	32630	32420	33051	
1073	0	4727	6624	3980	7612	163	0	32688	32715	32815	32671	32644	32660	32349	32918	
1074	0	4762	6620	3924	7621	164	0	32742	32615	32762	32644	32714	32903	32594	32745	
1075	0	4716	6586	3941	7635	165	0	32810	32647	32730	32578	32751	33115	33269	32729	
1076	0	4768	6590	3947	7616	166	0	32781	32639	32644	32730	32554	33069	33087	32805	
1077	0	4721	6581	3959	7641	167	0	32871	32807	32671	32799	32305	32999	32770	32845	
1078	0	4736	6604	3987	7626	168	0	32806	32751	32805	32877	32413	32741	32320	32903	
1079	0	4740	6595	3960	7613	169	0	32719	32705	32820	32948	32475	32601	32517	32871	
1080	0	4738	6572	3918	7619	170	0	32739	32770	32793	32913	32414	32647	33187	32877	
1081	0	4807	6611	3914	7618	171	0	32781	32633	32847	32797	32567	32838	33349	32845	
1082	0	4721	6616	3970	7592	172	0	32745	32711	32743	32687	32518	32751	33119	32812	
1083	0	4740	6609	3973	7614	173	0	32790	32589	32795	32743	32647	32517	32487	32879	
1084	0	4740	6634	3952	7594	174	0	32713	32663	32810	32643	32595	32712	32239	32735	
1085	0	4768	6626	3942	7617	175	0	32757	32636	32775	32761	32421	32764	32629	32695	
1086	0	4734	6642	3940	7616	176	0	32720	32763	32697	32664	32631	32627	33179	32756	
1087	0	4739	6657	3980	7578	177	0	32738	32734	32739	32774	32821	32731	33013	32806	
1088	0	4726	6615	3972	7596	178	0	32730	32703	32663	32767	33255	32893	32695	32847	
1089	0	4772	6585	3924	7600	179	0	32769	32631	32763	32653	33223	32599	32323	32813	
1090	0	4755	6561	3940	7595	180	0	32734	32766	32827	32679	33014	32749	32449	32614	
1091	0	4730	6640	3951	7620	181	0	32739	32621	32874	32596	32901	32859	33097	32644	
1092	0	4738	6624	4006	7632	182	0	32719	32720	32919	32621	32639	32878	33367	32411	
1093	0	4725	6629	3941	7628	183	0	32740	32599	32863	32615	32686	32615	33083	32411	
1094	0	4699	6600	3980	7604	184	0	32815	32613	32743	32576	32830	32775	32373	32584	
1095	0	4736	6626	3942	7620	185	0	32805	32583	32742	32717	32967	32734	32356	32735	
1096	0	4701	6633	3980	7616	186	0	32716	32718	32679	32708	32977	32795	32666	32854	
1097	0	4743	6594	3948	7642	187	0	32756	32663	32679	32757	32781	32772	33229	32808	
1098	0	4732	6601	3935	7616	188	0	32638	32724	32642	32759	32621	32748	33198	32935	
1099	0	4691	6600	4002	7628	189	0	32756	32759	32581	32751	32625	32610	32647	32966	
1100	0	4761	6643	3950	7629	190	0	32740	32738	32623	32762	32551	32703	32119	33047	
1101	0	4720	6612	3901	7637	191	0	32742	32744	32762	32765	32501	32735	32438	32871	
1102	0	4732	6621	3947	7608	192	0	32775	32714	32747	32797	32391	32620	33079	32877	
1103	0	4737	6622	3979	7626	193	0	32769	32639	32719	32685	32474	32677	33279	32709	
1104	0	4769	6544	3916	7601	194	0	32797	32559	32751	32607	32643	32735	32903	32695	
1105	0	4763	6588	3965	7618	195	0	32845	32533	32731	32706	32894	32703	32361	32566	
1106	0	4715	6570	3961	7641	196	0	32797	32540	32775	32723	33079	32809	32391	32620	
1107	0	4744	6580	3931	7611	197	0	32824	32647	32836	32788	33137	32940	32911	32666	
1108	0	4755	6626	3988	7600	198	0	32726	32681	32767	32645	32956	32933	33303	32841	
1109	0	4755	6558	3980	7609	199	0	32738	32677	32775	32615	32835	32756	33087	32789	
1110	0	4728	6609	3928	7641	200	0	32738	32563	32749	32698	33030	32495	32487	32959	
1111	0	4732	6589	3970	7598	201	0	32742	32535	32789	32685	33213	32753	32193	32957	
1112	0	4748	6584	3946	7612	202	0	32753	32553	32781	32674	33339	32789	32583	32903	
1113	0	4702	6576	3952	7594	203	0	32687	32532	32726	32575	32823	32716	33080	32653	
1114	0	4710	6610	3982	7617	204	0	32833	32535	32716	32655	32363	32597	33206	32797	
1115	0	4748	6616	3956	7607	205	0	32799	32692	32647	32739	32111	32775	32493	32647	
1116	0	4721	6608	3980	7580	206	0	32764	32723	32687	32715	32071	33095	32214	32628	
1117	0	4722	6596	3980	7636	207	0	32749	32635	32729	32806	32215	32903	32450	32775	
1118	0	4722	6637	3921	7649	208	0	32732	32643	32766	32772	32411	32692	33036	32831	
1119	0	4781	6604	3979	7606	209	0	32754	32797	32727	32762	32515	32804	33292	32805	
1120	0	4765	6584	3970	7588	210	0	32769	32771	32806	32699	32391	32751	32797	32743	
1121	0	4763	6608	3922	7617	211	0	32770	32695	32756	32789	32383	32575	32335	32736	
1122	0	4733	6591	3948	7604	212	0	32749	32609	32807	32841	32391	32622	32479	32695	
1123	0	4747	6597	3947	7606	213	0	32748	32641	32769	32783	32775	32629	32952	32751	
1124	0	4748	6628	3980	7610	214	0	32718	32640	32751	32775	33041	32881	33379	32815	
1125	0	4751	6618	3983	7620	215	0	32818	32687	32711	32783	33287	32875	32922	32858	
1126	0	4756	6578	3920	7600	216	0	32855	32731	32716	32895	33129	32698	32191	32847	
1127	0	4705	6652	3930	7638	217	0	32900	32867	32738	32839	32835	32823	32105	32693	
1128	0	4748	6660	3973	7625	218	0	32826	32717	32767	32820	32364	32879	32501	32543	
1129	0	4742	6626	3946	7631	219	0	32815	32751	32775	32828	32295	32713	33198	32479	
1130	0	4753	6585	3990	7639	220	0	32750	32613	32799	32727	32205	32399	33135	32488	
1131	0	4713	6616	3930	7624	221	0	32701	32764	32837	32677	32447	32387	32565	32791	
1132	0	4776	6636	3916	7636	222	0	32697	32711	32811	32747	32423	32670	32263	32692	
1133	0	4735	6628	3992	7624	223	0	32762	32703	32879	32692	32631	32867	32642	32771	
1134	0	4732	6607	3940	7572	224	0	32676	32717	32903	32657	32851	32791	33236	32675	
1135	0	4676	6618	3992	7591	225	0	32739	32679	32987	32681	33111	33043	33415	33007	
1136	0	4763	6628	3993	7587	226	0	32819	32647	33060	32658	33287	32978	33024	33190	
1137	0	4779	6532	3977	7573	227	0	32740	32617	33021	32605	33373	32591	32505	33125	
1138	0	4746	6600	3992	7640	228	0	32767	32548	32974	32510	33513	32577	32573	33125	
1139	0	4704	6596	4004	7637	229	0	32713	32669	32730	32504	33411	32525	33095	33031	
1140	0	4704	6629	3974	7634	230	0	32724	32675	32605	32435	32821	32865	33287	32791	
1141	0	4741	6622	3983	7642	231	0	32775	32694	32645	32454	32628	32775	32959	32609	
1142	0	4754	6594	3943	7614	232	0	32804	32699	32559	32613	32747	32775	32343	32676	
1143	0	4712	6572	3945	7658	233	0	32759	32775	32629	32679	32712	32644	32343	32775	
1144	0	4738	6584	3968	7652	234	0	32823	32761	32615	32820	32623	32610	32797	32807	
1145	0	4762	6667	3946	7592	235	0	32892	32852	32626	32893	32613	32878	33223	32976	
1146	0	4724	6644	3965	7632	236	0	32855	32817	32642	32916	32631	32836	33167	32829	
1147	0	4733	6631	3893	7613	237	0	32812	32721	32735	32870	32411	32668	32529	32937	
1148	0	4730	6586	3988	7626	238	0	32740	32695	32775	32687	32319	32845	32316	32753	
1149	0	4700	6600	3958	7632	239	0	32745	32684	32759	32667	32167	33046	32695	32825	
1150	0	4764	6630	3936	7598	240	0	32756	32695	32788	32679	32214	32817	33131	32642	
1151	0	4731	6612	3978	7606	241	0	32745	32719	32775	32771	32347	32775	33167	32644	
1152	0	4776	6569	3944	7604	242	0	32722	32695	32735	32855	32244	32594	32738	32581	
1153	0	4737	6627	3937	7622	243	0	32694	32670	32690	32828	32530	32935	32314	32594	
1154	0	4748	6639	3970	7611	244	0	32723	32668	32783	32788	32745	32853	32436	32359	
1155	0	4768	6612	3963	7554	245	0	32728	32671	32887	32830	33012	32380	33091	32354	
1156	0	4765	6601	4054	7636	246	0	32748	32813	32945	32755	33305	32402	33351	32466	
1157	0	4762	6553	3972	7605	247	0	32780	32677	33007	32615	33444	32775	32991	32583	
1158	0	4757	6644	3978	7648	248	0	32713	32687	32921	32530	32871	32911	32309	32631	
1159	0	4742	6628	3993	7620	249	0	32647	32583	32823	32534	32775	32844	32231	32948	
1160	0	4746	6608	3948	7620	250	0	32731	32588	32831	32603	32998	32606	32689	33060	
1161	0	4765	6592	3957	7621	251	0	32729	32553	32751	32686	32867	32765	33169	33117	
1162	0	4729	6588	3951	7616	252	0	32738	32595	32802	32603	32748	32662	33142	32863	
1163	0	4742	6608	3958	7626	253	0	32798	32628	32743	32543	32615	32721	32491	32819	
1164	0	4747	6584	3940	7604	254	0	32812	32615	32731	32518	32647	32569	32177	32711	
1165	0	4740	6629	3938	7634	255	0	32786	32590	32612	32537	32852	32763	32551	32813	
1166	0	4776	6600	4028	7652	256	0	32838	32595	32604	32631	32766	32713	32999	32771	
1167	0	4768	6586	3954	7607	257	0	32808	32581	32695	32694	32687	32615	33099	32737	
1168	0	4766	6570	3918	7645	258	0	32861	32571	32663	32764	32670	32935	32751	32724	
1169	0	4803	6614	3972	7650	259	0	32827	32599	32595	32703	32707	32847	32258	32889	
1170	0	4764	6604	3955	7618	260	0	32803	32669	32647	32728	32605	32817	32316	32740	
1171	0	4745	6605	3988	7632	261	0	32836	32773	32767	32845	32602	32645	32694	32757	
1172	0	4732	6629	3989	7604	262	0	32738	32762	32713	32843	32639	32887	33085	32695	
1173	0	4713	6616	3972	7611	263	0	32710	32734	32837	32867	32626	32820	32913	32632	
1174	0	4778	6637	3941	7604	264	0	32724	32567	32785	32769	32705	32807	32247	32684	
1175	0	4767	6597	3977	7625	265	0	32796	32655	32647	32773	32573	32820	32135	32734	
1176	0	4752	6606	3932	7617	266	0	32773	32597	32681	32775	32586	32818	32479	32771	
1177	0	4721	6598	3900	7643	267	0	32792	32775	32655	32837	32839	32731	33153	32861	
1178	0	4740	6613	3960	7617	268	0	32773	32747	32685	32743	32876	32772	33279	32922	
1179	0	4726	6564	3968	7619	269	0	32705	32570	32819	32861	32839	32937	32679	32893	
1180	0	4728	6600	3983	7664	270	0	32677	32834	32843	32857	32673	32732	32132	32835	
1181	0	4755	6632	3977	7636	271	0	32704	32663	33010	32756	32536	32718	32351	32807	
1182	0	4747	6616	3942	7581	272	0	32749	32765	32854	32831	32386	32814	33050	32677	
1183	0	4706	6604	3941	7603	273	0	32769	32783	32806	32789	32329	32583	33441	32751	
1184	0	4799	6644	3982	7604	274	0	32751	32763	32851	32749	32597	32694	33099	32788	
1185	0	4764	6625	3954	7596	275	0	32786	32715	32711	32823	32683	32597	32471	32762	
1186	0	4745	6625	3977	7630	276	0	32855	32621	32711	32815	32647	32487	32364	32765	
1187	0	4734	6616	3966	7661	277	0	32786	32731	32724	32867	32850	32754	32711	32694	
1188	0	4772	6617	4009	7619	278	0	32713	32521	32742	32775	32991	32866	33322	32629	
1189	0	4735	6613	3953	7630	279	0	32749	32674	32887	32711	32965	32636	33215	32557	
1190	0	4752	6649	3991	7613	280	0	32773	32679	32684	32617	32815	32797	32755	32519	
1191	0	4774	6612	3984	7651	281	0	32791	32764	32765	32549	32655	32887	32327	32556	
1192	0	4772	6584	3990	7584	282	0	32780	32724	32751	32676	32606	32757	32583	32832	
1193	0	4720	6623	3929	7658	283	0	32812	32548	32834	32703	32525	32909	33014	32951	
1194	0	4786	6648	3988	7666	284	0	32790	32711	32773	32715	32647	32818	33240	32890	
1195	0	4763	6628	3955	7625	285	0	32793	32607	32691	32647	32787	32615	32946	32791	
1196	0	4745	6613	4021	7592	286	0	32804	32711	32647	32636	32762	32759	32517	32799	
1197	0	4756	6615	4004	7626	287	0	32860	32533	32745	32676	32690	32873	32405	32637	
1198	0	4752	6636	3993	7673	288	0	32756	32681	32743	32615	32599	32610	32782	32719	
1199	0	4732	6600	4004	7618	289	0	32754	32587	32663	32705	32647	32723	33182	32773	
1200	0	4794	6628	3952	7582	290	0	32752	32837	32799	32719	32727	32877	33254	32647	
1201	0	4748	6600	4037	7616	291	0	32744	32771	32719	32775	32711	32539	32720	32843	
1202	0	4762	6612	4004	7635	292	0	32807	32692	32677	32709	32703	32819	32366	32861	
1203	0	4794	6563	3959	7610	293	0	32754	32727	32738	32773	32636	32809	32583	32829	
1204	0	4712	6576	3955	7588	294	0	32761	32645	32643	32659	32677	32471	33044	32867	
1205	0	4743	6552	3987	7586	295	0	32773	32741	32687	32765	32739	32484	33415	32790	
1206	0	4762	6622	3998	7636	296	0	32756	32551	32765	32767	33117	32605	32933	32917	
1207	0	4726	6592	3996	7672	297	0	32714	32723	32735	32918	33146	32501	32479	32854	
1208	0	4710	6618	4060	7634	298	0	32646	32628	32852	32916	33182	32748	32367	32855	
1209	0	4780	6585	3993	7621	299	0	32688	32756	32844	32990	33159	32903	32850	32799	
1210	0	4751	6589	3956	7589	300	0	32688	32687	32849	32839	32987	32911	33310	32711	
1211	0	4784	6618	3950	7644	301	0	32693	32823	32830	32707	32859	33122	33219	32709	
1212	0	4740	6609	3943	7611	302	0	32741	32683	32815	32623	32487	32931	32711	32645	
1213	0	4836	6644	3970	7595	303	0	32815	32767	32919	32594	32231	32759	32278	32617	
1214	0	4764	6599	4012	7596	304	0	32816	32743	32894	32540	32375	32799	32461	32645	
1215	0	4773	6600	3900	7618	305	0	32791	32647	32775	32653	32487	32743	33010	32635	
1216	0	4746	6597	3973	7571	306	0	32761	32756	32768	32679	32749	32411	33206	32671	
1217	0	4714	6594	3933	7616	307	0	32741	32663	32847	32645	32735	32179	32791	32660	
1218	0	4764	6614	4016	7585	308	0	32727	32675	32775	32697	32637	32563	32343	32692	
1219	0	4684	6604	3994	7586	309	0	32701	32597	32823	32758	32584	32935	32235	32703	
1220	0	4737	6604	3952	7620	310	0	32714	32705	32839	32850	32583	33039	32747	32619	
1221	0	4781	6610	3949	7616	311	0	32834	32619	32901	32822	32737	33063	33227	32647	
1222	0	4742	6620	3969	7640	312	0	32754	32715	32877	32792	32559	32883	33173	32749	
1223	0	4757	6633	4027	7628	313	0	32797	32638	32910	32733	32692	32583	32579	32868	
1224	0	4777	6584	3983	7625	314	0	32834	32747	32863	32735	32525	32759	32207	32833	
1225	0	4777	6656	3976	7616	315	0	32812	32593	32890	32586	32455	32864	32402	32812	
1226	0	4728	6601	4018	7633	316	0	32771	32692	32894	32583	32509	32631	32962	32811	
1227	0	4714	6642	3936	7646	317	0	32725	32695	32764	32508	32427	32871	33263	32763	
1228	0	4758	6662	3952	7617	318	0	32775	32633	32711	32534	32515	32851	32947	32720	
1229	0	4726	6616	4006	7622	319	0	32801	32775	32775	32427	32475	32537	32263	32805	
1230	0	4767	6600	3990	7620	320	0	32804	32711	32645	32527	32877	32732	32177	32916	
1231	0	4764	6616	4067	7620	321	0	32844	32772	32534	32662	33482	32740	32487	32986	
1232	0	4748	6625	3992	7598	322	0	32825	32751	32503	32626	33494	32843	33020	32916	
1233	0	4731	6599	3953	7620	323	0	32829	32806	32467	32647	33230	32631	33207	32870	
1234	0	4699	6632	4002	7645	324	0	32804	32595	32491	32621	33146	32691	32631	32805	
1235	0	4781	6620	3999	7557	325	0	32742	32625	32487	32667	33085	32765	32231	32741	
1236	0	4739	6636	3995	7628	326	0	32663	32514	32658	32640	32924	32566	32313	32852	
1237	0	4734	6604	3970	7608	327	0	32727	32641	32606	32655	32827	32817	32755	32838	
1238	0	4760	6603	3986	7587	328	0	32733	32556	32711	32691	32591	32935	33255	32759	
1239	0	4753	6628	3961	7619	329	0	32729	32683	32707	32732	32301	32585	32887	32706	
1240	0	4764	6580	4014	7608	330	0	32698	32628	32775	32683	32210	32683	32420	32660	
1241	0	4788	6606	3956	7628	331	0	32723	32735	32903	32637	32055	32753	32070	32685	
1242	0	4775	6604	3980	7618	332	0	32737	32751	32775	32540	32182	32577	32577	32693	
1243	0	4742	6617	3968	7609	333	0	32669	32673	32807	32668	32475	32805	33101	32751	
1244	0	4777	6604	3991	7602	334	0	32676	32711	32847	32687	32897	32695	33239	32830	
1245	0	4768	6607	3985	7632	335	0	32720	32617	32732	32969	33079	32708	32739	32775	
1246	0	4770	6636	3934	7598	336	0	32725	32807	32855	32866	32845	32856	32247	32773	
1247	0	4768	6646	3997	7656	337	0	32789	32693	32807	32844	32817	32587	32470	32927	
1248	0	4728	6616	4030	7594	338	0	32720	32562	32965	32755	32767	32722	33133	32887	
1249	0	4807	6646	3962	7660	339	0	32719	32676	33001	32823	32527	32807	33477	32690	
1250	0	4748	6624	3964	7614	340	0	32756	32519	32956	32759	32611	32836	33207	32637	
1251	0	4769	6603	3981	7618	341	0	32668	32695	32851	32818	32687	32869	32367	32661	
1252	0	4772	6626	3978	7604	342	0	32746	32583	32893	32751	32780	32969	32312	32641	
1253	0	4768	6608	3972	7581	343	0	32758	32696	32900	32782	32727	32782	32597	32706	
1254	0	4732	6622	4032	7644	344	0	32783	32694	33028	32612	32502	32823	33223	32787	
1255	0	4778	6632	3952	7614	345	0	32751	32727	32957	32742	32630	32626	33129	32735	
1256	0	4759	6605	4010	7677	346	0	32783	32775	32795	32687	32756	32551	32799	32771	
1257	0	4749	6609	3984	7603	347	0	32804	32731	32639	32903	32606	32829	32333	32831	
1258	0	4769	6638	4004	7620	348	0	32783	32591	32572	32892	32815	32797	32525	32847	
1259	0	4787	6626	3964	7612	349	0	32837	32775	32449	32775	32951	32613	33039	32916	
1260	0	4703	6584	3994	7618	350	0	32790	32719	32471	32791	32772	32659	33367	33039	
1261	0	4771	6638	4008	7640	351	0	32803	32607	32599	32743	32769	32687	33159	32911	
1262	0	4759	6625	4011	7606	352	0	32754	32730	32495	32751	32751	32587	32387	32721	
1263	0	4784	6605	4003	7624	353	0	32781	32631	32527	32671	32754	32703	32158	32676	
1264	0	4768	6595	3976	7631	354	0	32777	32743	32583	32764	32867	32833	32569	32632	
1265	0	4776	6606	3936	7610	355	0	32854	32655	32663	32647	32724	32679	33052	32729	
1266	0	4786	6620	3975	7634	356	0	32858	32751	32815	32743	32549	32786	33061	32701	
1267	0	4753	6584	4024	7600	357	0	32826	32687	32730	32695	32580	32831	32690	32683	
1268	0	4728	6612	3974	7625	358	0	32793	32681	32813	32671	32567	32615	32055	32690	
1269	0	4744	6586	3950	7599	359	0	32815	32738	32767	32507	32756	32805	32246	32733	
1270	0	4768	6634	3984	7654	360	0	32824	32623	32693	32584	32797	32803	32614	32745	
1271	0	4760	6620	3972	7672	361	0	32792	32727	32679	32557	32855	32825	33303	32877	
1272	0	4805	6612	3994	7620	362	0	32804	32631	32775	32711	32875	32759	33058	32819	
1273	0	4766	6665	3991	7601	363	0	32786	32767	32667	32732	32655	32747	32647	32919	
1274	0	4740	6608	4006	7597	364	0	32676	32541	32519	32703	32419	32749	32411	32807	
1275	0	4780	6600	4030	7609	365	0	32708	32677	32594	32603	32524	32582	32738	32803	
1276	0	4747	6604	4006	7612	366	0	32697	32573	32725	32548	32576	32805	33355	32802	
1277	0	4702	6603	4025	7629	367	0	32687	32679	32811	32711	32589	32719	33435	32803	
1278	0	4732	6598	3980	7602	368	0	32650	32690	32915	32615	32525	32707	32974	32719	
1279	0	4708	6598	3962	7595	369	0	32679	32599	33025	32491	32359	32805	32351	32675	
1280	0	4745	6624	3956	7635	370	0	32758	32607	32985	32527	32525	32801	32374	32660	
1281	0	4802	6570	4020	7613	371	0	32768	32694	32923	32671	32583	32882	32957	32679	
1282	0	4741	6628	3998	7601	372	0	32788	32559	32923	32786	32850	32644	33274	32742	
1283	0	4734	6596	4001	7676	373	0	32810	32707	32953	32839	33118	32739	33097	32740	
1284	0	4724	6616	4002	7650	374	0	32732	32767	32887	32760	33706	32845	32443	32871	
1285	0	4765	6607	3996	7585	375	0	32743	32628	32867	32827	33607	32524	32295	32870	
1286	0	4745	6562	3942	7653	376	0	32748	32705	32919	32796	33007	32815	32555	32804	
1287	0	4778	6590	3996	7634	377	0	32761	32611	32838	32701	32883	32697	33135	32775	
1288	0	4742	6652	3952	7592	378	0	32734	32703	32799	32528	32663	32669	33095	32827	
1289	0	4736	6570	4032	7611	379	0	32684	32690	32765	32669	32661	32770	32675	32799	
1290	0	4780	6589	3996	7630	380	0	32773	32573	32660	32631	32535	32559	32231	32809	
1291	0	4739	6581	3998	7621	381	0	32759	32661	32711	32706	32551	32767	32385	32700	
1292	0	4806	6616	4006	7612	382	0	32750	32707	32695	32734	32342	32994	32940	32564	
1293	0	4742	6616	4010	7674	383	0	32799	32678	32692	32826	32300	32839	33191	32558	
1294	0	4732	6610	3996	7665	384	0	32828	32683	32661	32801	32493	32903	32903	32519	
1295	0	4758	6585	3994	7636	385	0	32771	32553	32685	32877	32647	32919	32415	32643	
1296	0	4759	6608	3963	7600	386	0	32712	32711	32791	32959	32703	32568	32143	32743	
1297	0	4728	6571	3991	7644	387	0	32755	32751	32677	32903	32644	32725	32639	32851	
1298	0	4753	6604	3992	7624	388	0	32690	32709	32743	32738	32646	32846	33210	32807	
1299	0	4746	6653	3981	7612	389	0	32773	32795	32660	32671	32575	32495	33242	32823	
1300	0	4726	6572	4024	7630	390	0	32742	32763	32687	32574	32623	32711	32781	32822	
1301	0	4778	6618	3996	7614	391	0	32786	32695	32646	32591	32603	32751	32196	32847	
1302	0	4713	6610	3952	7632	392	0	32802	32615	32719	32558	32736	32623	32303	32863	
1303	0	4756	6592	3998	7658	393	0	32808	32727	32639	32687	32749	32735	32515	32839	
1304	0	4796	6604	4001	7639	394	0	32828	32572	32746	32709	32631	32807	33143	32787	
1305	0	4745	6606	4006	7640	395	0	32732	32714	32855	32775	32795	32594	32963	32778	
1306	0	4740	6605	3990	7610	396	0	32800	32555	32839	32816	32869	32717	32428	32799	
1307	0	4752	6592	4012	7617	397	0	32789	32660	32810	32911	33031	32897	32125	32694	
1308	0	4762	6632	4034	7627	398	0	32828	32759	32880	32866	33313	32707	32289	32706	
1309	0	4747	6565	3919	7601	399	0	32732	32626	32831	32887	32979	32927	32948	32599	
1310	0	4754	6604	3974	7612	400	0	32710	32741	32807	32793	32737	32839	33132	32667	
1311	0	4772	6610	4003	7627	401	0	32666	32765	32732	32751	32637	32577	32855	32711	
1312	0	4755	6608	3943	7654	402	0	32683	32639	32669	32591	32487	32695	32349	32851	
1313	0	4761	6602	4000	7604	403	0	32703	32719	32675	32573	32461	32775	32391	32877	
1314	0	4732	6576	4041	7580	404	0	32712	32526	32636	32599	32535	32621	32941	32876	
1315	0	4762	6576	4002	7614	405	0	32717	32685	32715	32697	32821	32767	33287	32799	
1316	0	4720	6628	3950	7618	406	0	32764	32642	32735	32591	32773	32868	33187	32815	
1317	0	4762	6617	3970	7656	407	0	32745	32719	32607	32629	32783	32619	32655	32647	
1318	0	4724	6622	4012	7643	408	0	32712	32739	32692	32453	32727	32802	32242	32694	
1319	0	4736	6616	3935	7648	409	0	32732	32745	32723	32575	32847	32837	32711	32769	
1320	0	4734	6588	3972	7660	410	0	32748	32775	32735	32619	32942	32713	33191	32727	
1321	0	4759	6651	4029	7620	411	0	32758	32727	32726	32591	32823	32553	33327	32671	
1322	0	4736	6592	3958	7663	412	0	32829	32805	32803	32647	32645	32743	32849	32639	
1323	0	4728	6617	3968	7618	413	0	32828	32793	32751	32551	32334	32781	32221	32503	
1324	0	4729	6630	4026	7604	414	0	32838	32732	32695	32695	32199	32647	32415	32578	
1325	0	4768	6631	3981	7628	415	0	32808	32750	32769	32734	32359	32511	32727	32563	
1326	0	4740	6582	4035	7634	416	0	32785	32713	32763	32757	32589	32715	33329	32759	
1327	0	4736	6622	4055	7640	417	0	32807	32754	32761	32696	32453	32852	33270	33065	
1328	0	4771	6606	4018	7603	418	0	32780	32675	32903	32758	32717	32703	32677	33185	
1329	0	4714	6611	3954	7637	419	0	32722	32535	32879	32901	32811	32596	32405	33031	
1330	0	4782	6566	4028	7614	420	0	32719	32628	32830	32911	32711	32775	32695	32943	
1331	0	4739	6605	3972	7639	421	0	32628	32524	32827	32975	33030	32749	33243	32917	
1332	0	4732	6586	4029	7645	422	0	32696	32695	32873	32887	33189	32815	33436	32915	
1333	0	4719	6586	3986	7646	423	0	32702	32599	32921	32772	33403	32630	33082	32831	
1334	0	4770	6578	3973	7617	424	0	32733	32764	32783	32773	33042	32483	32503	32854	
1335	0	4793	6557	4036	7612	425	0	32704	32711	32893	32671	32882	32572	32373	32717	
1336	0	4711	6589	3976	7629	426	0	32758	32779	32911	32559	32898	32761	32895	32740	
1337	0	4725	6624	3993	7582	427	0	32794	32690	32915	32598	32647	32959	33343	32775	
1338	0	4766	6602	4014	7626	428	0	32757	32713	32805	32518	32735	32711	33241	32851	
1339	0	4776	6635	3998	7604	429	0	32739	32514	32751	32691	32807	32858	32712	32941	
1340	0	4764	6583	4016	7659	430	0	32786	32667	32683	32684	32724	32881	32271	32888	
1341	0	4717	6608	4000	7612	431	0	32797	32548	32626	32817	32455	32784	32468	32621	
1342	0	4708	6591	3996	7602	432	0	32775	32741	32635	32733	32541	32566	33007	32791	
1343	0	4768	6597	4013	7591	433	0	32839	32841	32647	32683	32326	32715	33199	32765	
1344	0	4764	6632	3988	7635	434	0	32833	32703	32559	32647	32386	32775	32727	32669	
1345	0	4775	6620	3979	7589	435	0	32773	32655	32621	32615	32356	32763	32322	32679	
1346	0	4752	6556	3980	7630	436	0	32745	32723	32679	32654	32401	32863	32287	32627	
1347	0	4737	6565	3970	7594	437	0	32808	32771	32783	32765	32645	32612	32682	32591	
1348	0	4754	6535	3999	7638	438	0	32765	32839	32689	32703	32918	32731	33234	32622	
1349	0	4739	6594	3968	7624	439	0	32725	32807	32722	32813	32773	32514	33159	32615	
1350	0	4717	6590	4004	7649	440	0	32705	32599	32823	32751	32806	32717	32657	32647	
1351	0	4734	6609	3960	7684	441	0	32724	32693	32733	32767	32738	32799	32121	32769	
1352	0	4737	6587	3944	7619	442	0	32748	32561	32655	32686	32711	33036	32220	32833	
1353	0	4747	6584	4028	7648	443	0	32780	32687	32687	32628	32838	32759	32775	32756	
1354	0	4702	6604	4019	7639	444	0	32710	32578	32761	32576	32785	32748	33119	32831	
1355	0	4772	6605	3984	7616	445	0	32757	32666	32615	32647	32799	32745	32954	32715	
1356	0	4747	6576	4025	7619	446	0	32743	32567	32763	32671	32999	32679	32364	32703	
1357	0	4709	6586	3989	7686	447	0	32766	32747	32734	32716	33093	32583	32111	32727	
1358	0	4721	6576	3982	7623	448	0	32745	32546	32710	32740	32933	32902	32556	32749	
1359	0	4756	6580	4028	7632	449	0	32757	32644	32691	32711	32550	33039	33243	32653	
1360	0	4729	6586	4003	7625	450	0	32783	32590	32741	32831	32559	32617	33303	32569	
1361	0	4792	6612	3997	7626	451	0	32761	32735	32812	32719	32545	32809	32875	32785	
1362	0	4732	6580	4008	7632	452	0	32791	32743	32742	32707	32559	32735	32378	32918	
1363	0	4742	6552	3980	7598	453	0	32753	32753	32783	32694	32349	32551	32403	32946	
1364	0	4698	6563	3984	7614	454	0	32730	32671	32895	32760	32140	32709	33017	32932	
1365	0	4752	6618	4008	7588	455	0	32750	32573	32903	32665	32320	32927	33389	32694	
1366	0	4713	6596	4003	7615	456	0	32789	32789	32933	32709	32545	32679	32991	32563	
1367	0	4749	6560	4034	7660	457	0	32799	32843	32878	32670	32705	32903	32331	32660	
1368	0	4752	6585	3989	7685	458	0	32756	32647	32819	32714	32791	32966	32254	32815	
1369	0	4728	6626	3981	7641	459	0	32718	32677	32801	32711	32786	32425	32453	33007	
1370	0	4765	6579	4014	7619	460	0	32700	32469	32844	32701	33116	32484	33095	33007	
1371	0	4728	6604	4038	7618	461	0	32701	32677	32795	32679	33383	32557	33035	32893	
1372	0	4730	6581	3980	7608	462	0	32708	32565	32831	32739	33271	32717	32796	32826	
1373	0	4744	6608	3973	7587	463	0	32748	32743	32801	32749	33095	32969	32194	32885	
1374	0	4783	6554	4023	7642	464	0	32757	32749	32685	32818	33035	33047	32401	32917	
1375	0	4700	6576	4001	7652	465	0	32813	32572	32837	32721	32799	32602	32978	32867	
1376	0	4716	6584	4010	7666	466	0	32757	32676	32721	32759	32647	32603	33255	32805	
1377	0	4700	6573	4012	7628	467	0	32745	32775	32711	32612	32223	32775	32983	32535	
1378	0	4705	6592	3995	7670	468	0	32738	32673	32763	32646	32247	32527	32461	32532	
1379	0	4710	6581	3997	7614	469	0	32720	32751	32655	32489	32375	32724	32465	32461	
1380	0	4744	6573	4010	7652	470	0	32789	32647	32692	32555	32261	32775	32895	32532	
1381	0	4715	6590	3966	7621	471	0	32839	32737	32685	32565	32333	32707	33357	32391	
1382	0	4760	6545	3985	7624	472	0	32775	32718	32667	32613	32087	32831	33293	32459	
1383	0	4758	6590	3988	7628	473	0	32794	32512	32793	32678	32121	32717	32731	32511	
1384	0	4731	6638	4025	7675	474	0	32782	32711	32772	32815	32164	32815	32310	32721	
1385	0	4734	6587	3950	7600	475	0	32754	32730	32839	32794	32308	32827	32607	32788	
1386	0	4709	6605	3963	7634	476	0	32758	32562	32775	32788	32551	32855	33028	32861	
1387	0	4751	6601	4003	7619	477	0	32724	32751	32903	32815	33101	32975	33319	33025	
1388	0	4774	6544	4018	7648	478	0	32754	32765	32825	32671	33394	32699	32825	33131	
1389	0	4715	6588	3961	7648	479	0	32714	32562	32803	32681	33140	32730	32375	33159	
1390	0	4699	6577	4001	7620	480	0	32685	32714	32759	32711	33380	32736	32359	33241	
1391	0	4698	6554	3992	7628	481	0	32761	32739	32752	32824	33780	32768	32783	33043	
1392	0	4721	6589	4002	7634	482	0	32799	32582	32741	32740	33951	32925	33223	32892	
1393	0	4757	6578	4005	7591	483	0	32782	32684	32743	32791	33661	32626	32993	32827	
1394	0	4730	6546	3996	7596	484	0	32749	32748	32791	32775	33590	32735	32443	32798	
1395	0	4708	6589	3998	7668	485	0	32734	32703	32804	32743	33501	32594	32091	32799	
1396	0	4746	6566	3978	7594	486	0	32762	32715	32820	32717	33021	32346	32537	32694	
1397	0	4729	6579	3964	7656	487	0	32757	32580	32787	32719	32540	32676	32999	32615	
1398	0	4699	6578	3995	7651	488	0	32802	32724	32681	32599	32251	32903	33262	32647	
1399	0	4680	6556	4022	7640	489	0	32814	32647	32723	32699	32287	32719	32692	32735	
1400	0	4724	6601	3988	7616	490	0	32782	32623	32665	32671	32299	32775	32279	32839	
1401	0	4761	6556	3987	7649	491	0	32726	32677	32739	32705	32269	32663	32274	32877	
1402	0	4721	6566	4044	7647	492	0	32713	32579	32703	32717	32452	32799	32810	32732	
1403	0	4754	6568	3984	7653	493	0	32724	32751	32655	32755	32311	32935	33092	32659	
1404	0	4673	6578	4027	7641	494	0	32782	32709	32812	32749	32423	32709	33065	32583	
1405	0	4729	6582	3976	7638	495	0	32784	32503	32702	32698	32583	32838	32427	32639	
1406	0	4707	6555	4005	7618	496	0	32781	32687	32731	32711	32597	33013	31965	32815	
1407	0	4746	6577	3983	7630	497	0	32783	32739	32639	32675	32441	32986	32296	32839	
1408	0	4717	6561	3999	7641	498	0	32790	32655	32577	32871	32271	32831	32712	32815	
1409	0	4718	6532	3996	7653	499	0	32749	32707	32647	32727	32453	32603	32975	32939	
1410	0	4694	6576	4036	7637	500	0	32812	32606	32527	32751	32455	32447	32607	32903	
1411	0	4720	6552	4018	7645	501	0	32759	32766	32687	32711	32765	32827	32175	32903	
1412	0	4766	6538	4005	7633	502	0	32767	32679	32700	32757	33264	32707	32271	32935	
1413	0	4674	6563	3983	7649	503	0	32700	32589	32765	32687	33405	32644	32756	32951	
1414	0	4744	6570	3971	7634	504	0	32697	32737	32799	32694	32787	32685	33308	32551	
1415	0	4696	6540	4036	7620	505	0	32771	32739	32803	32655	32203	32717	33045	32279	
1416	0	4723	6572	4009	7657	506	0	32807	32591	32855	32725	32167	32791	32481	32331	
1417	0	4741	6584	4054	7646	507	0	32810	32749	32743	32735	32175	32880	32156	32550	
1418	0	4714	6537	3983	7652	508	0	32743	32713	32847	32684	32477	32647	32549	32597	
1419	0	4750	6583	4037	7620	509	0	32742	32487	33004	32759	32451	32893	33178	32653	
1420	0	4697	6579	3984	7676	510	0	32766	32735	32919	32674	32775	32903	33327	32805	
1421	0	4730	6534	3986	7597	511	0	32818	32835	32967	32727	32975	32495	32919	32771	
1422	0	4697	6528	4030	7597	512	0	32824	32786	32914	32734	32967	32603	32471	32711	
1423	0	4753	6596	3994	7650	513	0	32756	32751	32820	32724	33019	32772	32482	32762	
1424	0	4760	6540	4008	7646	514	0	32853	32685	32837	32774	32815	32775	32963	32748	
1425	0	4688	6589	4006	7600	515	0	32775	32775	32879	32603	32823	32545	33377	32741	
1426	0	4753	6586	4066	7637	516	0	32763	32631	32855	32749	32903	32677	33183	32879	
1427	0	4748	6547	4002	7648	517	0	32807	32751	32963	32799	32925	32604	32613	32817	
1428	0	4711	6582	4037	7649	518	0	32712	32725	32899	32791	32879	32491	32276	32807	
1429	0	4732	6524	4008	7586	519	0	32660	32498	32828	32775	32773	32684	32623	32805	
1430	0	4760	6522	4037	7651	520	0	32751	32703	32694	32652	32957	32961	33209	32845	
1431	0	4762	6531	3988	7649	521	0	32780	32743	32655	32734	32735	33015	33459	32813	
1432	0	4723	6542	3986	7656	522	0	32826	32599	32699	32629	32607	33031	33014	32701	
1433	0	4732	6553	4068	7684	523	0	32743	32745	32525	32742	32103	32639	32603	32658	
1434	0	4690	6576	3992	7638	524	0	32799	32743	32583	32701	32231	32844	32671	32679	
1435	0	4734	6523	3962	7634	525	0	32711	32639	32487	32764	32647	32918	33107	32781	
1436	0	4744	6570	3990	7696	526	0	32727	32705	32562	32700	32626	32551	33444	32885	
1437	0	4698	6558	4045	7679	527	0	32705	32570	32676	32717	32851	32685	33189	33031	
1438	0	4716	6537	3986	7693	528	0	32753	32734	32684	32695	33127	32799	32519	33125	
1439	0	4691	6549	4058	7667	529	0	32759	32539	32687	32750	33129	32773	32321	33219	
1440	0	4693	6549	4024	7690	530	0	32748	32655	32724	32639	33030	32671	32628	33003	
1441	0	4735	6520	4019	7654	531	0	32777	32548	32742	32685	32870	32754	33258	32787	
1442	0	4730	6563	4022	7664	532	0	32775	32745	32687	32630	32373	32839	33297	32557	
1443	0	4694	6572	4041	7647	533	0	32732	32743	32740	32660	32455	32583	32900	32437	
1444	0	4747	6573	4051	7662	534	0	32669	32613	32827	32701	32663	32771	32367	32489	
1445	0	4740	6558	3980	7620	535	0	32743	32719	32707	32725	32648	32901	32329	32647	
1446	0	4717	6553	3982	7682	536	0	32784	32577	32832	32767	32583	32699	32735	32695	
1447	0	4698	6542	4024	7665	537	0	32786	32751	32885	32725	32537	32851	33186	32860	
1448	0	4741	6522	4067	7658	538	0	32802	32619	32731	32797	32445	32884	33169	32711	
1449	0	4726	6552	4024	7680	539	0	32762	32703	32673	32739	32593	32668	32590	32799	
1450	0	4743	6536	4002	7661	540	0	32820	32767	32749	32837	32935	32883	32145	32909	
1451	0	4689	6524	3987	7648	541	0	32792	32749	32807	32740	33268	32887	32275	33125	
1452	0	4727	6510	4045	7703	542	0	32727	32722	32751	32769	33633	32605	32860	32949	
1453	0	4745	6511	3994	7645	543	0	32732	32743	32818	32687	33340	32587	33086	32771	
1454	0	4764	6551	4024	7689	544	0	32775	32749	32831	32783	32775	32233	32891	32562	
1455	0	4728	6578	4009	7625	545	0	32791	32713	32771	32711	32559	32399	32239	32515	
1456	0	4764	6536	3993	7652	546	0	32784	32715	32775	32697	32582	32711	32250	32599	
1457	0	4721	6539	4040	7660	547	0	32765	32679	32915	32642	32781	32823	32679	32636	
1458	0	4713	6520	4032	7614	548	0	32743	32775	32835	32660	32679	32758	33249	32743	
1459	0	4690	6530	3960	7630	549	0	32721	32739	32893	32569	32289	32823	33092	32623	
1460	0	4758	6522	4065	7664	550	0	32721	32721	32919	32655	32332	32903	32667	32539	
1461	0	4725	6514	4037	7690	551	0	32704	32719	32823	32738	32579	32751	32263	32620	
1462	0	4713	6521	4066	7704	552	0	32743	32606	32863	32796	32662	32815	32485	32773	
1463	0	4789	6496	4018	7676	553	0	32726	32701	32822	32759	32919	32815	32959	32887	
1464	0	4724	6590	4018	7677	554	0	32804	32619	32711	32845	33065	32882	33250	32885	
1465	0	4701	6571	4070	7634	555	0	32830	32679	32717	32847	33037	32751	32839	32859	
1466	0	4696	6526	4003	7664	556	0	32780	32511	32738	32871	32927	32851	32327	32684	
1467	0	4710	6538	4076	7688	557	0	32775	32678	32787	32709	32695	32921	32167	32547	
1468	0	4694	6576	4028	7659	558	0	32759	32502	32705	32726	32489	32547	32717	32445	
1469	0	4719	6570	4012	7666	559	0	32720	32647	32807	32694	32476	32586	33071	32447	
1470	0	4726	6619	4006	7619	560	0	32811	32559	32869	32489	32433	32727	33114	32501	
1471	0	4717	6556	3989	7677	561	0	32761	32715	32659	32476	32445	32495	32530	32556	
1472	0	4736	6524	4014	7696	562	0	32726	32611	32607	32383	32519	32599	32041	32521	
1473	0	4742	6512	4053	7672	563	0	32713	32707	32690	32510	32477	32756	32191	32751	
1474	0	4736	6523	4036	7652	564	0	32774	32745	32674	32549	32647	32682	32746	32751	
1475	0	4691	6532	4011	7682	565	0	32742	32785	32667	32698	32598	32722	33143	32841	
1476	0	4730	6552	4022	7709	566	0	32796	32717	32711	32734	32423	32707	32911	33004	
1477	0	4714	6564	4054	7687	567	0	32741	32615	32647	32863	32519	32735	32311	33021	
1478	0	4700	6546	4038	7642	568	0	32775	32775	32726	32933	32578	32903	32236	33060	
1479	0	4688	6544	4029	7630	569	0	32872	32747	32688	32826	32677	32646	32506	32961	
1480	0	4754	6538	4015	7685	570	0	32781	32807	32741	32902	32678	32750	33111	32903	
1481	0	4692	6522	4024	7700	571	0	32785	32799	32809	32741	32873	32669	33227	32875	
1482	0	4654	6526	4001	7689	572	0	32762	32773	32818	32749	32719	32877	32647	32804	
1483	0	4728	6532	4067	7674	573	0	32705	32677	32903	32757	32725	32785	32299	32716	
1484	0	4692	6532	4028	7674	574	0	32748	32698	32870	32860	32631	32635	32356	32615	
1485	0	4734	6557	4032	7693	575	0	32715	32593	32877	32927	32594	32967	32982	32579	
1486	0	4691	6524	4038	7658	576	0	32701	32689	32815	32860	32709	32807	33229	32487	
1487	0	4710	6533	4043	7745	577	0	32720	32532	32767	32827	32786	32931	33044	32407	
1488	0	4762	6555	4062	7679	578	0	32749	32703	32809	32743	33007	32939	32390	32743	
1489	0	4738	6523	4032	7674	579	0	32700	32587	32745	32724	33149	32644	32356	33029	
1490	0	4707	6505	4020	7692	580	0	32724	32684	32653	32661	33179	32577	32695	33178	
1491	0	4685	6547	4034	7668	581	0	32796	32797	32683	32667	33151	32743	33245	33179	
1492	0	4727	6536	3996	7684	582	0	32751	32775	32700	32708	32995	32911	33199	33197	
1493	0	4760	6499	4022	7703	583	0	32767	32771	32628	32599	32367	32875	32771	32683	
1494	0	4721	6534	4010	7692	584	0	32775	32663	32775	32731	32263	32669	32412	32688	
1495	0	4670	6513	4028	7678	585	0	32821	32681	32785	32773	32340	32459	32789	32933	
1496	0	4750	6549	4034	7669	586	0	32823	32591	32807	32679	32621	32664	33343	32991	
1497	0	4696	6530	4050	7684	587	0	32781	32775	32836	32759	32601	32926	33527	32983	
1498	0	4729	6553	4054	7700	588	0	32775	32673	32745	32690	32767	32429	33172	32850	
1499	0	4740	6551	4050	7672	589	0	32714	32485	32835	32661	33109	32342	32404	32689	
1500	0	4718	6507	4051	7702	590	0	32760	32635	32732	32596	33055	32631	32512	32509	
1501	0	4770	6528	3993	7672	591	0	32720	32645	32689	32599	32953	32706	32805	32527	
1502	0	4680	6514	4061	7653	592	0	32701	32735	32820	32579	32611	32875	33319	32474	
1503	0	4696	6582	4036	7720	593	0	32709	32669	32739	32716	32411	32811	33107	32410	
1504	0	4706	6565	4018	7685	594	0	32731	32756	32711	32711	32571	32690	32655	32511	
1505	0	4770	6566	4030	7658	595	0	32781	32735	32807	32803	32527	32850	32243	32623	
1506	0	4751	6542	4002	7704	596	0	32788	32572	32865	32841	32666	32937	32567	32631	
1507	0	4712	6547	4039	7678	597	0	32788	32684	32835	32850	32511	32709	33014	32709	
1508	0	4740	6550	4036	7668	598	0	32742	32663	32802	32767	32559	32786	33254	32720	
1509	0	4725	6558	4046	7678	599	0	32767	32763	32845	32598	32775	32829	32903	32793	
1510	0	4698	6574	4020	7668	600	0	32757	32647	32780	32581	32741	32786	32323	32839	
1511	0	4696	6500	4052	7698	601	0	32709	32797	32835	32472	32641	32903	32322	32850	
1512	0	4684	6556	4010	7664	602	0	32689	32763	32863	32615	32686	32784	32708	32802	
1513	0	4724	6531	4022	7658	603	0	32732	32551	32747	32621	32694	32658	33167	32703	
1514	0	4701	6560	3988	7712	604	0	32672	32607	32783	32679	32631	32791	33095	32673	
1515	0	4701	6535	4037	7642	605	0	32775	32647	32791	32674	32887	32949	32465	32590	
1516	0	4785	6536	4010	7715	606	0	32783	32743	32679	32783	32917	32645	32186	32551	
1517	0	4724	6531	4060	7726	607	0	32809	32753	32666	32758	32823	32698	32292	32602	
1518	0	4741	6560	4031	7672	608	0	32797	32771	32669	32789	32523	32611	33006	32687	
1519	0	4704	6538	4026	7691	609	0	32794	32749	32612	32812	32423	32559	33247	32775	
1520	0	4736	6525	4050	7645	610	0	32767	32763	32630	32831	32439	32545	32951	32903	
1521	0	4757	6552	4027	7684	611	0	32844	32755	32627	32663	32967	32715	32323	32999	
1522	0	4736	6539	4011	7676	612	0	32826	32621	32599	32663	33320	32673	32376	32990	
1523	0	4703	6548	4016	7693	613	0	32748	32626	32767	32544	33481	32769	32723	32989	
1524	0	4751	6532	4004	7652	614	0	32767	32662	32691	32636	32925	32791	33235	32935	
1525	0	4734	6509	4034	7679	615	0	32778	32750	32739	32503	32551	32666	33014	32851	
1526	0	4738	6519	4066	7670	616	0	32764	32727	32855	32695	33014	32594	32531	32847	
1527	0	4745	6534	4067	7680	617	0	32786	32543	32749	32687	33262	32721	32074	32916	
1528	0	4707	6547	4031	7658	618	0	32740	32668	32852	32737	32937	32429	32367	33002	
1529	0	4686	6536	4045	7714	619	0	32684	32729	32717	32812	32521	32722	32994	32883	
1530	0	4712	6497	4060	7711	620	0	32726	32609	32669	32848	32515	32775	33263	32828	
1531	0	4752	6532	4020	7704	621	0	32751	32719	32856	32679	32511	32619	32854	32731	
1532	0	4700	6498	4034	7640	622	0	32757	32543	32837	32722	32247	33049	32206	32602	
1533	0	4730	6522	4086	7728	623	0	32767	32687	32807	32626	32352	33124	32093	32647	
1534	0	4733	6540	4003	7711	624	0	32709	32679	32795	32685	32373	33108	32567	32675	
1535	0	4706	6579	4020	7717	625	0	32665	32748	32902	32669	32254	32788	32982	32694	
1536	0	4674	6530	4000	7664	626	0	32735	32751	32893	32769	32356	32879	33054	32893	
1537	0	4708	6545	4034	7685	627	0	32698	32571	32916	32754	32711	32884	32437	32931	
1538	0	4722	6565	4040	7698	628	0	32806	32721	32878	32801	33097	32822	32127	33046	
1539	0	4738	6542	4018	7706	629	0	32711	32576	32852	32687	33009	32871	32299	32935	
1540	0	4716	6518	4004	7702	630	0	32786	32692	32823	32692	32647	32758	32932	32838	
1541	0	4716	6520	4022	7641	631	0	32816	32583	32769	32765	32551	32741	33232	32726	
1542	0	4701	6530	4035	7712	632	0	32847	32703	32647	32631	32828	32597	33014	32742	
1543	0	4701	6571	4055	7720	633	0	32847	32573	32638	32767	32695	32799	32423	32655	
1544	0	4728	6528	4018	7712	634	0	32820	32735	32647	32775	32751	32756	32435	32669	
1545	0	4698	6550	4070	7694	635	0	32844	32807	32631	32894	32967	32334	32735	32591	
1546	0	4746	6533	3988	7662	636	0	32870	32567	32598	32783	32935	32605	33335	32447	
1547	0	4716	6526	4034	7685	637	0	32822	32694	32635	32684	32789	32733	33172	32469	
1548	0	4714	6520	4010	7670	638	0	32807	32615	32691	32545	32481	32545	32815	32447	
1549	0	4723	6540	4072	7692	639	0	32750	32718	32771	32542	32415	32927	32239	32556	
1550	0	4671	6570	3981	7694	640	0	32688	32577	32721	32485	32493	32967	32525	32809	
1551	0	4731	6506	3992	7683	641	0	32745	32751	32806	32713	32773	33007	33031	32937	
1552	0	4724	6517	4052	7694	642	0	32695	32590	32767	32738	32855	32655	33389	33011	
1553	0	4739	6512	4011	7644	643	0	32679	32671	32873	32770	33079	32791	33018	32935	
1554	0	4759	6520	4014	7707	644	0	32717	32705	32811	32695	32918	32667	32534	32983	
1555	0	4748	6519	4048	7696	645	0	32742	32643	32783	32783	32854	32438	32248	32943	
1556	0	4715	6556	3997	7707	646	0	32740	32748	32775	32723	32836	32691	32813	33008	
1557	0	4739	6538	3985	7670	647	0	32734	32607	32746	32796	32949	32903	33298	33062	
1558	0	4682	6494	3953	7684	648	0	32793	32751	32669	32751	33011	32791	33271	32850	
1559	0	4696	6533	4021	7652	649	0	32743	32626	32663	32793	32681	32561	32852	32461	
1560	0	4702	6515	3990	7695	650	0	32750	32683	32596	32745	32363	32799	32535	32492	
1561	0	4723	6487	4031	7672	651	0	32756	32609	32535	32788	32466	32820	32715	32559	
1562	0	4699	6491	4002	7675	652	0	32804	32692	32615	32719	32461	32631	33281	32584	
1563	0	4724	6578	4047	7708	653	0	32772	32519	32709	32668	32367	32709	33535	32662	
1564	0	4732	6574	4052	7682	654	0	32782	32668	32735	32719	32599	32852	33247	32845	
1565	0	4752	6558	4040	7728	655	0	32782	32727	32750	32665	32740	32565	32455	32999	
1566	0	4736	6559	4050	7684	656	0	32786	32623	32867	32815	32883	32818	32423	33159	
1567	0	4716	6521	4070	7708	657	0	32788	32716	32831	32774	32719	32932	32668	33159	
1568	0	4714	6545	4046	7674	658	0	32739	32559	32923	32703	32518	32621	33203	33011	
1569	0	4709	6571	4040	7698	659	0	32767	32724	32977	32615	32480	32356	33159	32870	
1570	0	4733	6514	3990	7676	660	0	32752	32503	32935	32727	32642	32597	32807	32859	
1571	0	4693	6569	4022	7699	661	0	32767	32715	32863	32631	32758	32699	32205	32929	
1572	0	4736	6532	4073	7684	662	0	32801	32672	32821	32689	33097	32511	32386	32833	
1573	0	4740	6517	4002	7714	663	0	32790	32764	32818	32799	32948	32827	32833	32733	
1574	0	4717	6540	4026	7666	664	0	32794	32678	32724	32645	32741	33017	33250	32587	
1575	0	4746	6514	4052	7640	665	0	32751	32701	32711	32763	32543	32681	33011	32695	
1576	0	4701	6528	4037	7679	666	0	32693	32631	32775	32711	32771	32660	32439	32699	
1577	0	4659	6464	4014	7700	667	0	32700	32715	32727	32647	32947	32924	32273	32737	
1578	0	4711	6518	4043	7720	668	0	32702	32721	32613	32562	32663	32775	32607	32756	
1579	0	4695	6546	4038	7672	669	0	32780	32603	32710	32686	32551	32823	33154	32775	
1580	0	4725	6517	4033	7677	670	0	32778	32734	32719	32559	32327	32951	33222	32705	
1581	0	4708	6515	4027	7661	671	0	32749	32691	32703	32667	32110	32785	32639	32599	
1582	0	4701	6492	4021	7709	672	0	32754	32775	32820	32611	32315	32914	32244	32623	
1583	0	4685	6552	4049	7707	673	0	32775	32775	32709	32679	32519	33012	32199	32756	
1584	0	4675	6517	4026	7689	674	0	32839	32581	32718	32669	32794	32717	32823	32825	
1585	0	4730	6520	4014	7672	675	0	32764	32720	32798	32799	32860	32667	33271	32895	
1586	0	4708	6517	3988	7717	676	0	32829	32567	32761	32823	32735	32834	33045	32868	
1587	0	4736	6484	4034	7688	677	0	32739	32677	32740	32731	32671	32791	32317	32805	
1588	0	4704	6517	4056	7677	678	0	32690	32439	32822	32738	32685	32514	32090	32799	
1589	0	4702	6525	4032	7677	679	0	32700	32626	32815	32663	32533	32715	32287	32613	
1590	0	4725	6505	4068	7709	680	0	32745	32477	32791	32713	31909	32892	32735	32449	
1591	0	4712	6541	3980	7654	681	0	32767	32646	32827	32607	31965	32609	32867	32428	
1592	0	4765	6524	3999	7701	682	0	32824	32787	32839	32730	32429	32698	32639	32617	
1593	0	4725	6532	4006	7652	683	0	32812	32703	32647	32685	33035	32801	32146	32823	
1594	0	4722	6528	4050	7716	684	0	32820	32679	32711	32788	33044	32720	32306	32807	
1595	0	4707	6508	4061	7704	685	0	32781	32622	32704	32615	33053	32681	32743	32815	
1596	0	4707	6497	4066	7726	686	0	32749	32606	32736	32609	33519	32355	33268	32929	
1597	0	4690	6546	3996	7668	687	0	32775	32647	32818	32540	33859	32525	33259	33031	
1598	0	4724	6520	4007	7662	688	0	32700	32529	32665	32623	33807	32813	32707	32957	
1599	0	4760	6503	4037	7704	689	0	32721	32735	32748	32763	33239	32613	32334	32936	
1600	0	4714	6524	4002	7673	690	0	32708	32696	32766	32735	32867	32798	32655	32932	
1601	0	4702	6500	4004	7656	691	0	32737	32647	32741	32592	32815	32836	33137	32927	
1602	0	4699	6548	3985	7734	692	0	32820	32670	32815	32701	32775	32679	33309	32979	
1603	0	4715	6554	3986	7687	693	0	32738	32620	32890	32700	32671	32814	32951	32881	
1604	0	4682	6507	4040	7701	694	0	32727	32732	32851	32775	32706	32785	32506	32861	
1605	0	4692	6565	4019	7672	695	0	32781	32669	32822	32737	32518	32694	32585	32916	
1606	0	4720	6521	4015	7717	696	0	32819	32742	32823	32786	32557	32899	33058	32833	
1607	0	4745	6547	3987	7734	697	0	32797	32759	32807	32669	32513	32984	33574	32858	
1608	0	4763	6489	3995	7685	698	0	32760	32695	32727	32711	32412	32767	33357	32775	
1609	0	4708	6512	4004	7684	699	0	32718	32690	32791	32677	32583	32822	32767	32821	
1610	0	4678	6542	4011	7692	700	0	32688	32409	32725	32724	32609	32893	32420	32774	
1611	0	4711	6542	4046	7701	701	0	32639	32602	32807	32733	32647	32571	32711	32666	
1612	0	4737	6564	3968	7678	702	0	32745	32553	32733	32689	32687	32687	33090	32647	
1613	0	4712	6562	4018	7692	703	0	32762	32695	32773	32827	32665	32759	33337	32595	
1614	0	4672	6544	4036	7666	704	0	32834	32594	32720	32788	32582	32685	32835	32643	
1615	0	4708	6521	4002	7679	705	0	32775	32725	32775	32898	32407	32862	32371	32596	
1616	0	4674	6545	4058	7664	706	0	32740	32843	32836	32831	32423	32923	32288	32615	
1617	0	4737	6517	3996	7675	707	0	32713	32638	32715	32812	32407	32638	32767	32611	
1618	0	4714	6488	4088	7658	708	0	32765	32673	32743	32687	32613	32837	33131	32685	
1619	0	4746	6558	3997	7705	709	0	32762	32789	32641	32815	32602	32775	33111	32703	
1620	0	4700	6505	4052	7708	710	0	32729	32637	32636	32694	32707	32375	32583	32599	
1621	0	4722	6496	4008	7717	711	0	32844	32759	32626	32685	32859	32391	32189	32602	
1622	0	4712	6559	3990	7700	712	0	32768	32611	32647	32675	32844	32545	32391	32671	
1623	0	4755	6533	4009	7707	713	0	32736	32714	32677	32713	32647	32524	33109	32785	
1624	0	4700	6532	3996	7677	714	0	32781	32785	32607	32693	32749	32637	33329	32726	
1625	0	4721	6533	4026	7720	715	0	32796	32791	32723	32644	32822	32739	32897	32825	
1626	0	4732	6485	4045	7695	716	0	32827	32645	32731	32735	32647	32742	32355	32822	
1627	0	4696	6511	4054	7700	717	0	32784	32749	32765	32628	32697	32929	32279	32828	
1628	0	4712	6516	4069	7684	718	0	32777	32594	32783	32687	32465	32922	32727	32915	
1629	0	4723	6560	4061	7668	719	0	32823	32819	32814	32625	32385	32764	33243	32869	
1630	0	4719	6488	4022	7682	720	0	32820	32701	32731	32719	32546	32971	33178	32981	
1631	0	4736	6572	4010	7680	721	0	32743	32740	32877	32725	32607	32915	32471	32967	
1632	0	4729	6476	4025	7686	722	0	32769	32799	32839	32707	32623	32925	32161	32950	
1633	0	4711	6538	4062	7712	723	0	32783	32733	32945	32797	32783	32615	32314	32873	
1634	0	4648	6510	4011	7690	724	0	32687	32694	32847	32687	32815	32701	32784	32858	
1635	0	4640	6555	4033	7720	725	0	32767	32589	32919	32807	32813	32691	33013	32799	
1636	0	4701	6502	4036	7707	726	0	32772	32711	32787	32746	33319	32575	32815	32699	
1637	0	4706	6542	4029	7728	727	0	32722	32591	32807	32729	33278	32749	32211	32719	
1638	0	4697	6474	4022	7714	728	0	32673	32691	32831	32566	33196	32769	32291	32834	
1639	0	4649	6546	4022	7709	729	0	32660	32563	32758	32701	33072	32636	32551	32652	
1640	0	4722	6524	4028	7705	730	0	32726	32745	32756	32680	32795	32797	33051	32785	
1641	0	4688	6554	3984	7685	731	0	32692	32639	32875	32506	32686	32899	33151	32973	
1642	0	4693	6530	4067	7652	732	0	32736	32763	32749	32428	32733	32694	32703	32975	
1643	0	4695	6513	4034	7696	733	0	32728	32722	32891	32455	32535	32789	32373	32783	
1644	0	4692	6507	4049	7672	734	0	32763	32731	32821	32457	32318	32887	32364	32795	
1645	0	4706	6534	4000	7725	735	0	32792	32604	32719	32450	32376	32611	32869	32850	
1646	0	4700	6536	4037	7664	736	0	32796	32663	32685	32671	32507	32751	33215	32871	
1647	0	4712	6566	4012	7700	737	0	32806	32545	32630	32676	32715	32799	33137	32742	
1648	0	4746	6485	4058	7694	738	0	32809	32708	32751	32802	32622	32879	32485	32672	
1649	0	4730	6508	4038	7695	739	0	32735	32611	32703	32843	32660	32586	32415	32641	
1650	0	4689	6479	4040	7654	740	0	32684	32687	32692	32788	32951	32669	32698	32685	
1651	0	4667	6560	4021	7642	741	0	32736	32617	32617	32815	33008	32795	33165	32637	
1652	0	4707	6522	4010	7717	742	0	32727	32637	32632	32841	33125	32538	33351	32698	
1653	0	4681	6532	4026	7680	743	0	32779	32719	32661	32901	32714	32773	32647	32983	
1654	0	4720	6520	4049	7704	744	0	32762	32551	32775	32785	32567	32804	32335	32941	
1655	0	4721	6496	4036	7671	745	0	32731	32647	32752	32855	32692	32521	32329	32855	
1656	0	4682	6546	4021	7666	746	0	32729	32603	32813	32867	32795	32839	32947	32694	
1657	0	4714	6520	4041	7722	747	0	32793	32671	32805	32975	32647	32845	33202	32541	
1658	0	4718	6532	4038	7680	748	0	32697	32567	32775	32869	32652	32839	33095	32451	
1659	0	4704	6574	3982	7673	749	0	32738	32695	32839	32880	32671	32554	32511	32519	
1660	0	4701	6516	4002	7726	750	0	32742	32647	32895	32831	32483	32716	32464	32511	
1661	0	4687	6596	4045	7672	751	0	32749	32696	32871	32815	32503	32775	32751	32671	
1662	0	4683	6535	4024	7634	752	0	32746	32743	32964	32775	32413	32783	33425	32668	
1663	0	4715	6534	4019	7684	753	0	32749	32600	32973	32852	32591	32807	33215	32695	
1664	0	4720	6520	4024	7645	754	0	32756	32757	32817	32883	32684	32925	32822	32647	
1665	0	4722	6521	4065	7652	755	0	32694	32749	32797	32825	32647	32695	32263	32680	
1666	0	4701	6523	4015	7648	756	0	32764	32593	32729	32627	32742	32807	32516	32892	
1667	0	4666	6512	4043	7672	757	0	32792	32682	32644	32666	32604	32802	32994	32991	
1668	0	4652	6540	4032	7651	758	0	32796	32742	32567	32539	32693	32530	33346	33091	
1669	0	4683	6510	4014	7661	759	0	32767	32783	32519	32612	32663	32621	32967	32918	
1670	0	4718	6541	4046	7650	760	0	32780	32751	32590	32597	32669	32683	32380	32791	
1671	0	4702	6532	4056	7673	761	0	32720	32749	32575	32554	32647	32862	32191	32701	
1672	0	4734	6583	4017	7739	762	0	32772	32791	32644	32566	32692	32581	32647	32667	
1673	0	4683	6532	4014	7731	763	0	32727	32599	32605	32570	32686	32662	33159	32743	
1674	0	4729	6578	4032	7716	764	0	32789	32671	32663	32663	32855	32791	33191	32751	
1675	0	4735	6485	4036	7634	765	0	32813	32611	32566	32647	32733	32579	32610	32767	
1676	0	4690	6512	4050	7672	766	0	32846	32725	32647	32647	32607	32764	32178	32761	
1677	0	4706	6562	4064	7673	767	0	32784	32660	32730	32612	33122	32957	32309	32894	
1678	0	4693	6500	3999	7675	768	0	32716	32699	32719	32615	33453	32623	32979	32895	
1679	0	4715	6522	4048	7692	769	0	32689	32731	32798	32615	33525	32686	33239	32903	
1680	0	4725	6516	4068	7729	770	0	32799	32583	32842	32827	33509	32943	32943	32883	
1681	0	4700	6502	4043	7689	771	0	32764	32647	32735	32759	33047	32831	32319	32775	
1682	0	4696	6524	4014	7674	772	0	32716	32613	32806	32868	32646	33089	32299	32767	
1683	0	4714	6580	4030	7648	773	0	32760	32687	32773	32815	32331	33207	32753	32703	
1684	0	4686	6501	3988	7682	774	0	32775	32706	32825	32799	32381	32873	33147	32692	
1685	0	4694	6502	3997	7684	775	0	32743	32551	32893	32647	32515	32839	33117	32823	
1686	0	4698	6548	4049	7654	776	0	32804	32726	32790	32591	32609	32647	32509	32991	
1687	0	4669	6518	4038	7684	777	0	32839	32686	32911	32577	32220	32527	32171	32535	
1688	0	4731	6508	4034	7693	778	0	32784	32724	32775	32662	32044	32551	32345	32371	
1689	0	4696	6545	4046	7674	779	0	32806	32617	32761	32719	32316	32646	32836	32443	
1690	0	4696	6521	4066	7666	780	0	32823	32735	32871	32794	32553	32519	33120	32404	
1691	0	4678	6555	4028	7729	781	0	32728	32701	32923	32735	32961	32695	32839	32467	
1692	0	4688	6518	4044	7690	782	0	32731	32755	32765	32875	33330	32871	32175	32631	
1693	0	4694	6526	4067	7689	783	0	32775	32547	32743	32767	33251	32562	32231	32809	
1694	0	4708	6499	4012	7662	784	0	32724	32869	32812	32756	32966	32683	32591	32985	
1695	0	4692	6519	4022	7634	785	0	32780	32642	32749	32775	32717	32759	33157	32947	
1696	0	4706	6558	4097	7689	786	0	32725	32685	32660	32679	32775	32742	33111	32941	
1697	0	4712	6506	4062	7696	787	0	32698	32662	32719	32742	32911	32700	32465	32941	
1698	0	4688	6532	4038	7712	788	0	32620	32715	32757	32580	32935	32797	32170	32828	
1699	0	4672	6487	4067	7698	789	0	32684	32745	32677	32643	32959	33006	32345	32849	
1700	0	4712	6520	4027	7706	790	0	32735	32706	32655	32607	32819	32703	33125	32796	
1701	0	4701	6518	4057	7685	791	0	32793	32703	32757	32697	32551	32876	33212	32803	
1702	0	4656	6499	4058	7705	792	0	32753	32583	32644	32729	32621	32937	32863	32769	
1703	0	4688	6528	4004	7709	793	0	32847	32700	32711	32871	32599	32647	32383	32762	
1704	0	4692	6520	4031	7669	794	0	32893	32519	32799	32871	32548	32757	32391	32711	
1705	0	4678	6496	4062	7646	795	0	32887	32740	32752	32837	32565	32738	32915	32808	
1706	0	4672	6531	4014	7693	796	0	32810	32609	32700	32791	32319	32892	33389	32751	
1707	0	4701	6514	4025	7686	797	0	32837	32701	32773	32735	32295	32596	33134	32725	
1708	0	4720	6493	4051	7626	798	0	32796	32553	32759	32757	32198	32801	32587	32796	
1709	0	4693	6548	4024	7702	799	0	32742	32746	32679	32644	32207	32751	32245	32756	
1710	0	4683	6530	4044	7620	800	0	32760	32693	32740	32441	32215	32899	32423	32767	
1711	0	4662	6512	4040	7658	801	0	32764	32714	32726	32487	32213	32671	33102	32681	
1712	0	4670	6548	3983	7691	802	0	32799	32583	32824	32557	32406	32879	33351	32748	
1713	0	4716	6510	4035	7696	803	0	32773	32679	32883	32578	32519	32758	32916	32743	
1714	0	4656	6532	4058	7708	804	0	32785	32619	32903	32655	32850	32765	32421	32724	
1715	0	4708	6490	4059	7712	805	0	32760	32818	32870	32610	33279	32492	32461	32794	
1716	0	4721	6509	4036	7704	806	0	32813	32592	32837	32635	33964	32655	32993	32807	
1717	0	4697	6542	4004	7648	807	0	32831	32799	32852	32503	33775	32733	33477	32693	
1718	0	4678	6553	4016	7680	808	0	32831	32685	32742	32647	33030	32738	33357	32611	
1719	0	4684	6524	4033	7655	809	0	32822	32743	32711	32695	32642	32539	32706	32535	
1720	0	4715	6542	4036	7706	810	0	32823	32623	32701	32573	32364	32737	32377	32469	
1721	0	4674	6511	4070	7708	811	0	32764	32809	32818	32641	32198	32771	32538	32319	
1722	0	4636	6521	4082	7637	812	0	32871	32679	32695	32722	32145	32891	33191	32389	
1723	0	4692	6500	4053	7664	813	0	32874	32750	32736	32828	32431	32509	33325	32541	
1724	0	4697	6520	4056	7672	814	0	32945	32591	32764	32871	32548	32526	33001	32609	
1725	0	4702	6516	4005	7700	815	0	32844	32727	32796	32789	32647	32607	32447	32671	
1726	0	4734	6527	4042	7680	816	0	32815	32619	32746	32811	32497	32666	32385	32759	
1727	0	4693	6538	4068	7732	817	0	32806	32698	32718	32626	32545	32537	32829	32716	
1728	0	4698	6498	4047	7678	818	0	32793	32436	32733	32667	32573	32787	33205	32722	
1729	0	4634	6558	4036	7658	819	0	32730	32581	32793	32627	32501	33011	33059	32646	
1730	0	4725	6530	4038	7651	820	0	32797	32535	32788	32679	32493	32839	32488	32647	
1731	0	4699	6517	4066	7705	821	0	32716	32735	32687	32809	32551	32703	32194	32695	
1732	0	4709	6483	4045	7675	822	0	32688	32647	32647	32708	32516	32969	32447	32791	
1733	0	4687	6572	4047	7714	823	0	32767	32738	32660	32835	32609	32893	32835	32871	
1734	0	4666	6493	4044	7677	824	0	32636	32602	32711	32751	32775	32915	33159	32976	
1735	0	4670	6507	4032	7652	825	0	32577	32577	32691	32639	32805	32700	32865	32986	
1736	0	4682	6550	4003	7710	826	0	32568	32519	32615	32646	32685	32663	32420	32853	
1737	0	4665	6552	4021	7658	827	0	32500	32441	32559	32474	32551	32847	32317	32772	
1738	0	4704	6504	3992	7633	828	0	32598	32364	32534	32508	32674	32852	32715	32807	
1739	0	4655	6540	4029	7669	829	0	32661	32207	32511	32519	32826	32943	33202	33051	
1740	0	4724	6497	4008	7685	830	0	32567	32263	32484	32361	33171	32725	33071	33099	
1741	0	4686	6582	4055	7692	831	0	32532	32095	32459	32487	33283	32586	32683	33191	
1742	0	4672	6516	4073	7694	832	0	32601	32237	32514	32457	33193	32775	32069	33159	
1743	0	4690	6522	4050	7668	833	0	32598	32249	32575	32612	33028	32829	32110	32983	
1744	0	4665	6515	4051	7719	834	0	32717	32607	32655	32785	33018	32644	32711	32941	
1745	0	4702	6554	4016	7694	835	0	32871	32845	32690	33021	33415	33005	33130	33033	
1746	0	4671	6533	4058	7642	836	0	32951	32894	32765	33045	33813	33383	32968	33158	
1747	0	4688	6558	4050	7728	837	0	33014	32921	32861	32935	33778	32845	32497	33089	
1748	0	4684	6507	3972	7692	838	0	32903	32942	32895	32895	33224	32742	32129	32991	
1749	0	4688	6517	4047	7627	839	0	32844	32970	32963	32786	32822	32629	32470	32781	
1750	0	4659	6514	4053	7713	840	0	32825	32967	32930	32817	32671	32743	33126	32657	
1751	0	4700	6550	4073	7672	841	0	32783	33046	33071	32935	32898	32380	33172	32715	
1752	0	4698	6552	4053	7645	842	0	32679	32959	32979	32983	33334	32506	32804	32834	
1753	0	4738	6507	4036	7642	843	0	32595	32999	33089	32982	33437	32627	32215	32895	
1754	0	4688	6520	4009	7681	844	0	32519	32829	33149	32980	33050	32526	32358	32863	
1755	0	4717	6556	4013	7672	845	0	32541	32903	33151	32991	32845	32590	32855	32903	
1756	0	4677	6459	4009	7697	846	0	32504	32769	33099	32935	32899	32511	33386	32743	
1757	0	4692	6540	4076	7662	847	0	32598	32897	33111	32958	32810	32619	33155	32581	
1758	0	4700	6489	4012	7667	848	0	32604	32775	33159	32804	32438	32555	32677	32509	
1759	0	4694	6532	4008	7685	849	0	32585	32831	33007	32838	32355	32670	32278	32543	
1760	0	4702	6564	3989	7670	850	0	32544	32630	32868	32919	32208	32681	32506	32719	
1761	0	4686	6528	4050	7665	851	0	32535	32677	32865	32804	32326	32751	33225	32813	
1762	0	4681	6500	4113	7666	852	0	32606	32637	32909	32913	32452	32517	33477	32812	
1763	0	4668	6492	4024	7664	853	0	32599	32819	32803	32815	32695	32743	33101	32805	
1764	0	4673	6549	4070	7697	854	0	32635	32706	32743	32863	32743	32765	32607	32845	
1765	0	4723	6508	4056	7694	855	0	32694	32797	32795	32903	32548	32929	32585	32685	
1766	0	4699	6516	3996	7693	856	0	32734	32644	32732	32811	32358	32687	32960	32615	
1767	0	4680	6541	4081	7672	857	0	32775	32687	32617	32803	32223	32771	33243	32701	
1768	0	4672	6528	4040	7656	858	0	32858	32583	32663	32716	32150	32829	33167	32661	
1769	0	4683	6501	4053	7644	859	0	32771	32711	32727	32685	32287	32627	32549	32669	
1770	0	4674	6502	4005	7656	860	0	32837	32708	32644	32515	32382	32746	32282	32508	
1771	0	4668	6572	4048	7681	861	0	32864	32548	32599	32455	32391	32879	32487	32559	
1772	0	4666	6554	4032	7709	862	0	32925	32509	32607	32349	32647	32707	33063	32669	
1773	0	4680	6554	4038	7684	863	0	33015	32487	32550	32399	32550	32911	33238	32797	
1774	0	4673	6505	4097	7645	864	0	33031	32567	32564	32529	32421	32761	32890	32847	
1775	0	4701	6534	4044	7708	865	0	33021	32607	32559	32391	32092	32738	32353	32727	
1776	0	4700	6560	4027	7674	866	0	33039	32591	32620	32576	31953	32852	32268	32721	
1777	0	4678	6520	4051	7648	867	0	33098	32727	32735	32479	32095	32582	32807	32707	
1778	0	4706	6512	4072	7667	868	0	33081	32549	32700	32503	32407	32852	33159	32687	
1779	0	4671	6543	4025	7672	869	0	33033	32749	32755	32491	32375	32935	33119	32555	
1780	0	4683	6508	4059	7726	870	0	32987	32839	32703	32497	32334	32982	32445	32489	
1781	0	4664	6532	4035	7672	871	0	32925	32677	32797	32551	32473	32739	32222	32469	
1782	0	4667	6506	4082	7680	872	0	32965	32799	32715	32652	32738	32916	32391	32487	
1783	0	4650	6520	4026	7667	873	0	32996	32675	32820	32773	32743	32921	32917	32489	
1784	0	4675	6525	4038	7696	874	0	32935	32798	32853	32743	32375	32607	33199	32578	
1785	0	4677	6546	4048	7666	875	0	32967	32721	32807	32743	32579	32647	32862	32642	
1786	0	4656	6534	4034	7693	876	0	32961	32783	32771	32717	32721	32743	32312	32819	
1787	0	4718	6526	4054	7678	877	0	32847	32716	32738	32645	32775	32486	32255	32954	
1788	0	4692	6539	4074	7662	878	0	32850	32736	32703	32623	33029	32731	32420	32903	
1789	0	4684	6520	4038	7657	879	0	32749	32705	32660	32722	33043	32879	32957	32690	
1790	0	4718	6566	4066	7691	880	0	32740	32539	32771	32743	32926	32535	32844	32767	
1791	0	4648	6522	4102	7665	881	0	32677	32703	32687	32791	33159	32713	32262	32871	
1792	0	4677	6531	4077	7651	882	0	32645	32587	32711	32759	33039	32855	31992	32965	
1793	0	4702	6552	4076	7663	883	0	32644	32647	32744	32791	32863	32720	32278	32901	
1794	0	4679	6492	4067	7661	884	0	32635	32597	32837	32703	32663	32837	32924	32819	
1795	0	4702	6488	4068	7698	885	0	32615	32677	32811	32742	32372	32974	33277	32775	
1796	0	4698	6516	4086	7694	886	0	32644	32658	32767	32721	32623	32615	32903	32756	
1797	0	4689	6517	4062	7674	887	0	32569	32485	32743	32879	33199	32771	32459	32723	
1798	0	4715	6540	4068	7677	888	0	32606	32635	32769	32890	33295	32845	32407	32807	
1799	0	4688	6521	4026	7677	889	0	32642	32507	32771	32983	33313	32559	32775	32781	
1800	0	4677	6547	4084	7662	890	0	32676	32747	32823	32941	33127	32751	33101	32839	
1801	0	4674	6511	4084	7672	891	0	32702	32739	32698	32951	32989	32699	33083	32927	
1802	0	4729	6541	4080	7674	892	0	32633	32559	32765	32793	33059	32374	32692	33031	
1803	0	4661	6526	4056	7672	893	0	32738	32702	32839	32819	33111	32495	32428	33044	
1804	0	4634	6503	4046	7714	894	0	32806	32585	32720	32628	32891	32663	32715	32899	
1805	0	4649	6542	4072	7656	895	0	32771	32763	32667	32476	32563	32603	33279	32850	
1806	0	4651	6507	4069	7697	896	0	32764	32803	32611	32483	32311	32775	33287	32773	
1807	0	4738	6552	4033	7675	897	0	32738	32719	32569	32527	32387	32875	32984	32722	
1808	0	4668	6517	4084	7697	898	0	32780	32738	32599	32387	32285	33135	32363	32647	
1809	0	4705	6533	4127	7700	899	0	32788	32647	32735	32495	32283	32963	32390	32647	
1810	0	4682	6520	4061	7668	900	0	32756	32727	32635	32577	32055	33079	32890	32581	
1811	0	4686	6544	4037	7728	901	0	32765	32595	32715	32647	31985	32933	33299	32611	
1812	0	4708	6529	4040	7723	902	0	32729	32725	32679	32612	32125	32687	33147	32679	
1813	0	4657	6520	4086	7688	903	0	32717	32594	32668	32687	32806	32503	32668	32887	
1814	0	4707	6589	4067	7731	904	0	32773	32747	32659	32631	33287	32740	32244	32900	
1815	0	4712	6516	4045	7653	905	0	32754	32647	32686	32775	32703	32807	32615	32838	
1816	0	4674	6561	4117	7692	906	0	32772	32745	32867	32858	32481	32868	33027	32813	
1817	0	4690	6552	4112	7709	907	0	32742	32715	32787	32911	32324	32775	33251	32751	
1818	0	4701	6541	4067	7683	908	0	32745	32570	32751	32845	32319	32658	32775	32711	
1819	0	4702	6558	4098	7682	909	0	32706	32719	32854	32861	32543	32775	32367	32775	
1820	0	4680	6530	4084	7677	910	0	32786	32596	32945	32820	32891	32520	32411	32730	
1821	0	4662	6500	4069	7706	911	0	32786	32676	32871	32647	33303	32584	32903	32663	
1822	0	4654	6534	4040	7632	912	0	32810	32587	32948	32839	33751	32639	33271	32775	
1823	0	4674	6542	4084	7699	913	0	32753	32774	33010	32727	33907	32754	33159	32775	
1824	0	4710	6524	4037	7666	914	0	32758	32749	32863	32811	33967	32485	32543	32647	
1825	0	4703	6528	4086	7699	915	0	32758	32667	32802	32765	33879	32614	32261	32673	
1826	0	4701	6532	4091	7667	916	0	32743	32677	32701	32708	33821	32530	32476	32895	
1827	0	4656	6568	4085	7689	917	0	32775	32734	32731	32839	33686	32647	33106	33221	
1828	0	4651	6582	4073	7698	918	0	32748	32716	32743	32659	33255	32797	33171	33221	
1829	0	4704	6520	4078	7691	919	0	32752	32643	32695	32671	32597	32721	32859	32911	
1830	0	4699	6537	4046	7624	920	0	32677	32511	32844	32709	32114	32863	32281	32719	
1831	0	4704	6509	4092	7692	921	0	32701	32791	32765	32671	32097	32949	32300	32655	
1832	0	4676	6558	4055	7681	922	0	32796	32809	32795	32518	32142	32739	32839	32767	
1833	0	4696	6571	4067	7664	923	0	32795	32767	32775	32597	32235	32903	33231	32877	
1834	0	4680	6525	4055	7670	924	0	32710	32835	32803	32511	31988	32947	33175	32551	
1835	0	4702	6565	4052	7715	925	0	32728	32628	32679	32503	32029	32991	32551	32505	
1836	0	4709	6491	4065	7681	926	0	32713	32724	32733	32587	32327	32783	32287	32858	
1837	0	4668	6524	4057	7650	927	0	32735	32590	32781	32836	32511	32845	32585	32961	
1838	0	4672	6512	4074	7713	928	0	32715	32732	32767	32822	32527	32821	33199	32875	
1839	0	4719	6534	4093	7665	929	0	32748	32716	32756	32923	32473	32607	33101	32865	
1840	0	4716	6536	4064	7666	930	0	32704	32667	32742	32983	32587	32714	32815	32807	
1841	0	4692	6569	4100	7697	931	0	32770	32685	32821	32892	32681	32663	32306	32749	
1842	0	4645	6536	4032	7650	932	0	32814	32694	32681	32860	32596	32730	32291	32750	
1843	0	4639	6562	4089	7713	933	0	32779	32657	32751	32676	32615	32571	32915	32769	
1844	0	4650	6518	4067	7679	934	0	32871	32575	32810	32695	32511	32871	33316	32611	
1845	0	4700	6527	4052	7670	935	0	32814	32719	32711	32588	32495	32925	33109	32484	
1846	0	4712	6528	4038	7656	936	0	32837	32601	32717	32571	32458	32591	32500	32566	
1847	0	4683	6492	4037	7675	937	0	32821	32767	32767	32485	32499	32696	32132	32753	
1848	0	4692	6529	4071	7699	938	0	32740	32789	32712	32586	32627	32729	32591	32657	
1849	0	4675	6550	4097	7670	939	0	32748	32601	32751	32570	32605	32527	33058	32623	
1850	0	4680	6510	4072	7692	940	0	32677	32708	32850	32562	32786	32669	33322	32701	
1851	0	4687	6531	4024	7701	941	0	32701	32501	32749	32391	33039	32692	32747	32747	
1852	0	4635	6544	4068	7675	942	0	32834	32619	32739	32487	33207	32870	32367	32772	
1853	0	4702	6530	4034	7684	943	0	32793	32479	32799	32457	33004	32772	32370	32719	
1854	0	4690	6498	4088	7676	944	0	32808	32723	32716	32643	32797	33079	32900	32753	
1855	0	4655	6548	4040	7650	945	0	32846	32611	32589	32639	32484	33103	33297	32737	
1856	0	4737	6530	4085	7757	946	0	32779	32751	32647	32767	32519	32643	33255	32739	
1857	0	4681	6563	4092	7656	947	0	32679	32626	32722	32791	32450	32487	32591	32707	
1858	0	4734	6580	4081	7674	948	0	32663	32719	32590	32813	32236	32567	32358	32803	
1859	0	4700	6546	4074	7672	949	0	32696	32796	32684	32863	32276	32687	32615	32971	
1860	0	4739	6547	4095	7700	950	0	32749	32727	32807	32767	32274	32511	33255	32971	
1861	0	4706	6578	4089	7687	951	0	32679	32829	32885	32921	32396	32775	33375	32881	
1862	0	4694	6526	4050	7704	952	0	32764	32677	32821	32919	32898	32875	32915	32839	
1863	0	4706	6552	4052	7716	953	0	32818	32775	32831	32919	33213	33084	32343	32775	
1864	0	4642	6506	4108	7652	954	0	32718	32775	32879	32911	33244	32802	32351	32706	
1865	0	4683	6516	4107	7721	955	0	32756	32739	32883	32759	33082	32636	32837	32694	
1866	0	4652	6528	4091	7716	956	0	32820	32751	32753	32738	33687	32769	33231	32677	
1867	0	4656	6539	4051	7734	957	0	32822	32773	32671	32647	33311	32869	33089	32634	
1868	0	4643	6534	4110	7660	958	0	32764	32799	32679	32771	32833	32660	32511	32455	
1869	0	4680	6520	4056	7672	959	0	32767	32819	32763	32745	32935	32775	32274	32424	
1870	0	4690	6569	4124	7672	960	0	32782	32663	32697	32756	33313	32686	32544	32336	
1871	0	4691	6544	4069	7684	961	0	32748	32749	32762	32679	33022	32683	33124	32430	
1872	0	4696	6542	4040	7705	962	0	32786	32703	32852	32647	32570	32519	33223	32531	
1873	0	4692	6508	4087	7707	963	0	32799	32692	32740	32718	32319	32791	32805	32587	
1874	0	4664	6504	4054	7702	964	0	32844	32731	32820	32719	32003	32725	32322	32677	
1875	0	4698	6524	4109	7709	965	0	32793	32703	32860	32677	32100	32883	32354	32791	
1876	0	4658	6514	4075	7644	966	0	32727	32766	32820	32783	32457	32831	32828	32743	
1877	0	4693	6504	4053	7717	967	0	32717	32551	32838	32802	32406	32850	33113	32705	
1878	0	4674	6543	4013	7702	968	0	32759	32671	32881	32775	32487	32559	32879	32898	
1879	0	4655	6464	4051	7684	969	0	32732	32487	32703	32799	32427	32642	32327	32977	
1880	0	4696	6516	4058	7712	970	0	32725	32642	32659	32715	32599	32708	31903	32993	
1881	0	4678	6518	4084	7696	971	0	32751	32795	32728	32754	32542	32647	32247	32966	
1882	0	4642	6518	4100	7676	972	0	32776	32804	32833	32668	32337	32795	32855	32949	
1883	0	4654	6554	4070	7709	973	0	32795	32838	32793	32628	32615	32732	33263	33035	
1884	0	4683	6515	4068	7728	974	0	32815	32775	32766	32499	33052	32719	32903	33001	
1885	0	4667	6553	4088	7725	975	0	32742	32693	32709	32530	33371	32524	32444	32897	
1886	0	4711	6539	4038	7707	976	0	32681	32519	32751	32539	33276	32699	32409	32799	
1887	0	4709	6498	4090	7672	977	0	32639	32647	32711	32603	32844	33023	32839	32793	
1888	0	4669	6540	4080	7680	978	0	32676	32471	32811	32679	32714	32970	33169	32935	
1889	0	4667	6528	4075	7696	979	0	32721	32736	32706	32708	32789	32873	33179	32804	
1890	0	4672	6537	4142	7668	980	0	32698	32603	32719	32753	33015	32996	32528	32799	
1891	0	4696	6518	4106	7708	981	0	32769	32507	32724	32844	33038	32698	32396	32758	
1892	0	4672	6536	3996	7688	982	0	32775	32545	32704	32929	32873	32775	32788	32873	
1893	0	4659	6492	4070	7694	983	0	32824	32603	32759	33023	32841	32895	33357	32867	
1894	0	4653	6529	4093	7698	984	0	32773	32555	32748	32862	32559	32633	33455	32981	
1895	0	4683	6520	4092	7700	985	0	32750	32533	32663	32796	32404	32364	32997	32943	
1896	0	4688	6506	4049	7726	986	0	32799	32567	32645	32743	32333	32387	32470	32817	
1897	0	4684	6529	4064	7711	987	0	32794	32633	32574	32578	32459	32679	32646	32638	
1898	0	4698	6543	4025	7638	988	0	32742	32676	32590	32553	32556	32758	33238	32495	
1899	0	4663	6507	4033	7667	989	0	32804	32695	32634	32629	32676	32839	33430	32511	
1900	0	4692	6522	4058	7682	990	0	32823	32757	32713	32647	32925	32711	33010	32487	
1901	0	4679	6535	4066	7697	991	0	32801	32761	32799	32687	32757	32847	32285	32576	
1902	0	4670	6516	4066	7698	992	0	32743	32751	32804	32586	32565	32700	32311	32591	
1903	0	4696	6497	4065	7648	993	0	32692	32773	32806	32503	32347	32737	32885	32551	
1904	0	4669	6510	4048	7714	994	0	32736	32745	32735	32428	32221	32635	33309	32635	
1905	0	4694	6513	4034	7661	995	0	32829	32799	32926	32598	32453	32732	33103	32879	
1906	0	4676	6500	4063	7744	996	0	32781	32719	32977	32809	32588	32615	32511	32867	
1907	0	4684	6484	4008	7688	997	0	32807	32623	33061	32743	32614	33204	32241	32775	
1908	0	4683	6505	4040	7690	998	0	32785	32729	33061	32850	32914	33139	32588	32815	
1909	0	4636	6542	4055	7729	999	0	32662	32571	32969	32861	32741	32973	33021	32723	
1910	0	4653	6498	4032	7708	1000	0	32710	32702	32757	32831	32863	32921	33215	32823	
1911	0	4696	6507	4072	7702	1001	0	32781	32609	32709	32839	33239	32956	32695	32799	
1912	0	4688	6499	4084	7710	1002	0	32780	32683	32687	32724	33382	32639	32263	32871	
1913	0	4643	6504	4069	7700	1003	0	32748	32605	32629	32763	33244	32721	32389	32756	
1914	0	4719	6534	4064	7689	1004	0	32751	32665	32647	32698	32918	32612	32932	32743	
1915	0	4651	6516	4047	7660	1005	0	32773	32532	32495	32647	32781	32588	33299	32727	
1916	0	4620	6506	4040	7647	1006	0	32812	32739	32506	32719	32871	32463	33065	32725	
1917	0	4658	6484	4060	7725	1007	0	32794	32647	32631	32685	32790	32767	32503	32762	
1918	0	4703	6477	4075	7680	1008	0	32786	32690	32578	32708	32767	32881	32160	32866	
1919	0	4680	6489	4022	7701	1009	0	32725	32668	32694	32713	32803	32596	32465	32732	
1920	0	4688	6498	4059	7684	1010	0	32769	32564	32717	32865	32539	32721	32868	32604	
1921	0	4685	6467	4033	7660	1011	0	32714	32647	32563	32809	32355	32731	33103	32723	
1922	0	4657	6528	4064	7717	1012	0	32784	32556	32575	32879	32413	32789	32503	32815	
1923	0	4686	6505	4059	7674	1013	0	32847	32727	32733	32881	32570	32655	32091	32799	
1924	0	4660	6516	4035	7656	1014	0	32740	32787	32783	32891	32617	32687	32121	32839	
1925	0	4718	6520	4069	7666	1015	0	32788	32830	32764	32799	32773	32871	32584	32911	
1926	0	4700	6508	4056	7708	1016	0	32772	32692	32751	32596	32837	32669	33170	32847	
1927	0	4660	6479	4048	7703	1017	0	32834	32796	32903	32632	32410	32557	32965	32807	
1928	0	4709	6458	4082	7668	1018	0	32767	32767	32978	32622	32343	32647	32466	32788	
1929	0	4714	6520	4067	7690	1019	0	32793	32669	32991	32463	32484	32783	32272	32793	
1930	0	4694	6533	4068	7694	1020	0	32809	32780	32961	32415	32585	32868	32565	32703	
1931	0	4665	6524	4067	7720	1021	0	32821	32644	32923	32439	32389	32783	33129	32574	
1932	0	4660	6554	4061	7675	1022	0	32785	32736	32921	32439	32535	32825	33285	32571	
1933	0	4652	6514	4065	7624	1023	0	32757	32527	32807	32643	32629	32787	32917	32637	
1934	0	4690	6516	4081	7712	1024	0	32745	32661	32797	32695	32705	32555	32431	32647	
1935	0	4675	6524	4000	7680	1025	0	32710	32551	32827	32697	33130	32736	32350	32721	
1936	0	4661	6499	4040	7682	1026	0	32648	32697	32892	32773	33228	32646	32916	32812	
1937	0	4688	6504	4072	7722	1027	0	32589	32686	32908	32804	33083	32668	33499	32700	
1938	0	4681	6478	4066	7726	1028	0	32694	32694	32845	32790	32676	32671	33251	32558	
1939	0	4691	6536	4024	7682	1029	0	32664	32663	32811	32686	32735	32730	32749	32658	
1940	0	4678	6529	4010	7713	1030	0	32730	32735	32796	32781	32683	32742	32346	32884	
1941	0	4674	6468	4055	7689	1031	0	32701	32788	32784	32887	32329	32718	32722	32829	
1942	0	4667	6482	4036	7684	1032	0	32738	32696	32750	32860	32313	32961	33327	32854	
1943	0	4690	6516	4013	7679	1033	0	32715	32637	32647	32839	32334	32951	33271	32931	
1944	0	4701	6550	4036	7681	1034	0	32752	32577	32711	32717	32346	32871	32851	32895	
1945	0	4635	6520	4025	7670	1035	0	32830	32775	32729	32717	32567	32791	32252	32967	
1946	0	4721	6512	4019	7650	1036	0	32788	32749	32727	32854	32859	32549	32532	32951	
1947	0	4709	6508	4024	7689	1037	0	32817	32684	32829	32766	32763	32825	32967	33026	
1948	0	4708	6465	4087	7672	1038	0	32822	32697	32775	32656	33005	32850	33287	33149	
1949	0	4662	6480	4031	7677	1039	0	32764	32679	32719	32587	32869	32925	32852	32595	
1950	0	4650	6482	4005	7669	1040	0	32751	32751	32784	32583	33135	32666	32391	32663	
1951	0	4678	6508	4049	7694	1041	0	32772	32751	32743	32681	33055	32564	32357	32736	
1952	0	4690	6500	4053	7696	1042	0	32783	32749	32709	32765	32645	32941	32719	32713	
1953	0	4702	6540	4071	7674	1043	0	32796	32759	32684	32775	33002	32655	33187	32607	
1954	0	4661	6520	4038	7686	1044	0	32831	32717	32644	32679	33173	32615	33119	32767	
1955	0	4710	6446	4074	7707	1045	0	32806	32679	32630	32551	33006	32487	32567	32603	
1956	0	4700	6452	4073	7713	1046	0	32800	32726	32613	32563	32632	32733	32235	32542	
1957	0	4703	6525	4009	7699	1047	0	32766	32775	32694	32511	32591	32804	32572	32592	
1958	0	4688	6468	4054	7664	1048	0	32775	32668	32639	32533	32867	32844	33155	32495	
1959	0	4648	6499	4110	7672	1049	0	32818	32573	32586	32583	32926	32679	33247	32427	
1960	0	4644	6499	4068	7700	1050	0	32759	32625	32541	32807	32658	32821	32690	32331	
1961	0	4692	6454	4085	7696	1051	0	32760	32575	32530	32863	32727	32788	32159	32479	
1962	0	4627	6486	4052	7748	1052	0	32726	32489	32551	32856	32879	32829	32404	32769	
1963	0	4658	6513	4122	7705	1053	0	32732	32543	32717	32856	32959	32644	33037	32780	
1964	0	4664	6480	4067	7683	1054	0	32748	32571	32738	32719	32786	32839	33153	33079	
1965	0	4681	6508	4050	7725	1055	0	32790	32733	32829	32762	32647	32758	32819	33337	
1966	0	4669	6484	4038	7699	1056	0	32811	32799	32817	32677	32466	32858	32179	33300	
1967	0	4702	6519	4056	7681	1057	0	32762	32711	32818	32662	32421	32684	32103	32908	
1968	0	4698	6482	4048	7691	1058	0	32710	32617	32789	32653	32455	32646	32595	32933	
1969	0	4725	6496	4057	7666	1059	0	32733	32623	32876	32640	32474	32899	33015	32888	
1970	0	4649	6471	4044	7679	1060	0	32804	32663	32817	32635	32647	32951	32899	32879	
1971	0	4680	6499	4041	7744	1061	0	32780	32701	32675	32751	32740	33036	32452	32811	
1972	0	4687	6483	4070	7716	1062	0	32736	32647	32703	32772	32679	32608	32091	32799	
1973	0	4700	6493	4067	7744	1063	0	32620	32597	32807	32852	32833	32358	32633	32790	
1974	0	4690	6488	4045	7707	1064	0	32660	32701	32810	32813	32974	32810	33206	32834	
1975	0	4666	6504	4056	7700	1065	0	32651	32766	32801	32806	33343	32781	33181	32769	
1976	0	4651	6477	4109	7670	1066	0	32708	32740	32839	32845	33081	32615	32633	32708	
1977	0	4717	6527	4042	7745	1067	0	32697	32773	32871	32834	32647	32455	32244	32720	
1978	0	4683	6480	4078	7672	1068	0	32678	32734	32878	32796	32533	32553	32380	32766	
1979	0	4684	6460	4034	7710	1069	0	32688	32717	33012	32765	32593	32764	33082	32740	
1980	0	4721	6497	4043	7696	1070	0	32797	32751	33078	32727	32579	32898	33351	32685	
1981	0	4703	6506	4030	7694	1071	0	32828	32742	32895	32804	32491	33011	32871	32683	
1982	0	4624	6508	4068	7721	1072	0	32876	32773	32775	32729	32159	33330	32439	32619	
1983	0	4657	6483	4026	7709	1073	0	32843	32805	32738	32759	31985	33039	32479	32703	
1984	0	4692	6506	4072	7699	1074	0	32798	32809	32796	32659	32020	32645	33018	32747	
1985	0	4660	6525	4016	7714	1075	0	32815	32726	32764	32655	32199	32695	33415	32962	
1986	0	4631	6501	4069	7706	1076	0	32813	32839	32701	32647	32263	32747	33280	32898	
1987	0	4680	6486	4036	7672	1077	0	32860	32719	32669	32721	32315	32623	32681	32809	
1988	0	4643	6506	4053	7717	1078	0	32827	32677	32571	32668	32437	32479	32559	32870	
1989	0	4680	6493	3996	7730	1079	0	32821	32711	32566	32716	33193	32655	32918	32903	
1990	0	4697	6500	4058	7710	1080	0	32775	32749	32570	32723	33355	32605	33415	32831	
1991	0	4664	6519	4056	7690	1081	0	32743	32751	32643	32771	33082	32423	33140	32743	
1992	0	4682	6508	4064	7713	1082	0	32721	32713	32631	32837	33389	32487	32610	32711	
1993	0	4627	6499	4065	7704	1083	0	32767	32738	32677	32919	33287	32701	32343	32795	
1994	0	4664	6526	4062	7736	1084	0	32717	32626	32673	32751	33069	32637	32578	32715	
1995	0	4694	6512	4004	7731	1085	0	32767	32538	32677	32835	33119	32497	33151	32775	
1996	0	4658	6453	4054	7701	1086	0	32808	32559	32662	32793	33071	32774	33139	32559	
1997	0	4717	6521	4064	7702	1087	0	32796	32527	32646	32671	32527	32863	32810	32583	
1998	0	4677	6500	4042	7742	1088	0	32772	32663	32695	32645	32157	32743	32228	32501	
1999	0	4712	6507	4045	7662	1089	0	32758	32698	32840	32509	32226	32757	32436	32675	
2000	0	4667	6487	4058	7666	1090	0	32775	32743	33042	32500	32535	32726	32799	32642	
2001	0	4670	6542	4058	7676	1091	0	32788	32727	33013	32580	32844	32726	32887	32644	
2002	0	4688	6501	4037	7688	1092	0	32756	32767	32951	32647	32791	32975	32743	32713	
2003	0	4674	6505	4030	7709	1093	0	32753	32742	32851	32679	32661	32925	32106	32673	
2004	0	4676	6476	4032	7697	1094	0	32750	32743	32748	32756	32571	32825	32133	32623	
2005	0	4682	6476	4125	7700	1095	0	32732	32796	32691	32632	32586	33105	32575	32763	
2006	0	4687	6504	4017	7692	1096	0	32801	32775	32807	32609	32610	33007	33193	32893	
2007	0	4682	6502	4052	7746	1097	0	32847	32766	32771	32559	32674	32743	33047	33083	
2008	0	4719	6481	4065	7708	1098	0	32826	32756	32743	32567	32695	32483	32477	33095	
2009	0	4648	6533	4065	7706	1099	0	32831	32742	32725	32563	32593	32807	32099	33019	
2010	0	4712	6476	4061	7654	1100	0	32775	32775	32713	32642	32421	32902	32519	32695	
2011	0	4692	6488	4037	7674	1101	0	32732	32759	32805	32703	32231	32647	33084	32733	
2012	0	4698	6492	4068	7700	1102	0	32726	32711	32802	32803	32333	32694	33385	32757	
2013	0	4695	6522	4024	7728	1103	0	32644	32621	32747	32775	32898	32759	32815	32810	
2014	0	4698	6489	4104	7730	1104	0	32615	32669	32689	32769	33039	32785	32215	32735	
2015	0	4677	6515	4046	7686	1105	0	32603	32711	32758	32749	33087	32793	32501	32749	
2016	0	4672	6549	4066	7673	1106	0	32686	32742	32789	32758	32876	32963	33003	32832	
2017	0	4661	6497	4032	7674	1107	0	32725	32707	32758	32751	32701	32839	33425	32762	
2018	0	4670	6536	4067	7748	1108	0	32694	32691	32752	32694	33026	32615	33172	32683	
2019	0	4712	6514	4051	7692	1109	0	32718	32701	32799	32667	32959	32697	32591	32666	
2020	0	4721	6509	4090	7693	1110	0	32769	32711	32719	32757	33054	33014	32388	32619	
2021	0	4688	6498	4089	7698	1111	0	32738	32783	32666	32903	33343	32865	32847	32703	
2022	0	4708	6549	4069	7693	1112	0	32751	32780	32738	32919	33319	32506	33367	32764	
2023	0	4740	6538	4052	7738	1113	0	32761	32727	32799	32783	33031	32451	33183	32766	
2024	0	4706	6516	4082	7726	1114	0	32802	32733	32824	32749	32712	32367	32663	32747	
2025	0	4696	6480	4006	7738	1115	0	32834	32764	32783	32695	32647	32455	32316	32811	
2026	0	4704	6532	4093	7710	1116	0	32855	32680	32799	32700	32694	32532	32455	32935	
2027	0	4723	6518	4064	7694	1117	0	32832	32801	32775	32639	32642	32954	32987	32982	
2028	0	4700	6506	4073	7706	1118	0	32834	32727	32837	32615	32687	32695	33189	32950	
2029	0	4665	6465	4055	7732	1119	0	32793	32799	32813	32606	32447	32561	32847	32751	
2030	0	4712	6516	4040	7676	1120	0	32812	32811	32910	32639	32263	32871	32253	32727	
2031	0	4703	6500	4047	7712	1121	0	32771	32599	32850	32669	32356	32767	32415	32642	
2032	0	4708	6505	4044	7738	1122	0	32719	32561	32847	32733	32168	32361	32893	32807	
2033	0	4692	6506	4059	7658	1123	0	32734	32559	32745	32819	32197	32671	33151	32813	
2034	0	4712	6555	4066	7699	1124	0	32703	32593	32785	32879	32383	32647	32951	32951	
2035	0	4710	6501	4088	7744	1125	0	32716	32551	32797	32863	32349	32766	32420	32898	
2036	0	4688	6526	4076	7762	1126	0	32719	32555	32718	32747	32668	32852	32190	32885	
2037	0	4725	6500	4109	7719	1127	0	32745	32553	32761	32681	32466	33036	32662	32876	
2038	0	4692	6572	4020	7689	1128	0	32785	32625	32783	32684	32260	33047	33213	32775	
2039	0	4670	6578	4066	7670	1129	0	32717	32578	32838	32769	32204	32628	33179	32674	
2040	0	4684	6482	4046	7720	1130	0	32727	32527	32915	32775	32441	32516	32471	32735	
2041	0	4692	6488	4023	7702	1131	0	32771	32661	32879	32719	33031	32593	32185	32835	
2042	0	4683	6523	4022	7698	1132	0	32692	32669	32777	32724	33629	32619	32420	32775	
2043	0	4704	6508	4132	7720	1133	0	32689	32726	32756	32743	33540	32729	32773	32877	
2044	0	4669	6527	4060	7704	1134	0	32750	32727	32804	32710	33517	33316	33095	32797	
2045	0	4640	6533	4079	7664	1135	0	32799	32751	32855	32765	33471	33217	32637	32759	
2046	0	4682	6534	4076	7709	1136	0	32807	32739	32810	32749	33147	33100	31991	32407	
2047	0	4706	6486	4051	7741	1137	0	32833	32767	32775	32729	32764	33055	32181	32358	
2048	0	4688	6502	4072	7710	1138	0	32804	32799	32773	32727	32782	32628	32699	32477	
2049	0	4712	6511	4072	7738	1139	0	32797	32797	32733	32773	32940	32503	33101	32599	
2050	0	4708	6518	4043	7704	1140	0	32704	32791	32669	32596	32846	32695	33095	32675	
2051	0	4681	6533	4020	7706	1141	0	32749	32869	32758	32554	32803	32631	32529	32806	
2052	0	4686	6545	4096	7680	1142	0	32711	32806	32759	32591	32623	32413	32059	32775	
2053	0	4724	6496	4082	7704	1143	0	32702	32793	32759	32743	32679	32535	32591	32791	
2054	0	4696	6474	4016	7708	1144	0	32713	32701	32708	32753	32854	32697	33246	32775	
2055	0	4717	6500	4042	7714	1145	0	32717	32628	32670	32806	33007	32783	33332	32855	
2056	0	4670	6510	4088	7692	1146	0	32796	32673	32555	32878	33135	32629	32853	32749	
2057	0	4692	6493	4080	7716	1147	0	32812	32615	32515	32855	32965	32813	32411	32761	
2058	0	4688	6558	4060	7705	1148	0	32792	32667	32540	32745	32499	32727	32695	32671	
2059	0	4654	6483	4061	7686	1149	0	32792	32659	32525	32647	32423	32742	33195	32772	
2060	0	4703	6525	4029	7757	1150	0	32833	32810	32429	32745	32421	32599	33371	32583	
2061	0	4680	6553	4042	7686	1151	0	32806	32855	32535	32743	32470	32639	32909	32463	
2062	0	4690	6524	4058	7694	1152	0	32806	32755	32623	32781	32471	32879	32413	32615	
2063	0	4677	6532	3978	7699	1153	0	32900	32775	32638	32804	32539	32804	32525	32788	
2064	0	4697	6536	4079	7662	1154	0	32801	32765	32718	32823	32500	32823	32887	32855	
2065	0	4653	6512	4124	7680	1155	0	32866	32761	32854	32713	32327	32663	33255	32818	
2066	0	4684	6517	4034	7711	1156	0	32827	32735	32943	32738	32295	33141	33037	32835	
2067	0	4683	6518	4093	7692	1157	0	32759	32633	33015	32693	32263	32863	32335	32756	
2068	0	4642	6498	4111	7730	1158	0	32639	32599	33045	32626	32278	32645	32315	32719	
2069	0	4701	6525	4033	7666	1159	0	32703	32695	32930	32694	32471	32455	32686	32757	
2070	0	4694	6542	4070	7715	1160	0	32671	32669	32931	32736	32600	32762	33215	32839	
2071	0	4680	6525	4031	7707	1161	0	32706	32635	32789	32855	32587	32775	33095	32788	
2072	0	4704	6524	4040	7680	1162	0	32693	32699	32711	32751	32579	32783	32641	32871	
2073	0	4658	6512	4053	7730	1163	0	32722	32707	32703	32615	32623	32647	32125	32732	
2074	0	4688	6526	4036	7694	1164	0	32722	32735	32754	32647	32911	32759	32500	32820	
2075	0	4674	6504	4049	7689	1165	0	32732	32716	32838	32567	32988	32775	33287	32749	
2076	0	4676	6540	4043	7705	1166	0	32669	32788	32789	32575	32727	32787	33378	32903	
2077	0	4684	6533	4042	7676	1167	0	32805	32767	32695	32635	32522	32789	32815	32967	
2078	0	4697	6506	4064	7711	1168	0	32814	32769	32597	32684	32487	32839	32350	33063	
2079	0	4696	6541	4062	7716	1169	0	32751	32807	32743	32636	32738	32713	32421	32982	
2080	0	4683	6538	4095	7632	1170	0	32764	32788	32785	32631	32886	32549	33066	33036	
2081	0	4699	6536	4047	7672	1171	0	32842	32815	32749	32603	32991	32880	33333	33013	
2082	0	4679	6487	4032	7684	1172	0	32847	32557	32799	32721	32799	32995	32999	32884	
2083	0	4682	6503	4059	7638	1173	0	32839	32703	32796	32720	33082	32717	32431	32798	
2084	0	4676	6516	4072	7691	1174	0	32846	32687	32821	32935	33667	32433	32096	32642	
2085	0	4670	6514	4080	7694	1175	0	32775	32799	32763	32870	33637	32546	32607	32537	
2086	0	4692	6496	4032	7684	1176	0	32760	32671	32805	32879	33055	32671	33003	32468	
2087	0	4706	6526	4081	7669	1177	0	32773	32637	32713	32799	32615	32626	33119	32510	
2088	0	4682	6488	4084	7687	1178	0	32818	32513	32755	32617	32668	32437	32632	32679	
2089	0	4688	6529	4058	7664	1179	0	32818	32677	32791	32658	32678	32847	32163	32391	
2090	0	4652	6508	4056	7697	1180	0	32727	32557	32735	32695	32567	33090	32159	32444	
2091	0	4675	6521	4069	7687	1181	0	32722	32790	32759	32775	32407	33119	32767	32580	
2092	0	4715	6532	4003	7702	1182	0	32733	32772	32790	32666	32612	32820	33083	32724	
2093	0	4726	6571	4040	7695	1183	0	32673	32711	32687	32705	32719	32841	33077	32745	
2094	0	4664	6544	4058	7697	1184	0	32724	32692	32831	32695	32903	32799	32399	32865	
2095	0	4676	6532	4038	7701	1185	0	32759	32676	32692	32630	32967	32643	32207	33012	
2096	0	4698	6493	4077	7696	1186	0	32711	32569	32767	32639	32993	32872	32308	33001	
2097	0	4676	6556	4082	7716	1187	0	32705	32647	32893	32772	32821	33125	32993	33021	
2098	0	4692	6504	4066	7687	1188	0	32708	32639	32883	32734	32511	32751	33140	32961	
2099	0	4718	6525	4034	7685	1189	0	32681	32647	32873	32827	32630	32343	32879	33038	
2100	0	4706	6539	4053	7638	1190	0	32732	32484	32865	32749	32716	32375	32382	32891	
2101	0	4662	6532	4035	7711	1191	0	32713	32654	32767	32793	32336	32575	32504	32839	
2102	0	4743	6530	4040	7684	1192	0	32705	32611	32823	32817	32311	32475	32925	32643	
2103	0	4713	6563	4076	7689	1193	0	32753	32775	32885	32834	32263	32679	33452	32543	
2104	0	4699	6540	4054	7734	1194	0	32772	32774	32839	32715	32420	32839	33207	32391	
2105	0	4656	6560	4040	7709	1195	0	32801	32685	32871	32740	32437	32671	32639	32273	
2106	0	4706	6497	4050	7658	1196	0	32775	32797	32879	32679	32402	32866	32320	32487	
2107	0	4709	6490	4044	7670	1197	0	32796	32658	32763	32493	32399	32891	32711	32659	
2108	0	4709	6528	4054	7698	1198	0	32772	32762	32782	32491	32718	32887	33278	32717	
2109	0	4652	6520	4044	7677	1199	0	32749	32540	32729	32375	32572	32692	33324	32590	
2110	0	4701	6458	4068	7684	1200	0	32764	32679	32642	32423	32775	32800	32773	32729	
2111	0	4640	6540	4014	7691	1201	0	32728	32543	32647	32440	33011	32757	32183	32735	
2112	0	4686	6515	4032	7740	1202	0	32700	32737	32626	32665	33074	32567	32413	32721	
2113	0	4655	6504	4032	7664	1203	0	32735	32679	32585	32728	32850	32711	32871	32767	
2114	0	4652	6534	4039	7698	1204	0	32736	32767	32541	32775	32601	32737	33303	32708	
2115	0	4629	6544	4055	7728	1205	0	32769	32763	32580	32615	32655	32775	32959	32755	
2116	0	4664	6520	4041	7721	1206	0	32752	32484	32505	32597	32934	32748	32445	32775	
2117	0	4661	6554	4058	7710	1207	0	32821	32694	32655	32543	32918	32806	32228	32775	
2118	0	4724	6550	4008	7728	1208	0	32764	32555	32685	32638	32913	32854	32609	32739	
2119	0	4672	6540	4078	7702	1209	0	32703	32751	32788	32558	32679	32563	33071	32719	
2120	0	4695	6516	4060	7648	1210	0	32795	32728	32877	32775	32633	32741	33223	32775	
2121	0	4674	6536	4049	7686	1211	0	32809	32731	32969	32858	32663	32894	32622	32662	
2122	0	4736	6537	4049	7660	1212	0	32761	32739	32946	32935	32557	32759	32229	32743	
2123	0	4709	6550	4048	7708	1213	0	32823	32663	32911	32868	32727	32662	32231	32793	
2124	0	4676	6508	4044	7718	1214	0	32804	32723	32809	32834	32718	32748	32863	33071	
2125	0	4664	6551	4029	7664	1215	0	32858	32674	32691	32796	32666	32891	33183	33097	
2126	0	4727	6566	4040	7704	1216	0	32842	32795	32684	32793	32823	32694	33063	32892	
2127	0	4702	6524	4033	7691	1217	0	32765	32598	32743	32630	32847	32881	32415	32935	
2128	0	4664	6531	4090	7683	1218	0	32804	32731	32669	32679	33121	32932	32196	32885	
2129	0	4690	6542	4040	7746	1219	0	32756	32536	32718	32635	33159	32715	32375	32844	
2130	0	4659	6528	4054	7691	1220	0	32749	32647	32724	32726	32647	32772	32937	32851	
2131	0	4686	6538	3997	7701	1221	0	32745	32607	32645	32738	32551	32763	32974	32802	
2132	0	4661	6507	4062	7725	1222	0	32773	32647	32634	32795	32640	32723	32667	32816	
2133	0	4689	6522	3996	7689	1223	0	32724	32636	32705	32839	32668	32567	32231	32843	
2134	0	4681	6568	4054	7686	1224	0	32729	32783	32628	32940	32781	32699	32435	32832	
2135	0	4673	6529	4060	7656	1225	0	32718	32764	32694	32887	32487	32852	32941	32666	
2136	0	4701	6529	4056	7682	1226	0	32687	32773	32751	32786	32434	32698	33471	32643	
2137	0	4696	6511	4056	7706	1227	0	32697	32771	32677	32887	32515	32853	33119	32717	
2138	0	4732	6543	4080	7693	1228	0	32677	32609	32807	32775	32279	32890	32612	32731	
2139	0	4666	6517	4030	7702	1229	0	32721	32647	32901	32807	32332	32875	32405	32657	
2140	0	4667	6523	4063	7644	1230	0	32709	32550	32870	32728	32402	32654	32916	32727	
2141	0	4711	6541	4050	7713	1231	0	32715	32727	32921	32793	32516	32797	33403	32799	
2142	0	4724	6560	4018	7703	1232	0	32683	32677	33031	32678	32755	32870	33327	32861	
2143	0	4703	6483	4019	7676	1233	0	32715	32799	32898	32559	32605	32688	32807	32903	
2144	0	4624	6534	4061	7677	1234	0	32792	32647	32825	32483	32503	32647	32167	32895	
2145	0	4666	6539	4045	7705	1235	0	32841	32783	32815	32550	32571	32807	32462	32815	
2146	0	4667	6526	4080	7700	1236	0	32863	32658	32843	32598	32575	32719	32963	32775	
2147	0	4682	6511	4051	7679	1237	0	32863	32737	32765	32718	32882	32722	33327	32863	
2148	0	4720	6527	4042	7682	1238	0	32774	32583	32799	32821	33485	32428	33013	32825	
2149	0	4700	6516	4083	7708	1239	0	32707	32646	32858	32805	33735	32858	32415	32727	
2150	0	4723	6565	4047	7672	1240	0	32700	32541	32893	32725	33265	32983	32327	32633	
2151	0	4696	6562	4059	7668	1241	0	32655	32679	32791	32565	32807	32683	32592	32635	
2152	0	4706	6490	4035	7687	1242	0	32742	32572	32794	32673	32436	32694	33215	32479	
2153	0	4645	6510	4068	7705	1243	0	32730	32691	32811	32543	32151	32639	33135	32326	
2154	0	4688	6515	4046	7677	1244	0	32802	32647	32711	32525	32178	32647	32639	32447	
2155	0	4694	6522	4014	7716	1245	0	32753	32775	32599	32538	32391	32699	32211	32500	
2156	0	4700	6542	4050	7718	1246	0	32780	32767	32588	32620	32748	32876	32418	32717	
2157	0	4684	6496	4068	7680	1247	0	32824	32740	32455	32661	33406	32855	33037	32867	
2158	0	4723	6542	4026	7674	1248	0	32741	32775	32471	32724	33715	32690	33123	32971	
2159	0	4713	6531	4036	7672	1249	0	32788	32738	32549	32964	33257	32791	32953	32980	
2160	0	4760	6482	4081	7690	1250	0	32771	32773	32661	32890	32599	33109	32374	32767	
2161	0	4650	6516	4040	7672	1251	0	32765	32733	32711	32927	32470	32858	32287	32723	
2162	0	4676	6568	4040	7723	1252	0	32781	32742	32604	32894	32903	32758	32749	32911	
2163	0	4691	6501	4040	7694	1253	0	32772	32579	32688	32927	32943	32470	32937	33025	
2164	0	4703	6522	4105	7672	1254	0	32845	32683	32747	32839	32871	32500	32887	33027	
2165	0	4697	6537	4075	7722	1255	0	32839	32557	32831	32721	32615	32335	32415	32843	
2166	0	4699	6485	4080	7685	1256	0	32807	32733	32787	32700	32315	32647	31991	32660	
2167	0	4694	6495	4028	7700	1257	0	32836	32612	32909	32583	32519	32943	32342	32639	
2168	0	4652	6532	4088	7662	1258	0	32796	32731	33090	32681	32620	32815	32889	32740	
2169	0	4724	6488	4076	7686	1259	0	32772	32468	33149	32583	32815	32876	33211	32879	
2170	0	4660	6518	3997	7652	1260	0	32710	32635	33119	32759	33143	32829	32841	32987	
2171	0	4699	6528	4086	7688	1261	0	32799	32562	33062	32895	33002	32511	32436	32951	
2172	0	4643	6475	4068	7735	1262	0	32783	32757	32963	32767	32957	32668	32330	32839	
2173	0	4699	6544	4042	7691	1263	0	32676	32756	32866	32831	32805	32788	32647	32895	
2174	0	4659	6546	3990	7712	1264	0	32663	32799	32673	32685	32779	32751	33306	32937	
2175	0	4694	6561	3990	7689	1265	0	32677	32743	32647	32609	32487	32597	33124	32737	
2176	0	4656	6517	4035	7648	1266	0	32725	32703	32583	32527	32343	32823	32691	32553	
2177	0	4689	6495	4070	7672	1267	0	32685	32751	32566	32573	32295	32815	32258	32445	
2178	0	4696	6535	4054	7699	1268	0	32687	32679	32528	32647	32308	32813	32559	32402	
2179	0	4670	6504	4087	7692	1269	0	32668	32671	32674	32633	32335	32709	32996	32521	
2180	0	4658	6550	4074	7669	1270	0	32757	32591	32684	32615	32372	32835	33327	32535	
2181	0	4668	6536	4060	7665	1271	0	32772	32715	32692	32493	32359	32853	33039	32694	
2182	0	4672	6526	4072	7674	1272	0	32834	32583	32615	32591	32386	32898	32356	32799	
2183	0	4716	6511	4046	7700	1273	0	32804	32747	32621	32540	32463	32681	32317	32743	
2184	0	4676	6467	4029	7706	1274	0	32795	32625	32719	32745	32601	32807	32796	32786	
2185	0	4693	6558	4014	7645	1275	0	32847	32775	32705	32846	32937	32899	33277	32865	
2186	0	4708	6491	4020	7712	1276	0	32841	32686	32772	32924	32955	32647	33135	32900	
2187	0	4718	6530	4028	7708	1277	0	32877	32735	32789	32806	32855	32562	32733	32927	
2188	0	4674	6532	4046	7738	1278	0	32804	32775	32759	32847	32870	32623	32327	32855	
2189	0	4674	6515	4055	7687	1279	0	32770	32722	32727	32790	32996	32743	32775	32851	
2190	0	4673	6500	4037	7694	1280	0	32758	32775	32775	32687	33037	32671	33351	32871	
2191	0	4682	6513	4007	7679	1281	0	32735	32737	32836	32727	32949	32791	33473	32839	
2192	0	4667	6480	4018	7700	1282	0	32733	32666	32953	32734	32692	32771	33079	32935	
2193	0	4657	6491	4058	7698	1283	0	32703	32613	32871	32847	32775	32623	32479	32967	
2194	0	4681	6512	4120	7667	1284	0	32639	32755	32935	32859	32644	32788	32452	33015	
2195	0	4729	6564	4024	7691	1285	0	32655	32617	32863	32847	32556	32855	32962	33023	
2196	0	4702	6513	4018	7665	1286	0	32645	32719	32859	32597	32630	32694	33391	32955	
2197	0	4672	6493	4069	7710	1287	0	32685	32721	32796	32626	32619	32647	33052	32862	
2198	0	4688	6512	4028	7652	1288	0	32668	32719	32820	32475	32545	32866	32546	32864	
2199	0	4692	6480	4044	7722	1289	0	32734	32710	32807	32543	32599	32910	32241	32917	
2200	0	4674	6559	4056	7654	1290	0	32729	32521	32835	32621	32365	32609	32470	32758	
2201	0	4705	6527	4033	7702	1291	0	32726	32724	32692	32660	32432	32739	33044	32660	
2202	0	4672	6509	4072	7681	1292	0	32808	32589	32723	32574	32535	32666	33146	32514	
2203	0	4621	6536	4100	7680	1293	0	32870	32671	32647	32597	32443	32727	32711	32386	
2204	0	4635	6546	4035	7670	1294	0	32830	32557	32663	32660	32646	32719	32371	32363	
2205	0	4677	6492	4079	7685	1295	0	32791	32751	32644	32716	32711	32957	32263	32458	
2206	0	4684	6504	4042	7694	1296	0	32876	32647	32629	32830	32681	32818	32620	32497	
2207	0	4645	6540	4053	7664	1297	0	32771	32713	32701	32749	32605	32555	33151	32476	
2208	0	4648	6536	4047	7716	1298	0	32729	32491	32636	32739	32659	32838	33091	32566	
2209	0	4638	6517	4101	7694	1299	0	32767	32658	32669	32662	32594	33023	32591	32647	
2210	0	4700	6530	4032	7688	1300	0	32773	32471	32584	32689	32604	33199	32153	32815	
2211	0	4698	6517	4074	7703	1301	0	32833	32725	32620	32714	32852	32879	32343	32973	
2212	0	4693	6521	4058	7696	1302	0	32838	32572	32641	32671	32917	32771	32957	33069	
2213	0	4692	6528	4032	7664	1303	0	32793	32655	32690	32817	33174	32647	33199	33111	
2214	0	4692	6525	4085	7696	1304	0	32789	32501	32671	32863	33378	32221	33047	33031	
2215	0	4658	6530	4083	7692	1305	0	32791	32665	32707	32855	32931	31899	32326	32823	
2216	0	4659	6533	4060	7701	1306	0	32740	32605	32807	32876	32559	32284	32341	32711	
2217	0	4692	6462	4042	7653	1307	0	32733	32767	32751	32887	32732	32629	32635	32641	
2218	0	4666	6507	4065	7680	1308	0	32729	32741	32775	32758	32743	32493	33223	32662	
2219	0	4694	6493	4056	7693	1309	0	32703	32644	32823	32639	32501	32615	33171	32615	
2220	0	4663	6522	4100	7718	1310	0	32681	32677	32802	32642	32535	32732	32769	32609	
2221	0	4703	6557	4058	7720	1311	0	32756	32751	32771	32581	32551	32879	32289	32742	
2222	0	4709	6490	4065	7720	1312	0	32777	32763	32832	32758	32742	32866	32324	32679	
2223	0	4687	6454	4027	7662	1313	0	32767	32749	32866	32804	33428	33115	32987	32693	
2224	0	4704	6527	4066	7707	1314	0	32751	32679	32877	32691	33869	33323	33221	32911	
2225	0	4730	6548	4080	7729	1315	0	32734	32711	32903	32846	33779	33079	32903	32919	
2226	0	4715	6494	4014	7736	1316	0	32741	32787	32896	32735	33119	32966	32156	32754	
2227	0	4719	6572	4084	7685	1317	0	32801	32747	32903	32786	32800	32955	32124	32689	
2228	0	4650	6506	4017	7696	1318	0	32768	32692	32855	32721	32642	32827	32466	32758	
2229	0	4681	6518	4007	7676	1319	0	32775	32767	32851	32630	32334	32587	32903	32915	
2230	0	4663	6569	4004	7688	1320	0	32835	32685	32775	32673	32523	32359	33007	33211	
2231	0	4694	6502	4040	7692	1321	0	32805	32733	32818	32609	32233	32519	32447	33028	
2232	0	4711	6466	4045	7690	1322	0	32781	32743	32833	32742	32183	32694	32269	32790	
2233	0	4669	6519	4052	7692	1323	0	32804	32695	32700	32653	32406	32475	32284	32676	
2234	0	4682	6507	4112	7675	1324	0	32797	32735	32671	32746	32711	32699	32911	32692	
2235	0	4667	6499	4096	7720	1325	0	32748	32735	32671	32617	32850	32665	33207	32775	
2236	0	4704	6537	4039	7736	1326	0	32645	32531	32762	32583	32863	33003	32815	32839	
2237	0	4706	6516	3990	7692	1327	0	32622	32460	32727	32647	32621	32863	32351	32775	
2238	0	4686	6519	4038	7682	1328	0	32692	32511	32742	32757	32381	32743	32284	32613	
2239	0	4653	6522	4076	7710	1329	0	32732	32595	32813	32817	32481	32811	32775	32548	
2240	0	4674	6514	4066	7692	1330	0	32726	32670	32811	32837	32636	32988	33281	32611	
2241	0	4648	6558	3997	7700	1331	0	32671	32679	32710	32743	32719	32799	33244	32563	
2242	0	4643	6522	4069	7694	1332	0	32701	32703	32711	32635	32789	32623	32723	32647	
2243	0	4639	6532	4052	7721	1333	0	32773	32749	32747	32525	32605	32647	32326	32620	
2244	0	4661	6531	4056	7685	1334	0	32703	32679	32829	32613	32587	32807	32585	32695	
2245	0	4648	6480	4055	7700	1335	0	32735	32647	32775	32548	32548	32703	33123	32835	
2246	0	4666	6498	4077	7702	1336	0	32791	32701	32799	32455	32277	32454	33287	32623	
2247	0	4667	6511	4016	7691	1337	0	32807	32637	32731	32429	32263	32585	32825	32703	
2248	0	4687	6540	4076	7686	1338	0	32830	32742	32775	32573	32630	32647	32301	32922	
2249	0	4648	6531	4019	7646	1339	0	32801	32783	32758	32683	32427	32834	32448	32827	
2250	0	4662	6524	4051	7719	1340	0	32833	32732	32807	32685	32511	32903	32987	32790	
2251	0	4676	6474	4034	7652	1341	0	32837	32577	32653	32771	32565	32715	33351	32889	
2252	0	4690	6514	4059	7708	1342	0	32845	32742	32604	32743	32788	32847	33030	32801	
2253	0	4670	6495	4042	7708	1343	0	32799	32583	32734	32902	33399	32854	32571	32981	
2254	0	4673	6525	4056	7716	1344	0	32775	32747	32671	33009	33813	32604	32509	32981	
2255	0	4678	6544	4045	7700	1345	0	32748	32549	32647	32903	33683	32721	32930	33030	
2256	0	4706	6500	4038	7689	1346	0	32756	32701	32625	32893	32998	32761	33313	32822	
2257	0	4673	6501	4053	7669	1347	0	32735	32731	32687	32831	32497	32791	33265	32700	
2258	0	4664	6548	4063	7706	1348	0	32692	32535	32775	32786	32507	32679	32829	32716	
2259	0	4653	6501	4087	7720	1349	0	32729	32643	32829	32722	32533	32804	32327	32713	
2260	0	4600	6538	4064	7683	1350	0	32759	32578	32834	32671	32659	32738	32369	32719	
2261	0	4662	6524	4069	7689	1351	0	32721	32735	32881	32708	32576	32898	33047	32807	
2262	0	4679	6534	4053	7714	1352	0	32670	32598	32850	32666	32748	32865	33263	32743	
2263	0	4693	6516	4081	7692	1353	0	32695	32759	32863	32775	32556	32566	32903	32663	
2264	0	4628	6484	4073	7643	1354	0	32675	32742	32919	32700	32503	32707	32493	32668	
2265	0	4662	6517	4034	7669	1355	0	32658	32749	32919	32695	32551	32880	32246	32713	
2266	0	4728	6523	4062	7684	1356	0	32669	32605	32853	32725	32666	32715	32695	32807	
2267	0	4694	6520	4051	7693	1357	0	32820	32691	32685	32743	32677	32653	33129	32781	
2268	0	4685	6513	4042	7672	1358	0	32810	32519	32601	32821	32470	32575	33195	32677	
2269	0	4707	6532	4032	7686	1359	0	32752	32694	32731	32733	32485	32497	32647	32521	
2270	0	4611	6499	4063	7708	1360	0	32700	32638	32711	32786	32487	32772	32231	32621	
2271	0	4719	6478	4013	7681	1361	0	32740	32738	32733	32685	32721	32797	32295	32527	
2272	0	4682	6489	4111	7725	1362	0	32772	32711	32826	32635	32844	32761	32855	32597	
2273	0	4696	6547	4034	7744	1363	0	32794	32507	32884	32607	32719	32839	33129	32647	
2274	0	4696	6526	4119	7686	1364	0	32832	32727	32949	32739	32719	32763	33013	32799	
2275	0	4667	6513	4067	7688	1365	0	32743	32695	32887	32647	32826	32775	32349	32933	
2276	0	4708	6523	4045	7682	1366	0	32848	32647	32843	32605	32954	32607	32231	32909	
2277	0	4667	6526	4034	7698	1367	0	32773	32718	32815	32519	33063	32481	32519	32890	
2278	0	4702	6512	4042	7712	1368	0	32762	32607	32727	32566	32939	32677	33001	32831	
2279	0	4696	6473	4035	7698	1369	0	32715	32743	32690	32585	33015	32773	32949	32738	
2280	0	4670	6490	4042	7686	1370	0	32701	32459	32607	32623	32903	32559	32601	32719	
2281	0	4652	6546	4069	7713	1371	0	32775	32678	32615	32609	32598	32775	32007	32670	
2282	0	4666	6521	4044	7682	1372	0	32788	32559	32590	32630	32300	32954	32116	32620	
2283	0	4697	6498	4030	7702	1373	0	32816	32711	32566	32775	32263	32909	32704	32500	
2284	0	4694	6498	4110	7744	1374	0	32780	32679	32606	32757	32429	32901	33188	32692	
2285	0	4642	6498	3987	7708	1375	0	32759	32775	32510	32843	32599	32759	32977	32805	
2286	0	4656	6507	4041	7671	1376	0	32758	32701	32684	32903	32503	32903	32437	32795	
2287	0	4648	6492	4072	7712	1377	0	32763	32771	32661	32847	32493	32601	32284	32827	
2288	0	4672	6520	4023	7669	1378	0	32786	32719	32748	32839	32523	32684	32750	32825	
2289	0	4708	6518	4046	7697	1379	0	32804	32796	32768	32842	32639	32663	33105	32669	
2290	0	4657	6529	4052	7692	1380	0	32769	32639	32733	32815	32563	32860	33149	32695	
2291	0	4697	6492	4074	7733	1381	0	32727	32727	32743	32938	32629	32856	32636	32703	
2292	0	4656	6548	4108	7710	1382	0	32740	32543	32759	32903	32899	32575	32231	32761	
2293	0	4658	6517	4063	7728	1383	0	32684	32666	32742	32943	33122	32745	32435	32924	
2294	0	4670	6509	4042	7700	1384	0	32700	32544	32709	32831	33066	32684	33169	33031	
2295	0	4712	6529	4028	7689	1385	0	32704	32710	32747	32775	33016	32668	33502	32791	
2296	0	4639	6476	4037	7714	1386	0	32812	32679	32775	32647	32916	32783	33188	32719	
2297	0	4661	6504	4126	7671	1387	0	32737	32726	32775	32559	32967	32759	32623	32715	
2298	0	4718	6464	4030	7679	1388	0	32804	32703	32803	32453	33068	32895	32523	32715	
2299	0	4654	6531	4067	7674	1389	0	32762	32679	32827	32471	32718	32943	32986	32727	
2300	0	4672	6540	4018	7696	1390	0	32736	32671	32813	32428	32615	32617	33507	32805	
2301	0	4684	6498	4076	7661	1391	0	32680	32465	32919	32635	32532	32804	33345	32841	
2302	0	4702	6505	4024	7705	1392	0	32772	32663	32903	32541	32519	32916	32750	32897	
2303	0	4678	6467	4038	7722	1393	0	32781	32461	32863	32611	32748	32612	32336	32919	
2304	0	4697	6508	4097	7700	1394	0	32832	32652	32847	32661	32903	32721	32455	32879	
2305	0	4662	6523	4063	7672	1395	0	32786	32795	32799	32790	32839	32925	32999	32937	
2306	0	4696	6516	4031	7680	1396	0	32738	32731	32772	32878	32678	32635	33196	32837	
2307	0	4666	6488	4058	7682	1397	0	32750	32775	32757	32911	32635	32807	32919	32770	
2308	0	4663	6546	4072	7672	1398	0	32805	32556	32695	32839	32634	32790	32303	32820	
2309	0	4645	6484	4075	7689	1399	0	32685	32679	32716	32804	32645	32590	32355	32728	
2310	0	4642	6532	4040	7723	1400	0	32738	32614	32743	32749	32571	32797	32775	32699	
2311	0	4686	6516	4064	7712	1401	0	32773	32694	32628	32822	32751	32743	33234	32790	
2312	0	4668	6498	4086	7701	1402	0	32784	32786	32734	32775	32775	32599	33159	32751	
2313	0	4678	6502	4037	7705	1403	0	32725	32688	32775	32764	32679	32703	32687	32699	
2314	0	4660	6499	4039	7668	1404	0	32746	32743	32847	32647	32466	32711	32157	32653	
2315	0	4658	6524	4037	7700	1405	0	32781	32563	32858	32647	32308	32444	32359	32564	
2316	0	4668	6512	4056	7690	1406	0	32768	32679	32921	32604	32455	32717	32847	32557	
2317	0	4666	6515	4102	7694	1407	0	32693	32597	32785	32617	32623	32903	33151	32690	
2318	0	4716	6501	4077	7684	1408	0	32717	32727	32763	32611	32863	32623	32746	32807	
2319	0	4676	6523	4020	7704	1409	0	32708	32698	32611	32671	33051	32803	32287	32775	
2320	0	4709	6475	4080	7680	1410	0	32716	32591	32647	32655	33158	32760	32217	32839	
2321	0	4642	6475	4034	7710	1411	0	32751	32732	32727	32813	33031	32677	32695	32671	
2322	0	4657	6544	4104	7667	1412	0	32805	32615	32682	32771	32575	32868	33082	32591	
2323	0	4636	6522	4051	7722	1413	0	32802	32685	32693	32675	32374	32903	33135	32541	
2324	0	4704	6523	4018	7680	1414	0	32743	32583	32775	32799	32590	32711	32391	32615	
2325	0	4666	6547	4134	7648	1415	0	32681	32745	32941	32831	33055	32767	32039	32859	
2326	0	4665	6528	4094	7704	1416	0	32727	32762	32900	32925	32976	32786	32199	32902	
2327	0	4701	6525	4040	7687	1417	0	32712	32623	32873	32927	32881	32562	32903	32878	
2328	0	4697	6490	4082	7657	1418	0	32820	32679	32999	32831	32705	32735	33331	32939	
2329	0	4684	6538	4038	7665	1419	0	32807	32653	32851	32685	32647	32789	33068	32935	
2330	0	4646	6540	4066	7716	1420	0	32790	32826	32767	32531	32429	32667	32399	32902	
2331	0	4687	6516	4075	7684	1421	0	32829	32775	32711	32401	32279	32796	32132	32929	
2332	0	4641	6518	4010	7676	1422	0	32819	32722	32647	32463	32423	32733	32623	33003	
2333	0	4679	6531	4054	7676	1423	0	32799	32711	32601	32492	32607	32576	33117	32942	
2334	0	4683	6505	4036	7711	1424	0	32787	32578	32607	32613	32971	32702	33185	32862	
2335	0	4687	6500	4080	7731	1425	0	32805	32707	32565	32723	33415	32738	32687	32733	
2336	0	4632	6510	4035	7649	1426	0	32781	32731	32637	32839	33243	32809	32263	32554	
2337	0	4661	6528	4056	7673	1427	0	32713	32511	32659	32923	33041	32749	32518	32594	
2338	0	4667	6531	4064	7692	1428	0	32678	32653	32686	32903	32647	32735	33016	32605	
2339	0	4708	6542	4025	7700	1429	0	32756	32527	32639	32775	32498	32551	33295	32719	
2340	0	4724	6520	4048	7626	1430	0	32781	32683	32655	32804	32830	32660	32903	32809	
2341	0	4652	6496	4076	7666	1431	0	32804	32609	32700	32572	32727	32858	32389	32813	
2342	0	4672	6484	4059	7689	1432	0	32756	32738	32719	32575	32577	32796	32231	32885	
2343	0	4648	6546	4033	7692	1433	0	32774	32703	32753	32553	32580	32882	32604	32903	
2344	0	4649	6498	4013	7689	1434	0	32806	32821	32761	32671	32585	32784	33092	32860	
2345	0	4672	6543	4045	7692	1435	0	32766	32817	32815	32687	32587	32551	33221	32919	
2346	0	4677	6496	4094	7649	1436	0	32743	32628	32846	32677	32487	32599	32593	32793	
2347	0	4688	6554	4031	7668	1437	0	32775	32687	32747	32607	32220	32846	32141	32725	
2348	0	4684	6489	4069	7652	1438	0	32716	32735	32775	32788	32164	32921	32511	32639	
2349	0	4688	6529	4056	7677	1439	0	32697	32607	32828	32801	32195	32839	33151	32549	
2350	0	4643	6485	4054	7707	1440	0	32737	32687	32748	32853	32315	32877	33311	32471	
2351	0	4671	6524	4068	7723	1441	0	32742	32685	32738	32876	32711	32800	33127	32477	
2352	0	4664	6509	4020	7730	1442	0	32655	32732	32759	32827	33190	32946	32583	32669	
