# OpenSignals Text File Format
# {"00:07:80:3B:46:38": {"sensor": ["CUSTOM/0.5/1.0/V", "CUSTOM/0.5/1.0/V", "CUSTOM/0.5/1.0/V", "CUSTOM/0.5/1.0/V", "CUSTOM/0.5/1.0/V", "CUSTOM/0.5/1.0/V", "CUSTOM/0.5/1.0/V", "CUSTOM/0.5/1.0/V"], "device name": "EMGs", "column": ["nSeq", "DI", "RA_L", "RA_R", "OE_L", "OE:R", "IL_L", "IL_R", "MF_L", "MF_R"], "sync interval": 2, "time": "16:46:45.711", "comments": "", "device connection": "BTH00:07:80:3B:46:38", "channels": [1, 2, 3, 4, 5, 6, 7, 8], "date": "2017-6-1", "mode": 0, "digital IO": [0, 1], "firmware version": 772, "device": "biosignalsplux", "position": 0, "sampling rate": 1000, "label": ["RA_L", "RA_R", "OE_L", "OE:R", "IL_L", "IL_R", "MF_L", "MF_R"], "resolution": [16, 16, 16, 16, 16, 16, 16, 16], "special": [{}, {}, {}, {}, {}, {}, {}, {}]}}
# EndOfHeader
0	0	32740	32797	32787	32747	32830	32799	32687	32711	
1	0	32711	32823	32714	32743	32855	32955	32647	32733	
2	0	32724	32846	32679	32748	32791	32854	32743	32767	
3	0	32735	32787	32736	32564	32811	32834	32571	32679	
4	0	32742	32807	32718	32647	32853	32711	32535	32604	
5	0	32775	32679	32679	32672	32755	32615	32759	32708	
6	0	32775	32815	32695	32563	32747	32609	32647	32797	
7	0	32802	32738	32619	32526	32775	32681	32667	32805	
8	0	32775	32815	32661	32765	32791	32717	32575	32773	
9	0	32788	32799	32751	32774	32813	32790	32547	32701	
10	0	32767	32789	32687	32747	32830	32737	32727	32739	
11	0	32793	32741	32715	32687	32799	32767	32647	32747	
12	0	32790	32759	32599	32625	32795	32775	32717	32727	
13	0	32767	32881	32681	32570	32786	32735	32635	32671	
14	0	32805	32827	32798	32639	32743	32623	32505	32681	
15	0	32813	32790	32801	32623	32767	32599	32690	32612	
16	0	32783	32869	32711	32566	32771	32623	32623	32587	
17	0	32759	32799	32647	32519	32727	32578	32487	32647	
18	0	32716	32799	32805	32567	32794	32575	32659	32631	
19	0	32679	32775	32739	32687	32752	32647	32643	32591	
20	0	32767	32763	32677	32703	32767	32631	32540	32641	
21	0	32794	32775	32725	32647	32727	32614	32727	32671	
22	0	32770	32814	32839	32615	32775	32757	32671	32677	
23	0	32764	32775	32799	32711	32799	32843	32691	32791	
24	0	32761	32786	32754	32743	32819	32815	32621	32671	
25	0	32758	32726	32646	32644	32759	32775	32754	32839	
26	0	32784	32807	32762	32586	32783	32811	32689	32739	
27	0	32751	32775	32705	32583	32835	32738	32657	32797	
28	0	32766	32718	32743	32677	32807	32736	32567	32805	
29	0	32739	32893	32631	32727	32831	32751	32727	32749	
30	0	32747	32799	32629	32711	32775	32705	32675	32695	
31	0	32768	32797	32759	32694	32733	32553	32663	32749	
32	0	32807	32811	32647	32686	32805	32639	32583	32723	
33	0	32762	32719	32686	32713	32811	32789	32543	32707	
34	0	32731	32845	32703	32634	32799	32899	32701	32707	
35	0	32771	32711	32703	32637	32799	32815	32662	32659	
36	0	32751	32827	32662	32610	32789	32799	32726	32693	
37	0	32723	32732	32747	32715	32819	32708	32695	32727	
38	0	32766	32837	32799	32679	32835	32628	32562	32727	
39	0	32783	32733	32787	32655	32775	32660	32567	32751	
40	0	32736	32775	32745	32741	32795	32679	32681	32718	
41	0	32767	32791	32615	32694	32799	32709	32731	32734	
42	0	32747	32701	32699	32591	32819	32647	32583	32727	
43	0	32681	32818	32693	32671	32797	32789	32709	32775	
44	0	32699	32763	32679	32743	32743	32797	32692	32707	
45	0	32743	32694	32635	32690	32647	32695	32480	32718	
46	0	32748	32819	32671	32683	32695	32763	32726	32739	
47	0	32767	32763	32749	32748	32764	32787	32682	32743	
48	0	32718	32797	32735	32726	32733	32951	32759	32684	
49	0	32804	32804	32679	32743	32771	32831	32559	32615	
50	0	32823	32758	32654	32769	32761	32717	32594	32607	
51	0	32814	32847	32766	32731	32747	32735	32668	32692	
52	0	32804	32747	32742	32702	32775	32791	32695	32686	
53	0	32766	32831	32761	32647	32753	32738	32481	32787	
54	0	32821	32738	32717	32723	32775	32603	32493	32771	
55	0	32841	32834	32619	32679	32738	32635	32575	32799	
56	0	32826	32828	32640	32669	32786	32756	32754	32791	
57	0	32754	32838	32743	32659	32806	32819	32644	32710	
58	0	32788	32729	32710	32679	32786	32812	32711	32671	
59	0	32830	32867	32685	32636	32759	32831	32503	32667	
60	0	32801	32755	32663	32575	32823	32785	32583	32703	
61	0	32735	32845	32708	32591	32846	32727	32621	32671	
62	0	32751	32771	32759	32606	32796	32723	32612	32663	
63	0	32655	32743	32791	32642	32791	32775	32566	32709	
64	0	32681	32775	32684	32677	32742	32771	32775	32754	
65	0	32735	32703	32683	32630	32742	32749	32675	32799	
66	0	32760	32807	32849	32623	32749	32775	32677	32687	
67	0	32706	32807	32783	32679	32695	32786	32583	32709	
68	0	32732	32831	32795	32743	32692	32807	32771	32741	
69	0	32698	32787	32663	32691	32711	32775	32638	32797	
70	0	32797	32727	32658	32647	32759	32747	32703	32841	
71	0	32692	32789	32679	32647	32747	32773	32583	32658	
72	0	32731	32679	32716	32631	32797	32771	32775	32647	
73	0	32735	32839	32711	32559	32719	32762	32587	32667	
74	0	32762	32797	32735	32531	32746	32591	32701	32619	
75	0	32715	32850	32690	32519	32773	32647	32662	32671	
76	0	32792	32742	32739	32499	32795	32621	32551	32719	
77	0	32819	32851	32713	32573	32772	32727	32742	32767	
78	0	32809	32734	32735	32629	32739	32783	32707	32783	
79	0	32795	32797	32759	32731	32759	32612	32647	32804	
80	0	32761	32773	32638	32677	32791	32607	32543	32756	
81	0	32727	32722	32748	32725	32773	32639	32749	32751	
82	0	32743	32771	32767	32660	32774	32603	32647	32770	
83	0	32703	32775	32692	32519	32759	32630	32711	32715	
84	0	32775	32735	32699	32623	32751	32578	32559	32719	
85	0	32700	32801	32799	32615	32786	32683	32759	32695	
86	0	32855	32775	32699	32643	32743	32807	32687	32691	
87	0	32770	32865	32760	32748	32775	32850	32738	32699	
88	0	32765	32837	32595	32743	32789	32876	32579	32647	
89	0	32762	32747	32607	32693	32765	32839	32749	32579	
90	0	32772	32755	32641	32663	32818	32863	32659	32553	
91	0	32805	32738	32647	32647	32831	32799	32738	32639	
92	0	32806	32837	32686	32662	32831	32763	32549	32727	
93	0	32751	32851	32686	32695	32823	32767	32727	32747	
94	0	32751	32783	32852	32535	32871	32759	32630	32754	
95	0	32761	32860	32791	32569	32791	32791	32676	32706	
96	0	32846	32837	32791	32526	32830	32818	32613	32745	
97	0	32837	32839	32617	32511	32815	32843	32639	32742	
98	0	32830	32839	32619	32500	32749	32775	32658	32743	
99	0	32766	32805	32700	32557	32810	32595	32695	32687	
100	0	32759	32772	32787	32598	32855	32615	32683	32761	
101	0	32708	32755	32751	32581	32738	32634	32676	32727	
102	0	32729	32681	32719	32607	32759	32767	32551	32786	
103	0	32789	32860	32697	32716	32775	32783	32759	32703	
104	0	32759	32791	32685	32745	32835	32775	32669	32820	
105	0	32724	32725	32783	32763	32823	32710	32603	32743	
106	0	32767	32807	32791	32759	32775	32687	32598	32749	
107	0	32692	32799	32690	32640	32827	32638	32709	32735	
108	0	32735	32687	32745	32562	32750	32595	32703	32675	
109	0	32713	32807	32743	32612	32703	32591	32566	32735	
110	0	32786	32783	32647	32698	32731	32559	32743	32698	
111	0	32807	32706	32735	32703	32775	32554	32660	32625	
112	0	32791	32822	32745	32762	32802	32591	32531	32639	
113	0	32804	32829	32667	32743	32823	32580	32607	32711	
114	0	32739	32770	32767	32631	32831	32607	32643	32730	
115	0	32804	32818	32643	32509	32841	32591	32655	32735	
116	0	32748	32821	32643	32791	32785	32589	32780	32790	
117	0	32796	32775	32655	32723	32657	32583	32671	32775	
118	0	32767	32834	32701	32655	32715	32610	32723	32799	
119	0	32762	32743	32679	32687	32775	32606	32533	32818	
120	0	32735	32757	32727	32733	32727	32631	32723	32788	
121	0	32784	32807	32643	32623	32788	32607	32711	32742	
122	0	32743	32723	32802	32590	32806	32635	32543	32759	
123	0	32707	32722	32743	32647	32775	32550	32733	32763	
124	0	32793	32791	32611	32711	32751	32575	32647	32775	
125	0	32756	32733	32723	32687	32801	32788	32663	32690	
126	0	32775	32839	32675	32694	32807	32770	32733	32740	
127	0	32764	32770	32642	32609	32695	32791	32710	32693	
128	0	32766	32758	32726	32639	32763	32758	32655	32671	
129	0	32722	32838	32793	32586	32783	32788	32677	32661	
130	0	32727	32863	32769	32572	32763	32705	32631	32700	
131	0	32738	32801	32805	32702	32764	32591	32667	32711	
132	0	32732	32815	32741	32743	32733	32839	32677	32765	
133	0	32746	32835	32671	32731	32755	32763	32555	32757	
134	0	32727	32767	32727	32724	32804	32805	32734	32770	
135	0	32802	32791	32631	32703	32791	32795	32655	32678	
136	0	32795	32771	32708	32546	32747	32765	32647	32685	
137	0	32779	32749	32636	32532	32799	32763	32535	32691	
138	0	32750	32789	32703	32583	32814	32775	32759	32775	
139	0	32739	32707	32658	32646	32804	32630	32671	32738	
140	0	32740	32738	32674	32615	32799	32561	32661	32679	
141	0	32767	32677	32692	32613	32796	32569	32577	32675	
142	0	32706	32789	32722	32714	32775	32641	32668	32641	
143	0	32727	32751	32791	32725	32743	32613	32676	32673	
144	0	32786	32804	32692	32727	32775	32735	32597	32647	
145	0	32719	32751	32743	32713	32844	32743	32772	32719	
146	0	32783	32768	32735	32717	32813	32803	32669	32742	
147	0	32730	32756	32695	32658	32819	32901	32709	32757	
148	0	32749	32733	32726	32679	32817	32823	32716	32749	
149	0	32784	32703	32707	32668	32827	32757	32557	32695	
150	0	32748	32771	32583	32647	32877	32719	32559	32799	
151	0	32810	32737	32613	32647	32795	32734	32598	32805	
152	0	32826	32816	32701	32687	32775	32787	32703	32683	
153	0	32823	32739	32692	32707	32775	32598	32655	32633	
154	0	32807	32804	32663	32761	32804	32805	32699	32663	
155	0	32787	32799	32753	32557	32815	32747	32551	32683	
156	0	32834	32706	32713	32566	32797	32727	32803	32705	
157	0	32726	32767	32693	32705	32732	32767	32647	32687	
158	0	32782	32786	32719	32746	32743	32751	32591	32636	
159	0	32793	32807	32699	32763	32814	32575	32511	32685	
160	0	32735	32795	32688	32699	32854	32643	32569	32743	
161	0	32738	32743	32871	32675	32811	32805	32703	32693	
162	0	32703	32758	32789	32757	32815	32843	32669	32797	
163	0	32749	32703	32753	32709	32839	32894	32757	32695	
164	0	32738	32735	32674	32771	32858	32839	32692	32754	
165	0	32738	32725	32693	32663	32759	32743	32609	32599	
166	0	32765	32739	32811	32681	32771	32823	32603	32583	
167	0	32784	32659	32764	32685	32755	32767	32731	32577	
168	0	32832	32883	32775	32692	32815	32795	32743	32588	
169	0	32808	32807	32641	32709	32818	32790	32767	32630	
170	0	32824	32767	32719	32731	32791	32819	32694	32719	
171	0	32799	32775	32773	32721	32799	32769	32567	32751	
172	0	32773	32727	32759	32605	32785	32740	32575	32742	
173	0	32756	32898	32667	32567	32853	32741	32666	32748	
174	0	32825	32821	32685	32626	32834	32755	32671	32819	
175	0	32829	32745	32707	32747	32826	32751	32551	32809	
176	0	32765	32757	32723	32689	32796	32783	32604	32703	
177	0	32769	32757	32694	32727	32799	32623	32699	32751	
178	0	32775	32822	32623	32654	32791	32743	32582	32734	
179	0	32767	32675	32679	32711	32811	32559	32621	32747	
180	0	32866	32799	32732	32703	32815	32535	32455	32704	
181	0	32751	32767	32773	32725	32878	32599	32703	32775	
182	0	32745	32815	32672	32683	32811	32591	32647	32774	
183	0	32751	32867	32729	32647	32804	32647	32557	32721	
184	0	32756	32799	32788	32617	32821	32692	32567	32741	
185	0	32747	32802	32818	32499	32869	32751	32479	32708	
186	0	32773	32741	32731	32568	32775	32743	32647	32759	
187	0	32719	32871	32659	32723	32795	32769	32639	32676	
188	0	32691	32807	32773	32730	32766	32891	32549	32663	
189	0	32753	32791	32671	32667	32764	32903	32631	32557	
190	0	32822	32789	32721	32707	32751	32833	32647	32570	
191	0	32762	32745	32614	32691	32839	32818	32633	32663	
192	0	32761	32891	32711	32673	32783	32775	32707	32775	
193	0	32771	32827	32719	32759	32763	32739	32516	32754	
194	0	32735	32791	32707	32615	32733	32743	32719	32708	
195	0	32729	32815	32646	32671	32787	32759	32791	32762	
196	0	32737	32726	32683	32605	32719	32734	32615	32771	
197	0	32745	32817	32727	32743	32738	32708	32757	32759	
198	0	32748	32827	32647	32675	32775	32766	32709	32635	
199	0	32743	32713	32725	32718	32754	32749	32574	32647	
200	0	32762	32801	32732	32727	32810	32742	32692	32645	
201	0	32699	32709	32669	32622	32757	32739	32689	32638	
202	0	32690	32683	32757	32531	32771	32807	32612	32677	
203	0	32694	32671	32691	32626	32802	32863	32623	32775	
204	0	32753	32826	32583	32634	32791	32827	32586	32785	
205	0	32698	32794	32717	32687	32756	32876	32677	32783	
206	0	32719	32766	32725	32555	32829	32860	32674	32818	
207	0	32754	32863	32684	32639	32775	32859	32527	32741	
208	0	32742	32799	32766	32737	32797	32833	32743	32755	
209	0	32730	32732	32791	32675	32763	32806	32548	32734	
210	0	32822	32769	32754	32727	32789	32827	32708	32743	
211	0	32839	32775	32687	32672	32757	32775	32503	32639	
212	0	32798	32799	32721	32654	32711	32753	32671	32657	
213	0	32720	32775	32775	32671	32775	32775	32662	32582	
214	0	32751	32725	32795	32643	32703	32807	32643	32637	
215	0	32775	32843	32607	32565	32738	32770	32543	32611	
216	0	32734	32854	32783	32527	32775	32767	32637	32565	
217	0	32807	32739	32771	32711	32879	32847	32642	32663	
218	0	32717	32829	32663	32670	32823	32867	32789	32810	
219	0	32724	32783	32714	32621	32823	32789	32663	32637	
220	0	32754	32706	32743	32717	32818	32787	32545	32783	
221	0	32783	32903	32759	32692	32787	32844	32687	32829	
222	0	32708	32809	32707	32583	32737	32765	32630	32795	
223	0	32799	32727	32796	32507	32775	32750	32468	32691	
224	0	32751	32771	32811	32740	32807	32875	32627	32786	
225	0	32721	32775	32659	32691	32819	32775	32555	32783	
226	0	32717	32775	32706	32669	32799	32843	32585	32803	
227	0	32753	32775	32679	32735	32799	32913	32715	32767	
228	0	32743	32772	32719	32731	32799	32871	32661	32828	
229	0	32750	32637	32647	32679	32835	32871	32711	32717	
230	0	32751	32813	32641	32639	32765	32817	32559	32694	
231	0	32775	32742	32647	32619	32775	32765	32599	32685	
232	0	32773	32816	32663	32583	32806	32751	32714	32639	
233	0	32804	32775	32726	32547	32826	32817	32647	32691	
234	0	32786	32831	32734	32647	32831	32742	32647	32727	
235	0	32825	32799	32647	32621	32743	32747	32519	32763	
236	0	32787	32730	32721	32706	32748	32759	32694	32713	
237	0	32713	32819	32730	32749	32799	32787	32716	32791	
238	0	32796	32757	32723	32751	32754	32567	32690	32710	
239	0	32795	32772	32775	32813	32743	32567	32647	32655	
240	0	32748	32715	32655	32742	32815	32631	32673	32688	
241	0	32810	32819	32661	32732	32771	32715	32599	32595	
242	0	32740	32806	32655	32731	32775	32803	32740	32695	
243	0	32751	32719	32767	32742	32799	32823	32685	32798	
244	0	32718	32789	32723	32711	32829	32846	32681	32735	
245	0	32742	32687	32715	32671	32801	32870	32677	32715	
246	0	32697	32807	32623	32699	32783	32865	32645	32739	
247	0	32748	32789	32715	32736	32863	32823	32686	32709	
248	0	32750	32757	32729	32699	32773	32791	32700	32731	
249	0	32762	32775	32749	32743	32785	32766	32739	32723	
250	0	32767	32751	32733	32655	32743	32755	32685	32767	
251	0	32756	32863	32839	32599	32743	32791	32533	32817	
252	0	32804	32787	32791	32639	32851	32749	32599	32673	
253	0	32790	32799	32799	32584	32740	32756	32655	32647	
254	0	32775	32751	32705	32514	32806	32775	32621	32703	
255	0	32790	32797	32594	32503	32807	32597	32543	32683	
256	0	32775	32829	32661	32535	32771	32636	32637	32721	
257	0	32763	32731	32714	32578	32718	32627	32703	32764	
258	0	32830	32859	32671	32687	32709	32671	32559	32703	
259	0	32769	32831	32730	32711	32749	32731	32763	32721	
260	0	32775	32691	32645	32623	32762	32845	32674	32759	
261	0	32738	32804	32755	32634	32719	32895	32738	32700	
262	0	32734	32735	32775	32654	32750	32885	32585	32710	
263	0	32708	32775	32811	32655	32751	32811	32799	32738	
264	0	32714	32786	32790	32676	32731	32775	32623	32735	
265	0	32691	32687	32721	32702	32759	32809	32725	32676	
266	0	32751	32810	32751	32647	32703	32845	32571	32719	
267	0	32671	32829	32711	32570	32773	32798	32689	32699	
268	0	32740	32748	32641	32631	32833	32839	32703	32751	
269	0	32744	32735	32799	32711	32805	32852	32559	32765	
270	0	32804	32799	32763	32719	32857	32748	32801	32799	
271	0	32791	32730	32681	32695	32807	32789	32697	32799	
272	0	32753	32867	32685	32695	32775	32758	32669	32836	
273	0	32726	32833	32773	32725	32791	32764	32636	32731	
274	0	32732	32861	32879	32679	32825	32782	32653	32715	
275	0	32704	32807	32807	32743	32751	32835	32719	32709	
276	0	32775	32734	32669	32553	32765	32750	32615	32727	
277	0	32771	32879	32669	32578	32804	32729	32731	32694	
278	0	32770	32734	32711	32578	32749	32715	32671	32655	
279	0	32740	32734	32676	32583	32798	32733	32711	32686	
280	0	32734	32801	32610	32683	32727	32759	32751	32655	
281	0	32740	32775	32619	32735	32717	32763	32615	32614	
282	0	32703	32902	32775	32742	32735	32571	32623	32684	
283	0	32721	32839	32838	32647	32773	32612	32719	32725	
284	0	32764	32702	32716	32655	32751	32634	32625	32759	
285	0	32751	32806	32717	32749	32830	32679	32647	32762	
286	0	32763	32699	32743	32727	32823	32631	32553	32770	
287	0	32730	32839	32775	32627	32887	32628	32620	32748	
288	0	32748	32837	32647	32511	32767	32602	32690	32755	
289	0	32772	32736	32739	32585	32754	32615	32615	32756	
290	0	32754	32829	32660	32611	32807	32687	32708	32787	
291	0	32757	32831	32751	32709	32771	32630	32718	32743	
292	0	32786	32745	32706	32639	32797	32775	32625	32759	
293	0	32825	32775	32598	32641	32679	32871	32629	32731	
294	0	32787	32771	32595	32727	32671	32839	32685	32717	
295	0	32806	32843	32733	32669	32723	32831	32723	32687	
296	0	32741	32705	32683	32663	32767	32895	32631	32711	
297	0	32759	32797	32637	32603	32735	32815	32662	32682	
298	0	32817	32767	32594	32658	32742	32775	32679	32647	
299	0	32743	32835	32825	32742	32831	32782	32502	32571	
300	0	32762	32787	32919	32667	32766	32818	32716	32595	
301	0	32711	32770	32883	32617	32839	32775	32611	32576	
302	0	32713	32743	32725	32602	32755	32683	32707	32703	
303	0	32738	32683	32617	32527	32707	32636	32514	32711	
304	0	32710	32739	32595	32587	32775	32585	32745	32767	
305	0	32783	32671	32754	32613	32775	32583	32647	32732	
306	0	32801	32811	32655	32775	32767	32591	32621	32775	
307	0	32786	32775	32635	32751	32765	32574	32783	32805	
308	0	32803	32805	32623	32733	32747	32603	32636	32647	
309	0	32808	32795	32718	32726	32795	32590	32707	32663	
310	0	32790	32707	32731	32709	32773	32640	32500	32665	
311	0	32818	32807	32671	32767	32813	32738	32557	32679	
312	0	32838	32738	32775	32647	32810	32765	32688	32749	
313	0	32802	32871	32659	32727	32775	32839	32715	32734	
314	0	32745	32767	32689	32788	32719	32858	32523	32719	
315	0	32769	32805	32711	32590	32793	32823	32647	32743	
316	0	32762	32811	32743	32583	32843	32863	32723	32812	
317	0	32765	32719	32674	32575	32815	32831	32530	32751	
318	0	32804	32775	32706	32660	32834	32830	32711	32759	
319	0	32831	32783	32694	32662	32713	32671	32691	32787	
320	0	32728	32674	32647	32647	32725	32686	32705	32759	
321	0	32759	32747	32645	32647	32797	32587	32677	32702	
322	0	32764	32727	32727	32619	32741	32577	32581	32727	
323	0	32725	32791	32740	32534	32751	32531	32724	32719	
324	0	32736	32803	32718	32631	32805	32607	32695	32765	
325	0	32748	32796	32743	32687	32759	32633	32671	32759	
326	0	32701	32702	32775	32709	32749	32751	32567	32733	
327	0	32814	32775	32687	32637	32771	32746	32695	32735	
328	0	32711	32695	32663	32613	32793	32671	32695	32791	
329	0	32699	32813	32647	32695	32818	32707	32497	32827	
330	0	32728	32719	32683	32706	32854	32823	32852	32694	
331	0	32754	32807	32775	32636	32793	32863	32666	32703	
332	0	32765	32815	32773	32555	32758	32851	32553	32663	
333	0	32832	32775	32741	32515	32829	32903	32637	32647	
334	0	32829	32811	32629	32615	32830	32855	32694	32662	
335	0	32781	32775	32747	32795	32799	32812	32603	32607	
336	0	32717	32754	32735	32751	32735	32773	32739	32684	
337	0	32749	32819	32633	32775	32741	32719	32645	32658	
338	0	32775	32791	32660	32759	32714	32811	32711	32676	
339	0	32743	32868	32763	32694	32734	32839	32595	32677	
340	0	32769	32775	32687	32810	32773	32819	32591	32759	
341	0	32727	32803	32723	32767	32851	32804	32749	32716	
342	0	32762	32666	32719	32759	32826	32749	32645	32703	
343	0	32739	32751	32743	32740	32859	32793	32631	32775	
344	0	32694	32691	32681	32743	32845	32767	32679	32593	
345	0	32679	32820	32757	32617	32827	32743	32743	32743	
346	0	32728	32811	32705	32463	32783	32717	32619	32740	
347	0	32764	32675	32663	32593	32751	32735	32694	32742	
348	0	32751	32811	32647	32541	32743	32531	32527	32683	
349	0	32801	32743	32715	32589	32799	32591	32751	32703	
350	0	32739	32754	32805	32716	32755	32766	32731	32775	
351	0	32749	32764	32668	32647	32807	32587	32439	32742	
352	0	32784	32709	32663	32647	32827	32621	32743	32663	
353	0	32802	32807	32735	32643	32743	32606	32714	32695	
354	0	32727	32719	32731	32615	32738	32671	32642	32759	
355	0	32759	32803	32724	32607	32751	32757	32679	32789	
356	0	32836	32708	32727	32692	32742	32819	32487	32759	
357	0	32756	32771	32685	32710	32703	32865	32647	32764	
358	0	32746	32741	32754	32666	32687	32867	32669	32757	
359	0	32775	32766	32796	32556	32703	32918	32575	32743	
360	0	32721	32803	32685	32524	32726	32879	32743	32742	
361	0	32745	32735	32685	32630	32743	32791	32711	32713	
362	0	32735	32751	32659	32535	32719	32775	32619	32638	
363	0	32755	32739	32699	32501	32758	32775	32667	32658	
364	0	32729	32797	32677	32647	32759	32759	32551	32666	
365	0	32708	32796	32742	32770	32719	32717	32690	32647	
366	0	32765	32791	32647	32729	32738	32751	32645	32739	
367	0	32775	32821	32647	32675	32827	32771	32674	32710	
368	0	32775	32749	32758	32723	32900	32598	32532	32807	
369	0	32769	32803	32706	32711	32858	32635	32711	32711	
370	0	32753	32705	32707	32711	32782	32621	32723	32743	
371	0	32797	32735	32666	32710	32793	32621	32535	32743	
372	0	32786	32796	32555	32687	32839	32634	32621	32646	
373	0	32786	32799	32647	32735	32854	32730	32738	32615	
374	0	32826	32733	32751	32720	32818	32797	32646	32663	
375	0	32743	32741	32658	32711	32735	32865	32595	32745	
376	0	32708	32901	32743	32739	32823	32843	32559	32786	
377	0	32775	32757	32669	32751	32791	32711	32738	32721	
378	0	32796	32891	32637	32723	32815	32671	32637	32738	
379	0	32784	32823	32583	32692	32799	32566	32693	32775	
380	0	32757	32754	32693	32679	32751	32541	32589	32646	
381	0	32759	32807	32700	32647	32739	32639	32566	32647	
382	0	32786	32731	32743	32659	32743	32703	32767	32725	
383	0	32769	32851	32671	32519	32733	32647	32639	32677	
384	0	32761	32722	32739	32580	32835	32686	32679	32719	
385	0	32790	32703	32729	32735	32797	32775	32756	32701	
386	0	32698	32787	32799	32657	32790	32881	32724	32749	
387	0	32734	32795	32881	32721	32821	32873	32791	32738	
388	0	32738	32767	32743	32684	32859	32799	32599	32759	
389	0	32764	32813	32675	32599	32846	32775	32676	32741	
390	0	32775	32786	32769	32621	32824	32789	32662	32775	
391	0	32796	32822	32695	32718	32863	32787	32643	32733	
392	0	32818	32815	32719	32701	32855	32767	32590	32775	
393	0	32783	32810	32743	32593	32787	32739	32659	32691	
394	0	32794	32850	32743	32533	32790	32775	32658	32735	
395	0	32732	32818	32667	32565	32799	32599	32644	32757	
396	0	32758	32743	32679	32711	32831	32535	32587	32775	
397	0	32715	32807	32646	32749	32715	32514	32677	32670	
398	0	32701	32771	32667	32679	32725	32628	32763	32736	
399	0	32743	32843	32743	32709	32754	32805	32567	32662	
400	0	32716	32825	32639	32673	32786	32807	32757	32701	
401	0	32726	32749	32767	32703	32711	32775	32607	32702	
402	0	32773	32799	32773	32551	32767	32722	32557	32823	
403	0	32742	32791	32805	32631	32727	32763	32700	32810	
404	0	32727	32765	32759	32665	32807	32823	32695	32653	
405	0	32714	32743	32815	32735	32818	32829	32711	32674	
406	0	32737	32655	32811	32690	32739	32796	32559	32623	
407	0	32817	32805	32775	32660	32823	32837	32758	32647	
408	0	32781	32794	32733	32719	32812	32747	32621	32691	
409	0	32811	32775	32797	32663	32759	32759	32717	32646	
410	0	32799	32868	32654	32578	32835	32775	32613	32595	
411	0	32823	32738	32623	32725	32791	32799	32783	32675	
412	0	32805	32845	32607	32634	32725	32630	32595	32742	
413	0	32798	32767	32743	32583	32727	32671	32669	32694	
414	0	32780	32811	32623	32533	32758	32839	32689	32692	
415	0	32718	32793	32695	32514	32743	32875	32543	32759	
416	0	32813	32767	32687	32473	32751	32783	32725	32799	
417	0	32794	32731	32575	32578	32694	32767	32626	32748	
418	0	32718	32721	32707	32715	32703	32747	32582	32718	
419	0	32743	32903	32703	32743	32703	32731	32635	32681	
420	0	32720	32815	32773	32702	32719	32763	32705	32611	
421	0	32743	32803	32743	32723	32775	32655	32617	32687	
422	0	32731	32791	32667	32743	32847	32615	32663	32765	
423	0	32676	32743	32687	32761	32788	32751	32525	32731	
424	0	32737	32749	32741	32725	32807	32819	32764	32751	
425	0	32742	32815	32751	32693	32810	32838	32647	32669	
426	0	32720	32847	32631	32625	32756	32692	32547	32738	
427	0	32696	32751	32639	32647	32789	32755	32789	32818	
428	0	32807	32770	32743	32615	32811	32798	32695	32670	
429	0	32773	32775	32738	32563	32883	32843	32742	32663	
430	0	32823	32726	32741	32647	32825	32903	32578	32633	
431	0	32751	32843	32756	32666	32836	32795	32775	32630	
432	0	32712	32799	32670	32687	32726	32855	32647	32617	
433	0	32784	32705	32751	32617	32749	32807	32516	32691	
434	0	32841	32807	32747	32679	32745	32879	32714	32639	
435	0	32743	32813	32738	32687	32773	32799	32647	32670	
436	0	32782	32767	32675	32519	32726	32799	32695	32677	
437	0	32759	32825	32787	32583	32763	32727	32512	32687	
438	0	32803	32775	32727	32542	32711	32743	32647	32775	
439	0	32755	32727	32742	32775	32702	32755	32613	32732	
440	0	32775	32797	32695	32739	32815	32767	32585	32731	
441	0	32743	32775	32839	32631	32803	32703	32583	32756	
442	0	32780	32807	32775	32703	32743	32735	32663	32706	
443	0	32737	32845	32764	32674	32727	32601	32586	32691	
444	0	32750	32743	32676	32757	32699	32815	32573	32669	
445	0	32741	32803	32789	32701	32725	32551	32711	32711	
446	0	32685	32783	32773	32647	32727	32546	32655	32703	
447	0	32677	32836	32775	32519	32719	32658	32709	32711	
448	0	32745	32759	32643	32565	32715	32637	32535	32767	
449	0	32793	32722	32771	32703	32751	32641	32771	32754	
450	0	32759	32883	32735	32738	32831	32641	32706	32815	
451	0	32763	32813	32739	32683	32835	32719	32518	32816	
452	0	32765	32757	32655	32751	32820	32775	32742	32692	
453	0	32708	32829	32675	32757	32810	32853	32634	32687	
454	0	32767	32671	32743	32695	32759	32890	32661	32669	
455	0	32807	32839	32676	32711	32775	32826	32455	32671	
456	0	32787	32751	32639	32492	32775	32859	32679	32630	
457	0	32792	32766	32590	32543	32749	32751	32620	32615	
458	0	32760	32794	32767	32537	32759	32747	32647	32743	
459	0	32711	32743	32721	32638	32827	32727	32764	32735	
460	0	32724	32868	32701	32679	32783	32731	32621	32735	
461	0	32722	32719	32655	32687	32855	32725	32631	32807	
462	0	32746	32715	32644	32717	32815	32747	32511	32830	
463	0	32727	32807	32767	32637	32846	32583	32743	32767	
464	0	32728	32671	32743	32687	32827	32551	32647	32756	
465	0	32742	32798	32759	32694	32751	32677	32730	32727	
466	0	32806	32703	32735	32711	32750	32851	32703	32647	
467	0	32802	32844	32668	32733	32733	32919	32671	32704	
468	0	32800	32839	32767	32655	32679	32827	32631	32647	
469	0	32775	32767	32690	32503	32754	32822	32583	32679	
470	0	32786	32839	32755	32589	32751	32899	32743	32647	
471	0	32822	32775	32723	32661	32815	32853	32690	32607	
472	0	32802	32839	32636	32695	32756	32795	32660	32671	
473	0	32807	32845	32769	32719	32738	32754	32533	32737	
474	0	32808	32734	32773	32671	32775	32749	32746	32743	
475	0	32822	32816	32727	32679	32775	32719	32642	32775	
476	0	32797	32735	32639	32702	32804	32754	32659	32715	
477	0	32772	32830	32655	32661	32761	32629	32663	32775	
478	0	32727	32715	32723	32723	32751	32595	32527	32687	
479	0	32743	32769	32751	32775	32713	32668	32558	32607	
480	0	32772	32767	32711	32719	32723	32783	32751	32642	
481	0	32736	32711	32679	32612	32732	32775	32671	32623	
482	0	32816	32813	32641	32509	32751	32765	32583	32633	
483	0	32770	32823	32775	32581	32815	32807	32791	32671	
484	0	32765	32837	32679	32658	32819	32706	32687	32662	
485	0	32741	32683	32671	32714	32855	32671	32549	32655	
486	0	32694	32882	32743	32757	32827	32604	32790	32687	
487	0	32706	32819	32823	32687	32875	32607	32613	32723	
488	0	32775	32706	32729	32614	32871	32667	32603	32687	
489	0	32803	32819	32775	32551	32841	32740	32495	32679	
490	0	32785	32861	32695	32587	32765	32839	32701	32693	
491	0	32793	32759	32775	32767	32679	32767	32666	32627	
492	0	32804	32883	32719	32661	32707	32845	32511	32641	
493	0	32809	32839	32717	32683	32749	32847	32788	32795	
494	0	32802	32795	32717	32709	32736	32839	32614	32738	
495	0	32798	32838	32709	32639	32745	32838	32591	32734	
496	0	32782	32775	32743	32642	32751	32750	32693	32642	
497	0	32770	32751	32791	32658	32690	32887	32663	32677	
498	0	32799	32765	32663	32551	32790	32864	32567	32743	
499	0	32790	32717	32681	32582	32823	32855	32726	32695	
500	0	32745	32695	32692	32725	32813	32819	32662	32717	
501	0	32720	32694	32662	32756	32751	32770	32527	32733	
502	0	32748	32775	32655	32702	32772	32871	32724	32739	
503	0	32732	32723	32646	32705	32763	32899	32655	32773	
504	0	32767	32853	32684	32714	32766	32794	32775	32711	
505	0	32759	32806	32646	32679	32806	32818	32610	32714	
506	0	32752	32743	32685	32711	32815	32733	32756	32767	
507	0	32731	32815	32658	32647	32774	32795	32635	32715	
508	0	32690	32807	32745	32591	32765	32790	32524	32748	
509	0	32712	32735	32720	32630	32747	32753	32743	32767	
510	0	32735	32755	32727	32747	32797	32775	32601	32809	
511	0	32773	32815	32738	32660	32805	32783	32489	32711	
512	0	32759	32791	32762	32707	32807	32755	32605	32765	
513	0	32759	32685	32751	32748	32786	32807	32655	32764	
514	0	32751	32701	32669	32540	32857	32850	32743	32719	
515	0	32759	32835	32735	32751	32766	32823	32675	32667	
516	0	32751	32811	32775	32735	32775	32855	32687	32591	
517	0	32748	32757	32775	32745	32775	32876	32621	32683	
518	0	32742	32925	32679	32659	32773	32839	32814	32677	
519	0	32646	32821	32748	32578	32773	32834	32717	32766	
520	0	32735	32711	32727	32679	32821	32836	32604	32668	
521	0	32750	32863	32739	32711	32817	32782	32775	32709	
522	0	32730	32806	32634	32564	32845	32747	32767	32623	
523	0	32734	32703	32759	32495	32825	32826	32623	32695	
524	0	32714	32863	32734	32550	32761	32739	32603	32798	
525	0	32713	32815	32799	32527	32798	32743	32621	32809	
526	0	32781	32764	32710	32556	32823	32811	32671	32724	
527	0	32785	32799	32679	32775	32839	32799	32707	32731	
528	0	32722	32795	32743	32703	32799	32767	32577	32761	
529	0	32775	32721	32747	32615	32789	32719	32603	32743	
530	0	32710	32833	32735	32625	32823	32759	32719	32757	
531	0	32733	32758	32642	32647	32823	32639	32703	32767	
532	0	32843	32745	32798	32639	32739	32633	32751	32738	
533	0	32852	32839	32797	32719	32731	32605	32795	32663	
534	0	32764	32775	32730	32583	32727	32567	32628	32787	
535	0	32801	32733	32626	32543	32771	32577	32667	32775	
536	0	32879	32863	32717	32566	32741	32569	32551	32711	
537	0	32757	32787	32719	32766	32761	32626	32710	32743	
538	0	32750	32707	32703	32669	32769	32639	32684	32771	
539	0	32798	32797	32708	32627	32772	32631	32532	32709	
540	0	32759	32835	32735	32643	32773	32639	32633	32782	
541	0	32698	32763	32703	32671	32743	32762	32751	32719	
542	0	32740	32765	32742	32743	32731	32859	32703	32615	
543	0	32744	32735	32678	32747	32713	32806	32667	32666	
544	0	32793	32725	32660	32692	32782	32731	32719	32758	
545	0	32823	32831	32631	32622	32751	32747	32583	32587	
546	0	32809	32753	32727	32631	32707	32803	32671	32623	
547	0	32768	32786	32735	32583	32775	32871	32534	32627	
548	0	32748	32807	32789	32797	32851	32851	32674	32637	
549	0	32806	32796	32647	32751	32885	32835	32723	32623	
550	0	32738	32759	32681	32751	32831	32795	32706	32647	
551	0	32759	32823	32623	32711	32765	32855	32609	32663	
552	0	32824	32799	32660	32765	32775	32795	32751	32646	
553	0	32793	32827	32663	32665	32767	32742	32501	32707	
554	0	32759	32807	32671	32659	32821	32775	32647	32727	
555	0	32760	32687	32823	32557	32769	32812	32715	32676	
556	0	32772	32802	32726	32708	32751	32754	32762	32605	
557	0	32733	32775	32589	32674	32743	32775	32630	32700	
558	0	32743	32713	32724	32703	32790	32770	32671	32587	
559	0	32772	32790	32871	32757	32818	32711	32599	32671	
560	0	32746	32799	32799	32527	32807	32750	32647	32694	
561	0	32768	32806	32718	32583	32775	32747	32681	32623	
562	0	32775	32711	32626	32751	32751	32791	32570	32631	
563	0	32725	32865	32679	32674	32821	32751	32707	32607	
564	0	32736	32787	32671	32659	32824	32772	32691	32605	
565	0	32706	32727	32647	32691	32805	32755	32487	32647	
566	0	32767	32859	32628	32615	32754	32821	32610	32687	
567	0	32790	32839	32795	32599	32789	32823	32671	32668	
568	0	32723	32703	32805	32753	32775	32799	32518	32671	
569	0	32749	32831	32695	32659	32775	32767	32627	32635	
570	0	32784	32807	32723	32639	32842	32807	32679	32667	
571	0	32743	32741	32731	32727	32870	32757	32515	32719	
572	0	32756	32871	32795	32615	32847	32758	32655	32623	
573	0	32775	32796	32647	32502	32817	32721	32719	32667	
574	0	32806	32763	32634	32622	32831	32751	32687	32669	
575	0	32761	32827	32741	32757	32731	32731	32663	32675	
576	0	32758	32801	32711	32746	32769	32741	32695	32642	
577	0	32768	32683	32747	32711	32822	32743	32647	32617	
578	0	32718	32807	32585	32683	32796	32783	32553	32575	
579	0	32760	32791	32647	32739	32743	32753	32708	32669	
580	0	32757	32719	32718	32663	32749	32821	32727	32647	
581	0	32725	32759	32783	32559	32718	32751	32583	32639	
582	0	32799	32761	32613	32775	32741	32817	32749	32621	
583	0	32687	32805	32716	32751	32747	32759	32733	32535	
584	0	32773	32653	32743	32813	32823	32754	32667	32817	
585	0	32761	32761	32662	32582	32759	32775	32647	32738	
586	0	32736	32775	32775	32623	32773	32807	32701	32659	
587	0	32757	32723	32787	32731	32721	32862	32762	32699	
588	0	32759	32722	32670	32639	32686	32833	32630	32732	
589	0	32769	32799	32785	32724	32725	32815	32543	32769	
590	0	32716	32775	32756	32775	32831	32862	32679	32805	
591	0	32786	32835	32748	32583	32767	32823	32717	32791	
592	0	32823	32852	32647	32479	32853	32812	32637	32825	
593	0	32818	32847	32707	32583	32939	32826	32673	32757	
594	0	32751	32699	32734	32767	32834	32828	32709	32762	
595	0	32799	32764	32791	32749	32835	32775	32566	32829	
596	0	32775	32743	32713	32719	32799	32789	32559	32845	
597	0	32708	32875	32690	32687	32789	32767	32735	32745	
598	0	32754	32839	32666	32687	32783	32775	32646	32647	
599	0	32765	32819	32740	32677	32783	32807	32659	32677	
600	0	32759	32786	32741	32687	32803	32791	32579	32687	
601	0	32690	32759	32733	32679	32730	32599	32749	32677	
602	0	32720	32787	32663	32655	32759	32612	32597	32667	
603	0	32674	32710	32739	32583	32810	32644	32607	32709	
604	0	32769	32724	32751	32503	32751	32611	32617	32675	
605	0	32780	32711	32775	32727	32823	32594	32604	32606	
606	0	32758	32831	32646	32607	32743	32642	32677	32555	
607	0	32812	32751	32727	32698	32711	32607	32775	32565	
608	0	32793	32738	32739	32623	32663	32599	32671	32611	
609	0	32800	32831	32759	32487	32695	32767	32717	32612	
610	0	32754	32799	32731	32519	32725	32911	32553	32623	
611	0	32806	32759	32669	32563	32758	32775	32580	32662	
612	0	32852	32773	32633	32540	32795	32740	32717	32745	
613	0	32775	32791	32659	32535	32766	32775	32681	32719	
614	0	32733	32857	32741	32679	32839	32785	32757	32756	
615	0	32758	32797	32724	32700	32854	32619	32527	32690	
616	0	32783	32807	32731	32710	32839	32681	32663	32741	
617	0	32801	32829	32639	32693	32811	32767	32727	32739	
618	0	32731	32775	32681	32769	32829	32845	32587	32749	
619	0	32692	32789	32781	32769	32863	32767	32711	32851	
620	0	32719	32775	32759	32771	32865	32709	32631	32775	
621	0	32769	32743	32751	32701	32837	32795	32692	32775	
622	0	32758	32825	32727	32460	32799	32783	32571	32754	
623	0	32754	32807	32710	32582	32807	32738	32723	32751	
624	0	32778	32805	32735	32647	32784	32615	32631	32660	
625	0	32721	32805	32751	32767	32803	32575	32655	32695	
626	0	32788	32761	32775	32726	32843	32743	32527	32783	
627	0	32783	32835	32799	32772	32863	32871	32711	32704	
628	0	32783	32839	32767	32725	32759	32847	32615	32738	
629	0	32775	32767	32692	32687	32847	32896	32603	32689	
630	0	32764	32853	32775	32687	32749	32898	32639	32719	
631	0	32807	32727	32701	32641	32797	32774	32705	32743	
632	0	32775	32802	32647	32607	32805	32787	32643	32671	
633	0	32758	32783	32703	32583	32751	32549	32756	32711	
634	0	32734	32811	32733	32533	32759	32583	32574	32715	
635	0	32690	32755	32687	32579	32799	32583	32735	32797	
636	0	32751	32627	32647	32518	32773	32663	32575	32655	
637	0	32735	32615	32635	32549	32797	32851	32555	32669	
638	0	32703	32575	32695	32623	32819	32797	32521	32647	
639	0	32655	32671	32731	32604	32852	32711	32567	32719	
640	0	32647	32603	32655	32591	32834	32719	32619	32775	
641	0	32571	32451	32623	32658	32869	32700	32525	32863	
642	0	32508	32501	32591	32758	32786	32713	32527	32848	
643	0	32602	32625	32671	32715	32831	32711	32611	32845	
644	0	32498	32485	32748	32737	32939	32751	32524	32763	
645	0	32559	32638	32711	32583	32813	32806	32389	32823	
646	0	32540	32690	32827	32557	32775	32890	32595	32804	
647	0	32541	32743	32719	32661	32799	32925	32647	32739	
648	0	32613	32725	32826	32674	32775	32837	32419	32670	
649	0	32671	32903	32764	32631	32775	32839	32634	32647	
650	0	32647	32983	32930	32567	32815	32827	32625	32593	
651	0	32636	32917	32978	32503	32878	32895	32753	32663	
652	0	32729	33015	32870	32407	32879	32983	32611	32699	
653	0	32791	33191	32806	32548	32899	32931	32494	32694	
654	0	32750	33170	32949	32431	32918	33026	32647	32775	
655	0	32850	33173	32919	32441	32863	33030	32575	32815	
656	0	32871	33131	32895	32461	32807	33043	32540	32839	
657	0	32923	33387	32831	32271	32783	33027	32686	32765	
658	0	32919	33366	32916	32342	32775	33063	32647	32655	
659	0	32986	33403	32879	32429	32763	33119	32527	32706	
660	0	33003	33234	32829	32405	32751	32974	32870	32655	
661	0	33015	33345	32827	32591	32759	32951	32755	32628	
662	0	33132	33237	32816	32471	32750	32979	32814	32623	
663	0	33061	33117	32623	32581	32758	32996	32897	32523	
664	0	33094	33086	32739	32639	32692	32987	32803	32471	
665	0	33085	33153	32743	32695	32692	32895	32825	32511	
666	0	33014	33047	32647	32702	32749	32853	32717	32447	
667	0	32976	32932	32611	32647	32711	32812	32893	32491	
668	0	33000	32999	32666	32635	32663	32751	32867	32464	
669	0	33015	32855	32628	32863	32626	32700	33068	32391	
670	0	32937	32711	32445	32895	32607	32735	33015	32370	
671	0	32982	32743	32484	32963	32599	32631	33027	32375	
672	0	33005	32582	32417	32965	32499	32687	33223	32295	
673	0	33071	32578	32346	33021	32516	32663	33115	32372	
674	0	33116	32427	32405	33053	32454	32723	33009	32371	
675	0	33110	32349	32375	33103	32494	32658	33215	32407	
676	0	33083	32271	32319	33103	32509	32575	33159	32475	
677	0	33136	32291	32406	33103	32470	32486	33127	32317	
678	0	32987	32174	32382	33207	32508	32391	32999	32351	
679	0	32895	32159	32311	32980	32564	32391	33063	32433	
680	0	32728	32151	32445	33067	32698	32422	32807	32615	
681	0	32613	32207	32611	32973	32803	32431	32515	32797	
682	0	32534	32291	32615	32862	32807	32432	32587	32838	
683	0	32442	32391	32717	32687	32787	32450	32455	32883	
684	0	32391	32351	32727	32686	32903	32486	32247	32951	
685	0	32350	32447	32627	32743	32974	32423	32375	32999	
686	0	32341	32460	32711	32683	32995	32455	32342	33083	
687	0	32408	32511	32738	32617	32900	32478	32263	33052	
688	0	32391	32436	32811	32619	32941	32549	32307	33055	
689	0	32396	32559	32895	32685	32949	32663	32255	33042	
690	0	32461	32634	32815	32703	32935	32716	32230	33010	
691	0	32525	32723	32711	32671	32903	32554	32353	32979	
692	0	32569	32655	32806	32439	32941	32740	32367	32979	
693	0	32588	32663	32838	32581	32849	32739	32467	32978	
694	0	32556	32851	32733	32567	32817	32788	32535	32887	
695	0	32596	32831	32829	32579	32839	32786	32437	32864	
696	0	32681	32740	32773	32493	32887	32841	32615	32825	
697	0	32687	32927	32825	32541	32879	32799	32623	32727	
698	0	32657	32885	32828	32655	32879	32815	32473	32741	
699	0	32678	32849	32785	32610	32810	32839	32660	32711	
700	0	32685	32831	32743	32497	32751	32763	32675	32807	
701	0	32726	32903	32807	32575	32783	32830	32564	32655	
702	0	32731	32934	32775	32571	32822	32924	32607	32727	
703	0	32743	32860	32695	32661	32790	32931	32692	32719	
704	0	32796	32843	32747	32479	32767	32775	32786	32735	
705	0	32774	32933	32681	32487	32703	32855	32647	32722	
706	0	32799	32877	32757	32694	32754	32773	32647	32677	
707	0	32773	32919	32822	32647	32757	32715	32583	32676	
708	0	32855	32926	32815	32621	32775	32818	32811	32763	
709	0	32797	32887	32791	32718	32827	32893	32711	32762	
710	0	32789	32874	32775	32658	32759	32847	32695	32677	
711	0	32833	32923	32687	32518	32835	32855	32795	32756	
712	0	32775	32951	32676	32578	32775	32819	32694	32732	
713	0	32831	32852	32727	32679	32711	32871	32683	32733	
714	0	32815	32895	32773	32749	32791	32807	32551	32747	
715	0	32800	32849	32615	32775	32751	32811	32754	32694	
716	0	32812	32855	32674	32703	32711	32855	32726	32695	
717	0	32799	32775	32690	32715	32711	32831	32637	32647	
718	0	32775	32783	32757	32587	32695	32833	32827	32674	
719	0	32772	32734	32623	32567	32731	32775	32703	32710	
720	0	32823	32855	32759	32551	32775	32846	32663	32677	
721	0	32827	32865	32736	32766	32761	32806	32583	32685	
722	0	32705	32733	32727	32722	32749	32813	32772	32759	
723	0	32738	32855	32669	32666	32862	32810	32679	32829	
724	0	32799	32850	32703	32639	32847	32826	32740	32723	
725	0	32788	32815	32713	32695	32822	32826	32532	32695	
726	0	32796	32755	32694	32711	32815	32799	32763	32711	
727	0	32799	32725	32759	32557	32815	32619	32647	32635	
728	0	32743	32850	32675	32566	32823	32617	32673	32617	
729	0	32762	32845	32727	32543	32799	32622	32594	32637	
730	0	32743	32765	32771	32551	32842	32711	32747	32677	
731	0	32732	32877	32711	32713	32834	32679	32709	32668	
732	0	32812	32804	32693	32613	32759	32759	32535	32646	
733	0	32799	32747	32629	32590	32797	32775	32732	32660	
734	0	32800	32758	32757	32666	32751	32850	32679	32709	
735	0	32775	32775	32754	32695	32711	32876	32517	32702	
736	0	32786	32787	32671	32666	32716	32837	32617	32732	
737	0	32816	32839	32815	32543	32702	32790	32693	32745	
738	0	32734	32759	32719	32589	32758	32730	32677	32775	
739	0	32707	32815	32743	32617	32759	32804	32534	32726	
740	0	32763	32830	32743	32783	32727	32767	32773	32759	
741	0	32733	32731	32731	32705	32759	32831	32671	32717	
742	0	32711	32763	32614	32726	32767	32791	32719	32751	
743	0	32794	32809	32706	32714	32717	32834	32539	32787	
744	0	32749	32742	32695	32690	32775	32797	32719	32732	
745	0	32775	32834	32758	32522	32823	32831	32647	32702	
746	0	32759	32748	32629	32654	32832	32855	32647	32663	
747	0	32795	32695	32721	32679	32751	32799	32570	32759	
748	0	32696	32788	32682	32675	32710	32751	32743	32754	
749	0	32783	32819	32695	32695	32762	32763	32647	32691	
750	0	32829	32750	32667	32671	32767	32813	32731	32747	
751	0	32783	32796	32685	32741	32775	32819	32659	32803	
752	0	32788	32708	32735	32679	32751	32731	32579	32756	
753	0	32769	32797	32713	32695	32799	32799	32727	32677	
754	0	32759	32711	32730	32727	32706	32773	32692	32679	
755	0	32737	32755	32676	32501	32765	32735	32493	32647	
756	0	32689	32788	32743	32615	32790	32785	32715	32655	
757	0	32775	32713	32739	32691	32762	32709	32690	32663	
758	0	32786	32826	32789	32625	32756	32786	32541	32643	
759	0	32746	32748	32679	32721	32821	32751	32745	32699	
760	0	32743	32859	32647	32751	32802	32747	32621	32626	
761	0	32747	32807	32719	32730	32807	32791	32749	32669	
762	0	32784	32711	32692	32607	32799	32719	32487	32631	
763	0	32786	32821	32679	32604	32723	32767	32647	32665	
764	0	32782	32775	32685	32687	32727	32743	32634	32655	
765	0	32793	32869	32769	32763	32814	32749	32679	32669	
766	0	32775	32791	32750	32719	32765	32767	32626	32625	
767	0	32718	32775	32806	32703	32765	32589	32695	32671	
768	0	32749	32773	32749	32679	32759	32627	32679	32629	
769	0	32783	32735	32661	32727	32759	32679	32727	32743	
770	0	32767	32767	32683	32765	32755	32823	32573	32711	
771	0	32775	32710	32719	32711	32775	32879	32615	32756	
772	0	32730	32835	32783	32666	32775	32791	32759	32791	
773	0	32735	32839	32807	32683	32707	32733	32599	32767	
774	0	32798	32679	32725	32615	32717	32775	32547	32755	
775	0	32835	32876	32695	32492	32747	32775	32761	32743	
776	0	32698	32791	32812	32555	32733	32765	32679	32775	
777	0	32825	32827	32754	32679	32759	32763	32725	32647	
778	0	32775	32823	32722	32669	32812	32742	32579	32803	
779	0	32823	32791	32725	32732	32823	32804	32726	32802	
780	0	32796	32775	32718	32611	32727	32759	32691	32759	
781	0	32748	32775	32691	32532	32727	32742	32646	32719	
782	0	32751	32818	32573	32647	32671	32807	32687	32763	
783	0	32733	32759	32551	32743	32710	32789	32645	32717	
784	0	32753	32811	32692	32735	32759	32617	32647	32599	
785	0	32702	32711	32759	32707	32745	32687	32511	32647	
786	0	32678	32791	32775	32771	32791	32754	32666	32703	
787	0	32734	32769	32717	32775	32775	32832	32631	32670	
788	0	32708	32702	32788	32563	32775	32893	32563	32671	
789	0	32703	32867	32703	32623	32715	32791	32751	32681	
790	0	32722	32797	32719	32591	32738	32763	32677	32588	
791	0	32782	32718	32796	32739	32810	32761	32691	32615	
792	0	32743	32823	32647	32658	32827	32769	32551	32586	
793	0	32751	32751	32631	32687	32815	32559	32583	32685	
794	0	32822	32849	32701	32711	32743	32615	32743	32759	
795	0	32870	32767	32732	32663	32801	32691	32723	32707	
796	0	32838	32831	32774	32689	32791	32737	32567	32715	
797	0	32826	32821	32635	32515	32775	32815	32695	32807	
798	0	32775	32694	32594	32535	32771	32855	32735	32759	
799	0	32759	32807	32627	32723	32757	32865	32562	32769	
800	0	32775	32748	32647	32763	32786	32797	32811	32738	
801	0	32716	32795	32667	32645	32799	32771	32679	32693	
802	0	32730	32803	32659	32674	32795	32751	32721	32735	
803	0	32709	32775	32642	32807	32794	32773	32547	32743	
804	0	32731	32881	32839	32711	32775	32831	32745	32791	
805	0	32710	32770	32871	32589	32742	32795	32755	32803	
806	0	32797	32733	32791	32555	32786	32791	32547	32801	
807	0	32782	32711	32822	32646	32741	32663	32743	32773	
808	0	32794	32735	32839	32711	32750	32586	32671	32814	
809	0	32775	32762	32801	32741	32730	32695	32647	32692	
810	0	32742	32866	32759	32671	32711	32694	32525	32626	
811	0	32747	32855	32667	32733	32797	32679	32663	32621	
812	0	32773	32761	32692	32677	32775	32706	32655	32692	
813	0	32775	32846	32787	32524	32851	32694	32534	32757	
814	0	32758	32847	32697	32646	32786	32754	32767	32751	
815	0	32804	32807	32798	32749	32765	32727	32641	32731	
816	0	32796	32871	32788	32623	32775	32703	32687	32711	
817	0	32790	32799	32704	32687	32730	32851	32597	32775	
818	0	32772	32823	32765	32748	32749	32839	32567	32735	
819	0	32740	32710	32677	32631	32727	32859	32746	32711	
820	0	32737	32710	32731	32567	32788	32847	32687	32791	
821	0	32775	32830	32726	32775	32770	32837	32495	32784	
822	0	32750	32764	32599	32735	32766	32839	32732	32825	
823	0	32743	32727	32719	32786	32765	32834	32639	32830	
824	0	32719	32775	32687	32671	32783	32879	32567	32739	
825	0	32708	32796	32742	32605	32711	32847	32620	32751	
826	0	32783	32724	32635	32727	32743	32816	32699	32822	
827	0	32843	32791	32692	32647	32771	32847	32681	32719	
828	0	32871	32805	32762	32694	32775	32869	32643	32671	
829	0	32807	32783	32728	32671	32836	32759	32767	32724	
830	0	32789	32818	32647	32605	32819	32795	32671	32791	
831	0	32780	32727	32699	32569	32847	32783	32669	32751	
832	0	32785	32830	32747	32478	32829	32774	32535	32578	
833	0	32785	32772	32684	32527	32791	32759	32742	32691	
834	0	32711	32751	32702	32639	32726	32742	32671	32604	
835	0	32830	32807	32627	32623	32710	32783	32503	32703	
836	0	32736	32749	32615	32687	32743	32739	32786	32662	
837	0	32767	32803	32670	32770	32782	32738	32641	32679	
838	0	32748	32749	32719	32613	32775	32775	32620	32647	
839	0	32705	32679	32610	32623	32815	32796	32751	32715	
840	0	32698	32839	32692	32647	32767	32787	32647	32679	
841	0	32799	32783	32774	32698	32735	32775	32647	32775	
842	0	32706	32814	32723	32775	32799	32614	32531	32823	
843	0	32623	32775	32713	32783	32791	32763	32683	32751	
844	0	32730	32743	32752	32715	32875	32731	32668	32683	
845	0	32785	32799	32715	32571	32843	32775	32563	32758	
846	0	32713	32739	32745	32530	32811	32583	32596	32767	
847	0	32720	32843	32757	32487	32806	32591	32647	32719	
848	0	32783	32755	32629	32727	32790	32583	32695	32775	
849	0	32781	32711	32630	32647	32783	32692	32587	32679	
850	0	32732	32869	32735	32619	32836	32823	32595	32680	
851	0	32743	32711	32724	32625	32775	32768	32679	32630	
852	0	32769	32839	32749	32645	32791	32684	32756	32613	
853	0	32822	32791	32739	32711	32806	32787	32701	32553	
854	0	32832	32875	32715	32749	32815	32751	32702	32610	
855	0	32818	32855	32687	32663	32823	32731	32592	32631	
856	0	32799	32775	32807	32527	32823	32615	32797	32725	
857	0	32732	32837	32667	32659	32749	32599	32677	32690	
858	0	32772	32821	32639	32699	32774	32583	32583	32719	
859	0	32763	32711	32607	32663	32763	32635	32775	32754	
860	0	32731	32820	32843	32701	32775	32684	32647	32751	
861	0	32775	32708	32787	32677	32801	32612	32738	32775	
862	0	32775	32831	32783	32724	32761	32626	32668	32677	
863	0	32756	32799	32731	32621	32773	32677	32551	32790	
864	0	32762	32753	32698	32639	32723	32827	32595	32743	
865	0	32711	32769	32619	32570	32717	32869	32775	32851	
866	0	32726	32647	32738	32503	32709	32844	32697	32687	
867	0	32728	32775	32684	32487	32756	32759	32706	32659	
868	0	32732	32751	32727	32547	32755	32790	32577	32639	
869	0	32734	32763	32722	32681	32731	32801	32736	32647	
870	0	32775	32811	32733	32743	32747	32767	32621	32710	
871	0	32788	32742	32715	32671	32743	32767	32655	32763	
872	0	32762	32804	32757	32676	32765	32783	32549	32738	
873	0	32751	32825	32730	32722	32727	32686	32757	32738	
874	0	32756	32799	32770	32679	32748	32551	32615	32719	
875	0	32774	32813	32613	32626	32727	32827	32623	32723	
876	0	32775	32786	32725	32598	32775	32771	32718	32725	
877	0	32775	32763	32679	32723	32802	32727	32687	32742	
878	0	32731	32703	32647	32647	32787	32805	32748	32743	
879	0	32761	32823	32625	32743	32757	32749	32550	32723	
880	0	32782	32815	32667	32738	32699	32775	32727	32713	
881	0	32719	32743	32683	32582	32726	32774	32633	32758	
882	0	32745	32823	32591	32699	32794	32805	32663	32748	
883	0	32720	32759	32711	32729	32773	32804	32583	32711	
884	0	32702	32700	32749	32771	32797	32809	32685	32763	
885	0	32716	32738	32775	32775	32871	32751	32684	32765	
886	0	32773	32775	32703	32695	32775	32743	32703	32711	
887	0	32773	32691	32870	32559	32839	32773	32617	32739	
888	0	32775	32838	32822	32615	32810	32759	32647	32697	
889	0	32763	32791	32834	32677	32799	32805	32771	32591	
890	0	32811	32749	32695	32767	32727	32773	32647	32642	
891	0	32775	32771	32762	32511	32775	32831	32594	32682	
892	0	32775	32871	32711	32698	32795	32815	32767	32725	
893	0	32795	32823	32583	32711	32771	32865	32621	32690	
894	0	32813	32794	32735	32714	32751	32805	32722	32726	
895	0	32810	32715	32711	32484	32674	32691	32735	32719	
896	0	32804	32795	32807	32620	32775	32566	32703	32821	
897	0	32745	32807	32749	32671	32791	32559	32711	32783	
898	0	32735	32791	32661	32571	32820	32635	32709	32663	
899	0	32736	32742	32763	32551	32726	32781	32711	32575	
900	0	32837	32837	32686	32617	32713	32603	32615	32647	
901	0	32799	32803	32727	32687	32741	32639	32845	32695	
902	0	32790	32717	32619	32670	32707	32647	32671	32677	
903	0	32751	32815	32634	32731	32743	32633	32691	32665	
904	0	32739	32807	32687	32583	32699	32622	32738	32615	
905	0	32743	32699	32615	32637	32754	32595	32671	32599	
906	0	32807	32814	32685	32687	32797	32630	32719	32573	
907	0	32695	32754	32787	32693	32839	32643	32628	32726	
908	0	32738	32694	32806	32751	32887	32566	32754	32751	
909	0	32767	32855	32589	32695	32759	32743	32647	32826	
910	0	32789	32795	32567	32575	32751	32518	32591	32771	
911	0	32773	32717	32703	32667	32822	32738	32754	32730	
912	0	32787	32847	32659	32671	32719	32745	32676	32677	
913	0	32764	32771	32599	32621	32787	32719	32595	32719	
914	0	32802	32671	32700	32679	32797	32575	32556	32758	
915	0	32717	32773	32773	32695	32813	32615	32711	32727	
916	0	32748	32733	32717	32715	32805	32690	32599	32767	
917	0	32768	32719	32647	32687	32775	32875	32743	32749	
918	0	32806	32683	32658	32735	32726	32815	32583	32727	
919	0	32706	32860	32663	32759	32759	32775	32589	32739	
920	0	32801	32743	32607	32487	32819	32862	32695	32679	
921	0	32759	32698	32667	32775	32797	32815	32637	32674	
922	0	32731	32847	32786	32727	32829	32839	32785	32603	
923	0	32788	32775	32839	32674	32903	32895	32676	32635	
924	0	32704	32631	32734	32730	32823	32870	32627	32637	
925	0	32681	32817	32775	32679	32756	32851	32619	32644	
926	0	32733	32771	32827	32550	32719	32855	32681	32623	
927	0	32812	32663	32647	32695	32771	32879	32743	32671	
928	0	32775	32735	32647	32791	32719	32865	32534	32617	
929	0	32781	32727	32795	32727	32707	32793	32751	32629	
930	0	32780	32789	32765	32679	32775	32797	32775	32753	
931	0	32799	32701	32727	32655	32743	32775	32739	32739	
932	0	32799	32815	32714	32667	32739	32789	32525	32743	
933	0	32766	32783	32662	32681	32717	32783	32757	32749	
934	0	32806	32710	32727	32659	32695	32799	32703	32711	
935	0	32788	32845	32671	32551	32757	32759	32565	32679	
936	0	32804	32787	32717	32647	32796	32727	32707	32733	
937	0	32749	32791	32635	32687	32804	32766	32710	32723	
938	0	32756	32735	32710	32735	32839	32743	32519	32771	
939	0	32748	32795	32705	32687	32791	32748	32743	32755	
940	0	32755	32730	32743	32647	32788	32589	32700	32725	
941	0	32725	32807	32695	32714	32775	32617	32695	32754	
942	0	32669	32693	32613	32751	32817	32631	32710	32735	
943	0	32799	32811	32743	32687	32789	32675	32599	32635	
944	0	32711	32753	32647	32604	32845	32871	32700	32617	
945	0	32740	32853	32703	32535	32815	32805	32637	32628	
946	0	32818	32827	32726	32531	32789	32799	32727	32629	
947	0	32766	32813	32737	32516	32759	32722	32597	32748	
948	0	32740	32847	32663	32661	32858	32767	32642	32743	
949	0	32701	32759	32765	32671	32783	32783	32735	32830	
950	0	32763	32883	32741	32721	32790	32767	32762	32735	
951	0	32740	32847	32763	32695	32815	32743	32631	32655	
952	0	32783	32775	32685	32667	32767	32807	32711	32727	
953	0	32834	32763	32810	32523	32715	32786	32759	32740	
954	0	32825	32746	32715	32605	32705	32631	32695	32739	
955	0	32731	32833	32755	32646	32773	32567	32518	32751	
956	0	32775	32827	32679	32787	32731	32590	32551	32674	
957	0	32752	32783	32701	32743	32719	32601	32726	32663	
958	0	32815	32791	32711	32679	32771	32646	32647	32717	
959	0	32735	32694	32686	32708	32755	32796	32789	32667	
960	0	32742	32815	32683	32647	32733	32871	32694	32715	
961	0	32791	32735	32665	32775	32765	32725	32523	32703	
962	0	32745	32797	32821	32753	32787	32775	32731	32671	
963	0	32702	32775	32743	32767	32783	32807	32730	32743	
964	0	32802	32807	32661	32749	32902	32611	32677	32729	
965	0	32743	32767	32679	32757	32871	32571	32531	32675	
966	0	32732	32739	32766	32745	32795	32607	32602	32599	
967	0	32720	32863	32748	32602	32805	32679	32759	32639	
968	0	32804	32815	32702	32597	32839	32727	32643	32623	
969	0	32744	32754	32589	32671	32802	32794	32697	32697	
970	0	32698	32819	32660	32747	32791	32842	32543	32765	
971	0	32699	32726	32762	32621	32759	32795	32687	32763	
972	0	32754	32810	32738	32631	32836	32755	32703	32759	
973	0	32725	32847	32631	32558	32839	32850	32517	32749	
974	0	32751	32727	32663	32493	32831	32741	32727	32743	
975	0	32791	32799	32733	32471	32806	32809	32633	32709	
976	0	32793	32775	32735	32507	32839	32611	32765	32719	
977	0	32713	32795	32797	32727	32843	32655	32559	32703	
978	0	32769	32819	32723	32659	32839	32698	32727	32735	
979	0	32788	32700	32647	32615	32815	32647	32647	32711	
980	0	32813	32769	32767	32647	32709	32667	32565	32775	
981	0	32801	32821	32804	32557	32767	32647	32733	32775	
982	0	32771	32815	32639	32687	32807	32663	32723	32692	
983	0	32836	32725	32671	32685	32811	32628	32735	32719	
984	0	32790	32755	32729	32647	32871	32790	32655	32719	
985	0	32749	32847	32719	32535	32852	32775	32699	32767	
986	0	32780	32691	32748	32599	32771	32743	32597	32802	
987	0	32792	32835	32699	32763	32829	32695	32711	32743	
988	0	32698	32783	32719	32683	32773	32727	32684	32786	
989	0	32778	32687	32695	32647	32732	32759	32511	32743	
990	0	32815	32843	32690	32698	32799	32755	32739	32751	
991	0	32727	32791	32749	32565	32791	32751	32635	32770	
992	0	32729	32695	32660	32645	32809	32740	32743	32786	
993	0	32788	32823	32655	32743	32847	32775	32575	32756	
994	0	32840	32789	32738	32673	32847	32811	32726	32814	
995	0	32695	32799	32798	32659	32814	32799	32731	32732	
996	0	32756	32775	32677	32747	32826	32817	32564	32735	
997	0	32758	32818	32749	32509	32775	32822	32770	32700	
998	0	32786	32725	32731	32555	32702	32815	32690	32726	
999	0	32742	32859	32739	32679	32731	32819	32679	32775	
1000	0	32764	32815	32707	32681	32738	32771	32623	32803	
1001	0	32764	32775	32822	32741	32809	32813	32655	32725	
1002	0	32773	32775	32770	32639	32805	32893	32623	32762	
1003	0	32772	32878	32589	32631	32815	32855	32775	32775	
1004	0	32739	32755	32863	32692	32711	32797	32706	32686	
1005	0	32727	32695	32827	32678	32695	32843	32647	32665	
1006	0	32645	32791	32735	32715	32821	32803	32774	32591	
1007	0	32770	32708	32793	32604	32758	32775	32669	32595	
1008	0	32753	32775	32743	32719	32867	32687	32647	32583	
1009	0	32771	32839	32799	32738	32902	32739	32577	32608	
1010	0	32799	32754	32727	32735	32863	32758	32743	32627	
1011	0	32766	32671	32893	32743	32863	32724	32711	32663	
1012	0	32713	32843	32807	32671	32823	32731	32593	32695	
1013	0	32727	32843	32671	32501	32740	32591	32783	32682	
1014	0	32799	32799	32741	32711	32775	32551	32708	32677	
1015	0	32765	32815	32743	32661	32827	32757	32574	32615	
1016	0	32799	32791	32614	32677	32823	32730	32597	32631	
1017	0	32739	32672	32586	32603	32806	32734	32687	32601	
1018	0	32728	32799	32733	32607	32787	32543	32581	32691	
1019	0	32731	32709	32613	32598	32834	32655	32751	32791	
1020	0	32790	32763	32615	32558	32751	32711	32615	32805	
1021	0	32769	32757	32567	32631	32775	32703	32663	32743	
1022	0	32764	32677	32593	32717	32758	32695	32511	32803	
1023	0	32736	32737	32647	32655	32785	32867	32741	32711	
1024	0	32717	32773	32640	32655	32806	32879	32684	32767	
1025	0	32708	32793	32671	32642	32814	32877	32683	32796	
1026	0	32727	32769	32711	32511	32828	32819	32601	32747	
1027	0	32694	32807	32699	32590	32783	32807	32646	32771	
1028	0	32759	32803	32701	32739	32741	32805	32623	32797	
1029	0	32732	32807	32675	32703	32765	32775	32711	32743	
1030	0	32807	32759	32647	32741	32767	32757	32821	32673	
1031	0	32756	32797	32887	32594	32847	32791	32647	32735	
1032	0	32705	32775	32791	32570	32835	32846	32639	32799	
1033	0	32757	32759	32691	32661	32798	32789	32549	32727	
1034	0	32860	32807	32629	32705	32709	32804	32726	32733	
1035	0	32758	32806	32707	32641	32692	32738	32679	32751	
1036	0	32784	32791	32757	32769	32725	32748	32587	32749	
1037	0	32711	32854	32783	32647	32751	32731	32759	32766	
1038	0	32782	32775	32743	32547	32784	32747	32647	32773	
1039	0	32709	32743	32735	32775	32753	32725	32566	32685	
1040	0	32730	32775	32730	32734	32845	32775	32797	32775	
1041	0	32729	32743	32658	32763	32879	32775	32647	32711	
1042	0	32714	32775	32629	32743	32855	32795	32639	32751	
1043	0	32718	32734	32687	32570	32793	32786	32771	32774	
1044	0	32759	32815	32731	32679	32765	32749	32662	32775	
1045	0	32825	32769	32679	32647	32731	32767	32615	32753	
1046	0	32796	32756	32775	32713	32772	32795	32755	32691	
1047	0	32703	32763	32797	32567	32783	32819	32729	32671	
1048	0	32765	32871	32694	32663	32846	32751	32463	32695	
1049	0	32790	32791	32805	32694	32809	32785	32577	32667	
1050	0	32751	32707	32731	32695	32717	32775	32671	32662	
1051	0	32708	32797	32655	32575	32751	32820	32743	32614	
1052	0	32789	32802	32775	32587	32747	32781	32663	32631	
1053	0	32717	32711	32718	32607	32769	32775	32647	32646	
1054	0	32782	32887	32723	32675	32699	32730	32663	32629	
1055	0	32717	32806	32679	32693	32758	32729	32583	32660	
1056	0	32782	32751	32637	32793	32775	32775	32636	32631	
1057	0	32733	32723	32719	32628	32773	32833	32658	32663	
1058	0	32745	32879	32700	32773	32706	32839	32775	32661	
1059	0	32743	32761	32683	32703	32747	32839	32621	32754	
1060	0	32775	32673	32754	32751	32727	32839	32747	32767	
1061	0	32808	32827	32771	32743	32723	32854	32526	32679	
1062	0	32715	32739	32703	32631	32719	32804	32785	32605	
1063	0	32691	32679	32760	32558	32811	32868	32716	32621	
1064	0	32810	32787	32748	32738	32852	32775	32518	32715	
1065	0	32723	32775	32757	32666	32795	32807	32663	32703	
1066	0	32759	32762	32687	32741	32819	32821	32797	32766	
1067	0	32783	32810	32729	32662	32757	32817	32621	32761	
1068	0	32766	32795	32709	32567	32755	32735	32751	32683	
1069	0	32829	32789	32663	32594	32775	32742	32631	32663	
1070	0	32823	32823	32658	32747	32765	32775	32671	32687	
1071	0	32775	32695	32691	32675	32745	32795	32525	32647	
1072	0	32819	32852	32743	32615	32751	32790	32765	32647	
1073	0	32804	32743	32750	32671	32707	32607	32659	32642	
1074	0	32747	32879	32644	32676	32715	32663	32631	32701	
1075	0	32801	32815	32599	32679	32847	32817	32647	32745	
1076	0	32773	32771	32633	32627	32796	32830	32455	32692	
1077	0	32758	32775	32711	32545	32818	32877	32715	32643	
1078	0	32775	32719	32742	32549	32771	32851	32671	32655	
1079	0	32742	32877	32679	32715	32687	32930	32633	32639	
1080	0	32736	32827	32825	32687	32769	32955	32597	32677	
1081	0	32770	32717	32723	32699	32771	32926	32615	32675	
1082	0	32725	32807	32733	32743	32727	32749	32647	32823	
1083	0	32748	32741	32711	32643	32742	32775	32647	32832	
1084	0	32746	32791	32671	32583	32723	32791	32496	32847	
1085	0	32740	32794	32731	32711	32839	32771	32647	32789	
1086	0	32796	32722	32774	32711	32765	32767	32580	32847	
1087	0	32703	32815	32535	32695	32831	32724	32645	32767	
1088	0	32741	32839	32719	32640	32797	32807	32553	32791	
1089	0	32731	32695	32709	32495	32807	32823	32647	32805	
1090	0	32783	32812	32703	32763	32766	32839	32699	32802	
1091	0	32786	32763	32687	32671	32759	32799	32519	32802	
1092	0	32812	32669	32801	32725	32780	32804	32703	32775	
1093	0	32780	32791	32731	32757	32773	32815	32679	32743	
1094	0	32756	32775	32685	32577	32783	32719	32524	32740	
1095	0	32806	32695	32727	32607	32812	32895	32695	32759	
1096	0	32775	32834	32763	32737	32831	32807	32728	32702	
1097	0	32763	32775	32684	32702	32825	32775	32543	32709	
1098	0	32769	32774	32705	32713	32775	32815	32612	32773	
1099	0	32687	32775	32819	32732	32759	32775	32677	32687	
1100	0	32737	32798	32738	32711	32775	32819	32679	32837	
1101	0	32723	32868	32687	32647	32775	32745	32516	32734	
1102	0	32696	32799	32706	32579	32757	32782	32811	32760	
1103	0	32741	32775	32791	32583	32841	32794	32647	32743	
1104	0	32717	32861	32743	32671	32806	32775	32684	32677	
1105	0	32735	32775	32783	32671	32796	32850	32563	32663	
1106	0	32665	32735	32719	32726	32799	32831	32727	32738	
1107	0	32716	32797	32754	32586	32754	32798	32687	32763	
1108	0	32764	32786	32699	32735	32775	32775	32543	32742	
1109	0	32786	32675	32615	32690	32775	32848	32681	32771	
1110	0	32742	32829	32647	32711	32821	32847	32647	32775	
1111	0	32742	32805	32775	32671	32845	32831	32543	32743	
1112	0	32770	32787	32647	32487	32863	32803	32658	32742	
1113	0	32753	32751	32743	32674	32766	32854	32665	32722	
1114	0	32783	32831	32662	32647	32735	32791	32567	32642	
1115	0	32786	32791	32751	32695	32710	32769	32695	32678	
1116	0	32788	32715	32635	32681	32707	32775	32679	32709	
1117	0	32839	32894	32663	32603	32709	32775	32621	32742	
1118	0	32775	32890	32749	32514	32723	32741	32447	32783	
1119	0	32742	32721	32711	32525	32731	32594	32701	32805	
1120	0	32805	32795	32644	32623	32745	32593	32655	32795	
1121	0	32775	32723	32637	32747	32743	32695	32629	32742	
1122	0	32762	32751	32696	32677	32724	32711	32519	32738	
1123	0	32714	32799	32679	32699	32767	32643	32751	32751	
1124	0	32761	32751	32709	32543	32838	32607	32615	32717	
1125	0	32702	32703	32707	32619	32803	32581	32667	32679	
1126	0	32784	32816	32743	32745	32799	32615	32762	32683	
1127	0	32817	32757	32759	32663	32806	32619	32684	32626	
1128	0	32788	32741	32738	32782	32767	32575	32547	32647	
1129	0	32813	32775	32772	32551	32739	32599	32699	32629	
1130	0	32815	32850	32694	32572	32742	32759	32679	32627	
1131	0	32792	32831	32703	32743	32791	32765	32508	32700	
1132	0	32809	32807	32751	32727	32775	32775	32631	32694	
1133	0	32790	32854	32749	32543	32815	32767	32687	32743	
1134	0	32804	32775	32593	32578	32783	32839	32559	32797	
1135	0	32715	32822	32605	32681	32719	32801	32668	32775	
1136	0	32742	32771	32729	32647	32703	32818	32727	32703	
1137	0	32742	32903	32677	32660	32767	32825	32527	32757	
1138	0	32788	32753	32755	32559	32738	32831	32786	32743	
1139	0	32718	32783	32754	32647	32759	32789	32663	32801	
1140	0	32709	32787	32775	32758	32705	32758	32711	32797	
1141	0	32771	32804	32718	32783	32743	32751	32642	32751	
1142	0	32775	32831	32671	32715	32755	32731	32639	32711	
1143	0	32733	32847	32725	32771	32791	32751	32619	32787	
1144	0	32743	32727	32702	32534	32765	32786	32711	32723	
1145	0	32713	32871	32862	32711	32775	32815	32550	32726	
1146	0	32813	32836	32810	32698	32751	32786	32715	32699	
1147	0	32706	32724	32862	32711	32699	32789	32617	32663	
1148	0	32733	32823	32751	32743	32763	32771	32551	32631	
1149	0	32754	32827	32771	32547	32727	32805	32571	32679	
1150	0	32710	32885	32799	32529	32749	32805	32679	32723	
1151	0	32735	32858	32763	32602	32794	32789	32619	32727	
1152	0	32742	32724	32711	32638	32859	32775	32599	32735	
1153	0	32780	32789	32639	32662	32823	32769	32775	32687	
1154	0	32714	32815	32703	32647	32784	32757	32693	32671	
1155	0	32773	32775	32647	32642	32754	32767	32491	32699	
1156	0	32730	32750	32677	32685	32775	32783	32723	32659	
1157	0	32668	32796	32711	32709	32735	32759	32623	32748	
1158	0	32791	32775	32607	32703	32781	32799	32671	32686	
1159	0	32775	32831	32691	32506	32823	32807	32751	32669	
1160	0	32724	32695	32763	32711	32823	32887	32695	32743	
1161	0	32799	32695	32653	32669	32715	32852	32706	32613	
1162	0	32754	32807	32794	32683	32758	32852	32607	32647	
1163	0	32704	32813	32771	32535	32817	32855	32647	32759	
1164	0	32701	32793	32658	32743	32791	32722	32559	32828	
1165	0	32746	32707	32735	32683	32763	32701	32679	32807	
1166	0	32747	32802	32706	32601	32679	32731	32724	32671	
1167	0	32738	32815	32684	32565	32790	32655	32647	32742	
1168	0	32811	32827	32759	32743	32775	32837	32583	32647	
1169	0	32788	32703	32677	32691	32748	32775	32535	32733	
1170	0	32751	32736	32715	32671	32694	32631	32564	32743	
1171	0	32812	32799	32757	32495	32715	32827	32615	32661	
1172	0	32791	32815	32669	32700	32754	32783	32647	32727	
1173	0	32821	32801	32684	32583	32756	32693	32679	32647	
1174	0	32816	32747	32681	32719	32822	32763	32619	32719	
1175	0	32775	32871	32645	32475	32758	32543	32655	32667	
1176	0	32788	32791	32681	32679	32775	32797	32694	32798	
1177	0	32768	32775	32636	32685	32807	32751	32695	32751	
1178	0	32781	32715	32619	32671	32711	32582	32743	32739	
1179	0	32739	32821	32751	32503	32815	32827	32500	32743	
1180	0	32704	32771	32775	32695	32817	32763	32541	32551	
1181	0	32757	32743	32765	32727	32831	32709	32642	32769	
1182	0	32703	32703	32751	32743	32868	32790	32579	32841	
1183	0	32703	32691	32749	32614	32815	32723	32575	32763	
1184	0	32694	32765	32715	32530	32775	32820	32669	32844	
1185	0	32751	32705	32658	32775	32805	32717	32677	32711	
1186	0	32692	32751	32640	32775	32754	32578	32553	32755	
1187	0	32750	32799	32718	32611	32807	32795	32549	32679	
1188	0	32760	32823	32695	32719	32797	32556	32695	32687	
1189	0	32767	32786	32695	32639	32803	32767	32699	32623	
1190	0	32747	32847	32643	32658	32719	32698	32676	32719	
1191	0	32755	32761	32619	32555	32807	32895	32708	32647	
1192	0	32756	32723	32721	32695	32751	32775	32759	32683	
1193	0	32799	32826	32703	32703	32799	32751	32556	32647	
1194	0	32749	32795	32658	32519	32722	32749	32587	32695	
1195	0	32725	32819	32658	32735	32775	32589	32607	32655	
1196	0	32809	32814	32743	32705	32796	32734	32671	32733	
1197	0	32746	32797	32615	32687	32811	32788	32591	32691	
1198	0	32733	32763	32727	32751	32783	32783	32791	32719	
1199	0	32740	32861	32709	32643	32749	32730	32671	32715	
1200	0	32803	32831	32782	32501	32677	32736	32731	32687	
1201	0	32802	32775	32791	32647	32815	32757	32555	32762	
1202	0	32738	32767	32911	32719	32771	32831	32707	32775	
1203	0	32751	32775	32791	32671	32757	32775	32647	32711	
1204	0	32804	32677	32694	32706	32743	32794	32563	32766	
1205	0	32804	32806	32791	32667	32763	32735	32599	32759	
1206	0	32775	32743	32757	32548	32758	32722	32663	32685	
1207	0	32792	32807	32630	32703	32775	32799	32681	32637	
1208	0	32756	32710	32751	32735	32743	32767	32613	32687	
1209	0	32788	32823	32799	32647	32717	32735	32470	32629	
1210	0	32848	32855	32609	32636	32727	32679	32699	32623	
1211	0	32824	32797	32699	32701	32741	32599	32708	32703	
1212	0	32748	32710	32773	32679	32703	32621	32461	32647	
1213	0	32741	32773	32691	32711	32815	32566	32730	32687	
1214	0	32756	32899	32751	32519	32787	32551	32571	32711	
1215	0	32742	32828	32711	32727	32708	32519	32491	32723	
1216	0	32726	32781	32647	32733	32759	32711	32681	32725	
1217	0	32723	32799	32731	32679	32730	32756	32583	32691	
1218	0	32734	32774	32685	32607	32775	32751	32713	32717	
1219	0	32684	32878	32687	32655	32789	32775	32645	32785	
1220	0	32671	32767	32755	32711	32855	32719	32550	32823	
1221	0	32700	32705	32742	32669	32836	32757	32646	32847	
1222	0	32761	32722	32631	32611	32722	32775	32668	32803	
1223	0	32817	32807	32703	32575	32735	32812	32506	32747	
1224	0	32764	32739	32743	32725	32691	32819	32687	32687	
1225	0	32793	32691	32615	32594	32789	32863	32670	32642	
1226	0	32738	32646	32655	32687	32820	32901	32562	32587	
1227	0	32740	32749	32679	32551	32807	32791	32647	32615	
1228	0	32751	32831	32607	32615	32795	32815	32647	32631	
1229	0	32751	32845	32756	32679	32783	32863	32551	32643	
1230	0	32741	32759	32678	32671	32758	32834	32646	32627	
1231	0	32727	32862	32755	32717	32787	32807	32647	32571	
1232	0	32759	32820	32683	32591	32795	32839	32513	32569	
1233	0	32777	32775	32735	32769	32788	32828	32679	32666	
1234	0	32840	32795	32715	32659	32767	32855	32743	32658	
1235	0	32759	32815	32623	32619	32751	32807	32582	32617	
1236	0	32734	32885	32725	32559	32774	32623	32647	32759	
1237	0	32727	32731	32751	32639	32734	32626	32655	32759	
1238	0	32751	32811	32647	32743	32711	32673	32581	32788	
1239	0	32753	32807	32785	32756	32759	32621	32639	32734	
1240	0	32788	32775	32771	32690	32751	32601	32679	32803	
1241	0	32703	32715	32645	32575	32803	32604	32763	32822	
1242	0	32760	32741	32716	32685	32807	32743	32671	32743	
1243	0	32757	32751	32695	32657	32755	32733	32559	32727	
1244	0	32763	32727	32653	32643	32739	32583	32687	32767	
1245	0	32742	32721	32703	32639	32698	32817	32706	32660	
1246	0	32775	32679	32674	32555	32823	32783	32646	32802	
1247	0	32740	32724	32702	32737	32760	32719	32621	32687	
1248	0	32769	32695	32611	32698	32866	32773	32719	32834	
1249	0	32764	32755	32669	32646	32799	32583	32558	32769	
1250	0	32739	32765	32708	32603	32851	32799	32629	32724	
1251	0	32791	32751	32692	32675	32799	32549	32679	32767	
1252	0	32804	32639	32660	32702	32830	32775	32703	32770	
1253	0	32747	32769	32623	32524	32769	32751	32703	32759	
1254	0	32738	32775	32695	32733	32841	32732	32789	32677	
1255	0	32730	32799	32819	32722	32822	32775	32513	32716	
1256	0	32698	32881	32766	32693	32735	32567	32556	32575	
1257	0	32676	32803	32827	32587	32795	32831	32594	32743	
1258	0	32816	32749	32718	32734	32789	32759	32669	32683	
1259	0	32765	32826	32707	32724	32767	32661	32712	32747	
1260	0	32743	32795	32695	32591	32751	32789	32647	32702	
1261	0	32713	32795	32751	32725	32767	32629	32673	32690	
1262	0	32749	32757	32807	32694	32748	32891	32717	32715	
1263	0	32855	32810	32692	32715	32733	32807	32735	32631	
1264	0	32822	32836	32715	32591	32775	32687	32754	32703	
1265	0	32736	32839	32756	32639	32709	32699	32615	32623	
1266	0	32804	32877	32733	32615	32791	32615	32532	32755	
1267	0	32830	32773	32766	32644	32782	32765	32550	32644	
1268	0	32791	32775	32687	32521	32837	32749	32677	32751	
1269	0	32719	32829	32655	32611	32743	32863	32687	32723	
1270	0	32751	32847	32726	32682	32759	32775	32683	32700	
1271	0	32813	32814	32794	32647	32775	32673	32647	32809	
1272	0	32763	32754	32739	32629	32761	32813	32623	32617	
1273	0	32762	32764	32711	32527	32795	32759	32687	32743	
1274	0	32764	32765	32719	32635	32741	32743	32763	32647	
1275	0	32775	32813	32711	32593	32799	32829	32647	32705	
1276	0	32750	32765	32677	32511	32803	32839	32570	32708	
1277	0	32750	32807	32595	32587	32818	32887	32661	32686	
1278	0	32759	32647	32656	32754	32807	32815	32629	32635	
1279	0	32711	32855	32647	32679	32807	32821	32660	32663	
1280	0	32773	32807	32690	32734	32743	32799	32821	32631	
1281	0	32791	32735	32644	32571	32711	32845	32743	32775	
1282	0	32775	32815	32711	32604	32743	32743	32691	32639	
1283	0	32757	32831	32694	32812	32791	32734	32582	32683	
1284	0	32762	32791	32708	32731	32817	32732	32551	32638	
1285	0	32734	32814	32750	32731	32801	32703	32639	32643	
1286	0	32751	32687	32759	32711	32749	32721	32447	32599	
1287	0	32786	32798	32751	32597	32805	32767	32611	32670	
1288	0	32784	32807	32723	32550	32799	32628	32679	32679	
1289	0	32788	32711	32785	32699	32751	32635	32659	32570	
1290	0	32805	32755	32772	32719	32751	32542	32599	32634	
1291	0	32770	32755	32790	32679	32871	32807	32596	32717	
1292	0	32802	32733	32769	32691	32757	32799	32574	32809	
1293	0	32847	32695	32647	32567	32717	32759	32603	32831	
1294	0	32838	32770	32729	32597	32685	32805	32647	32788	
1295	0	32794	32795	32711	32724	32775	32765	32551	32735	
1296	0	32820	32747	32703	32615	32817	32811	32640	32735	
1297	0	32807	32807	32647	32743	32817	32775	32685	32682	
1298	0	32775	32687	32750	32706	32797	32836	32518	32749	
1299	0	32796	32753	32727	32607	32819	32807	32679	32727	
1300	0	32759	32783	32654	32679	32701	32751	32546	32679	
1301	0	32731	32749	32726	32659	32710	32831	32647	32631	
1302	0	32678	32764	32708	32743	32739	32854	32627	32597	
1303	0	32706	32775	32775	32549	32758	32837	32495	32619	
1304	0	32662	32673	32662	32646	32711	32838	32671	32662	
1305	0	32727	32775	32757	32773	32835	32719	32663	32681	
1306	0	32749	32735	32727	32695	32749	32802	32623	32663	
1307	0	32749	32766	32727	32695	32817	32759	32467	32735	
1308	0	32751	32695	32759	32739	32757	32745	32626	32759	
1309	0	32734	32870	32617	32690	32801	32811	32686	32694	
1310	0	32800	32775	32783	32703	32769	32798	32695	32683	
1311	0	32716	32787	32725	32660	32832	32754	32583	32679	
1312	0	32743	32863	32735	32631	32859	32647	32446	32762	
1313	0	32814	32877	32743	32525	32797	32606	32663	32756	
1314	0	32810	32891	32661	32639	32765	32539	32597	32787	
1315	0	32804	32865	32775	32695	32794	32534	32506	32727	
1316	0	32847	32815	32771	32725	32743	32607	32703	32707	
1317	0	32845	32865	32743	32639	32690	32599	32691	32775	
1318	0	32807	32823	32683	32559	32735	32699	32527	32672	
1319	0	32787	32689	32729	32665	32739	32739	32673	32695	
1320	0	32775	32815	32771	32751	32807	32695	32700	32727	
1321	0	32751	32791	32687	32714	32708	32751	32723	32687	
1322	0	32760	32802	32711	32719	32726	32591	32574	32794	
1323	0	32783	32767	32727	32601	32675	32861	32546	32727	
1324	0	32780	32673	32694	32683	32811	32773	32498	32763	
1325	0	32756	32711	32719	32690	32751	32743	32571	32765	
1326	0	32758	32726	32647	32623	32804	32750	32642	32743	
1327	0	32690	32663	32797	32727	32711	32703	32627	32679	
1328	0	32679	32771	32782	32692	32733	32751	32711	32727	
1329	0	32772	32765	32634	32534	32684	32613	32532	32645	
1330	0	32726	32775	32671	32738	32759	32775	32709	32709	
1331	0	32743	32807	32705	32711	32797	32655	32739	32645	
1332	0	32736	32837	32710	32743	32819	32821	32735	32775	
1333	0	32790	32759	32707	32569	32751	32791	32724	32771	
1334	0	32812	32743	32727	32694	32822	32620	32751	32791	
1335	0	32729	32727	32655	32743	32765	32839	32689	32803	
1336	0	32787	32756	32691	32613	32799	32757	32562	32663	
1337	0	32743	32839	32749	32602	32817	32637	32543	32734	
1338	0	32804	32823	32759	32647	32775	32795	32699	32637	
1339	0	32751	32849	32823	32733	32815	32799	32706	32739	
1340	0	32703	32909	32723	32581	32775	32875	32687	32611	
1341	0	32788	32804	32819	32658	32835	32759	32688	32683	
1342	0	32737	32789	32789	32679	32767	32831	32570	32673	
1343	0	32732	32759	32710	32739	32724	32754	32679	32710	
1344	0	32759	32761	32663	32647	32823	32890	32647	32641	
1345	0	32733	32847	32655	32503	32767	32791	32702	32748	
1346	0	32769	32767	32708	32667	32839	32855	32627	32710	
1347	0	32749	32720	32607	32683	32789	32801	32511	32692	
1348	0	32763	32716	32764	32647	32861	32654	32660	32646	
1349	0	32773	32807	32775	32563	32773	32782	32711	32789	
1350	0	32800	32788	32723	32647	32748	32623	32662	32694	
1351	0	32782	32794	32767	32725	32783	32841	32639	32751	
1352	0	32749	32815	32647	32615	32791	32715	32743	32641	
1353	0	32799	32716	32711	32614	32823	32803	32630	32787	
1354	0	32799	32713	32799	32639	32758	32797	32615	32671	
1355	0	32774	32803	32775	32738	32787	32767	32713	32735	
1356	0	32841	32797	32725	32699	32729	32759	32642	32687	
1357	0	32728	32789	32845	32702	32809	32767	32751	32755	
1358	0	32729	32763	32719	32647	32775	32815	32623	32667	
1359	0	32709	32833	32703	32597	32870	32675	32487	32731	
1360	0	32743	32823	32647	32635	32775	32775	32663	32732	
1361	0	32716	32775	32711	32647	32815	32527	32675	32775	
1362	0	32703	32691	32733	32588	32763	32837	32679	32607	
1363	0	32713	32748	32706	32743	32829	32717	32586	32763	
1364	0	32731	32855	32653	32791	32743	32775	32662	32643	
1365	0	32739	32867	32652	32492	32767	32775	32787	32709	
1366	0	32800	32791	32767	32679	32711	32751	32567	32613	
1367	0	32722	32807	32692	32641	32827	32775	32559	32711	
1368	0	32793	32855	32727	32467	32695	32629	32743	32627	
1369	0	32841	32807	32693	32564	32727	32669	32545	32625	
1370	0	32749	32702	32805	32679	32802	32634	32719	32566	
1371	0	32743	32763	32708	32681	32806	32646	32583	32647	
1372	0	32797	32799	32757	32647	32775	32615	32671	32603	
1373	0	32769	32755	32723	32679	32807	32743	32771	32633	
1374	0	32733	32775	32605	32589	32826	32786	32683	32691	
1375	0	32783	32775	32749	32647	32743	32775	32591	32797	
1376	0	32732	32714	32691	32682	32765	32742	32743	32775	
1377	0	32734	32834	32591	32681	32719	32823	32679	32759	
1378	0	32671	32759	32693	32719	32775	32849	32495	32743	
1379	0	32703	32711	32685	32551	32834	32791	32689	32759	
1380	0	32679	32639	32638	32811	32761	32671	32623	32817	
1381	0	32663	32699	32695	32749	32743	32575	32489	32799	
1382	0	32612	32594	32687	32787	32730	32559	32516	32877	
1383	0	32495	32489	32659	32695	32818	32503	32591	32838	
1384	0	32498	32579	32683	32635	32815	32543	32367	32802	
1385	0	32487	32580	32727	32751	32799	32595	32578	32759	
1386	0	32570	32535	32667	32677	32916	32581	32467	32722	
1387	0	32514	32663	32791	32647	32871	32641	32483	32751	
1388	0	32570	32738	32726	32683	32903	32627	32423	32775	
1389	0	32532	32613	32694	32587	32851	32581	32519	32709	
1390	0	32543	32757	32711	32547	32837	32611	32482	32775	
1391	0	32651	32847	32804	32565	32822	32623	32647	32738	
1392	0	32713	32925	32796	32605	32817	32705	32567	32787	
1393	0	32721	32998	32742	32497	32785	32821	32482	32809	
1394	0	32686	33095	32883	32548	32809	32887	32469	32723	
1395	0	32714	33079	32819	32441	32871	32703	32606	32743	
1396	0	32743	33069	32847	32293	32887	32915	32606	32757	
1397	0	32812	33209	32804	32383	32903	32947	32479	32703	
1398	0	32841	33301	32959	32375	32903	32953	32567	32703	
1399	0	32903	33365	32902	32409	32885	32947	32567	32671	
1400	0	32965	33413	32759	32429	32815	32937	32451	32564	
1401	0	33073	33300	32807	32469	32835	32757	32684	32559	
1402	0	33125	33387	32764	32517	32767	32759	32715	32497	
1403	0	33082	33211	32813	32628	32727	32825	32820	32555	
1404	0	33128	33223	32748	32615	32695	32812	32885	32530	
1405	0	33100	33119	32689	32599	32690	32838	32735	32575	
1406	0	33071	33031	32735	32591	32711	32903	32903	32543	
1407	0	33058	33095	32679	32506	32739	32895	32847	32575	
1408	0	33095	33061	32667	32767	32709	32854	32759	32626	
1409	0	32986	32973	32608	32741	32679	32763	32903	32551	
1410	0	32959	32711	32587	32775	32607	32539	32947	32455	
1411	0	32945	32690	32493	32871	32639	32463	32855	32372	
1412	0	32952	32662	32323	32919	32634	32687	32988	32439	
1413	0	33037	32663	32431	33059	32583	32698	33077	32279	
1414	0	33113	32531	32411	32955	32507	32637	33110	32279	
1415	0	33079	32562	32327	32876	32493	32643	33238	32295	
1416	0	33111	32479	32263	32875	32513	32631	33155	32407	
1417	0	33151	32483	32463	33135	32524	32647	33097	32364	
1418	0	33144	32421	32431	33097	32503	32615	33215	32391	
1419	0	33131	32247	32390	33109	32518	32562	33064	32443	
1420	0	32978	32279	32319	33203	32533	32532	33041	32423	
1421	0	32858	32223	32383	32999	32583	32612	32708	32525	
1422	0	32647	32181	32575	32859	32727	32615	32679	32763	
1423	0	32609	32289	32565	32878	32814	32623	32421	32847	
1424	0	32532	32391	32715	32827	32919	32623	32519	32851	
1425	0	32467	32407	32695	32604	32903	32627	32450	32997	
1426	0	32434	32359	32773	32614	32890	32647	32226	32989	
1427	0	32343	32499	32771	32721	32891	32685	32391	33063	
1428	0	32391	32529	32849	32646	32869	32706	32262	33103	
1429	0	32458	32555	32797	32687	32903	32691	32253	33135	
1430	0	32418	32513	32790	32556	32973	32773	32366	33083	
1431	0	32493	32579	32799	32487	32877	32663	32327	33031	
1432	0	32477	32695	32821	32669	32903	32583	32399	32951	
1433	0	32473	32708	32855	32629	32879	32815	32269	33018	
1434	0	32505	32604	32823	32462	32927	32699	32260	32953	
1435	0	32503	32615	32775	32631	32940	32711	32438	33007	
1436	0	32505	32775	32735	32583	32862	32684	32391	32895	
1437	0	32541	32763	32831	32405	32853	32669	32495	32911	
1438	0	32548	32775	32775	32647	32886	32791	32391	32758	
1439	0	32583	32921	32751	32647	32825	32629	32443	32847	
1440	0	32684	32895	32711	32506	32815	32730	32613	32803	
1441	0	32647	32823	32731	32637	32739	32643	32503	32839	
1442	0	32694	32818	32707	32671	32815	32787	32553	32707	
1443	0	32740	32892	32669	32529	32743	32597	32725	32759	
1444	0	32758	32919	32791	32612	32859	32860	32570	32690	
1445	0	32791	32895	32806	32639	32754	32821	32541	32725	
1446	0	32865	32935	32775	32724	32855	32743	32685	32756	
1447	0	32833	32941	32699	32621	32854	32765	32551	32766	
1448	0	32765	32867	32733	32639	32755	32756	32708	32695	
1449	0	32783	32959	32727	32674	32756	32775	32695	32717	
1450	0	32845	32875	32739	32511	32735	32711	32566	32668	
1451	0	32757	32827	32742	32715	32708	32679	32695	32701	
1452	0	32861	32855	32659	32637	32763	32645	32748	32655	
1453	0	32775	32818	32807	32695	32831	32700	32814	32692	
1454	0	32780	32875	32767	32503	32781	32619	32601	32739	
1455	0	32794	32791	32644	32583	32735	32610	32615	32677	
1456	0	32740	32897	32762	32635	32815	32615	32791	32647	
1457	0	32804	32887	32770	32663	32771	32628	32699	32674	
1458	0	32775	32835	32730	32647	32730	32591	32623	32667	
1459	0	32791	32887	32706	32477	32726	32559	32711	32803	
1460	0	32743	32845	32748	32723	32765	32574	32655	32692	
1461	0	32781	32810	32791	32647	32819	32743	32679	32639	
1462	0	32773	32803	32695	32679	32733	32589	32583	32675	
1463	0	32756	32796	32710	32647	32745	32500	32719	32667	
1464	0	32793	32771	32809	32551	32722	32578	32759	32679	
1465	0	32802	32812	32731	32667	32729	32630	32571	32671	
1466	0	32838	32847	32673	32655	32775	32533	32671	32711	
1467	0	32757	32773	32807	32707	32821	32676	32579	32786	
1468	0	32775	32677	32854	32519	32849	32743	32749	32775	
1469	0	32759	32805	32772	32709	32845	32723	32655	32758	
1470	0	32745	32791	32755	32719	32762	32751	32662	32645	
1471	0	32758	32707	32739	32641	32757	32739	32817	32711	
1472	0	32785	32807	32711	32671	32798	32730	32630	32655	
1473	0	32832	32827	32687	32658	32735	32726	32481	32775	
1474	0	32793	32731	32670	32531	32740	32775	32737	32755	
1475	0	32797	32879	32751	32619	32703	32755	32741	32724	
1476	0	32804	32797	32675	32738	32733	32789	32493	32726	
1477	0	32815	32739	32807	32687	32727	32797	32707	32755	
1478	0	32769	32843	32726	32773	32677	32773	32691	32763	
1479	0	32712	32805	32799	32763	32735	32796	32615	32723	
1480	0	32733	32775	32671	32679	32765	32775	32647	32711	
1481	0	32709	32775	32676	32627	32841	32819	32680	32793	
1482	0	32741	32692	32799	32742	32775	32735	32643	32807	
1483	0	32711	32841	32731	32658	32787	32807	32487	32807	
1484	0	32817	32855	32689	32743	32767	32761	32683	32727	
1485	0	32721	32711	32655	32564	32775	32807	32662	32767	
1486	0	32702	32724	32775	32562	32775	32793	32735	32717	
1487	0	32806	32807	32847	32677	32743	32799	32646	32679	
1488	0	32767	32775	32655	32679	32770	32771	32661	32709	
1489	0	32733	32890	32711	32719	32753	32811	32631	32706	
1490	0	32748	32865	32712	32787	32743	32823	32545	32722	
1491	0	32753	32773	32741	32604	32751	32764	32745	32743	
1492	0	32788	32850	32639	32543	32815	32820	32756	32747	
1493	0	32772	32822	32743	32663	32799	32829	32575	32732	
1494	0	32765	32855	32711	32687	32759	32801	32695	32731	
1495	0	32757	32766	32607	32721	32700	32775	32676	32735	
1496	0	32755	32805	32637	32575	32677	32743	32551	32743	
1497	0	32751	32701	32775	32595	32770	32758	32743	32758	
1498	0	32791	32863	32743	32735	32771	32775	32599	32773	
1499	0	32821	32769	32615	32670	32794	32679	32511	32755	
1500	0	32834	32783	32635	32690	32813	32644	32679	32694	
1501	0	32798	32815	32790	32647	32831	32647	32532	32739	
1502	0	32709	32791	32863	32535	32802	32621	32583	32755	
1503	0	32739	32727	32727	32531	32815	32610	32444	32715	
1504	0	32681	32823	32791	32738	32815	32647	32627	32775	
1505	0	32783	32771	32821	32724	32877	32711	32666	32647	
1506	0	32735	32775	32709	32639	32803	32742	32679	32695	
1507	0	32715	32773	32678	32719	32797	32849	32571	32751	
1508	0	32753	32709	32611	32687	32791	32902	32701	32668	
1509	0	32742	32787	32659	32675	32811	32823	32565	32675	
1510	0	32697	32701	32700	32658	32863	32815	32674	32612	
1511	0	32751	32855	32691	32553	32859	32783	32519	32701	
1512	0	32820	32810	32755	32631	32806	32743	32679	32669	
1513	0	32755	32755	32663	32732	32737	32722	32687	32700	
1514	0	32855	32867	32713	32679	32727	32585	32671	32775	
1515	0	32785	32759	32803	32702	32819	32543	32670	32773	
1516	0	32811	32890	32775	32726	32823	32666	32471	32700	
1517	0	32700	32815	32719	32679	32774	32847	32719	32739	
1518	0	32772	32855	32786	32695	32773	32727	32628	32731	
1519	0	32716	32775	32683	32677	32871	32771	32677	32838	
1520	0	32702	32731	32731	32681	32839	32787	32509	32739	
1521	0	32722	32847	32753	32583	32740	32789	32730	32759	
1522	0	32775	32729	32662	32579	32759	32775	32636	32667	
1523	0	32751	32843	32767	32613	32806	32634	32690	32676	
1524	0	32732	32815	32687	32709	32714	32631	32514	32671	
1525	0	32831	32731	32679	32636	32701	32607	32634	32719	
1526	0	32759	32847	32676	32735	32679	32621	32631	32706	
1527	0	32775	32803	32757	32639	32703	32676	32571	32711	
1528	0	32783	32751	32647	32576	32743	32695	32583	32657	
1529	0	32756	32863	32703	32669	32759	32716	32689	32635	
1530	0	32743	32797	32787	32726	32731	32832	32674	32639	
1531	0	32767	32791	32727	32647	32804	32883	32611	32678	
1532	0	32701	32790	32765	32647	32807	32861	32549	32671	
1533	0	32765	32786	32725	32611	32845	32832	32645	32663	
1534	0	32782	32818	32803	32527	32843	32850	32675	32619	
1535	0	32810	32839	32731	32588	32855	32847	32647	32639	
1536	0	32775	32719	32763	32646	32863	32749	32591	32677	
1537	0	32740	32887	32637	32717	32853	32740	32748	32707	
1538	0	32793	32815	32663	32715	32851	32775	32655	32719	
1539	0	32759	32767	32695	32738	32775	32790	32679	32710	
1540	0	32690	32795	32722	32639	32751	32814	32775	32671	
1541	0	32809	32790	32620	32599	32751	32773	32661	32727	
1542	0	32783	32743	32567	32635	32791	32775	32668	32750	
1543	0	32770	32839	32767	32743	32751	32561	32491	32701	
1544	0	32710	32805	32755	32695	32787	32539	32717	32751	
1545	0	32797	32671	32891	32707	32817	32647	32607	32727	
1546	0	32831	32831	32767	32736	32775	32647	32577	32732	
1547	0	32722	32727	32855	32543	32783	32723	32722	32737	
1548	0	32798	32708	32716	32599	32755	32790	32727	32706	
1549	0	32785	32851	32756	32710	32771	32767	32607	32775	
1550	0	32770	32711	32647	32707	32775	32866	32765	32831	
1551	0	32835	32675	32671	32663	32858	32821	32641	32791	
1552	0	32814	32742	32679	32719	32811	32843	32559	32643	
1553	0	32757	32765	32767	32615	32803	32803	32711	32733	
1554	0	32783	32713	32670	32551	32775	32743	32666	32731	
1555	0	32756	32772	32590	32554	32830	32739	32609	32719	
1556	0	32815	32805	32734	32711	32810	32722	32737	32853	
1557	0	32797	32739	32738	32695	32775	32743	32581	32743	
1558	0	32736	32839	32703	32736	32756	32789	32591	32727	
1559	0	32703	32823	32615	32735	32812	32791	32538	32735	
1560	0	32738	32735	32767	32706	32759	32765	32663	32717	
1561	0	32715	32831	32683	32645	32755	32803	32703	32677	
1562	0	32713	32788	32711	32583	32711	32785	32575	32733	
1563	0	32676	32825	32678	32543	32757	32735	32659	32701	
1564	0	32678	32775	32687	32661	32746	32595	32692	32689	
1565	0	32706	32743	32708	32669	32711	32807	32743	32738	
1566	0	32753	32787	32737	32700	32767	32775	32594	32709	
1567	0	32775	32775	32655	32666	32789	32758	32699	32762	
1568	0	32792	32775	32794	32735	32815	32723	32700	32775	
1569	0	32846	32765	32711	32555	32799	32719	32499	32775	
1570	0	32806	32871	32735	32660	32774	32759	32691	32765	
1571	0	32743	32804	32703	32761	32711	32802	32714	32827	
1572	0	32783	32751	32723	32655	32738	32694	32631	32783	
1573	0	32725	32766	32807	32655	32758	32767	32638	32806	
1574	0	32803	32797	32647	32525	32739	32851	32647	32755	
1575	0	32812	32775	32748	32610	32771	32809	32597	32689	
1576	0	32740	32806	32739	32671	32831	32775	32727	32655	
1577	0	32700	32821	32711	32713	32767	32847	32703	32674	
1578	0	32729	32791	32713	32663	32713	32823	32531	32647	
1579	0	32748	32707	32700	32519	32671	32775	32770	32669	
1580	0	32726	32775	32631	32646	32707	32783	32740	32663	
1581	0	32716	32846	32689	32671	32695	32863	32549	32655	
1582	0	32676	32739	32747	32687	32767	32717	32662	32655	
1583	0	32735	32730	32647	32501	32799	32727	32621	32663	
1584	0	32732	32727	32718	32708	32775	32725	32738	32683	
1585	0	32766	32819	32743	32690	32743	32547	32687	32789	
1586	0	32773	32739	32692	32635	32803	32605	32605	32735	
1587	0	32692	32679	32727	32572	32759	32570	32716	32607	
1588	0	32730	32855	32807	32711	32799	32751	32671	32647	
1589	0	32721	32822	32759	32515	32751	32663	32670	32647	
1590	0	32775	32772	32607	32765	32740	32629	32585	32599	
1591	0	32799	32851	32681	32671	32723	32626	32719	32621	
1592	0	32806	32841	32782	32662	32769	32684	32699	32666	
1593	0	32802	32775	32687	32647	32775	32647	32615	32671	
1594	0	32799	32831	32735	32531	32855	32595	32711	32695	
1595	0	32789	32847	32758	32683	32853	32549	32551	32767	
1596	0	32766	32875	32831	32691	32783	32577	32769	32759	
1597	0	32759	32711	32720	32743	32815	32549	32693	32731	
1598	0	32765	32807	32727	32610	32801	32577	32535	32731	
1599	0	32759	32823	32667	32647	32833	32555	32622	32759	
1600	0	32750	32763	32685	32663	32831	32726	32671	32715	
1601	0	32753	32862	32759	32655	32869	32731	32555	32745	
1602	0	32798	32795	32804	32703	32775	32745	32627	32738	
1603	0	32775	32734	32687	32582	32749	32767	32501	32711	
1604	0	32785	32883	32737	32583	32749	32759	32712	32743	
1605	0	32774	32805	32767	32756	32743	32717	32613	32790	
1606	0	32783	32795	32703	32683	32802	32787	32623	32661	
1607	0	32711	32663	32687	32593	32850	32815	32717	32655	
1608	0	32760	32743	32639	32710	32743	32887	32572	32639	
1609	0	32762	32767	32659	32679	32758	32807	32641	32647	
1610	0	32775	32855	32639	32719	32763	32851	32685	32647	
1611	0	32692	32775	32719	32686	32823	32887	32571	32698	
1612	0	32685	32775	32708	32510	32759	32799	32587	32775	
1613	0	32677	32743	32725	32578	32786	32887	32635	32743	
1614	0	32751	32807	32775	32673	32767	32823	32507	32775	
1615	0	32767	32863	32647	32655	32757	32761	32631	32775	
1616	0	32769	32767	32722	32639	32757	32723	32517	32775	
1617	0	32725	32687	32775	32543	32759	32674	32700	32765	
1618	0	32753	32740	32767	32594	32766	32715	32620	32755	
1619	0	32784	32735	32679	32736	32722	32639	32615	32727	
1620	0	32793	32748	32705	32729	32740	32567	32486	32749	
1621	0	32762	32799	32751	32617	32846	32563	32636	32743	
1622	0	32772	32793	32727	32495	32861	32586	32642	32813	
1623	0	32788	32811	32798	32727	32767	32583	32733	32775	
1624	0	32770	32775	32854	32727	32751	32591	32645	32789	
1625	0	32751	32737	32729	32703	32743	32647	32647	32708	
1626	0	32759	32711	32705	32743	32739	32726	32662	32749	
1627	0	32736	32765	32690	32727	32811	32870	32503	32743	
1628	0	32759	32807	32809	32700	32686	32870	32756	32735	
1629	0	32732	32727	32771	32727	32677	32803	32663	32759	
1630	0	32734	32855	32663	32583	32717	32831	32643	32722	
1631	0	32727	32820	32834	32693	32746	32692	32715	32696	
1632	0	32786	32809	32749	32751	32737	32691	32685	32756	
1633	0	32790	32743	32640	32695	32775	32613	32501	32700	
1634	0	32825	32861	32759	32775	32796	32605	32775	32719	
1635	0	32735	32815	32754	32571	32799	32565	32662	32759	
1636	0	32740	32719	32601	32711	32791	32644	32471	32725	
1637	0	32769	32822	32605	32743	32775	32611	32582	32733	
1638	0	32684	32703	32732	32621	32775	32599	32631	32775	
1639	0	32717	32807	32765	32671	32838	32621	32575	32730	
1640	0	32756	32775	32643	32695	32807	32643	32491	32775	
1641	0	32757	32837	32695	32551	32742	32607	32679	32783	
1642	0	32759	32743	32698	32527	32719	32639	32717	32759	
1643	0	32758	32738	32663	32812	32763	32679	32548	32700	
1644	0	32767	32695	32647	32783	32767	32763	32707	32719	
1645	0	32769	32739	32734	32709	32740	32755	32606	32771	
1646	0	32736	32741	32643	32653	32749	32826	32679	32763	
1647	0	32709	32717	32775	32705	32751	32839	32565	32663	
1648	0	32743	32694	32739	32688	32743	32775	32663	32679	
1649	0	32775	32703	32694	32698	32731	32761	32700	32633	
1650	0	32838	32831	32719	32708	32743	32801	32790	32639	
1651	0	32742	32811	32661	32692	32767	32783	32583	32751	
1652	0	32769	32837	32727	32623	32803	32771	32769	32775	
1653	0	32775	32819	32735	32533	32775	32767	32663	32765	
1654	0	32817	32799	32691	32679	32771	32785	32647	32775	
1655	0	32815	32773	32661	32691	32735	32727	32617	32729	
1656	0	32719	32812	32727	32623	32709	32731	32690	32711	
1657	0	32793	32695	32711	32677	32813	32795	32687	32803	
1658	0	32762	32877	32715	32763	32763	32807	32567	32743	
1659	0	32775	32823	32695	32591	32818	32839	32731	32803	
1660	0	32759	32735	32679	32527	32813	32825	32691	32683	
1661	0	32730	32769	32729	32591	32814	32595	32666	32703	
1662	0	32684	32735	32625	32739	32839	32607	32551	32642	
1663	0	32703	32757	32709	32703	32864	32749	32695	32647	
1664	0	32749	32799	32755	32671	32867	32805	32647	32646	
1665	0	32687	32726	32763	32727	32873	32787	32717	32663	
1666	0	32769	32806	32691	32748	32794	32806	32739	32738	
1667	0	32774	32727	32693	32742	32812	32724	32519	32707	
1668	0	32784	32839	32775	32589	32830	32567	32690	32727	
1669	0	32775	32775	32719	32531	32892	32573	32673	32687	
1670	0	32804	32701	32743	32615	32807	32639	32689	32729	
1671	0	32775	32850	32657	32754	32821	32671	32551	32723	
1672	0	32799	32835	32790	32747	32772	32775	32663	32663	
1673	0	32799	32803	32783	32735	32775	32815	32751	32647	
1674	0	32745	32689	32702	32631	32786	32763	32771	32749	
1675	0	32758	32831	32717	32534	32739	32847	32694	32693	
1676	0	32788	32806	32743	32668	32742	32824	32647	32735	
1677	0	32773	32788	32742	32730	32709	32762	32679	32773	
1678	0	32759	32742	32647	32715	32751	32743	32625	32775	
1679	0	32737	32766	32687	32685	32727	32695	32679	32747	
1680	0	32724	32801	32716	32775	32786	32695	32527	32663	
1681	0	32775	32819	32763	32690	32795	32791	32637	32687	
1682	0	32726	32735	32689	32551	32805	32639	32724	32719	
1683	0	32783	32803	32813	32621	32807	32583	32647	32722	
1684	0	32769	32829	32719	32797	32775	32647	32623	32663	
1685	0	32741	32706	32708	32751	32754	32703	32761	32669	
1686	0	32748	32735	32599	32745	32775	32642	32623	32699	
1687	0	32775	32755	32636	32699	32763	32695	32583	32684	
1688	0	32747	32787	32665	32657	32862	32620	32742	32762	
1689	0	32837	32763	32644	32731	32859	32647	32681	32719	
1690	0	32767	32751	32756	32647	32790	32677	32620	32751	
1691	0	32820	32823	32775	32658	32771	32794	32527	32759	
1692	0	32759	32775	32733	32671	32775	32811	32687	32819	
1693	0	32735	32771	32632	32615	32711	32799	32655	32740	
1694	0	32732	32935	32695	32516	32705	32861	32575	32723	
1695	0	32748	32743	32747	32725	32759	32838	32690	32735	
1696	0	32775	32724	32687	32724	32825	32799	32647	32736	
1697	0	32768	32811	32761	32711	32759	32775	32615	32743	
1698	0	32775	32773	32753	32735	32786	32757	32631	32754	
1699	0	32799	32678	32782	32583	32767	32762	32635	32739	
1700	0	32802	32809	32679	32625	32799	32827	32799	32613	
1701	0	32786	32819	32775	32813	32838	32751	32697	32719	
1702	0	32756	32733	32733	32698	32791	32769	32509	32798	
1703	0	32782	32788	32681	32748	32742	32763	32631	32717	
1704	0	32757	32807	32699	32647	32756	32787	32634	32785	
1705	0	32763	32735	32722	32709	32829	32801	32561	32775	
1706	0	32761	32699	32786	32711	32735	32751	32658	32807	
1707	0	32716	32739	32731	32647	32749	32775	32723	32660	
1708	0	32748	32719	32619	32698	32745	32614	32567	32707	
1709	0	32812	32767	32643	32738	32791	32553	32732	32671	
1710	0	32757	32775	32681	32635	32770	32583	32626	32745	
1711	0	32756	32711	32727	32631	32791	32573	32605	32717	
1712	0	32701	32738	32705	32679	32847	32639	32663	32707	
1713	0	32728	32887	32858	32600	32742	32629	32623	32678	
1714	0	32740	32775	32740	32695	32759	32661	32513	32671	
1715	0	32745	32775	32759	32615	32775	32726	32783	32661	
1716	0	32758	32845	32631	32548	32735	32735	32646	32647	
1717	0	32780	32815	32715	32503	32790	32811	32591	32675	
1718	0	32764	32819	32698	32637	32863	32804	32735	32681	
1719	0	32677	32722	32819	32719	32813	32875	32605	32739	
1720	0	32663	32839	32693	32671	32789	32829	32711	32725	
1721	0	32762	32839	32684	32668	32837	32807	32564	32711	
1722	0	32757	32723	32809	32734	32785	32821	32637	32663	
1723	0	32686	32775	32734	32675	32817	32775	32663	32679	
1724	0	32703	32775	32723	32711	32797	32775	32748	32717	
1725	0	32724	32695	32674	32637	32725	32743	32569	32807	
1726	0	32706	32735	32690	32612	32713	32570	32494	32703	
1727	0	32806	32734	32791	32599	32802	32535	32679	32671	
1728	0	32772	32811	32758	32771	32854	32581	32660	32667	
1729	0	32775	32749	32735	32662	32827	32583	32599	32662	
1730	0	32828	32795	32758	32687	32725	32844	32709	32784	
1731	0	32760	32815	32750	32639	32711	32765	32613	32668	
1732	0	32759	32799	32810	32503	32793	32819	32655	32655	
1733	0	32782	32877	32727	32510	32805	32645	32511	32679	
1734	0	32743	32791	32666	32645	32815	32595	32647	32639	
1735	0	32772	32855	32725	32759	32788	32549	32673	32663	
1736	0	32791	32854	32719	32717	32827	32582	32639	32717	
1737	0	32765	32807	32791	32681	32782	32639	32459	32729	
1738	0	32698	32795	32643	32691	32775	32695	32708	32763	
1739	0	32745	32740	32669	32703	32807	32815	32737	32788	
1740	0	32754	32891	32782	32719	32725	32797	32685	32745	
1741	0	32785	32789	32775	32587	32763	32815	32502	32819	
1742	0	32686	32775	32671	32690	32799	32694	32687	32735	
1743	0	32711	32749	32810	32679	32903	32747	32733	32799	
1744	0	32802	32787	32879	32687	32835	32797	32549	32738	
1745	0	32766	32799	32855	32663	32738	32743	32783	32738	
1746	0	32839	32719	32663	32699	32783	32773	32589	32690	
1747	0	32801	32687	32859	32563	32739	32694	32567	32719	
1748	0	32820	32826	32825	32591	32795	32687	32757	32729	
1749	0	32771	32767	32732	32739	32743	32727	32667	32713	
1750	0	32763	32754	32703	32727	32769	32831	32647	32775	
1751	0	32751	32885	32750	32703	32747	32863	32703	32687	
1752	0	32724	32887	32742	32679	32691	32789	32670	32647	
1753	0	32796	32727	32647	32677	32731	32757	32513	32671	
1754	0	32775	32815	32654	32710	32731	32706	32719	32745	
1755	0	32775	32807	32692	32705	32775	32702	32775	32767	
1756	0	32791	32742	32775	32739	32786	32681	32675	32815	
1757	0	32722	32823	32759	32647	32775	32507	32591	32829	
1758	0	32723	32799	32793	32605	32713	32586	32639	32827	
1759	0	32710	32786	32634	32531	32759	32612	32549	32785	
1760	0	32726	32831	32655	32532	32724	32691	32719	32831	
1761	0	32711	32725	32710	32518	32751	32787	32700	32707	
1762	0	32785	32775	32739	32571	32719	32775	32661	32703	
1763	0	32707	32727	32855	32612	32795	32775	32663	32700	
1764	0	32745	32852	32783	32605	32868	32703	32647	32669	
1765	0	32793	32766	32799	32575	32815	32595	32685	32681	
1766	0	32754	32743	32786	32607	32796	32630	32679	32679	
1767	0	32690	32775	32647	32663	32767	32663	32609	32655	
1768	0	32780	32713	32676	32773	32773	32815	32539	32669	
1769	0	32822	32831	32727	32699	32743	32861	32587	32733	
1770	0	32778	32733	32711	32685	32703	32743	32525	32740	
1771	0	32839	32859	32658	32627	32662	32735	32549	32687	
1772	0	32826	32927	32789	32579	32735	32607	32605	32759	
1773	0	32807	32806	32765	32607	32807	32773	32751	32666	
1774	0	32781	32844	32677	32589	32749	32854	32749	32675	
1775	0	32765	32773	32742	32695	32812	32804	32674	32659	
1776	0	32745	32831	32978	32667	32791	32767	32639	32608	
1777	0	32706	32784	32767	32641	32758	32747	32605	32674	
1778	0	32773	32750	32788	32679	32727	32583	32538	32683	
1779	0	32781	32743	32707	32638	32759	32641	32555	32730	
1780	0	32713	32684	32633	32684	32755	32754	32605	32773	
1781	0	32793	32799	32631	32729	32754	32902	32775	32743	
1782	0	32761	32769	32655	32630	32749	32761	32767	32766	
1783	0	32758	32775	32773	32761	32775	32766	32722	32705	
1784	0	32722	32807	32701	32671	32795	32748	32705	32676	
1785	0	32698	32709	32701	32679	32735	32677	32775	32700	
1786	0	32680	32863	32719	32519	32751	32607	32591	32591	
1787	0	32735	32839	32687	32556	32763	32766	32590	32599	
1788	0	32804	32749	32702	32559	32700	32854	32647	32727	
1789	0	32775	32819	32727	32755	32727	32815	32827	32807	
1790	0	32788	32719	32721	32797	32730	32727	32739	32745	
1791	0	32791	32775	32662	32669	32690	32698	32699	32761	
1792	0	32822	32852	32710	32647	32735	32695	32631	32757	
1793	0	32783	32771	32739	32717	32757	32735	32647	32727	
1794	0	32786	32811	32673	32693	32719	32798	32739	32713	
1795	0	32788	32819	32639	32557	32775	32751	32655	32751	
1796	0	32798	32807	32749	32543	32724	32699	32662	32687	
1797	0	32745	32835	32742	32615	32767	32566	32540	32755	
1798	0	32746	32885	32678	32772	32820	32567	32678	32807	
1799	0	32753	32751	32743	32678	32803	32687	32614	32720	
1800	0	32763	32819	32815	32721	32831	32804	32659	32647	
1801	0	32729	32805	32775	32687	32837	32855	32615	32685	
1802	0	32717	32687	32791	32681	32839	32814	32551	32702	
1803	0	32764	32787	32775	32645	32791	32775	32677	32703	
1804	0	32745	32788	32725	32775	32797	32793	32611	32764	
1805	0	32773	32687	32831	32767	32805	32740	32687	32743	
1806	0	32815	32727	32815	32617	32823	32751	32701	32751	
1807	0	32775	32717	32765	32583	32871	32735	32463	32719	
1808	0	32775	32674	32722	32599	32821	32563	32773	32735	
1809	0	32765	32845	32731	32759	32835	32645	32642	32783	
1810	0	32765	32775	32775	32730	32870	32707	32556	32703	
1811	0	32694	32759	32811	32659	32845	32749	32655	32639	
1812	0	32759	32799	32823	32699	32836	32901	32573	32667	
1813	0	32729	32787	32617	32713	32813	32847	32633	32621	
1814	0	32775	32903	32701	32715	32786	32815	32770	32639	
1815	0	32786	32820	32715	32565	32781	32773	32636	32607	
1816	0	32788	32863	32731	32533	32751	32745	32771	32726	
1817	0	32757	32739	32631	32496	32759	32573	32663	32787	
1818	0	32741	32813	32750	32563	32835	32589	32579	32703	
1819	0	32722	32802	32839	32611	32807	32639	32605	32797	
1820	0	32780	32795	32850	32631	32838	32797	32708	32775	
1821	0	32737	32854	32883	32626	32793	32885	32731	32775	
1822	0	32748	32819	32663	32652	32762	32875	32719	32691	
1823	0	32691	32711	32734	32630	32757	32839	32605	32674	
1824	0	32681	32841	32695	32662	32775	32753	32555	32687	
1825	0	32681	32791	32743	32706	32788	32743	32711	32691	
1826	0	32710	32731	32571	32599	32751	32759	32634	32751	
1827	0	32723	32775	32663	32463	32756	32837	32711	32663	
1828	0	32738	32783	32673	32535	32767	32607	32644	32594	
1829	0	32766	32691	32770	32633	32790	32647	32517	32711	
1830	0	32775	32783	32676	32783	32742	32643	32711	32727	
1831	0	32775	32834	32679	32727	32749	32593	32607	32647	
1832	0	32764	32755	32745	32717	32740	32594	32583	32742	
1833	0	32804	32801	32775	32647	32863	32640	32583	32765	
1834	0	32728	32789	32679	32717	32775	32692	32715	32815	
1835	0	32796	32701	32615	32803	32833	32756	32673	32775	
1836	0	32731	32852	32759	32805	32784	32863	32699	32702	
1837	0	32774	32801	32687	32749	32807	32847	32615	32751	
1838	0	32765	32705	32712	32575	32783	32788	32610	32754	
1839	0	32769	32810	32639	32591	32775	32791	32775	32694	
1840	0	32754	32775	32643	32590	32818	32749	32767	32658	
1841	0	32731	32791	32591	32535	32775	32743	32683	32642	
1842	0	32766	32791	32629	32561	32797	32755	32663	32647	
1843	0	32783	32693	32699	32597	32791	32743	32749	32687	
1844	0	32775	32903	32783	32729	32791	32621	32607	32749	
1845	0	32782	32743	32691	32737	32830	32726	32655	32702	
1846	0	32727	32727	32684	32727	32748	32620	32748	32731	
1847	0	32760	32775	32775	32715	32795	32645	32739	32749	
1848	0	32804	32775	32699	32654	32829	32613	32724	32703	
1849	0	32775	32749	32745	32739	32827	32629	32604	32766	
1850	0	32775	32763	32668	32694	32821	32703	32607	32633	
1851	0	32746	32758	32775	32605	32813	32621	32700	32685	
1852	0	32765	32717	32775	32565	32775	32685	32655	32687	
1853	0	32754	32821	32733	32519	32790	32747	32754	32703	
1854	0	32750	32763	32687	32519	32819	32839	32743	32671	
1855	0	32765	32817	32709	32562	32759	32863	32647	32788	
1856	0	32811	32845	32770	32742	32831	32811	32482	32862	
1857	0	32764	32772	32679	32695	32734	32731	32532	32762	
1858	0	32726	32791	32727	32751	32843	32775	32714	32757	
1859	0	32743	32755	32645	32687	32771	32751	32639	32786	
1860	0	32790	32854	32775	32639	32769	32763	32636	32711	
1861	0	32736	32795	32775	32579	32807	32717	32647	32791	
1862	0	32708	32831	32757	32627	32723	32735	32711	32591	
1863	0	32738	32751	32869	32673	32807	32755	32669	32577	
1864	0	32737	32819	32671	32713	32789	32623	32519	32662	
1865	0	32759	32711	32679	32738	32811	32604	32451	32719	
1866	0	32735	32812	32743	32711	32819	32617	32766	32775	
1867	0	32731	32827	32698	32647	32749	32711	32749	32711	
1868	0	32751	32711	32730	32607	32762	32775	32663	32706	
1869	0	32794	32871	32663	32549	32741	32758	32693	32711	
1870	0	32749	32807	32655	32615	32743	32879	32709	32747	
1871	0	32782	32861	32751	32518	32786	32843	32566	32643	
1872	0	32780	32803	32727	32617	32775	32815	32655	32613	
1873	0	32840	32771	32665	32596	32719	32775	32771	32727	
1874	0	32831	32863	32647	32599	32775	32751	32739	32869	
1875	0	32795	32767	32586	32599	32831	32806	32708	32799	
1876	0	32814	32749	32714	32703	32775	32569	32669	32743	
1877	0	32815	32838	32681	32714	32755	32575	32551	32711	
1878	0	32716	32747	32751	32663	32751	32607	32590	32747	
1879	0	32775	32810	32556	32670	32775	32620	32755	32751	
1880	0	32780	32751	32620	32718	32850	32771	32743	32677	
1881	0	32768	32741	32702	32694	32807	32817	32671	32643	
1882	0	32680	32787	32749	32703	32799	32845	32684	32637	
1883	0	32759	32794	32749	32767	32751	32903	32655	32668	
1884	0	32782	32717	32551	32570	32693	32903	32525	32687	
1885	0	32736	32767	32647	32487	32687	32865	32516	32644	
1886	0	32807	32771	32571	32631	32785	32790	32707	32691	
1887	0	32761	32658	32575	32647	32740	32799	32698	32695	
1888	0	32712	32799	32690	32618	32839	32804	32673	32759	
1889	0	32738	32775	32799	32743	32863	32795	32720	32747	
1890	0	32727	32727	32775	32698	32789	32758	32557	32749	
1891	0	32694	32825	32823	32605	32774	32765	32531	32739	
1892	0	32745	32743	32786	32579	32759	32757	32564	32820	
1893	0	32783	32887	32691	32545	32823	32789	32795	32711	
1894	0	32791	32879	32745	32583	32823	32663	32677	32791	
1895	0	32746	32847	32693	32679	32782	32614	32681	32775	
1896	0	32725	32835	32771	32703	32823	32567	32663	32795	
1897	0	32729	32762	32673	32733	32855	32595	32543	32641	
1898	0	32793	32845	32647	32719	32739	32647	32736	32695	
1899	0	32775	32871	32767	32731	32847	32590	32699	32678	
1900	0	32775	32775	32735	32594	32809	32689	32709	32658	
1901	0	32756	32851	32677	32683	32775	32678	32558	32647	
1902	0	32818	32775	32619	32721	32771	32711	32717	32671	
1903	0	32732	32705	32751	32647	32735	32668	32703	32691	
1904	0	32753	32761	32803	32727	32697	32759	32734	32593	
1905	0	32741	32789	32681	32690	32722	32679	32614	32723	
1906	0	32762	32733	32703	32591	32747	32611	32685	32732	
1907	0	32733	32767	32703	32675	32743	32647	32745	32647	
1908	0	32734	32755	32607	32713	32743	32637	32731	32647	
1909	0	32692	32743	32613	32723	32796	32671	32718	32647	
1910	0	32749	32785	32741	32683	32771	32635	32531	32607	
1911	0	32757	32815	32748	32683	32787	32597	32717	32630	
1912	0	32778	32807	32587	32595	32831	32643	32647	32662	
1913	0	32732	32855	32681	32511	32891	32631	32578	32754	
1914	0	32742	32784	32764	32466	32871	32729	32681	32763	
1915	0	32732	32748	32660	32687	32787	32713	32586	32737	
1916	0	32745	32797	32671	32667	32762	32775	32548	32685	
1917	0	32766	32791	32635	32655	32724	32879	32700	32706	
1918	0	32711	32839	32771	32647	32695	32791	32671	32745	
1919	0	32736	32813	32631	32647	32727	32784	32676	32813	
1920	0	32756	32783	32629	32727	32745	32807	32711	32741	
1921	0	32749	32731	32535	32729	32719	32765	32655	32644	
1922	0	32740	32676	32583	32562	32735	32759	32524	32631	
1923	0	32772	32767	32719	32671	32715	32741	32587	32663	
1924	0	32734	32675	32717	32602	32731	32570	32731	32703	
1925	0	32764	32815	32737	32661	32791	32567	32607	32667	
1926	0	32729	32733	32667	32772	32813	32535	32624	32677	
1927	0	32757	32679	32603	32679	32703	32588	32556	32725	
1928	0	32796	32749	32660	32711	32742	32763	32467	32743	
1929	0	32754	32703	32815	32687	32771	32763	32530	32659	
1930	0	32743	32798	32751	32735	32759	32791	32633	32799	
1931	0	32772	32767	32758	32697	32851	32823	32775	32662	
1932	0	32740	32767	32775	32647	32807	32791	32660	32609	
1933	0	32850	32775	32679	32597	32819	32623	32684	32631	
1934	0	32811	32747	32635	32687	32759	32639	32726	32721	
1935	0	32796	32766	32671	32719	32749	32727	32631	32732	
1936	0	32791	32735	32688	32623	32695	32685	32591	32762	
1937	0	32775	32873	32647	32583	32791	32699	32691	32775	
1938	0	32790	32847	32591	32613	32758	32833	32723	32702	
1939	0	32700	32723	32700	32739	32719	32887	32734	32726	
1940	0	32768	32829	32818	32711	32795	32862	32575	32679	
1941	0	32679	32735	32837	32751	32775	32771	32551	32775	
1942	0	32804	32820	32679	32707	32806	32738	32597	32605	
1943	0	32815	32823	32633	32667	32798	32743	32835	32710	
1944	0	32718	32775	32743	32739	32693	32573	32759	32679	
1945	0	32742	32831	32739	32679	32759	32626	32677	32658	
1946	0	32763	32799	32781	32547	32769	32669	32621	32647	
1947	0	32797	32709	32799	32525	32798	32839	32641	32775	
1948	0	32783	32833	32647	32631	32749	32831	32714	32751	
1949	0	32814	32740	32638	32631	32775	32819	32500	32743	
1950	0	32806	32811	32717	32631	32803	32837	32603	32743	
1951	0	32816	32825	32758	32669	32815	32711	32775	32739	
1952	0	32773	32869	32735	32711	32821	32561	32787	32687	
1953	0	32817	32815	32735	32743	32823	32557	32709	32694	
1954	0	32844	32771	32621	32679	32839	32551	32567	32671	
1955	0	32812	32823	32571	32671	32827	32615	32655	32659	
1956	0	32707	32701	32695	32732	32863	32663	32516	32615	
1957	0	32729	32807	32721	32692	32811	32767	32546	32621	
1958	0	32727	32789	32727	32709	32806	32743	32495	32735	
1959	0	32732	32751	32631	32645	32793	32764	32591	32763	
1960	0	32765	32768	32623	32543	32751	32763	32743	32743	
1961	0	32766	32699	32727	32539	32839	32750	32708	32738	
1962	0	32720	32783	32817	32610	32866	32552	32585	32683	
1963	0	32761	32721	32797	32718	32851	32564	32687	32726	
1964	0	32748	32871	32719	32748	32789	32747	32687	32721	
1965	0	32724	32739	32639	32699	32807	32875	32599	32647	
1966	0	32789	32841	32655	32615	32807	32801	32573	32638	
1967	0	32832	32807	32719	32691	32831	32813	32775	32677	
1968	0	32799	32802	32767	32720	32859	32775	32731	32642	
1969	0	32782	32815	32698	32575	32823	32813	32699	32639	
1970	0	32820	32851	32773	32659	32790	32875	32685	32695	
1971	0	32850	32829	32735	32686	32775	32764	32583	32668	
1972	0	32780	32844	32775	32647	32719	32770	32571	32684	
1973	0	32719	32820	32699	32683	32740	32749	32735	32686	
1974	0	32748	32797	32683	32687	32743	32806	32715	32791	
1975	0	32726	32731	32797	32647	32751	32647	32593	32766	
1976	0	32703	32821	32715	32687	32767	32775	32666	32815	
1977	0	32703	32754	32738	32642	32749	32813	32535	32790	
1978	0	32708	32735	32611	32665	32727	32565	32538	32786	
1979	0	32765	32786	32655	32709	32815	32674	32607	32751	
1980	0	32701	32765	32759	32611	32795	32802	32791	32730	
1981	0	32773	32855	32756	32518	32745	32879	32661	32711	
1982	0	32702	32843	32833	32647	32771	32775	32699	32674	
1983	0	32656	32735	32775	32734	32790	32789	32718	32655	
1984	0	32729	32807	32783	32703	32825	32850	32677	32677	
1985	0	32721	32763	32686	32735	32871	32807	32643	32566	
1986	0	32735	32835	32827	32695	32817	32775	32622	32647	
1987	0	32758	32751	32839	32727	32807	32771	32555	32663	
1988	0	32805	32807	32807	32733	32817	32839	32631	32677	
1989	0	32797	32797	32681	32743	32758	32796	32665	32787	
1990	0	32799	32788	32723	32749	32831	32743	32711	32743	
1991	0	32785	32773	32735	32636	32783	32735	32695	32724	
1992	0	32812	32761	32727	32548	32711	32770	32524	32775	
1993	0	32815	32839	32631	32802	32711	32690	32751	32735	
1994	0	32890	32871	32687	32787	32749	32539	32767	32767	
1995	0	32865	32887	32663	32814	32758	32588	32740	32699	
1996	0	32892	32837	32695	32807	32813	32581	32723	32655	
1997	0	32860	32759	32751	32662	32743	32563	32673	32665	
1998	0	32863	32835	32679	32767	32735	32576	32682	32697	
1999	0	32783	32807	32646	32749	32775	32767	32550	32687	
2000	0	32764	32770	32599	32787	32811	32839	32501	32831	
2001	0	32866	32829	32709	32691	32833	32773	32607	32829	
2002	0	32802	32647	32679	32614	32814	32831	32695	32817	
2003	0	32724	32763	32755	32640	32854	32813	32599	32799	
2004	0	32769	32742	32683	32686	32863	32797	32695	32741	
2005	0	32711	32695	32671	32775	32791	32722	32679	32718	
2006	0	32762	32789	32729	32763	32871	32743	32532	32750	
2007	0	32739	32686	32739	32679	32807	32715	32503	32691	
2008	0	32767	32726	32700	32711	32775	32839	32695	32751	
2009	0	32790	32799	32583	32617	32737	32735	32556	32707	
2010	0	32786	32695	32814	32509	32671	32739	32746	32753	
2011	0	32807	32775	32641	32767	32795	32743	32631	32694	
2012	0	32812	32783	32707	32701	32772	32739	32533	32631	
2013	0	32781	32747	32647	32679	32773	32769	32563	32623	
2014	0	32819	32719	32725	32705	32831	32791	32675	32775	
2015	0	32800	32839	32722	32487	32845	32834	32663	32743	
2016	0	32786	32823	32711	32611	32886	32855	32751	32791	
2017	0	32729	32757	32577	32607	32801	32811	32647	32711	
2018	0	32756	32843	32747	32655	32722	32823	32615	32772	
2019	0	32765	32834	32893	32642	32811	32890	32727	32795	
2020	0	32835	32775	32799	32669	32804	32806	32691	32675	
2021	0	32762	32804	32703	32717	32773	32775	32671	32673	
2022	0	32714	32809	32791	32604	32700	32791	32710	32667	
2023	0	32694	32813	32803	32630	32727	32753	32723	32681	
2024	0	32702	32739	32869	32643	32775	32809	32576	32711	
2025	0	32675	32717	32727	32733	32839	32766	32707	32727	
2026	0	32722	32807	32727	32726	32759	32748	32659	32797	
2027	0	32774	32757	32743	32713	32743	32763	32713	32767	
2028	0	32756	32711	32738	32685	32730	32797	32722	32775	
2029	0	32808	32813	32711	32643	32717	32805	32643	32783	
2030	0	32784	32754	32703	32655	32747	32571	32529	32791	
2031	0	32775	32889	32726	32567	32715	32583	32755	32741	
2032	0	32769	32851	32717	32543	32703	32623	32679	32647	
2033	0	32791	32726	32729	32599	32775	32581	32708	32631	
2034	0	32793	32775	32675	32739	32703	32637	32647	32636	
2035	0	32809	32726	32647	32743	32759	32773	32561	32599	
2036	0	32783	32839	32678	32631	32751	32854	32775	32626	
2037	0	32758	32807	32767	32647	32751	32855	32647	32606	
2038	0	32775	32721	32804	32729	32791	32775	32647	32647	
2039	0	32770	32741	32765	32621	32786	32743	32543	32663	
2040	0	32752	32759	32767	32606	32795	32767	32805	32751	
2041	0	32732	32775	32730	32675	32860	32599	32647	32676	
2042	0	32751	32715	32733	32647	32819	32647	32639	32725	
2043	0	32761	32726	32631	32783	32743	32619	32565	32787	
2044	0	32745	32762	32699	32742	32759	32621	32767	32717	
2045	0	32806	32796	32731	32507	32719	32632	32628	32743	
2046	0	32788	32699	32726	32759	32738	32569	32666	32765	
2047	0	32754	32740	32619	32629	32775	32535	32503	32743	
2048	0	32758	32790	32731	32645	32823	32607	32713	32731	
2049	0	32751	32783	32737	32775	32763	32545	32615	32705	
2050	0	32809	32765	32642	32540	32790	32594	32679	32703	
2051	0	32788	32855	32703	32681	32831	32643	32501	32731	
2052	0	32813	32839	32762	32699	32835	32595	32543	32738	
2053	0	32797	32759	32683	32671	32797	32593	32767	32695	
2054	0	32804	32833	32787	32669	32810	32678	32707	32731	
2055	0	32716	32775	32703	32723	32815	32647	32671	32699	
2056	0	32722	32871	32739	32739	32839	32775	32683	32759	
2057	0	32766	32793	32804	32679	32819	32833	32518	32711	
2058	0	32743	32829	32775	32478	32733	32765	32679	32705	
2059	0	32688	32731	32598	32695	32738	32871	32644	32730	
2060	0	32781	32839	32703	32763	32717	32833	32678	32767	
2061	0	32737	32834	32749	32711	32759	32829	32581	32737	
2062	0	32791	32671	32733	32785	32773	32756	32799	32783	
2063	0	32694	32775	32667	32710	32742	32846	32708	32732	
2064	0	32756	32775	32693	32599	32823	32847	32730	32830	
2065	0	32698	32702	32703	32758	32823	32839	32667	32756	
2066	0	32693	32715	32799	32759	32813	32850	32557	32749	
2067	0	32759	32811	32594	32675	32815	32850	32775	32775	
2068	0	32748	32703	32789	32715	32810	32791	32625	32803	
2069	0	32769	32811	32721	32681	32807	32847	32683	32791	
2070	0	32758	32827	32757	32501	32834	32798	32691	32692	
2071	0	32740	32751	32608	32519	32841	32799	32519	32733	
2072	0	32725	32791	32647	32629	32758	32743	32791	32767	
2073	0	32734	32759	32709	32733	32789	32790	32675	32735	
2074	0	32796	32843	32621	32679	32791	32775	32799	32679	
2075	0	32850	32844	32591	32711	32758	32755	32562	32742	
2076	0	32770	32719	32603	32730	32771	32788	32583	32747	
2077	0	32792	32811	32788	32647	32756	32590	32615	32753	
2078	0	32734	32817	32709	32524	32721	32607	32755	32727	
2079	0	32775	32720	32745	32719	32742	32611	32759	32798	
2080	0	32741	32759	32685	32663	32738	32599	32551	32759	
2081	0	32727	32794	32911	32686	32799	32635	32543	32795	
2082	0	32703	32741	32799	32727	32805	32639	32607	32790	
2083	0	32729	32791	32721	32587	32807	32598	32711	32775	
2084	0	32703	32767	32685	32543	32725	32641	32571	32823	
2085	0	32745	32767	32743	32791	32831	32668	32660	32771	
2086	0	32703	32745	32692	32677	32791	32790	32647	32714	
2087	0	32694	32683	32671	32721	32803	32775	32549	32770	
2088	0	32673	32628	32551	32727	32731	32743	32553	32847	
2089	0	32684	32761	32683	32825	32839	32743	32732	32797	
2090	0	32786	32623	32679	32759	32827	32773	32639	32806	
2091	0	32617	32516	32683	32634	32859	32775	32583	32867	
2092	0	32640	32613	32607	32729	32903	32758	32511	32891	
2093	0	32612	32575	32725	32801	32827	32671	32445	32903	
2094	0	32593	32534	32700	32684	32830	32679	32540	32807	
2095	0	32524	32631	32754	32646	32863	32720	32514	32866	
2096	0	32578	32647	32647	32687	32839	32743	32435	32773	
2097	0	32554	32655	32695	32629	32838	32709	32571	32805	
2098	0	32511	32717	32775	32638	32831	32766	32566	32775	
2099	0	32559	32711	32796	32621	32837	32610	32455	32826	
2100	0	32539	32865	32823	32549	32831	32595	32468	32836	
2101	0	32693	32877	32835	32439	32875	32637	32637	32791	
2102	0	32639	33005	32766	32391	32866	32661	32507	32831	
2103	0	32671	33019	32869	32555	32931	32710	32582	32709	
2104	0	32677	32967	32935	32450	32933	32861	32540	32775	
2105	0	32692	33250	32815	32476	32879	33015	32430	32723	
2106	0	32797	33227	32932	32503	32981	33013	32481	32773	
2107	0	32828	33258	32933	32455	32959	33031	32613	32740	
2108	0	32931	33391	32839	32431	32887	33015	32671	32703	
2109	0	32990	33490	32900	32324	32845	33007	32623	32647	
2110	0	32965	33431	32859	32262	32868	32973	32734	32583	
2111	0	33071	33478	32903	32399	32812	33014	32719	32614	
2112	0	33123	33254	32771	32601	32771	32919	32635	32611	
2113	0	33144	33287	32823	32582	32698	32903	32829	32686	
2114	0	33136	33191	32701	32639	32679	32903	32909	32604	
2115	0	33141	33094	32662	32703	32715	32855	32875	32614	
2116	0	33122	33175	32655	32565	32631	32847	33011	32595	
2117	0	33129	33079	32737	32519	32662	32811	32870	32583	
2118	0	33074	32935	32663	32617	32711	32811	32829	32579	
2119	0	33014	32903	32551	32767	32671	32743	32995	32519	
2120	0	32967	32799	32527	32790	32609	32710	33069	32447	
2121	0	32931	32661	32639	32855	32613	32631	33125	32361	
2122	0	32949	32647	32436	32939	32589	32588	33151	32245	
2123	0	32998	32506	32425	33055	32475	32581	33263	32173	
2124	0	32977	32391	32342	33102	32499	32685	33110	32214	
2125	0	33031	32487	32423	33054	32533	32687	33211	32203	
2126	0	33127	32387	32399	32951	32549	32677	33183	32251	
2127	0	33209	32333	32342	33123	32511	32763	33141	32178	
2128	0	33188	32375	32275	33191	32545	32741	33179	32247	
2129	0	33144	32250	32327	33179	32606	32647	33043	32399	
2130	0	32935	32097	32459	33080	32628	32559	32807	32501	
2131	0	32887	32181	32455	33001	32735	32591	32719	32575	
2132	0	32689	32189	32549	33003	32775	32581	32658	32759	
2133	0	32614	32338	32543	32709	32829	32599	32515	32842	
2134	0	32546	32391	32683	32596	32947	32567	32492	32973	
2135	0	32495	32379	32751	32685	32951	32501	32373	33013	
2136	0	32450	32487	32739	32667	32923	32519	32255	33143	
2137	0	32458	32461	32751	32613	32921	32721	32131	33047	
2138	0	32446	32390	32695	32591	32942	32723	32090	33041	
2139	0	32425	32455	32771	32647	32973	32671	32077	33158	
2140	0	32407	32420	32845	32631	32949	32706	32297	33134	
2141	0	32399	32512	32763	32583	32919	32669	32255	33111	
2142	0	32398	32615	32821	32550	32967	32506	32295	33055	
2143	0	32382	32609	32719	32559	32927	32595	32363	33053	
2144	0	32461	32667	32783	32583	32903	32711	32363	32973	
2145	0	32430	32676	32809	32599	32893	32719	32271	32991	
2146	0	32511	32801	32775	32556	32858	32867	32351	32880	
2147	0	32573	32725	32855	32466	32847	32807	32587	32833	
