# OpenSignals Text File Format
# {"00:07:80:3B:46:38": {"sensor": ["CUSTOM/0.5/1.0/V", "CUSTOM/0.5/1.0/V", "CUSTOM/0.5/1.0/V", "CUSTOM/0.5/1.0/V", "CUSTOM/0.5/1.0/V", "CUSTOM/0.5/1.0/V", "CUSTOM/0.5/1.0/V", "CUSTOM/0.5/1.0/V"], "device name": "EMGs", "column": ["nSeq", "DI", "RA_L", "RA_R", "OE_L", "OE:R", "IL_L", "IL_R", "MF_L", "MF_R"], "sync interval": 2, "time": "16:19:26.2", "comments": "", "device connection": "BTH00:07:80:3B:46:38", "channels": [1, 2, 3, 4, 5, 6, 7, 8], "date": "2017-6-1", "mode": 0, "digital IO": [0, 1], "firmware version": 772, "device": "biosignalsplux", "position": 0, "sampling rate": 1000, "label": ["RA_L", "RA_R", "OE_L", "OE:R", "IL_L", "IL_R", "MF_L", "MF_R"], "resolution": [16, 16, 16, 16, 16, 16, 16, 16], "special": [{}, {}, {}, {}, {}, {}, {}, {}]}}
# EndOfHeader
0	0	32732	32679	32825	32727	32723	32791	32535	32755	
1	0	32756	32615	32676	32711	32802	32640	32491	32732	
2	0	32738	32723	32798	32749	32745	32717	32575	32694	
3	0	32707	32683	32786	32759	32671	32663	32549	32807	
4	0	32764	32743	32815	32799	32702	32663	32591	32743	
5	0	32733	32543	32625	32787	32727	32734	32773	32582	
6	0	32766	32759	32827	32691	32743	32709	32615	32775	
7	0	32804	32652	32851	32783	32701	32699	32596	32725	
8	0	32682	32638	32702	32715	32725	32844	32566	32635	
9	0	32767	32708	32819	32747	32759	32647	32621	32827	
10	0	32748	32711	32833	32711	32727	32647	32516	32749	
11	0	32748	32785	32723	32775	32787	32721	32537	32733	
12	0	32773	32767	32660	32729	32639	32603	32534	32727	
13	0	32805	32703	32832	32705	32683	32549	32543	32699	
14	0	32759	32743	32709	32743	32727	32518	32509	32875	
15	0	32807	32635	32749	32729	32679	32732	32540	32827	
16	0	32781	32759	32775	32727	32775	32759	32543	32590	
17	0	32787	32700	32751	32735	32719	32763	32551	32879	
18	0	32744	32594	32771	32734	32802	32743	32585	32795	
19	0	32782	32775	32787	32775	32771	32634	32770	32751	
20	0	32771	32703	32660	32767	32647	32615	32719	32687	
21	0	32692	32805	32803	32733	32764	32668	32719	32860	
22	0	32726	32629	32741	32727	32711	32726	32711	32751	
23	0	32757	32695	32813	32786	32687	32701	32703	32723	
24	0	32720	32629	32788	32825	32735	32707	32739	32615	
25	0	32703	32775	32687	32765	32675	32621	32571	32679	
26	0	32729	32619	32687	32751	32773	32715	32663	32903	
27	0	32745	32647	32855	32717	32789	32767	32555	32783	
28	0	32775	32615	32726	32826	32644	32711	32637	32575	
29	0	32791	32719	32753	32762	32739	32719	32643	32735	
30	0	32751	32532	32591	32755	32753	32731	32759	32759	
31	0	32758	32711	32741	32758	32695	32725	32599	32748	
32	0	32750	32671	32756	32757	32621	32678	32543	32623	
33	0	32772	32588	32615	32771	32720	32655	32538	32827	
34	0	32743	32749	32807	32809	32729	32671	32607	32812	
35	0	32759	32735	32740	32790	32639	32730	32646	32599	
36	0	32816	32603	32789	32799	32717	32747	32609	32711	
37	0	32827	32751	32603	32783	32692	32743	32565	32799	
38	0	32815	32726	32750	32773	32766	32759	32599	32760	
39	0	32775	32770	32725	32754	32925	32783	32719	32605	
40	0	32770	32593	32757	32759	32828	32775	32747	32855	
41	0	32773	32733	32639	32787	32773	32727	32670	32839	
42	0	32808	32679	32670	32734	32775	32691	32715	32821	
43	0	32769	32751	32818	32709	32679	32775	32749	32749	
44	0	32714	32474	32820	32692	32721	32679	32706	32679	
45	0	32702	32695	32694	32737	32647	32642	32671	32731	
46	0	32762	32669	32834	32707	32731	32698	32715	32692	
47	0	32781	32553	32769	32703	32727	32775	32647	32599	
48	0	32756	32673	32815	32711	32747	32749	32647	32786	
49	0	32720	32763	32802	32775	32647	32786	32719	32723	
50	0	32737	32546	32723	32759	32743	32685	32695	32591	
51	0	32761	32756	32829	32783	32730	32693	32765	32861	
52	0	32769	32700	32761	32735	32747	32677	32526	32757	
53	0	32785	32735	32815	32709	32769	32685	32575	32559	
54	0	32775	32610	32799	32738	32765	32705	32741	32671	
55	0	32775	32767	32807	32775	32733	32622	32647	32795	
56	0	32775	32763	32751	32742	32711	32647	32647	32795	
57	0	32782	32807	32677	32757	32747	32747	32673	32585	
58	0	32834	32591	32935	32733	32767	32747	32715	32775	
59	0	32773	32671	32815	32717	32695	32742	32677	32743	
60	0	32757	32743	32605	32740	32633	32673	32671	32614	
61	0	32785	32597	32807	32748	32740	32663	32701	32887	
62	0	32784	32742	32765	32834	32759	32682	32771	32814	
63	0	32770	32615	32630	32755	32711	32701	32775	32610	
64	0	32804	32763	32826	32759	32700	32692	32751	32836	
65	0	32791	32719	32799	32715	32771	32703	32775	32765	
66	0	32812	32599	32623	32789	32695	32674	32711	32615	
67	0	32805	32751	32693	32867	32671	32707	32694	32647	
68	0	32777	32655	32766	32735	32773	32763	32597	32887	
69	0	32703	32679	32769	32751	32685	32647	32703	32761	
70	0	32780	32727	32762	32759	32753	32581	32731	32603	
71	0	32735	32695	32855	32757	32719	32788	32679	32879	
72	0	32717	32555	32789	32747	32703	32683	32663	32767	
73	0	32730	32738	32775	32751	32747	32751	32638	32577	
74	0	32703	32773	32613	32754	32791	32703	32733	32791	
75	0	32707	32679	32731	32787	32676	32786	32729	32762	
76	0	32736	32575	32743	32767	32775	32717	32551	32739	
77	0	32743	32771	32727	32705	32732	32663	32731	32751	
78	0	32761	32754	32719	32708	32695	32706	32711	32658	
79	0	32772	32655	32629	32796	32718	32639	32759	32893	
80	0	32761	32767	32728	32756	32732	32643	32711	32731	
81	0	32745	32735	32821	32725	32635	32703	32707	32615	
82	0	32736	32583	32757	32694	32758	32647	32717	32763	
83	0	32758	32729	32671	32673	32727	32673	32663	32785	
84	0	32807	32662	32703	32803	32579	32727	32717	32729	
85	0	32815	32555	32797	32762	32661	32731	32661	32615	
86	0	32828	32773	32615	32743	32679	32727	32676	32796	
87	0	32720	32775	32829	32735	32735	32818	32723	32727	
88	0	32804	32631	32775	32711	32661	32691	32695	32671	
89	0	32806	32733	32679	32759	32622	32687	32575	32755	
90	0	32773	32495	32710	32775	32647	32695	32548	32591	
91	0	32823	32647	32795	32775	32735	32671	32493	32823	
92	0	32742	32775	32679	32807	32702	32741	32547	32764	
93	0	32692	32602	32775	32759	32583	32630	32814	32609	
94	0	32791	32691	32821	32695	32671	32611	32621	32884	
95	0	32818	32567	32660	32798	32911	32786	32796	32767	
96	0	32764	32718	32733	32683	33069	32727	32615	32639	
97	0	32794	32719	32815	32727	32967	32738	32633	32847	
98	0	32771	32644	32671	32775	32743	32743	32804	32726	
99	0	32784	32623	32663	32799	32769	32817	32695	32719	
100	0	32765	32709	32772	32730	32740	32735	32683	32607	
101	0	32731	32734	32809	32757	32743	32725	32727	32860	
102	0	32673	32534	32647	32713	32727	32743	32660	32775	
103	0	32729	32727	32837	32751	32721	32665	32727	32646	
104	0	32721	32731	32773	32795	32610	32631	32722	32793	
105	0	32756	32607	32805	32775	32695	32687	32607	32831	
106	0	32758	32543	32647	32722	32581	32647	32495	32790	
107	0	32717	32775	32775	32735	32615	32615	32511	32566	
108	0	32788	32707	32742	32784	32723	32639	32535	32703	
109	0	32812	32742	32801	32804	32670	32661	32773	32866	
110	0	32788	32583	32668	32695	32669	32774	32738	32755	
111	0	32803	32727	32775	32711	32775	32699	32807	32631	
112	0	32757	32803	32691	32738	32771	32763	32773	32831	
113	0	32728	32739	32832	32809	32685	32762	32791	32759	
114	0	32758	32695	32786	32807	32678	32603	32727	32615	
115	0	32780	32583	32797	32727	32739	32660	32822	32835	
116	0	32772	32756	32671	32735	32719	32751	32834	32751	
117	0	32772	32693	32782	32803	32687	32739	32755	32641	
118	0	32700	32721	32707	32796	32711	32695	32683	32791	
119	0	32790	32645	32757	32762	32742	32647	32694	32799	
120	0	32775	32681	32567	32711	32757	32669	32597	32775	
121	0	32751	32639	32783	32713	32691	32683	32562	32679	
122	0	32735	32535	32802	32732	32775	32763	32628	32801	
123	0	32697	32717	32786	32797	32751	32623	32725	32759	
124	0	32783	32722	32658	32759	32679	32615	32692	32655	
125	0	32822	32551	32759	32775	32677	32711	32662	32629	
126	0	32822	32767	32775	32769	32811	32794	32679	32787	
127	0	32799	32703	32687	32762	32767	32783	32642	32765	
128	0	32718	32791	32783	32807	32655	32742	32631	32759	
129	0	32748	32602	32751	32839	32727	32799	32574	32647	
130	0	32784	32791	32796	32771	32741	32765	32607	32887	
131	0	32780	32741	32607	32695	32719	32738	32693	32835	
132	0	32755	32533	32767	32718	32655	32675	32583	32630	
133	0	32765	32711	32759	32727	32707	32646	32767	32701	
134	0	32783	32647	32772	32761	32724	32719	32750	32855	
135	0	32775	32723	32635	32748	32629	32717	32580	32725	
136	0	32773	32551	32679	32703	32747	32646	32579	32558	
137	0	32732	32671	32725	32711	32667	32700	32655	32762	
138	0	32762	32743	32679	32766	32722	32733	32733	32894	
139	0	32708	32503	32754	32747	32655	32743	32711	32788	
140	0	32742	32751	32829	32847	32747	32719	32628	32615	
141	0	32743	32751	32707	32822	32708	32765	32637	32671	
142	0	32761	32661	32711	32799	32843	32700	32743	32745	
143	0	32762	32743	32819	32692	32701	32655	32666	32791	
144	0	32820	32796	32683	32733	32799	32630	32513	32611	
145	0	32710	32593	32775	32732	32805	32639	32543	32773	
146	0	32764	32812	32691	32813	32749	32642	32591	32765	
147	0	32708	32709	32799	32819	32805	32638	32783	32705	
148	0	32637	32801	32692	32732	32842	32627	32829	32615	
149	0	32729	32578	32719	32758	32683	32665	32735	32647	
150	0	32725	32799	32758	32759	32791	32695	32703	32837	
151	0	32737	32725	32615	32775	32727	32748	32631	32761	
152	0	32720	32519	32791	32815	32751	32711	32671	32593	
153	0	32766	32618	32811	32711	32703	32671	32668	32726	
154	0	32773	32615	32695	32743	32771	32726	32693	32853	
155	0	32839	32735	32799	32767	32833	32775	32688	32707	
156	0	32799	32603	32775	32798	32703	32695	32595	32551	
157	0	32749	32831	32818	32773	32756	32626	32505	32767	
158	0	32743	32699	32775	32763	32806	32583	32615	32742	
159	0	32767	32485	32807	32695	32647	32670	32705	32775	
160	0	32782	32707	32647	32668	32675	32738	32715	32710	
161	0	32730	32673	32767	32722	32821	32675	32783	32813	
162	0	32750	32738	32775	32723	32727	32666	32726	32751	
163	0	32733	32717	32807	32725	32691	32686	32711	32612	
164	0	32722	32599	32753	32791	32647	32675	32693	32845	
165	0	32760	32762	32726	32773	32783	32716	32734	32719	
166	0	32795	32733	32663	32775	32721	32749	32759	32636	
167	0	32775	32576	32889	32711	32751	32806	32681	32644	
168	0	32822	32748	32690	32731	32607	32775	32639	32883	
169	0	32845	32767	32703	32705	32717	32771	32635	32787	
170	0	32756	32580	32713	32799	32637	32771	32708	32604	
171	0	32788	32791	32815	32775	32658	32763	32660	32730	
172	0	32773	32671	32787	32799	32759	32717	32711	32839	
173	0	32710	32631	32647	32724	32723	32689	32679	32723	
174	0	32733	32707	32775	32745	32775	32686	32572	32595	
175	0	32801	32715	32793	32727	32686	32709	32557	32835	
176	0	32751	32557	32717	32791	32733	32667	32612	32785	
177	0	32732	32719	32782	32707	32807	32715	32601	32751	
178	0	32731	32691	32815	32790	32804	32766	32771	32631	
179	0	32760	32743	32725	32785	32775	32706	32731	32812	
180	0	32730	32557	32765	32726	32919	32735	32669	32729	
181	0	32737	32711	32790	32726	32839	32753	32688	32611	
182	0	32743	32775	32805	32787	32679	32759	32658	32589	
183	0	32762	32667	32687	32838	32759	32647	32700	32850	
184	0	32764	32519	32807	32807	32759	32661	32692	32763	
185	0	32770	32647	32758	32751	32615	32647	32503	32731	
186	0	32775	32771	32847	32816	32716	32673	32583	32599	
187	0	32775	32795	32690	32823	32679	32715	32614	32677	
188	0	32775	32671	32835	32835	32615	32638	32759	32903	
189	0	32759	32562	32717	32755	32711	32592	32807	32799	
190	0	32750	32734	32759	32743	32583	32647	32727	32723	
191	0	32774	32725	32783	32739	32692	32615	32719	32758	
192	0	32729	32727	32604	32711	32719	32687	32655	32580	
193	0	32807	32755	32717	32661	32611	32635	32566	32738	
194	0	32711	32634	32739	32805	32679	32611	32578	32813	
195	0	32783	32635	32711	32790	32731	32678	32751	32786	
196	0	32828	32711	32727	32767	32697	32671	32671	32711	
197	0	32750	32674	32611	32711	32807	32775	32679	32615	
198	0	32794	32597	32797	32695	32735	32764	32711	32839	
199	0	32758	32619	32791	32739	32667	32695	32725	32835	
200	0	32771	32679	32640	32765	32729	32711	32773	32822	
201	0	32752	32719	32819	32718	32709	32771	32695	32759	
202	0	32775	32618	32762	32687	32749	32743	32599	32866	
203	0	32788	32567	32783	32765	32775	32719	32573	32726	
204	0	32788	32711	32659	32770	32769	32738	32551	32707	
205	0	32788	32647	32770	32703	32707	32758	32806	32535	
206	0	32741	32711	32794	32760	32735	32807	32725	32718	
207	0	32790	32519	32845	32723	32679	32775	32722	32775	
208	0	32764	32759	32719	32791	32706	32721	32711	32739	
209	0	32751	32747	32775	32821	32647	32667	32679	32595	
210	0	32849	32583	32795	32765	32725	32700	32682	32885	
211	0	32766	32655	32755	32775	32733	32690	32605	32743	
212	0	32789	32685	32772	32735	32841	32706	32698	32631	
213	0	32826	32727	32818	32707	32735	32731	32686	32784	
214	0	32749	32558	32799	32759	32709	32740	32669	32762	
215	0	32775	32775	32738	32711	32775	32644	32667	32625	
216	0	32770	32785	32688	32845	32701	32639	32553	32727	
217	0	32733	32607	32738	32769	32694	32711	32679	32791	
218	0	32746	32735	32775	32775	32660	32775	32687	32711	
219	0	32775	32757	32775	32758	32775	32751	32668	32550	
220	0	32711	32710	32535	32759	32791	32783	32647	32759	
221	0	32663	32726	32702	32775	32910	32711	32615	32789	
222	0	32717	32503	32743	32770	32914	32761	32695	32727	
223	0	32741	32767	32615	32823	32799	32725	32635	32719	
224	0	32760	32707	32663	32791	32797	32607	32679	32807	
225	0	32742	32635	32791	32743	32679	32590	32709	32807	
226	0	32719	32677	32709	32717	32709	32673	32662	32663	
227	0	32739	32765	32805	32711	32718	32719	32671	32841	
228	0	32767	32719	32804	32734	32605	32784	32609	32739	
229	0	32749	32614	32695	32738	32711	32719	32527	32634	
230	0	32759	32719	32823	32731	32690	32727	32820	32859	
231	0	32830	32703	32771	32692	32669	32788	32759	32791	
232	0	32819	32769	32855	32710	32647	32737	32727	32743	
233	0	32769	32514	32823	32731	32765	32511	32647	32643	
234	0	32822	32775	32791	32711	32701	32606	32619	32807	
235	0	32806	32713	32708	32748	32643	32629	32583	32727	
236	0	32791	32623	32755	32763	32683	32687	32647	32597	
237	0	32735	32679	32709	32761	32762	32711	32692	32821	
238	0	32743	32694	32727	32861	32769	32724	32647	32738	
239	0	32751	32815	32677	32775	32712	32787	32636	32676	
240	0	32726	32534	32623	32775	32703	32805	32687	32807	
241	0	32682	32717	32751	32679	32745	32859	32733	32722	
242	0	32704	32683	32679	32721	32787	32735	32703	32646	
243	0	32731	32583	32671	32727	32838	32687	32726	32804	
244	0	32729	32719	32775	32767	32679	32671	32695	32743	
245	0	32762	32618	32749	32802	32775	32740	32743	32639	
246	0	32734	32733	32805	32785	32827	32736	32645	32871	
247	0	32754	32591	32815	32771	32676	32718	32507	32751	
248	0	32751	32799	32689	32743	32678	32811	32635	32621	
249	0	32814	32663	32790	32727	32722	32770	32509	32903	
250	0	32792	32754	32793	32771	32749	32647	32559	32815	
251	0	32780	32583	32662	32765	32630	32694	32553	32588	
252	0	32818	32775	32800	32764	32695	32639	32795	32796	
253	0	32805	32738	32787	32815	32705	32647	32607	32790	
254	0	32759	32597	32707	32853	32703	32688	32565	32657	
255	0	32763	32676	32759	32722	32735	32707	32763	32803	
256	0	32816	32643	32839	32765	32667	32655	32663	32741	
257	0	32765	32717	32671	32743	32701	32591	32556	32603	
258	0	32784	32578	32837	32727	32765	32609	32635	32795	
259	0	32764	32731	32807	32786	32617	32655	32686	32757	
260	0	32700	32627	32642	32723	32679	32787	32615	32695	
261	0	32684	32767	32822	32714	32664	32691	32623	32783	
262	0	32787	32621	32791	32716	32817	32775	32547	32757	
263	0	32772	32815	32799	32743	32821	32723	32567	32759	
264	0	32772	32715	32638	32831	32855	32767	32811	32679	
265	0	32699	32719	32791	32765	32782	32822	32807	32835	
266	0	32769	32587	32847	32747	32647	32695	32813	32711	
267	0	32797	32631	32807	32727	32706	32685	32788	32615	
268	0	32775	32719	32685	32767	32799	32679	32773	32775	
269	0	32786	32733	32786	32759	32684	32669	32711	32786	
270	0	32758	32667	32719	32719	32727	32647	32647	32772	
271	0	32722	32643	32839	32716	32710	32679	32639	32711	
272	0	32767	32703	32797	32775	32679	32643	32727	32831	
273	0	32762	32659	32668	32749	32727	32692	32611	32812	
274	0	32756	32725	32747	32735	32722	32659	32555	32735	
275	0	32684	32786	32663	32757	32831	32686	32587	32621	
276	0	32756	32603	32713	32871	32731	32763	32692	32831	
277	0	32757	32707	32559	32811	32703	32775	32591	32751	
278	0	32781	32765	32715	32704	32790	32747	32615	32566	
279	0	32764	32679	32843	32663	32724	32751	32695	32685	
280	0	32751	32742	32751	32791	32679	32748	32587	32827	
281	0	32775	32516	32827	32725	32775	32735	32541	32731	
282	0	32801	32629	32647	32695	32735	32709	32519	32583	
283	0	32769	32711	32775	32759	32638	32715	32797	32811	
284	0	32809	32822	32775	32717	32684	32739	32753	32751	
285	0	32823	32743	32703	32674	32732	32783	32685	32789	
286	0	32748	32756	32775	32747	32695	32786	32663	32611	
287	0	32759	32731	32617	32775	32730	32754	32647	32756	
288	0	32745	32555	32729	32770	32759	32727	32623	32739	
289	0	32742	32722	32775	32711	32724	32769	32487	32730	
290	0	32773	32771	32751	32751	32771	32620	32565	32604	
291	0	32757	32679	32750	32755	32722	32679	32604	32826	
292	0	32733	32571	32799	32811	32647	32660	32550	32749	
293	0	32731	32801	32715	32839	32704	32799	32545	32671	
294	0	32723	32706	32866	32775	32732	32699	32547	32887	
295	0	32684	32671	32665	32751	32695	32703	32575	32786	
296	0	32765	32639	32802	32794	32626	32798	32615	32647	
297	0	32789	32794	32815	32835	32622	32723	32545	32811	
298	0	32844	32759	32647	32739	32715	32658	32557	32751	
299	0	32772	32535	32871	32765	32663	32751	32471	32706	
300	0	32782	32795	32799	32812	32762	32653	32551	32783	
301	0	32785	32646	32692	32797	32685	32690	32506	32739	
302	0	32759	32657	32763	32754	32786	32694	32610	32641	
303	0	32765	32614	32699	32719	32738	32690	32831	32868	
304	0	32837	32643	32751	32804	32711	32663	32679	32727	
305	0	32789	32671	32668	32805	32661	32595	32654	32757	
306	0	32723	32659	32775	32727	32711	32786	32643	32756	
307	0	32721	32687	32615	32702	32715	32694	32555	32605	
308	0	32783	32607	32821	32743	32743	32791	32605	32929	
309	0	32768	32635	32813	32733	32767	32775	32839	32763	
310	0	32788	32684	32828	32749	32943	32657	32834	32642	
311	0	32741	32726	32791	32775	32927	32615	32740	32771	
312	0	32775	32559	32727	32693	32851	32677	32735	32751	
313	0	32735	32773	32803	32775	32743	32707	32727	32595	
314	0	32775	32666	32675	32715	32756	32762	32739	32787	
315	0	32793	32807	32743	32769	32706	32703	32749	32717	
316	0	32798	32597	32807	32765	32639	32671	32682	32586	
317	0	32759	32692	32702	32723	32701	32679	32676	32735	
318	0	32814	32753	32715	32727	32603	32679	32719	32769	
319	0	32796	32837	32769	32747	32709	32663	32684	32738	
320	0	32793	32641	32623	32795	32639	32655	32611	32751	
321	0	32783	32699	32689	32751	32793	32661	32615	32773	
322	0	32773	32763	32815	32767	32679	32743	32671	32511	
323	0	32764	32579	32738	32766	32793	32731	32675	32815	
324	0	32703	32711	32703	32827	32723	32829	32775	32683	
325	0	32724	32679	32646	32791	32791	32663	32759	32671	
326	0	32758	32723	32815	32771	32735	32802	32743	32701	
327	0	32752	32726	32767	32798	32804	32727	32543	32647	
328	0	32743	32537	32799	32783	32749	32835	32541	32775	
329	0	32790	32727	32831	32815	32802	32709	32477	32575	
330	0	32749	32675	32699	32747	32703	32643	32567	32807	
331	0	32698	32723	32882	32687	32775	32687	32557	32723	
332	0	32812	32527	32751	32700	32790	32685	32718	32727	
333	0	32780	32727	32837	32775	32703	32677	32725	32634	
334	0	32747	32647	32731	32727	32786	32747	32784	32775	
335	0	32799	32578	32831	32775	32723	32719	32833	32775	
336	0	32791	32785	32767	32789	32726	32735	32773	32809	
337	0	32772	32751	32615	32771	32710	32647	32797	32759	
338	0	32743	32591	32843	32770	32693	32627	32749	32633	
339	0	32769	32679	32751	32767	32743	32687	32663	32698	
340	0	32787	32663	32586	32763	32750	32767	32658	32788	
341	0	32744	32725	32783	32727	32635	32589	32621	32756	
342	0	32716	32506	32822	32795	32807	32636	32699	32647	
343	0	32761	32754	32833	32855	32741	32685	32711	32831	
344	0	32696	32703	32719	32758	32726	32722	32671	32755	
345	0	32766	32775	32730	32747	32669	32732	32699	32599	
346	0	32743	32513	32827	32709	32773	32671	32679	32927	
347	0	32754	32709	32647	32723	32766	32617	32623	32829	
348	0	32774	32695	32749	32765	32655	32629	32631	32828	
349	0	32786	32791	32763	32799	32717	32639	32701	32703	
350	0	32775	32639	32786	32717	32735	32679	32711	32811	
351	0	32738	32627	32745	32775	32647	32643	32574	32727	
352	0	32719	32790	32603	32767	32745	32704	32519	32583	
353	0	32766	32767	32805	32790	32721	32715	32551	32831	
354	0	32767	32663	32690	32837	32659	32796	32595	32775	
355	0	32754	32614	32866	32802	32667	32743	32717	32697	
356	0	32726	32759	32603	32703	32723	32694	32763	32591	
357	0	32775	32714	32689	32737	32708	32775	32647	32773	
358	0	32767	32751	32847	32748	32699	32713	32644	32751	
359	0	32743	32613	32837	32785	32726	32682	32711	32765	
360	0	32690	32545	32786	32769	32709	32647	32567	32711	
361	0	32658	32647	32631	32681	32615	32647	32492	32863	
362	0	32700	32615	32791	32791	32725	32738	32599	32803	
363	0	32713	32743	32775	32775	32725	32775	32655	32815	
364	0	32705	32646	32742	32763	32726	32738	32684	32658	
365	0	32745	32695	32769	32735	32838	32674	32747	32843	
366	0	32738	32515	32631	32775	32902	32719	32815	32813	
367	0	32757	32731	32735	32899	32838	32767	32611	32655	
368	0	32838	32677	32711	32791	32740	32692	32647	32775	
369	0	32831	32785	32703	32755	32802	32619	32820	32775	
370	0	32775	32677	32756	32774	32924	32717	32673	32813	
371	0	32740	32489	32727	32772	32903	32694	32711	32583	
372	0	32754	32743	32775	32764	32727	32623	32731	32835	
373	0	32832	32687	32715	32687	32743	32697	32633	32796	
374	0	32809	32673	32786	32769	32612	32638	32527	32746	
375	0	32783	32621	32647	32806	32567	32690	32467	32623	
376	0	32767	32694	32797	32767	32571	32671	32539	32850	
377	0	32775	32695	32775	32731	32605	32714	32685	32695	
378	0	32792	32669	32745	32732	32671	32739	32661	32569	
379	0	32816	32679	32671	32713	32698	32791	32667	32763	
380	0	32750	32703	32738	32711	32727	32711	32623	32743	
381	0	32722	32676	32707	32739	32711	32764	32647	32607	
382	0	32713	32805	32811	32775	32812	32645	32703	32847	
383	0	32751	32627	32807	32831	32711	32619	32667	32745	
384	0	32742	32727	32783	32793	32775	32655	32659	32587	
385	0	32758	32695	32795	32711	32672	32714	32629	32791	
386	0	32767	32708	32735	32685	32671	32766	32598	32775	
387	0	32773	32655	32759	32685	32637	32681	32679	32615	
388	0	32766	32660	32666	32748	32647	32775	32630	32855	
389	0	32728	32743	32787	32717	32647	32655	32671	32749	
390	0	32773	32695	32707	32791	32823	32667	32687	32771	
391	0	32760	32535	32693	32766	32687	32727	32700	32759	
392	0	32727	32775	32767	32735	32631	32767	32671	32623	
393	0	32767	32791	32631	32766	32667	32751	32663	32865	
394	0	32759	32509	32783	32701	32759	32757	32634	32698	
395	0	32728	32743	32759	32747	32775	32773	32687	32558	
396	0	32756	32723	32623	32771	32687	32669	32598	32791	
397	0	32792	32605	32748	32804	32702	32806	32690	32703	
398	0	32791	32663	32788	32769	32665	32759	32711	32695	
399	0	32731	32734	32751	32727	32767	32747	32733	32823	
400	0	32782	32627	32699	32791	32791	32773	32620	32799	
401	0	32816	32595	32819	32813	32669	32734	32671	32621	
402	0	32749	32799	32735	32731	32707	32645	32753	32775	
403	0	32767	32717	32797	32743	32739	32668	32751	32754	
404	0	32781	32675	32719	32767	32847	32689	32711	32621	
405	0	32730	32615	32791	32797	32767	32658	32677	32647	
406	0	32726	32829	32673	32775	32879	32623	32495	32863	
407	0	32786	32669	32807	32775	32775	32699	32597	32735	
408	0	32773	32706	32815	32747	32717	32738	32747	32735	
409	0	32790	32607	32818	32771	32707	32701	32763	32661	
410	0	32775	32607	32640	32722	32751	32709	32683	32737	
411	0	32805	32647	32743	32806	32766	32705	32703	32559	
412	0	32758	32775	32797	32807	32764	32659	32668	32815	
413	0	32788	32582	32630	32811	32621	32591	32658	32814	
414	0	32748	32767	32711	32733	32679	32671	32647	32571	
415	0	32724	32763	32795	32707	32699	32739	32655	32868	
416	0	32705	32580	32619	32661	32671	32751	32663	32826	
417	0	32764	32789	32807	32738	32707	32711	32647	32707	
418	0	32753	32699	32787	32739	32654	32614	32658	32798	
419	0	32743	32815	32821	32703	32823	32663	32699	32762	
420	0	32780	32545	32735	32751	32767	32750	32679	32636	
421	0	32772	32681	32831	32711	32669	32701	32647	32855	
422	0	32731	32729	32790	32739	32724	32637	32534	32724	
423	0	32742	32703	32807	32751	32790	32635	32563	32551	
424	0	32720	32727	32647	32743	32687	32743	32735	32687	
425	0	32783	32614	32763	32699	32839	32767	32748	32773	
426	0	32786	32620	32735	32797	32799	32756	32691	32715	
427	0	32742	32751	32804	32759	32711	32724	32631	32605	
428	0	32721	32694	32647	32786	32727	32701	32761	32773	
429	0	32772	32562	32687	32756	32703	32710	32726	32807	
430	0	32740	32663	32827	32759	32715	32593	32679	32756	
431	0	32720	32646	32589	32820	32743	32571	32695	32703	
432	0	32808	32678	32730	32823	32628	32739	32754	32619	
433	0	32789	32575	32769	32743	32763	32753	32695	32807	
434	0	32769	32692	32655	32767	32679	32681	32663	32815	
435	0	32762	32748	32682	32751	32644	32686	32682	32818	
436	0	32773	32799	32661	32809	32623	32759	32663	32683	
437	0	32767	32519	32767	32751	32707	32719	32701	32877	
438	0	32789	32787	32661	32791	32706	32673	32647	32729	
439	0	32839	32739	32747	32771	32743	32644	32684	32630	
440	0	32763	32687	32763	32766	32602	32815	32736	32805	
441	0	32751	32601	32665	32791	32749	32711	32675	32715	
442	0	32775	32767	32863	32754	32718	32668	32628	32599	
443	0	32742	32751	32727	32750	32743	32703	32623	32857	
444	0	32724	32635	32727	32695	32659	32679	32711	32767	
445	0	32796	32763	32621	32707	32690	32612	32653	32605	
446	0	32748	32740	32691	32775	32890	32735	32719	32881	
447	0	32768	32647	32743	32759	32898	32791	32727	32743	
448	0	32809	32531	32671	32791	32743	32771	32638	32745	
449	0	32826	32783	32858	32775	32826	32727	32623	32663	
450	0	32756	32687	32775	32758	32763	32647	32574	32847	
451	0	32812	32660	32617	32751	32739	32607	32639	32647	
452	0	32834	32801	32717	32743	32686	32549	32686	32903	
453	0	32861	32751	32719	32775	32631	32582	32743	32839	
454	0	32837	32735	32755	32775	32612	32677	32751	32885	
455	0	32810	32786	32692	32775	32663	32756	32708	32871	
456	0	32835	32810	32699	32785	32699	32767	32551	32775	
457	0	32824	32815	32655	32787	32559	32747	32599	32631	
458	0	32844	32569	32799	32799	32735	32775	32811	32837	
459	0	32831	32710	32711	32749	32689	32686	32775	32775	
460	0	32899	32663	32771	32705	32717	32642	32803	32660	
461	0	32891	32814	32731	32739	32647	32626	32741	32709	
462	0	32915	32583	32799	32702	32769	32743	32759	32855	
463	0	33052	32760	32887	32677	32804	32818	32830	32785	
464	0	32933	32687	32717	32679	32807	32799	32855	32620	
465	0	32878	32739	32871	32711	32683	32799	32903	32871	
466	0	32858	32545	32863	32719	32767	32826	32855	32773	
467	0	32766	32747	32999	32621	32827	32709	32758	32551	
468	0	32749	32719	32895	32691	32775	32747	32676	32789	
469	0	32767	32508	32923	32723	32833	32694	32678	32705	
470	0	32750	32539	32895	32730	32767	32703	32479	32598	
471	0	32708	32679	32683	32767	32958	32811	32503	32739	
472	0	32660	32591	32918	32759	32950	32823	32623	32687	
473	0	32686	32615	32898	32647	32866	32821	32715	32628	
474	0	32696	32461	32994	32703	32833	32795	32735	32547	
475	0	32713	32463	32850	32751	32855	32839	32695	32723	
476	0	32659	32555	32878	32699	32748	32842	32717	32705	
477	0	32647	32639	32959	32739	32869	32723	32661	32703	
478	0	32665	32391	32911	32647	32861	32798	32745	32692	
479	0	32658	32551	32983	32603	32844	32769	32655	32614	
480	0	32671	32563	32981	32655	32923	32781	32711	32605	
481	0	32674	32525	32975	32627	32854	32867	32818	32802	
482	0	32727	32431	32831	32611	32770	32875	32796	32701	
483	0	32668	32438	32956	32644	32890	32911	32775	32599	
484	0	32728	32607	32830	32578	32883	32829	32647	32807	
485	0	32663	32583	32852	32591	32771	32855	32543	32615	
486	0	32587	32487	32741	32647	32743	32687	32407	32525	
487	0	32524	32605	32607	32775	32751	32587	32231	32555	
488	0	32404	32687	32578	32911	32647	32455	32153	32349	
489	0	32356	32621	32482	32939	32574	32479	32151	32515	
490	0	32240	32659	32412	32983	32493	32498	32123	32434	
491	0	32389	32686	32275	33055	32494	32565	32117	32468	
492	0	32376	32719	32399	33047	32479	32429	32023	32495	
493	0	32366	32717	32369	33046	32441	32485	32074	32407	
494	0	32426	32855	32391	32977	32413	32543	32316	32619	
495	0	32452	32802	32289	32923	32525	32551	32415	32771	
496	0	32489	32867	32447	32894	32500	32596	32442	32734	
497	0	32559	32638	32415	32870	32451	32661	32509	32605	
498	0	32606	32807	32487	32839	32646	32619	32610	32862	
499	0	32580	32767	32359	32859	32535	32671	32570	32835	
500	0	32655	32790	32547	32827	32532	32676	32543	32789	
501	0	32703	32615	32610	32799	32623	32607	32587	32761	
502	0	32819	32762	32495	32762	32701	32631	32555	32887	
503	0	32918	32786	32678	32809	32628	32660	32703	32797	
504	0	32903	32647	32646	32771	32697	32675	32647	32807	
505	0	32887	32831	32596	32742	32642	32698	32645	32789	
506	0	32881	32711	32775	32793	32756	32677	32621	32806	
507	0	32858	32871	32775	32799	32690	32671	32583	32809	
508	0	32790	32671	32885	32911	32700	32727	32677	32903	
509	0	32715	32811	32677	32913	32662	32603	32835	32839	
510	0	32677	32790	32855	32871	32739	32587	32818	32731	
511	0	32743	32605	32855	32822	32795	32684	32826	32855	
512	0	32669	32739	32739	32851	32743	32711	32807	32821	
513	0	32745	32709	32775	32819	32655	32635	32845	32749	
514	0	32778	32767	32743	32875	32719	32621	32799	32975	
515	0	32858	32615	32841	32823	32695	32671	32871	32914	
516	0	32971	32791	32747	32831	32629	32703	32802	33011	
517	0	32987	32837	32729	32727	32754	32679	32918	32879	
518	0	33046	32798	32871	32738	32695	32611	32939	33033	
519	0	33035	32549	32861	32723	32735	32639	32931	32935	
520	0	33082	32719	32933	32598	32695	32710	32959	32738	
521	0	33070	32647	32837	32627	32807	32719	33023	32954	
522	0	33143	32647	32944	32604	32801	32866	33028	32964	
523	0	33144	32575	32903	32547	32714	32903	32997	32867	
524	0	33143	32591	32951	32551	32798	32843	32999	32925	
525	0	33135	32683	32847	32587	32875	32863	32871	32799	
526	0	33113	32743	32913	32579	32815	32866	32899	32894	
527	0	33018	32775	32885	32639	32831	32883	33129	33022	
528	0	33078	32815	32908	32613	32759	32839	33125	32991	
529	0	33109	32626	32883	32692	32773	32829	33007	32895	
530	0	33074	32775	32767	32655	32823	32831	32959	32732	
531	0	33052	32869	32882	32659	32797	32807	32879	32759	
532	0	33017	32815	32879	32675	32685	32814	32903	32975	
533	0	32916	32775	32887	32643	32747	32759	32839	32841	
534	0	32980	32613	32722	32727	32743	32751	32811	32646	
535	0	32876	32759	32875	32725	32702	32887	32629	32599	
536	0	32793	32837	32849	32647	32735	32830	32615	32643	
537	0	32766	32749	32759	32671	32749	32759	32475	32679	
538	0	32789	32797	32710	32708	32655	32687	32595	32687	
539	0	32775	32551	32743	32703	32751	32700	32622	32500	
540	0	32797	32799	32691	32751	32763	32727	32570	32701	
541	0	32766	32775	32749	32775	32771	32815	32499	32684	
542	0	32756	32615	32615	32799	32799	32669	32694	32711	
543	0	32724	32563	32831	32819	32879	32754	32607	32551	
544	0	32698	32647	32694	32827	32804	32748	32549	32675	
545	0	32698	32663	32711	32773	32881	32695	32575	32749	
546	0	32647	32754	32604	32759	32902	32723	32559	32711	
547	0	32698	32508	32775	32699	32795	32609	32565	32607	
548	0	32669	32694	32755	32663	32733	32663	32647	32757	
549	0	32668	32655	32667	32679	32715	32709	32631	32715	
550	0	32620	32695	32872	32821	32697	32667	32615	32535	
551	0	32679	32543	32714	32791	32645	32603	32549	32635	
552	0	32716	32559	32825	32806	32687	32667	32487	32755	
553	0	32674	32695	32810	32781	32691	32705	32679	32810	
554	0	32608	32655	32634	32827	32607	32615	32667	32679	
555	0	32622	32711	32759	32775	32767	32583	32671	32583	
556	0	32620	32543	32683	32743	32699	32607	32627	32571	
557	0	32679	32627	32763	32834	32647	32607	32623	32749	
558	0	32697	32701	32685	32847	32614	32759	32583	32727	
559	0	32714	32685	32831	32824	32703	32743	32559	32715	
560	0	32743	32723	32726	32738	32668	32759	32681	32534	
561	0	32713	32587	32751	32742	32599	32687	32617	32645	
562	0	32657	32730	32579	32801	32771	32588	32559	32807	
563	0	32678	32647	32767	32845	32846	32603	32511	32697	
564	0	32690	32699	32715	32735	32711	32775	32515	32551	
565	0	32698	32537	32721	32731	32759	32731	32467	32813	
566	0	32704	32703	32692	32799	32717	32726	32527	32743	
567	0	32692	32727	32835	32804	32646	32763	32707	32743	
568	0	32669	32662	32753	32735	32807	32743	32663	32678	
569	0	32755	32663	32770	32775	32823	32751	32685	32804	
570	0	32749	32687	32823	32791	32766	32735	32490	32807	
571	0	32773	32767	32679	32764	32771	32771	32495	32733	
572	0	32767	32582	32799	32740	32751	32783	32582	32578	
573	0	32722	32663	32787	32713	32763	32765	32671	32771	
574	0	32771	32655	32823	32756	32685	32647	32727	32707	
575	0	32804	32711	32675	32726	32631	32671	32582	32698	
576	0	32743	32658	32749	32789	32639	32647	32687	32678	
577	0	32716	32527	32645	32735	32694	32577	32701	32803	
578	0	32788	32749	32754	32747	32739	32633	32660	32719	
579	0	32765	32727	32723	32716	32723	32737	32647	32699	
580	0	32744	32587	32706	32764	32607	32647	32735	32773	
581	0	32742	32604	32756	32829	32704	32743	32658	32707	
582	0	32725	32835	32673	32735	32787	32738	32555	32589	
583	0	32694	32709	32762	32737	32639	32741	32557	32633	
584	0	32756	32703	32775	32742	32703	32751	32747	32807	
585	0	32809	32743	32791	32757	32732	32775	32695	32799	
586	0	32800	32539	32670	32726	32679	32673	32615	32631	
587	0	32738	32742	32671	32771	32677	32655	32615	32673	
588	0	32714	32742	32695	32742	32749	32677	32599	32804	
589	0	32751	32587	32747	32797	32753	32733	32589	32759	
590	0	32745	32775	32739	32775	32797	32735	32671	32598	
591	0	32743	32729	32679	32775	32659	32717	32685	32839	
592	0	32723	32663	32773	32889	32767	32711	32695	32767	
593	0	32725	32610	32613	32799	32759	32663	32717	32647	
594	0	32787	32743	32731	32750	32967	32591	32775	32799	
595	0	32812	32703	32775	32711	32735	32583	32679	32766	
596	0	32775	32561	32639	32743	32737	32703	32642	32669	
597	0	32796	32751	32782	32745	32727	32725	32685	32742	
598	0	32767	32694	32717	32765	32705	32775	32607	32713	
599	0	32804	32775	32743	32797	32670	32745	32562	32571	
600	0	32743	32583	32655	32706	32669	32747	32543	32827	
601	0	32770	32687	32763	32675	32658	32692	32567	32747	
602	0	32700	32767	32726	32743	32719	32775	32765	32727	
603	0	32732	32730	32831	32771	32675	32731	32849	32612	
604	0	32764	32647	32687	32785	32823	32775	32732	32839	
605	0	32725	32581	32852	32723	32797	32687	32660	32751	
606	0	32747	32639	32767	32629	32698	32661	32708	32558	
607	0	32706	32691	32655	32711	32690	32719	32687	32831	
608	0	32809	32533	32852	32748	32719	32751	32742	32769	
609	0	32829	32775	32767	32775	32737	32751	32759	32633	
610	0	32775	32711	32690	32810	32703	32743	32734	32687	
611	0	32734	32513	32786	32804	32679	32675	32775	32843	
612	0	32743	32731	32708	32811	32685	32678	32723	32750	
613	0	32706	32717	32844	32715	32711	32667	32694	32611	
614	0	32724	32740	32690	32655	32755	32621	32735	32838	
615	0	32769	32611	32811	32730	32704	32719	32687	32775	
616	0	32796	32691	32843	32775	32692	32679	32663	32621	
617	0	32838	32684	32685	32773	32727	32653	32741	32869	
618	0	32833	32722	32802	32830	32730	32711	32642	32818	
619	0	32766	32663	32807	32807	32701	32758	32726	32805	
620	0	32740	32655	32663	32791	32695	32673	32725	32679	
621	0	32734	32735	32812	32759	32749	32643	32675	32788	
622	0	32731	32534	32805	32737	32676	32735	32670	32742	
623	0	32747	32695	32635	32694	32735	32691	32617	32647	
624	0	32807	32821	32647	32785	32684	32797	32671	32835	
625	0	32758	32631	32733	32734	32693	32606	32735	32716	
626	0	32764	32727	32761	32673	32743	32620	32607	32775	
627	0	32742	32623	32725	32753	32763	32775	32531	32775	
628	0	32691	32673	32679	32698	32799	32701	32594	32581	
629	0	32719	32669	32749	32759	32786	32735	32547	32787	
630	0	32775	32769	32695	32731	32879	32775	32571	32758	
631	0	32817	32466	32657	32775	32983	32751	32661	32703	
632	0	32732	32735	32754	32708	32937	32639	32621	32751	
633	0	32737	32729	32729	32754	32711	32707	32751	32801	
634	0	32742	32773	32805	32773	32703	32655	32775	32727	
635	0	32730	32598	32751	32771	32662	32661	32775	32701	
636	0	32754	32799	32739	32839	32619	32701	32765	32647	
637	0	32782	32727	32789	32791	32709	32730	32727	32767	
638	0	32742	32775	32821	32751	32687	32722	32733	32708	
639	0	32748	32535	32691	32751	32607	32745	32695	32613	
640	0	32733	32700	32666	32727	32631	32695	32705	32805	
641	0	32735	32709	32775	32751	32719	32725	32586	32791	
642	0	32763	32719	32723	32782	32619	32749	32675	32739	
643	0	32753	32709	32813	32738	32635	32805	32713	32629	
644	0	32706	32567	32643	32763	32733	32631	32642	32847	
645	0	32779	32765	32795	32711	32775	32663	32467	32721	
646	0	32780	32700	32715	32759	32695	32711	32476	32725	
647	0	32799	32637	32807	32805	32679	32711	32502	32597	
648	0	32790	32539	32786	32782	32685	32701	32743	32831	
649	0	32791	32710	32687	32711	32634	32759	32693	32839	
650	0	32809	32687	32807	32698	32639	32681	32719	32783	
651	0	32828	32797	32785	32743	32677	32711	32726	32639	
652	0	32775	32567	32823	32831	32675	32702	32673	32863	
653	0	32807	32771	32765	32826	32690	32659	32685	32805	
654	0	32814	32730	32730	32845	32747	32723	32615	32647	
655	0	32795	32674	32791	32727	32766	32703	32655	32775	
656	0	32733	32675	32666	32643	32767	32759	32599	32735	
657	0	32728	32667	32822	32684	32766	32695	32679	32614	
658	0	32696	32751	32775	32791	32763	32655	32671	32759	
659	0	32677	32607	32767	32813	32875	32703	32679	32695	
660	0	32707	32733	32757	32786	32886	32741	32685	32511	
661	0	32722	32743	32713	32787	32821	32763	32727	32601	
662	0	32785	32755	32775	32745	32798	32715	32739	32862	
663	0	32795	32575	32647	32687	32657	32659	32687	32748	
664	0	32804	32786	32767	32743	32674	32700	32677	32622	
665	0	32766	32723	32743	32755	32640	32711	32671	32823	
666	0	32771	32804	32620	32786	32717	32687	32615	32775	
667	0	32767	32559	32791	32798	32674	32703	32629	32763	
668	0	32807	32647	32747	32711	32711	32694	32587	32637	
669	0	32802	32787	32743	32746	32711	32659	32845	32864	
670	0	32772	32687	32757	32723	32631	32702	32775	32884	
671	0	32798	32703	32647	32763	32707	32715	32855	32831	
672	0	32760	32591	32772	32822	32707	32693	32758	32605	
673	0	32701	32775	32695	32775	32669	32711	32701	32775	
674	0	32803	32743	32797	32717	32713	32710	32692	32743	
675	0	32755	32592	32759	32724	32725	32695	32654	32582	
676	0	32757	32603	32747	32733	32676	32775	32671	32758	
677	0	32760	32775	32859	32765	32797	32787	32647	32753	
678	0	32731	32662	32807	32758	32715	32769	32630	32759	
679	0	32707	32771	32766	32743	32738	32737	32703	32579	
680	0	32743	32647	32726	32727	32711	32871	32709	32805	
681	0	32790	32675	32817	32775	32773	32647	32764	32761	
682	0	32726	32795	32644	32721	32751	32597	32663	32627	
683	0	32757	32477	32690	32694	32783	32713	32743	32815	
684	0	32727	32725	32847	32743	32615	32734	32727	32723	
685	0	32696	32767	32794	32707	32671	32758	32682	32559	
686	0	32783	32727	32838	32771	32707	32708	32747	32834	
687	0	32799	32631	32815	32791	32787	32677	32801	32747	
688	0	32717	32759	32787	32765	32698	32627	32735	32643	
689	0	32755	32711	32647	32775	32794	32639	32736	32743	
690	0	32791	32775	32783	32757	32834	32671	32697	32839	
691	0	32769	32743	32797	32739	32791	32743	32701	32756	
692	0	32793	32662	32759	32682	32786	32791	32605	32692	
693	0	32775	32454	32879	32739	32659	32842	32580	32583	
694	0	32777	32733	32695	32767	32774	32675	32527	32786	
695	0	32786	32683	32862	32807	32755	32631	32582	32740	
696	0	32686	32735	32839	32738	32799	32694	32583	32743	
697	0	32799	32534	32855	32670	32709	32666	32553	32668	
698	0	32806	32720	32683	32763	32702	32732	32719	32878	
699	0	32768	32663	32713	32743	32762	32719	32743	32742	
700	0	32817	32695	32799	32813	32647	32691	32789	32647	
701	0	32801	32571	32615	32775	32723	32743	32775	32879	
702	0	32775	32691	32738	32775	32723	32623	32767	32755	
703	0	32790	32719	32759	32775	32689	32615	32726	32587	
704	0	32775	32507	32606	32719	32613	32615	32759	32806	
705	0	32748	32751	32732	32786	32687	32762	32717	32807	
706	0	32734	32663	32647	32811	32759	32733	32695	32551	
707	0	32761	32711	32791	32749	32693	32699	32629	32727	
708	0	32761	32615	32765	32749	32878	32702	32719	32775	
709	0	32754	32583	32647	32703	32823	32655	32647	32732	
710	0	32726	32747	32791	32727	32698	32807	32727	32637	
711	0	32724	32772	32815	32783	32743	32782	32790	32855	
712	0	32764	32614	32769	32708	32789	32747	32701	32823	
713	0	32754	32575	32671	32687	32655	32717	32615	32632	
714	0	32756	32733	32803	32735	32773	32742	32639	32799	
715	0	32800	32795	32759	32749	32717	32675	32644	32807	
716	0	32768	32553	32743	32763	32818	32775	32620	32573	
717	0	32802	32678	32662	32717	32795	32743	32531	32723	
718	0	32742	32775	32703	32718	32885	32731	32631	32890	
719	0	32730	32666	32839	32799	32823	32679	32753	32775	
720	0	32759	32749	32775	32817	32691	32703	32711	32580	
721	0	32756	32594	32765	32807	32735	32685	32663	32879	
722	0	32723	32773	32637	32763	32734	32798	32640	32799	
723	0	32763	32726	32766	32738	32633	32660	32694	32637	
724	0	32748	32719	32803	32775	32663	32684	32733	32817	
725	0	32758	32743	32637	32719	32694	32749	32637	32775	
726	0	32681	32711	32807	32763	32759	32738	32735	32585	
727	0	32750	32711	32855	32839	32687	32682	32667	32867	
728	0	32711	32607	32801	32823	32679	32719	32599	32739	
729	0	32741	32739	32735	32731	32703	32783	32663	32575	
730	0	32768	32804	32725	32671	32775	32621	32623	32828	
731	0	32788	32541	32783	32727	32645	32657	32623	32743	
732	0	32805	32739	32676	32813	32679	32655	32683	32547	
733	0	32758	32687	32743	32786	32751	32690	32645	32846	
734	0	32772	32771	32799	32775	32775	32749	32638	32771	
735	0	32753	32573	32782	32754	32629	32737	32535	32629	
736	0	32700	32691	32647	32733	32711	32707	32562	32775	
737	0	32766	32681	32769	32743	32703	32701	32551	32689	
738	0	32801	32715	32667	32745	32646	32694	32733	32577	
739	0	32797	32559	32775	32727	32754	32727	32735	32835	
740	0	32799	32704	32663	32683	32711	32602	32743	32711	
741	0	32766	32719	32759	32687	32715	32631	32677	32687	
742	0	32738	32703	32690	32733	32626	32617	32679	32838	
743	0	32722	32567	32730	32763	32732	32743	32625	32748	
744	0	32725	32753	32849	32745	32789	32719	32623	32559	
745	0	32773	32813	32647	32751	32743	32727	32727	32739	
746	0	32742	32719	32837	32847	32789	32742	32647	32756	
747	0	32738	32579	32775	32821	32775	32663	32711	32592	
748	0	32797	32695	32707	32759	32725	32739	32691	32722	
749	0	32738	32787	32599	32743	32759	32751	32519	32763	
750	0	32806	32718	32807	32743	32717	32659	32479	32677	
751	0	32782	32767	32681	32715	32687	32603	32511	32615	
752	0	32815	32599	32765	32783	32659	32631	32531	32863	
753	0	32772	32663	32791	32805	32767	32591	32621	32803	
754	0	32796	32729	32587	32822	32717	32626	32762	32775	
755	0	32762	32683	32727	32791	32743	32583	32679	32687	
756	0	32703	32775	32669	32783	32757	32690	32635	32875	
757	0	32715	32583	32791	32830	32775	32793	32687	32803	
758	0	32766	32679	32709	32807	32645	32727	32636	32836	
759	0	32790	32775	32703	32805	32615	32677	32732	32757	
760	0	32734	32535	32754	32795	32708	32751	32681	32610	
761	0	32832	32647	32621	32767	32587	32567	32676	32825	
762	0	32781	32703	32655	32719	32663	32647	32658	32755	
763	0	32786	32549	32804	32796	32555	32687	32695	32587	
764	0	32647	32691	32642	32847	32671	32718	32613	32783	
765	0	32716	32761	32730	32829	32709	32762	32621	32771	
766	0	32702	32743	32710	32747	32626	32775	32545	32725	
767	0	32729	32863	32769	32771	32698	32753	32479	32647	
768	0	32708	32679	32623	32769	32764	32773	32571	32831	
769	0	32784	32642	32813	32823	32719	32692	32551	32755	
770	0	32716	32789	32797	32763	32766	32703	32723	32773	
771	0	32732	32687	32806	32749	32836	32687	32723	32671	
772	0	32695	32711	32658	32771	32829	32707	32697	32857	
773	0	32767	32599	32798	32811	32823	32699	32627	32773	
774	0	32705	32613	32835	32756	32751	32739	32611	32738	
775	0	32742	32795	32735	32791	32627	32775	32659	32495	
776	0	32764	32687	32732	32766	32751	32770	32671	32742	
777	0	32759	32721	32607	32831	32699	32635	32692	32763	
778	0	32769	32519	32766	32831	32639	32695	32735	32583	
779	0	32821	32718	32735	32719	32739	32643	32683	32677	
780	0	32756	32795	32810	32799	32711	32647	32539	32818	
781	0	32731	32734	32647	32754	32725	32671	32583	32815	
782	0	32798	32587	32775	32791	32607	32719	32534	32669	
783	0	32809	32609	32759	32731	32711	32735	32564	32843	
784	0	32726	32655	32679	32674	32686	32740	32743	32799	
785	0	32767	32763	32807	32767	32723	32727	32559	32594	
786	0	32804	32509	32804	32646	32695	32615	32515	32791	
787	0	32803	32687	32673	32709	32699	32711	32533	32738	
788	0	32733	32694	32747	32765	32775	32751	32487	32823	
789	0	32760	32514	32807	32810	32724	32730	32603	32727	
790	0	32722	32803	32839	32795	32773	32679	32611	32607	
791	0	32762	32711	32743	32766	32663	32703	32706	32805	
792	0	32724	32775	32820	32735	32811	32759	32682	32757	
793	0	32732	32535	32677	32771	32847	32670	32639	32575	
794	0	32815	32775	32775	32795	32749	32687	32647	32838	
795	0	32705	32741	32783	32807	32679	32743	32669	32637	
796	0	32744	32580	32676	32762	32814	32799	32638	32655	
797	0	32802	32641	32737	32739	32719	32759	32669	32786	
798	0	32781	32742	32757	32740	32691	32663	32688	32775	
799	0	32761	32679	32845	32775	32727	32627	32679	32662	
800	0	32806	32624	32647	32797	32731	32647	32677	32885	
801	0	32728	32727	32804	32823	32775	32708	32695	32761	
802	0	32769	32697	32791	32775	32613	32702	32771	32727	
803	0	32715	32662	32647	32701	32687	32748	32724	32845	
804	0	32732	32591	32691	32775	32756	32773	32731	32775	
805	0	32786	32665	32789	32687	32708	32609	32759	32731	
806	0	32705	32733	32789	32719	32813	32647	32704	32809	
807	0	32775	32487	32775	32749	32671	32759	32709	32743	
808	0	32806	32679	32845	32720	32791	32711	32673	32755	
809	0	32773	32722	32847	32722	32732	32754	32716	32755	
810	0	32770	32481	32798	32719	32717	32661	32703	32564	
811	0	32760	32810	32735	32823	32675	32647	32719	32775	
812	0	32783	32751	32759	32758	32635	32721	32767	32810	
813	0	32775	32583	32763	32772	32791	32806	32695	32555	
814	0	32802	32743	32647	32738	32761	32694	32643	32826	
815	0	32775	32724	32751	32686	32763	32681	32675	32742	
816	0	32800	32582	32711	32719	32786	32673	32675	32589	
817	0	32775	32759	32807	32735	32702	32666	32711	32836	
818	0	32766	32726	32655	32676	32801	32695	32663	32751	
819	0	32764	32599	32795	32775	32796	32783	32719	32711	
820	0	32762	32711	32783	32743	32727	32745	32739	32601	
821	0	32753	32717	32856	32647	32851	32690	32740	32863	
822	0	32788	32751	32710	32727	32701	32724	32623	32797	
823	0	32756	32617	32775	32743	32639	32749	32573	32607	
824	0	32748	32527	32839	32791	32730	32762	32575	32643	
825	0	32739	32699	32789	32730	32694	32766	32615	32884	
826	0	32786	32643	32823	32695	32727	32683	32615	32839	
827	0	32763	32611	32662	32711	32676	32639	32555	32639	
828	0	32737	32613	32754	32775	32734	32714	32583	32855	
829	0	32713	32687	32692	32797	32666	32764	32583	32771	
830	0	32745	32765	32687	32838	32615	32646	32655	32723	
831	0	32771	32605	32687	32749	32659	32647	32644	32577	
832	0	32785	32663	32712	32753	32903	32708	32743	32819	
833	0	32758	32683	32775	32679	33091	32679	32721	32775	
834	0	32846	32703	32557	32755	32949	32645	32646	32595	
835	0	32746	32703	32747	32687	32709	32775	32733	32886	
836	0	32720	32755	32759	32733	32739	32743	32787	32759	
837	0	32762	32793	32611	32807	32757	32749	32727	32803	
838	0	32781	32570	32741	32783	32703	32767	32557	32668	
839	0	32820	32787	32751	32769	32703	32775	32640	32775	
840	0	32780	32771	32786	32671	32725	32683	32562	32717	
841	0	32757	32693	32639	32647	32687	32641	32581	32600	
842	0	32781	32647	32799	32717	32647	32679	32556	32775	
843	0	32818	32693	32721	32769	32631	32743	32493	32775	
844	0	32756	32724	32775	32771	32702	32711	32573	32606	
845	0	32754	32503	32660	32847	32638	32715	32510	32759	
846	0	32721	32701	32794	32757	32621	32711	32589	32783	
847	0	32743	32723	32811	32735	32647	32754	32626	32793	
848	0	32773	32758	32813	32679	32743	32647	32759	32653	
849	0	32728	32559	32739	32743	32795	32695	32791	32883	
850	0	32767	32755	32851	32827	32741	32623	32687	32743	
851	0	32727	32685	32790	32807	32799	32679	32799	32594	
852	0	32762	32753	32791	32733	32765	32783	32718	32738	
853	0	32722	32550	32717	32687	32775	32708	32709	32751	
854	0	32773	32695	32759	32707	32687	32683	32687	32751	
855	0	32771	32751	32823	32775	32807	32703	32711	32630	
856	0	32752	32677	32804	32749	32676	32710	32687	32871	
857	0	32820	32583	32690	32742	32687	32758	32711	32759	
858	0	32752	32702	32754	32795	32658	32703	32679	32759	
859	0	32755	32671	32775	32834	32691	32647	32705	32663	
860	0	32798	32731	32609	32863	32679	32641	32630	32850	
861	0	32762	32493	32738	32815	32662	32647	32661	32715	
862	0	32802	32751	32711	32735	32679	32829	32719	32551	
863	0	32804	32755	32767	32743	32711	32775	32590	32911	
864	0	32771	32642	32583	32838	32767	32743	32687	32747	
865	0	32738	32537	32823	32821	32679	32687	32662	32757	
866	0	32787	32751	32703	32762	32709	32739	32646	32609	
867	0	32824	32711	32815	32691	32754	32704	32635	32829	
868	0	32796	32687	32663	32743	32775	32799	32530	32804	
869	0	32775	32611	32769	32801	32787	32687	32541	32727	
870	0	32772	32695	32755	32787	32821	32668	32583	32756	
871	0	32823	32671	32823	32715	32671	32623	32615	32775	
872	0	32786	32759	32647	32700	32805	32671	32579	32727	
873	0	32836	32628	32735	32773	32734	32739	32525	32647	
874	0	32791	32709	32755	32773	32671	32711	32512	32859	
875	0	32719	32663	32772	32771	32708	32710	32583	32751	
876	0	32748	32727	32762	32735	32607	32693	32578	32551	
877	0	32783	32548	32839	32751	32623	32773	32590	32871	
878	0	32695	32644	32687	32765	32775	32725	32741	32831	
879	0	32746	32719	32805	32751	32927	32642	32713	32742	
880	0	32742	32748	32759	32733	32804	32607	32683	32590	
881	0	32742	32573	32658	32756	32735	32741	32655	32870	
882	0	32764	32751	32759	32723	32731	32742	32735	32775	
883	0	32782	32733	32847	32735	32747	32743	32759	32607	
884	0	32775	32589	32701	32751	32665	32667	32743	32759	
885	0	32762	32541	32803	32759	32597	32589	32634	32703	
886	0	32698	32743	32711	32730	32729	32709	32647	32615	
887	0	32717	32647	32746	32637	32763	32703	32734	32863	
888	0	32679	32711	32775	32703	32726	32757	32687	32775	
889	0	32762	32637	32791	32695	32631	32772	32622	32665	
890	0	32763	32791	32679	32753	32695	32711	32694	32871	
891	0	32748	32711	32730	32773	32727	32731	32727	32737	
892	0	32813	32806	32819	32703	32647	32757	32632	32615	
893	0	32759	32687	32850	32775	32755	32667	32634	32876	
894	0	32708	32730	32647	32668	32715	32643	32615	32775	
895	0	32751	32739	32783	32775	32753	32803	32707	32666	
896	0	32837	32571	32767	32761	32638	32711	32647	32735	
897	0	32762	32769	32629	32717	32749	32703	32615	32713	
898	0	32759	32709	32729	32754	32767	32738	32493	32636	
899	0	32765	32775	32715	32765	32742	32735	32531	32811	
900	0	32743	32555	32642	32729	32734	32655	32627	32555	
901	0	32688	32671	32815	32731	32775	32666	32628	32803	
902	0	32742	32775	32795	32719	32775	32731	32571	32764	
903	0	32742	32549	32759	32758	32794	32718	32679	32571	
904	0	32740	32701	32717	32737	32703	32750	32588	32757	
905	0	32745	32642	32749	32763	32775	32642	32647	32743	
906	0	32800	32763	32757	32830	32739	32601	32701	32695	
907	0	32727	32551	32668	32785	32695	32594	32641	32772	
908	0	32775	32791	32695	32767	32683	32693	32595	32807	
909	0	32775	32699	32647	32745	32773	32771	32642	32751	
910	0	32769	32647	32833	32775	32749	32727	32687	32747	
911	0	32771	32707	32679	32755	32719	32757	32743	32804	
912	0	32775	32687	32767	32775	32727	32647	32699	32509	
913	0	32757	32724	32730	32787	32685	32679	32575	32692	
914	0	32771	32583	32796	32771	32710	32627	32591	32823	
915	0	32718	32545	32732	32727	32647	32563	32503	32755	
916	0	32753	32767	32813	32809	32747	32711	32719	32603	
917	0	32801	32647	32731	32743	32748	32687	32739	32775	
918	0	32765	32773	32807	32707	32656	32675	32647	32903	
919	0	32775	32695	32635	32719	32711	32717	32588	32799	
920	0	32759	32583	32670	32799	32751	32732	32622	32615	
921	0	32812	32773	32727	32815	32617	32724	32606	32749	
922	0	32786	32797	32791	32727	32707	32747	32647	32787	
923	0	32803	32541	32711	32647	32735	32669	32702	32711	
924	0	32735	32743	32854	32645	32758	32668	32689	32685	
925	0	32747	32715	32761	32683	32662	32626	32701	32783	
926	0	32738	32611	32786	32755	32795	32733	32681	32775	
927	0	32750	32699	32711	32809	32701	32748	32661	32687	
928	0	32749	32783	32767	32771	32763	32730	32519	32863	
929	0	32793	32687	32837	32731	32695	32773	32597	32797	
930	0	32750	32743	32806	32775	32703	32773	32641	32747	
931	0	32723	32518	32601	32791	32732	32790	32591	32632	
932	0	32740	32695	32826	32773	32708	32679	32543	32863	
933	0	32765	32647	32727	32743	32749	32658	32583	32787	
934	0	32799	32767	32852	32751	32818	32635	32647	32573	
935	0	32759	32589	32721	32748	32711	32677	32585	32847	
936	0	32759	32757	32653	32766	32734	32647	32531	32735	
937	0	32756	32727	32726	32807	32748	32669	32799	32743	
938	0	32743	32812	32775	32743	32703	32743	32701	32663	
939	0	32730	32586	32631	32807	32769	32789	32722	32853	
940	0	32729	32758	32707	32743	32735	32642	32687	32831	
941	0	32763	32775	32766	32801	32741	32647	32603	32647	
942	0	32728	32623	32563	32799	32679	32733	32638	32775	
943	0	32750	32647	32756	32715	32645	32705	32711	32711	
944	0	32769	32679	32711	32757	32674	32815	32685	32575	
945	0	32823	32739	32774	32775	32647	32762	32615	32685	
946	0	32762	32533	32601	32773	32714	32759	32612	32772	
947	0	32767	32639	32803	32759	32735	32769	32503	32691	
948	0	32784	32647	32763	32725	32647	32660	32524	32719	
949	0	32743	32736	32804	32727	32813	32642	32557	32818	
950	0	32754	32547	32643	32799	32719	32599	32574	32756	
951	0	32725	32585	32775	32843	32647	32574	32767	32598	
952	0	32742	32764	32659	32765	32671	32688	32751	32817	
953	0	32747	32675	32835	32745	32715	32737	32762	32749	
954	0	32765	32579	32667	32727	32775	32751	32719	32711	
955	0	32785	32631	32823	32675	32635	32725	32745	32587	
956	0	32722	32698	32783	32719	32806	32815	32815	32791	
957	0	32783	32735	32691	32797	32769	32639	32751	32796	
958	0	32786	32567	32839	32775	32703	32643	32699	32615	
959	0	32761	32762	32740	32715	32683	32681	32690	32887	
960	0	32827	32743	32839	32725	32763	32647	32621	32823	
961	0	32814	32775	32639	32687	32844	32769	32633	32619	
962	0	32740	32623	32775	32715	32851	32727	32631	32821	
963	0	32785	32613	32783	32761	32873	32810	32647	32711	
964	0	32751	32803	32729	32766	32759	32741	32658	32590	
965	0	32796	32591	32739	32692	32710	32659	32710	32889	
966	0	32791	32755	32687	32699	32643	32613	32613	32787	
967	0	32793	32719	32719	32786	32647	32646	32661	32793	
968	0	32813	32713	32818	32765	32603	32703	32731	32636	
969	0	32807	32623	32637	32784	32609	32747	32737	32881	
970	0	32831	32571	32759	32722	32706	32759	32739	32749	
971	0	32812	32805	32807	32763	32713	32743	32669	32761	
972	0	32775	32687	32883	32821	32655	32687	32691	32647	
973	0	32703	32735	32766	32743	32685	32732	32655	32797	
974	0	32748	32557	32703	32743	32679	32811	32725	32770	
975	0	32740	32705	32743	32710	32589	32795	32707	32599	
976	0	32730	32663	32749	32767	32676	32627	32621	32821	
977	0	32732	32715	32639	32775	32732	32634	32660	32775	
978	0	32758	32626	32702	32796	32681	32615	32671	32749	
979	0	32731	32500	32699	32749	32749	32644	32605	32617	
980	0	32745	32747	32789	32743	32715	32661	32605	32799	
981	0	32786	32735	32607	32797	32647	32727	32580	32717	
982	0	32732	32566	32722	32787	32685	32791	32630	32583	
983	0	32686	32703	32717	32815	32719	32647	32647	32826	
984	0	32792	32739	32679	32740	32792	32725	32655	32784	
985	0	32763	32703	32755	32717	32677	32756	32615	32709	
986	0	32786	32562	32735	32717	32775	32703	32632	32599	
987	0	32775	32583	32759	32773	32758	32691	32643	32853	
988	0	32716	32727	32743	32796	32583	32691	32659	32775	
989	0	32748	32757	32705	32762	32759	32647	32691	32749	
990	0	32730	32799	32859	32741	32795	32671	32739	32604	
991	0	32742	32559	32823	32743	32805	32693	32729	32807	
992	0	32759	32744	32701	32775	32823	32677	32724	32734	
993	0	32740	32717	32635	32796	32789	32713	32734	32615	
994	0	32775	32628	32719	32759	32647	32695	32749	32900	
995	0	32795	32679	32775	32739	32677	32623	32679	32709	
996	0	32769	32703	32695	32711	32775	32605	32711	32660	
997	0	32772	32815	32727	32749	32775	32623	32628	32839	
998	0	32796	32638	32835	32707	32731	32645	32567	32757	
999	0	32782	32679	32765	32814	32767	32751	32628	32636	
1000	0	32770	32663	32807	32845	32703	32782	32687	32775	
1001	0	32780	32772	32623	32769	32627	32659	32696	32827	
1002	0	32711	32559	32751	32756	32775	32743	32711	32795	
1003	0	32713	32765	32763	32671	32743	32735	32727	32738	
1004	0	32733	32727	32695	32763	32762	32695	32747	32815	
1005	0	32756	32627	32683	32789	32574	32643	32701	32743	
1006	0	32808	32583	32869	32855	32691	32662	32749	32567	
1007	0	32799	32646	32821	32803	32661	32627	32709	32853	
1008	0	32751	32705	32775	32738	32639	32639	32743	32803	
1009	0	32727	32495	32791	32762	32681	32747	32599	32559	
1010	0	32775	32741	32727	32743	32974	32685	32591	32861	
1011	0	32796	32666	32775	32811	32943	32719	32591	32775	
1012	0	32734	32727	32761	32797	32759	32771	32583	32711	
1013	0	32749	32546	32637	32767	32723	32767	32495	32671	
1014	0	32750	32709	32729	32751	32751	32655	32563	32815	
1015	0	32687	32751	32763	32749	32767	32635	32565	32709	
1016	0	32748	32677	32787	32745	32575	32644	32621	32551	
1017	0	32801	32551	32687	32801	32721	32640	32817	32715	
1018	0	32762	32706	32837	32727	32743	32679	32700	32751	
1019	0	32782	32711	32807	32739	32663	32729	32785	32707	
1020	0	32754	32775	32739	32692	32667	32747	32605	32617	
1021	0	32786	32590	32822	32706	32775	32723	32604	32845	
1022	0	32823	32775	32769	32733	32727	32715	32766	32827	
1023	0	32786	32703	32775	32695	32775	32716	32708	32766	
1024	0	32749	32747	32804	32786	32794	32783	32711	32621	
1025	0	32775	32603	32687	32775	32658	32683	32783	32719	
1026	0	32796	32551	32773	32709	32743	32709	32710	32869	
1027	0	32799	32679	32727	32705	32788	32690	32671	32741	
1028	0	32756	32755	32839	32815	32699	32669	32691	32742	
1029	0	32796	32759	32647	32806	32775	32639	32721	32647	
1030	0	32756	32551	32757	32787	32743	32669	32742	32787	
1031	0	32786	32735	32727	32711	32742	32705	32599	32716	
1032	0	32804	32711	32603	32791	32631	32738	32535	32599	
1033	0	32811	32735	32811	32754	32742	32775	32503	32839	
1034	0	32719	32579	32679	32791	32647	32805	32677	32751	
1035	0	32770	32829	32828	32791	32702	32675	32703	32551	
1036	0	32775	32767	32641	32797	32622	32724	32741	32827	
1037	0	32785	32609	32735	32769	32791	32637	32553	32670	
1038	0	32729	32708	32831	32807	32783	32641	32593	32655	
1039	0	32727	32737	32663	32763	32787	32743	32643	32837	
1040	0	32694	32567	32703	32766	32723	32755	32759	32773	
1041	0	32709	32709	32773	32750	32687	32668	32711	32663	
1042	0	32684	32687	32713	32775	32743	32701	32711	32845	
1043	0	32742	32499	32625	32771	32719	32765	32692	32820	
1044	0	32775	32662	32701	32775	32759	32679	32742	32785	
1045	0	32807	32747	32747	32789	32564	32614	32667	32878	
1046	0	32792	32486	32727	32685	32740	32678	32701	32775	
1047	0	32811	32733	32803	32687	32743	32715	32679	32669	
1048	0	32825	32647	32793	32743	32763	32727	32667	32803	
1049	0	32817	32489	32775	32775	32629	32751	32709	32783	
1050	0	32767	32794	32817	32771	32798	32745	32639	32541	
1051	0	32701	32743	32660	32743	32799	32739	32719	32707	
1052	0	32703	32530	32671	32765	32803	32659	32543	32717	
1053	0	32743	32798	32756	32743	32731	32686	32502	32571	
1054	0	32791	32803	32773	32717	32647	32738	32491	32815	
1055	0	32756	32550	32791	32719	32759	32703	32577	32766	
1056	0	32773	32773	32819	32742	32767	32789	32671	32567	
1057	0	32754	32791	32801	32791	32775	32660	32679	32811	
1058	0	32768	32599	32735	32795	32790	32681	32711	32727	
1059	0	32807	32702	32613	32782	32710	32759	32718	32531	
1060	0	32751	32814	32767	32754	32671	32724	32739	32688	
1061	0	32771	32619	32786	32719	32719	32775	32633	32723	
1062	0	32791	32710	32634	32766	32706	32685	32626	32727	
1063	0	32756	32703	32819	32775	32719	32655	32659	32695	
1064	0	32752	32579	32769	32711	32575	32673	32729	32771	
1065	0	32799	32669	32755	32759	32679	32709	32583	32713	
1066	0	32749	32698	32767	32671	32759	32749	32551	32774	
1067	0	32781	32679	32724	32709	32787	32711	32507	32855	
1068	0	32760	32740	32791	32751	32687	32707	32567	32796	
1069	0	32850	32725	32795	32775	32820	32711	32543	32628	
1070	0	32790	32637	32683	32733	32821	32726	32799	32716	
1071	0	32687	32687	32717	32736	32647	32719	32799	32831	
1072	0	32689	32698	32751	32794	32749	32719	32605	32742	
1073	0	32758	32764	32742	32751	32720	32690	32803	32619	
1074	0	32756	32551	32783	32735	32679	32770	32819	32757	
1075	0	32751	32784	32687	32754	32706	32633	32772	32822	
1076	0	32748	32671	32807	32795	32663	32662	32719	32738	
1077	0	32764	32748	32812	32739	32687	32671	32703	32733	
1078	0	32749	32519	32743	32780	32703	32647	32692	32703	
1079	0	32753	32775	32645	32742	32647	32584	32661	32847	
1080	0	32748	32711	32767	32710	32751	32775	32753	32715	
1081	0	32676	32587	32743	32723	32722	32762	32629	32620	
1082	0	32750	32730	32615	32775	32671	32756	32574	32830	
1083	0	32725	32687	32709	32813	32811	32798	32487	32749	
1084	0	32759	32475	32827	32775	32747	32687	32471	32559	
1085	0	32786	32757	32729	32713	32751	32621	32486	32839	
1086	0	32790	32695	32830	32694	32645	32575	32503	32755	
1087	0	32779	32541	32839	32719	32677	32679	32548	32719	
1088	0	32766	32751	32671	32769	32751	32691	32638	32775	
1089	0	32805	32730	32775	32758	32742	32715	32663	32759	
1090	0	32791	32562	32708	32775	32775	32751	32747	32591	
1091	0	32756	32783	32851	32771	32647	32670	32713	32748	
1092	0	32748	32701	32723	32757	32685	32655	32685	32738	
1093	0	32758	32615	32716	32751	32822	32699	32735	32539	
1094	0	32764	32797	32804	32733	32769	32733	32694	32751	
1095	0	32865	32765	32711	32727	32790	32637	32727	32730	
1096	0	32785	32679	32787	32775	32725	32715	32745	32750	
1097	0	32773	32795	32775	32743	32854	32723	32783	32803	
1098	0	32745	32775	32607	32775	32795	32559	32486	32823	
1099	0	32703	32583	32786	32807	32749	32639	32508	32611	
1100	0	32804	32724	32791	32787	32731	32775	32639	32841	
1101	0	32763	32699	32759	32742	32706	32759	32633	32811	
1102	0	32775	32711	32669	32743	32791	32740	32713	32791	
1103	0	32760	32613	32710	32751	32726	32813	32699	32647	
1104	0	32801	32687	32826	32783	32698	32637	32658	32827	
1105	0	32773	32751	32619	32799	32673	32655	32671	32802	
1106	0	32759	32503	32732	32805	32727	32695	32655	32577	
1107	0	32829	32659	32751	32791	32723	32830	32722	32833	
1108	0	32743	32711	32647	32719	32725	32740	32643	32761	
1109	0	32755	32535	32845	32698	32615	32717	32676	32614	
1110	0	32717	32739	32815	32735	32703	32639	32767	32845	
1111	0	32728	32679	32791	32751	32775	32615	32761	32775	
1112	0	32748	32741	32803	32759	32740	32695	32743	32771	
1113	0	32757	32519	32690	32795	32711	32743	32767	32673	
1114	0	32782	32669	32809	32711	32725	32694	32759	32818	
1115	0	32708	32757	32703	32759	32749	32719	32710	32742	
1116	0	32756	32711	32692	32737	32701	32789	32700	32748	
1117	0	32788	32713	32759	32815	32828	32748	32734	32579	
1118	0	32718	32517	32724	32707	32699	32797	32718	32687	
1119	0	32764	32607	32747	32767	32647	32698	32701	32844	
1120	0	32775	32743	32666	32767	32685	32755	32599	32726	
1121	0	32790	32751	32690	32795	32695	32711	32695	32633	
1122	0	32787	32655	32861	32767	32733	32693	32727	32733	
1123	0	32741	32603	32759	32710	32687	32630	32679	32767	
1124	0	32760	32775	32771	32787	32671	32610	32791	32743	
1125	0	32676	32723	32596	32775	32711	32647	32804	32577	
1126	0	32699	32771	32636	32797	32724	32663	32757	32805	
1127	0	32708	32581	32753	32715	32610	32700	32727	32831	
1128	0	32720	32756	32685	32753	32753	32773	32719	32711	
1129	0	32786	32818	32678	32679	32725	32754	32787	32711	
1130	0	32858	32559	32823	32755	32771	32745	32625	32775	
1131	0	32762	32755	32717	32772	32762	32638	32549	32716	
1132	0	32784	32751	32708	32823	32703	32530	32523	32587	
1133	0	32752	32565	32815	32833	32772	32709	32503	32879	
1134	0	32700	32725	32699	32754	32763	32724	32480	32807	
1135	0	32738	32702	32855	32733	32759	32767	32595	32591	
1136	0	32738	32694	32823	32711	32706	32742	32495	32863	
1137	0	32760	32655	32810	32769	32663	32670	32606	32811	
1138	0	32751	32721	32775	32807	32707	32662	32578	32783	
1139	0	32818	32699	32804	32741	32735	32647	32543	32607	
1140	0	32755	32501	32837	32717	32647	32668	32583	32887	
1141	0	32775	32804	32799	32735	32691	32663	32595	32758	
1142	0	32797	32743	32686	32711	32703	32656	32647	32617	
1143	0	32766	32557	32815	32735	32667	32775	32738	32802	
1144	0	32754	32738	32755	32748	32710	32719	32707	32733	
1145	0	32765	32725	32791	32748	32658	32635	32667	32689	
1146	0	32804	32564	32771	32769	32646	32782	32621	32749	
1147	0	32833	32735	32719	32823	32721	32773	32623	32703	
1148	0	32790	32631	32788	32723	32671	32732	32627	32601	
1149	0	32758	32604	32635	32667	32721	32775	32621	32839	
1150	0	32750	32573	32807	32706	32738	32631	32603	32727	
1151	0	32732	32723	32717	32735	32882	32615	32615	32567	
1152	0	32676	32735	32751	32738	32775	32671	32678	32822	
1153	0	32716	32631	32700	32759	32901	32771	32749	32812	
1154	0	32767	32611	32807	32699	32823	32710	32709	32823	
1155	0	32763	32734	32761	32751	32801	32727	32705	32588	
1156	0	32743	32775	32757	32711	32715	32711	32646	32662	
1157	0	32769	32639	32705	32799	32659	32663	32629	32807	
1158	0	32742	32743	32715	32814	32657	32719	32642	32807	
1159	0	32759	32734	32765	32775	32655	32619	32626	32634	
1160	0	32764	32668	32662	32747	32736	32749	32711	32839	
1161	0	32772	32667	32679	32673	32689	32755	32731	32786	
1162	0	32745	32755	32751	32707	32644	32659	32822	32775	
1163	0	32773	32799	32633	32703	32804	32737	32679	32773	
1164	0	32742	32567	32797	32757	32799	32675	32540	32849	
1165	0	32775	32743	32759	32762	32757	32642	32574	32707	
1166	0	32818	32745	32647	32807	32695	32715	32557	32699	
1167	0	32730	32583	32823	32759	32647	32743	32579	32850	
1168	0	32758	32669	32823	32717	32706	32711	32543	32727	
1169	0	32715	32645	32735	32785	32709	32627	32565	32738	
1170	0	32731	32593	32719	32735	32655	32703	32513	32775	
1171	0	32788	32687	32810	32787	32647	32647	32507	32719	
1172	0	32753	32775	32786	32809	32747	32687	32538	32573	
1173	0	32749	32534	32758	32786	32754	32751	32595	32850	
1174	0	32749	32775	32685	32785	32629	32802	32593	32751	
1175	0	32775	32669	32771	32743	32727	32726	32641	32583	
1176	0	32700	32757	32791	32796	32647	32706	32709	32813	
1177	0	32791	32498	32815	32750	32677	32747	32716	32771	
1178	0	32767	32693	32698	32789	32685	32695	32692	32589	
1179	0	32758	32750	32815	32759	32676	32751	32711	32747	
1180	0	32766	32673	32662	32659	32735	32583	32722	32775	
1181	0	32753	32759	32785	32679	32689	32695	32711	32707	
1182	0	32807	32543	32799	32721	32711	32711	32626	32550	
1183	0	32756	32635	32615	32729	32707	32663	32663	32773	
1184	0	32727	32738	32787	32643	32695	32655	32703	32742	
1185	0	32760	32787	32647	32771	32723	32639	32642	32722	
1186	0	32780	32849	32711	32742	32743	32679	32581	32643	
1187	0	32713	32548	32729	32791	32854	32694	32623	32883	
1188	0	32726	32763	32658	32711	32820	32756	32583	32787	
1189	0	32804	32727	32811	32742	32773	32756	32546	32805	
1190	0	32768	32711	32795	32730	32726	32761	32562	32685	
1191	0	32744	32621	32823	32811	32738	32738	32611	32862	
1192	0	32773	32535	32775	32771	32591	32706	32507	32772	
1193	0	32759	32748	32647	32765	32669	32690	32635	32666	
1194	0	32745	32695	32748	32827	32721	32711	32815	32794	
1195	0	32741	32721	32683	32799	32746	32694	32623	32799	
1196	0	32783	32647	32715	32738	32790	32711	32785	32775	
1197	0	32793	32571	32845	32743	32671	32743	32749	32571	
1198	0	32728	32716	32687	32742	32639	32789	32607	32839	
1199	0	32759	32647	32647	32756	32715	32749	32599	32775	
1200	0	32721	32743	32775	32732	32717	32717	32621	32694	
1201	0	32715	32487	32693	32775	32687	32735	32770	32598	
1202	0	32687	32708	32775	32757	32829	32775	32772	32875	
1203	0	32735	32711	32591	32707	32743	32679	32607	32803	
1204	0	32773	32623	32775	32758	32718	32647	32599	32639	
1205	0	32756	32764	32758	32766	32695	32708	32515	32877	
1206	0	32807	32707	32697	32749	32695	32743	32548	32836	
1207	0	32807	32595	32614	32813	32743	32745	32591	32666	
1208	0	32767	32765	32817	32759	32731	32726	32703	32787	
1209	0	32796	32751	32821	32791	32623	32707	32725	32703	
1210	0	32777	32687	32839	32738	32775	32807	32668	32551	
1211	0	32775	32610	32671	32703	32751	32825	32591	32765	
1212	0	32749	32796	32783	32807	32647	32807	32493	32711	
1213	0	32773	32743	32751	32739	32791	32673	32663	32519	
1214	0	32720	32586	32827	32731	32754	32662	32751	32725	
1215	0	32725	32710	32612	32735	32782	32679	32703	32726	
1216	0	32754	32686	32823	32755	32639	32747	32719	32559	
1217	0	32815	32683	32850	32755	32733	32731	32607	32631	
1218	0	32793	32775	32739	32701	32674	32663	32581	32817	
1219	0	32854	32594	32790	32767	32683	32639	32604	32773	
1220	0	32783	32708	32639	32855	32714	32629	32541	32725	
1221	0	32729	32734	32711	32807	32762	32743	32626	32703	
1222	0	32754	32775	32793	32695	32663	32790	32621	32807	
1223	0	32764	32658	32735	32775	32742	32754	32603	32735	
1224	0	32736	32587	32833	32862	32733	32757	32639	32721	
1225	0	32704	32715	32875	32772	32679	32719	32695	32634	
1226	0	32769	32685	32715	32735	32765	32743	32703	32799	
1227	0	32719	32503	32758	32717	32783	32722	32647	32701	
1228	0	32769	32702	32783	32759	32807	32631	32690	32675	
1229	0	32720	32667	32647	32785	32837	32671	32583	32775	
1230	0	32761	32630	32743	32767	32859	32684	32639	32746	
1231	0	32759	32567	32717	32749	32859	32615	32670	32615	
1232	0	32760	32727	32794	32703	32703	32607	32627	32725	
1233	0	32695	32735	32735	32751	32759	32679	32647	32914	
1234	0	32718	32756	32639	32769	32839	32783	32708	32827	
1235	0	32758	32587	32814	32829	32741	32743	32678	32659	
1236	0	32736	32695	32807	32743	32647	32759	32653	32731	
1237	0	32783	32714	32797	32735	32703	32775	32731	32867	
1238	0	32749	32556	32713	32695	32815	32791	32784	32723	
1239	0	32743	32751	32775	32772	32671	32756	32723	32617	
1240	0	32737	32669	32765	32771	32791	32655	32711	32860	
1241	0	32751	32647	32761	32731	32660	32567	32759	32762	
1242	0	32723	32639	32799	32753	32701	32699	32575	32583	
1243	0	32759	32606	32719	32694	32585	32722	32484	32849	
1244	0	32807	32775	32827	32751	32740	32756	32623	32742	
1245	0	32820	32583	32621	32845	32709	32692	32623	32602	
1246	0	32824	32763	32759	32815	32705	32711	32676	32851	
1247	0	32731	32662	32775	32759	32631	32591	32687	32773	
1248	0	32810	32799	32845	32699	32723	32613	32642	32687	
1249	0	32810	32543	32775	32767	32686	32662	32678	32598	
1250	0	32775	32675	32749	32742	32605	32710	32739	32855	
1251	0	32748	32691	32669	32783	32630	32647	32678	32843	
1252	0	32733	32765	32815	32735	32727	32621	32667	32765	
1253	0	32750	32547	32767	32762	32703	32671	32655	32665	
1254	0	32722	32741	32635	32758	32591	32693	32661	32837	
1255	0	32733	32727	32839	32763	32739	32823	32696	32683	
1256	0	32724	32795	32738	32804	32669	32794	32676	32535	
1257	0	32748	32559	32727	32775	32647	32787	32733	32635	
1258	0	32830	32815	32698	32687	32623	32691	32747	32789	
1259	0	32742	32797	32870	32718	32993	32656	32567	32751	
1260	0	32765	32611	32750	32719	33029	32611	32714	32719	
1261	0	32760	32565	32731	32795	32987	32699	32613	32831	
1262	0	32726	32687	32591	32859	32703	32717	32599	32788	
1263	0	32742	32727	32775	32767	32716	32684	32679	32575	
1264	0	32711	32503	32711	32726	32655	32759	32647	32831	
1265	0	32773	32743	32663	32731	32687	32681	32703	32751	
1266	0	32748	32647	32734	32719	32604	32660	32694	32725	
1267	0	32763	32710	32685	32815	32727	32663	32715	32647	
1268	0	32748	32553	32805	32807	32667	32644	32799	32831	
1269	0	32808	32775	32749	32739	32791	32696	32581	32775	
1270	0	32731	32663	32863	32751	32718	32735	32583	32611	
1271	0	32706	32751	32786	32775	32718	32703	32495	32715	
1272	0	32791	32637	32703	32843	32775	32695	32647	32864	
1273	0	32775	32655	32621	32819	32662	32751	32519	32757	
1274	0	32796	32771	32765	32765	32822	32713	32551	32770	
1275	0	32791	32731	32675	32759	32691	32743	32543	32677	
1276	0	32736	32615	32775	32735	32706	32767	32511	32783	
1277	0	32756	32676	32647	32751	32647	32847	32615	32706	
1278	0	32775	32749	32786	32731	32745	32735	32629	32587	
1279	0	32740	32717	32743	32687	32759	32583	32647	32811	
1280	0	32829	32561	32607	32717	32685	32660	32703	32742	
1281	0	32843	32561	32742	32795	32788	32687	32708	32605	
1282	0	32711	32747	32797	32775	32765	32615	32699	32523	
1283	0	32780	32749	32775	32831	32733	32773	32685	32791	
1284	0	32735	32663	32632	32713	32691	32774	32647	32775	
1285	0	32738	32563	32812	32714	32695	32775	32670	32700	
1286	0	32775	32551	32769	32771	32693	32759	32695	32558	
1287	0	32795	32623	32815	32677	32759	32711	32749	32775	
1288	0	32767	32775	32823	32711	32765	32791	32639	32927	
1289	0	32742	32743	32681	32733	32693	32775	32484	32818	
1290	0	32769	32735	32741	32743	32751	32842	32621	32804	
1291	0	32762	32679	32853	32726	32773	32799	32811	32582	
1292	0	32817	32646	32847	32693	32622	32755	32647	32849	
1293	0	32815	32711	32647	32679	32811	32751	32511	32812	
1294	0	32815	32799	32743	32757	32756	32637	32551	32631	
1295	0	32796	32658	32795	32764	32799	32591	32647	32799	
1296	0	32751	32757	32590	32751	32721	32706	32719	32718	
1297	0	32673	32783	32859	32758	32637	32735	32656	32591	
1298	0	32735	32559	32810	32755	32775	32765	32647	32895	
1299	0	32715	32733	32647	32717	32687	32735	32627	32751	
1300	0	32694	32695	32853	32725	32671	32759	32646	32487	
1301	0	32738	32767	32756	32783	32663	32679	32679	32646	
1302	0	32775	32610	32799	32775	32711	32671	32757	32767	
1303	0	32694	32749	32691	32759	32790	32597	32706	32791	
1304	0	32691	32681	32717	32711	32743	32655	32762	32606	
1305	0	32709	32578	32769	32690	32702	32711	32583	32869	
1306	0	32735	32658	32710	32709	32843	32694	32551	32775	
1307	0	32793	32629	32763	32743	32731	32714	32591	32551	
1308	0	32772	32685	32850	32791	32873	32679	32703	32861	
1309	0	32732	32609	32677	32795	32735	32607	32751	32739	
1310	0	32761	32711	32805	32725	32790	32627	32690	32582	
1311	0	32817	32711	32805	32707	32715	32739	32669	32886	
1312	0	32727	32715	32807	32742	32687	32771	32684	32847	
1313	0	32725	32542	32615	32747	32684	32757	32703	32738	
1314	0	32810	32703	32813	32775	32727	32771	32623	32590	
1315	0	32750	32683	32707	32827	32775	32810	32607	32811	
1316	0	32747	32766	32751	32756	32671	32701	32663	32771	
1317	0	32793	32557	32623	32749	32786	32727	32621	32764	
1318	0	32757	32748	32675	32773	32735	32668	32685	32645	
1319	0	32716	32709	32797	32798	32747	32683	32620	32767	
1320	0	32796	32775	32615	32710	32633	32647	32567	32749	
1321	0	32813	32615	32675	32717	32678	32687	32638	32623	
1322	0	32845	32641	32775	32775	32723	32655	32655	32694	
1323	0	32852	32734	32692	32814	32655	32644	32654	32863	
1324	0	32749	32722	32775	32757	32727	32687	32749	32743	
1325	0	32749	32775	32787	32743	32671	32642	32711	32703	
1326	0	32783	32483	32735	32739	32725	32756	32722	32607	
1327	0	32748	32691	32799	32785	32703	32749	32745	32850	
1328	0	32763	32725	32790	32786	32647	32711	32738	32769	
1329	0	32766	32681	32874	32729	32639	32742	32493	32631	
1330	0	32751	32578	32763	32709	32707	32703	32551	32698	
1331	0	32750	32668	32811	32748	32695	32738	32569	32815	
1332	0	32790	32773	32759	32775	32647	32713	32588	32807	
1333	0	32824	32675	32761	32721	32715	32746	32559	32735	
1334	0	32775	32791	32813	32799	32644	32690	32570	32628	
1335	0	32746	32635	32578	32738	32599	32703	32582	32791	
1336	0	32756	32743	32798	32807	32666	32615	32551	32687	
1337	0	32759	32753	32807	32773	32678	32719	32638	32605	
1338	0	32786	32765	32679	32783	32715	32757	32617	32835	
1339	0	32818	32514	32571	32727	32683	32723	32613	32751	
1340	0	32772	32615	32709	32709	32691	32727	32598	32758	
1341	0	32793	32709	32677	32801	32743	32735	32638	32615	
1342	0	32783	32829	32737	32877	32677	32659	32647	32829	
1343	0	32775	32785	32591	32738	32751	32589	32562	32837	
1344	0	32740	32599	32583	32775	32763	32587	32647	32647	
1345	0	32775	32723	32742	32825	32647	32570	32595	32775	
1346	0	32844	32763	32707	32839	32786	32646	32804	32891	
1347	0	32815	32847	32623	32732	32726	32659	32718	32767	
1348	0	32775	32703	32759	32807	32715	32687	32730	32735	
1349	0	32747	32807	32686	32786	32603	32692	32751	32935	
1350	0	32799	32807	32775	32762	32711	32784	32700	32821	
1351	0	32861	32707	32669	32695	32717	32703	32609	32676	
1352	0	32854	32669	32845	32775	32764	32677	32732	32871	
1353	0	32938	32731	32844	32771	32692	32637	32815	32885	
1354	0	32934	32749	32839	32695	32729	32735	32863	32811	
1355	0	32881	32647	32783	32684	32799	32775	32838	32743	
1356	0	32923	32715	32807	32702	32681	32789	32788	32878	
1357	0	32846	32671	32919	32743	32863	32762	32731	32807	
1358	0	32818	32711	32821	32763	32845	32807	32786	32663	
1359	0	32756	32508	32894	32729	32903	32767	32647	32821	
1360	0	32733	32717	32837	32775	32787	32711	32691	32767	
1361	0	32724	32709	32751	32763	32803	32815	32742	32543	
1362	0	32775	32492	32967	32671	32851	32807	32720	32803	
1363	0	32799	32647	32820	32647	32765	32757	32495	32647	
1364	0	32743	32706	32769	32609	32820	32711	32501	32530	
1365	0	32690	32575	32903	32678	32804	32711	32667	32731	
1366	0	32681	32612	32975	32709	32724	32818	32571	32685	
1367	0	32691	32500	32781	32695	32738	32823	32676	32507	
1368	0	32631	32550	32900	32646	32755	32749	32521	32667	
1369	0	32653	32615	33003	32663	32775	32775	32487	32391	
1370	0	32652	32428	32858	32698	32839	32883	32591	32609	
1371	0	32726	32495	33043	32663	32854	32893	32727	32641	
1372	0	32728	32579	32991	32587	32787	32804	32702	32530	
1373	0	32637	32443	32847	32675	32775	32708	32679	32807	
1374	0	32699	32533	32939	32644	32975	32821	32813	32775	
1375	0	32734	32571	32877	32605	33201	32759	32751	32607	
1376	0	32722	32390	32692	32594	33119	32789	32690	32791	
1377	0	32609	32620	32835	32687	32805	32831	32683	32615	
1378	0	32539	32679	32735	32715	32695	32687	32357	32586	
1379	0	32446	32607	32495	32871	32611	32605	32233	32525	
1380	0	32416	32687	32620	32895	32583	32607	32155	32327	
1381	0	32438	32799	32534	33031	32459	32631	32111	32427	
1382	0	32357	32641	32373	32999	32470	32543	32135	32478	
1383	0	32343	32756	32401	33113	32530	32591	32078	32351	
1384	0	32347	32815	32386	32979	32471	32511	32198	32613	
1385	0	32412	32647	32310	32985	32479	32540	32299	32589	
1386	0	32408	32771	32391	32898	32383	32615	32457	32610	
1387	0	32457	32839	32389	32875	32420	32617	32200	32747	
1388	0	32443	32633	32335	32871	32455	32619	32356	32737	
1389	0	32463	32837	32463	32860	32445	32605	32525	32806	
1390	0	32516	32806	32549	32845	32495	32507	32551	32802	
1391	0	32626	32642	32446	32790	32477	32471	32530	32695	
1392	0	32647	32669	32525	32759	32588	32573	32455	32663	
1393	0	32647	32689	32602	32755	32671	32641	32631	32843	
1394	0	32749	32822	32473	32763	32647	32679	32695	32839	
1395	0	32839	32647	32687	32865	32647	32665	32735	32662	
1396	0	32880	32935	32615	32838	32749	32683	32783	32903	
1397	0	32878	32775	32751	32749	32839	32663	32815	32921	
1398	0	32911	32912	32674	32771	32852	32621	32861	32896	
1399	0	32854	32667	32845	32817	32873	32519	32815	32738	
1400	0	32832	32821	32767	32827	32854	32565	32823	32819	
1401	0	32748	32743	32698	32841	32715	32495	32803	32810	
1402	0	32762	32585	32871	32871	32679	32589	32591	32709	
1403	0	32814	32731	32786	32827	32674	32659	32589	32871	
1404	0	32788	32715	32775	32791	32647	32694	32775	32841	
1405	0	32856	32719	32775	32711	32647	32693	32788	32764	
1406	0	32903	32638	32758	32739	32549	32675	32835	33005	
1407	0	32971	32852	32807	32759	32700	32625	32971	32943	
1408	0	33023	32850	32742	32717	32702	32643	32919	32790	
1409	0	33044	32663	32887	32667	32679	32646	32966	32991	
1410	0	33154	32683	32814	32711	32662	32755	32901	32931	
1411	0	33126	32669	32863	32647	32823	32751	32935	32763	
1412	0	33093	32587	32831	32639	32748	32772	32996	32940	
1413	0	33097	32508	32884	32711	32786	32786	32883	32899	
1414	0	33086	32795	32871	32630	32775	32807	32871	32877	
1415	0	33119	32695	32743	32547	32823	32795	32851	32734	
1416	0	33111	32634	32900	32511	32819	32892	32887	32963	
1417	0	33058	32771	32887	32615	32775	32796	32910	32844	
1418	0	33030	32829	32862	32645	32771	32883	32999	32955	
1419	0	33020	32718	32895	32711	32797	32902	32935	32834	
1420	0	33039	32879	32860	32675	32813	32931	32943	32739	
1421	0	33012	32903	32897	32703	32815	32802	32981	32921	
1422	0	33001	32687	32702	32627	32775	32733	32917	32956	
1423	0	32999	32807	32811	32577	32685	32655	32919	32749	
1424	0	32956	32839	32847	32673	32743	32764	32833	32875	
1425	0	32896	32698	32717	32663	32735	32743	32814	32838	
1426	0	32902	32866	32747	32655	32839	32671	32783	32695	
1427	0	32863	32797	32830	32711	32759	32637	32863	32881	
1428	0	32809	32538	32871	32685	32734	32829	32607	32631	
1429	0	32752	32771	32854	32762	32815	32767	32527	32806	
1430	0	32743	32687	32759	32735	32765	32775	32459	32759	
1431	0	32731	32575	32863	32718	32799	32727	32497	32567	
1432	0	32739	32714	32821	32733	32771	32698	32629	32767	
1433	0	32749	32690	32819	32783	32738	32755	32699	32562	
1434	0	32681	32669	32766	32750	32727	32755	32675	32764	
1435	0	32687	32735	32639	32677	32722	32631	32643	32675	
1436	0	32664	32751	32798	32762	32797	32675	32609	32567	
1437	0	32685	32575	32766	32794	32763	32694	32627	32751	
1438	0	32667	32647	32635	32729	32745	32754	32662	32545	
1439	0	32655	32503	32741	32725	32683	32685	32457	32791	
1440	0	32671	32690	32701	32767	32617	32687	32477	32676	
1441	0	32647	32738	32663	32763	32659	32615	32459	32613	
1442	0	32647	32646	32703	32794	32675	32743	32550	32699	
1443	0	32677	32641	32612	32815	32757	32695	32493	32501	
1444	0	32671	32531	32722	32823	32709	32599	32623	32727	
1445	0	32666	32774	32719	32841	32775	32564	32599	32697	
1446	0	32632	32675	32722	32807	32715	32646	32557	32708	
1447	0	32636	32567	32802	32767	32687	32683	32581	32687	
1448	0	32646	32711	32797	32703	32783	32723	32575	32543	
1449	0	32726	32655	32687	32733	32709	32765	32535	32782	
1450	0	32751	32454	32747	32775	32766	32775	32635	32762	
1451	0	32718	32671	32695	32690	32679	32662	32595	32569	
1452	0	32722	32647	32775	32775	32814	32647	32635	32815	
1453	0	32688	32531	32765	32794	32737	32647	32587	32751	
1454	0	32772	32727	32771	32775	32751	32759	32605	32621	
1455	0	32723	32687	32647	32775	32679	32697	32693	32794	
1456	0	32689	32607	32711	32775	32679	32696	32685	32663	
1457	0	32738	32559	32755	32707	32736	32745	32695	32543	
1458	0	32695	32695	32808	32698	32770	32754	32730	32806	
1459	0	32730	32739	32627	32747	32711	32783	32695	32711	
1460	0	32720	32643	32707	32791	32695	32775	32669	32510	
1461	0	32715	32742	32831	32835	32667	32659	32732	32755	
1462	0	32726	32607	32775	32722	32687	32640	32759	32751	
1463	0	32743	32721	32745	32711	32617	32647	32756	32534	
1464	0	32699	32475	32759	32764	32786	32647	32767	32775	
1465	0	32719	32709	32815	32739	32756	32741	32591	32769	
1466	0	32754	32695	32663	32843	32719	32738	32563	32620	
1467	0	32759	32685	32845	32901	32599	32698	32531	32815	
1468	0	32756	32723	32738	32788	32667	32715	32455	32771	
1469	0	32783	32831	32819	32775	32703	32727	32501	32775	
1470	0	32775	32705	32743	32703	32791	32678	32515	32733	
1471	0	32732	32771	32804	32835	32707	32611	32646	32749	
1472	0	32765	32645	32663	32788	32733	32695	32602	32619	
1473	0	32702	32819	32772	32775	32813	32722	32655	32833	
1474	0	32747	32733	32730	32791	32743	32701	32659	32791	
1475	0	32713	32683	32846	32775	32727	32719	32631	32775	
1476	0	32775	32487	32694	32737	32715	32663	32730	32667	
1477	0	32756	32675	32732	32786	32759	32747	32717	32655	
1478	0	32780	32718	32683	32765	32737	32731	32677	32887	
1479	0	32812	32694	32826	32711	32673	32655	32546	32762	
1480	0	32762	32694	32732	32775	32702	32647	32636	32645	
1481	0	32708	32642	32682	32717	32806	32783	32660	32842	
1482	0	32716	32553	32786	32731	32689	32787	32679	32727	
1483	0	32754	32647	32802	32683	32759	32815	32698	32575	
1484	0	32775	32631	32699	32703	32741	32775	32659	32759	
1485	0	32773	32613	32751	32753	32761	32647	32686	32775	
1486	0	32786	32570	32647	32797	32797	32662	32711	32577	
1487	0	32759	32647	32723	32751	32766	32647	32727	32775	
1488	0	32698	32733	32791	32715	32771	32722	32647	32695	
1489	0	32714	32662	32753	32775	32663	32662	32615	32706	
1490	0	32721	32698	32723	32695	32599	32763	32543	32758	
1491	0	32743	32706	32635	32743	32714	32723	32599	32543	
1492	0	32703	32659	32743	32743	32658	32675	32611	32831	
1493	0	32735	32679	32773	32735	32706	32727	32679	32765	
1494	0	32790	32759	32815	32727	32674	32695	32711	32583	
1495	0	32798	32663	32838	32827	32685	32621	32703	32802	
1496	0	32765	32689	32767	32870	32807	32675	32791	32767	
1497	0	32730	32711	32773	32867	32757	32767	32730	32663	
1498	0	32780	32591	32740	32787	32663	32711	32697	32871	
1499	0	32745	32751	32639	32754	32717	32719	32639	32772	
1500	0	32743	32743	32731	32759	32743	32631	32611	32639	
1501	0	32747	32679	32731	32755	32835	32751	32647	32877	
1502	0	32729	32647	32743	32807	32869	32732	32674	32765	
1503	0	32756	32621	32814	32799	32726	32715	32623	32717	
1504	0	32775	32646	32804	32775	32726	32739	32602	32743	
1505	0	32767	32623	32745	32782	32773	32632	32595	32743	
1506	0	32754	32679	32765	32739	32703	32603	32663	32724	
1507	0	32775	32711	32711	32718	32663	32635	32713	32757	
1508	0	32791	32542	32801	32775	32743	32691	32627	32703	
1509	0	32764	32748	32863	32834	32711	32775	32659	32590	
1510	0	32775	32742	32767	32751	32743	32783	32733	32843	
1511	0	32810	32690	32647	32678	32635	32701	32692	32809	
1512	0	32796	32775	32679	32727	32687	32738	32707	32613	
1513	0	32775	32671	32818	32738	32677	32783	32735	32775	
1514	0	32715	32631	32685	32739	32757	32627	32634	32804	
1515	0	32733	32731	32837	32786	32663	32677	32567	32602	
1516	0	32748	32701	32823	32765	32807	32775	32613	32899	
1517	0	32765	32519	32741	32828	32860	32695	32687	32754	
1518	0	32789	32695	32751	32820	32747	32755	32690	32701	
1519	0	32790	32737	32827	32766	32669	32626	32678	32759	
1520	0	32812	32583	32719	32711	32647	32602	32723	32596	
1521	0	32758	32738	32810	32725	32627	32615	32639	32717	
1522	0	32821	32701	32771	32745	32775	32708	32662	32727	
1523	0	32758	32586	32621	32711	32707	32770	32671	32573	
1524	0	32761	32751	32733	32663	32743	32722	32655	32871	
1525	0	32761	32815	32786	32751	32699	32735	32698	32725	
1526	0	32749	32639	32704	32713	32774	32607	32689	32625	
1527	0	32765	32801	32757	32655	32834	32727	32706	32875	
1528	0	32760	32763	32831	32671	32733	32646	32743	32758	
1529	0	32731	32533	32723	32735	32739	32699	32727	32631	
1530	0	32752	32637	32767	32711	32702	32775	32646	32766	
1531	0	32729	32631	32711	32771	32691	32742	32607	32559	
1532	0	32703	32711	32835	32839	32661	32607	32621	32847	
1533	0	32784	32669	32799	32898	32799	32656	32662	32763	
1534	0	32769	32565	32647	32839	32851	32655	32711	32610	
1535	0	32703	32775	32754	32827	32775	32727	32655	32837	
1536	0	32733	32735	32715	32760	32695	32799	32693	32735	
1537	0	32734	32586	32751	32724	32795	32767	32789	32607	
1538	0	32777	32675	32695	32824	32759	32719	32692	32807	
1539	0	32750	32721	32716	32829	32703	32703	32719	32742	
1540	0	32751	32722	32791	32811	32647	32743	32762	32681	
1541	0	32786	32610	32671	32831	32685	32663	32647	32767	
1542	0	32775	32811	32743	32763	32749	32687	32675	32773	
1543	0	32769	32734	32742	32763	32719	32690	32719	32773	
1544	0	32762	32706	32713	32775	32743	32678	32643	32639	
1545	0	32775	32727	32822	32687	32697	32655	32503	32731	
1546	0	32792	32617	32662	32669	32686	32634	32555	32875	
1547	0	32793	32659	32775	32717	32702	32605	32582	32787	
1548	0	32819	32661	32826	32783	32729	32661	32595	32599	
1549	0	32779	32621	32837	32719	32647	32631	32814	32807	
1550	0	32790	32555	32775	32687	32722	32607	32783	32847	
1551	0	32829	32799	32691	32718	32679	32748	32736	32697	
1552	0	32775	32795	32796	32809	32691	32700	32637	32639	
1553	0	32856	32562	32759	32755	32630	32751	32643	32791	
1554	0	32769	32724	32829	32685	32743	32758	32647	32719	
1555	0	32713	32677	32659	32733	32819	32683	32580	32555	
1556	0	32744	32631	32754	32775	32646	32753	32666	32818	
1557	0	32775	32615	32713	32803	32772	32631	32761	32788	
1558	0	32730	32683	32770	32705	32727	32658	32746	32615	
1559	0	32790	32748	32629	32775	32703	32697	32699	32791	
1560	0	32768	32557	32743	32775	32647	32671	32747	32763	
1561	0	32792	32719	32663	32701	32775	32821	32699	32640	
1562	0	32685	32717	32794	32822	32751	32751	32668	32863	
1563	0	32741	32756	32731	32785	32690	32757	32679	32745	
1564	0	32740	32599	32669	32719	32732	32735	32689	32711	
1565	0	32717	32742	32711	32757	32679	32745	32669	32719	
1566	0	32734	32647	32770	32701	32799	32683	32627	32743	
1567	0	32707	32591	32607	32771	32622	32691	32612	32700	
1568	0	32812	32730	32799	32788	32671	32589	32563	32631	
1569	0	32775	32727	32774	32775	32677	32674	32604	32820	
1570	0	32745	32799	32823	32723	32756	32695	32671	32783	
1571	0	32759	32642	32634	32775	32647	32767	32726	32533	
1572	0	32823	32659	32691	32797	32726	32724	32551	32543	
1573	0	32772	32735	32813	32738	32811	32735	32591	32751	
1574	0	32718	32803	32830	32692	32711	32695	32585	32751	
1575	0	32724	32551	32709	32719	32846	32749	32551	32613	
1576	0	32647	32679	32671	32741	32809	32762	32687	32751	
1577	0	32736	32647	32735	32741	32835	32713	32571	32785	
1578	0	32762	32647	32863	32787	32709	32694	32823	32754	
1579	0	32756	32571	32692	32751	32823	32629	32716	32637	
1580	0	32807	32631	32663	32755	32823	32658	32703	32747	
1581	0	32775	32717	32759	32743	32671	32647	32647	32775	
1582	0	32771	32775	32681	32793	32799	32687	32679	32732	
1583	0	32699	32700	32789	32709	32823	32679	32647	32641	
1584	0	32787	32660	32655	32661	32713	32790	32647	32842	
1585	0	32774	32642	32796	32675	32684	32707	32662	32767	
1586	0	32771	32765	32762	32775	32738	32723	32690	32615	
1587	0	32734	32610	32827	32772	32683	32796	32703	32771	
1588	0	32781	32775	32715	32763	32685	32717	32647	32841	
1589	0	32786	32799	32787	32767	32647	32655	32756	32743	
1590	0	32743	32573	32823	32775	32811	32667	32747	32751	
1591	0	32829	32733	32647	32719	32755	32683	32775	32775	
1592	0	32799	32647	32647	32815	32729	32806	32805	32623	
1593	0	32708	32707	32637	32766	32759	32660	32549	32871	
1594	0	32748	32719	32839	32775	32737	32639	32501	32719	
1595	0	32769	32615	32674	32735	32675	32772	32500	32658	
1596	0	32814	32603	32871	32711	32775	32771	32525	32833	
1597	0	32740	32685	32599	32735	32669	32743	32511	32759	
1598	0	32736	32759	32786	32749	32703	32662	32583	32608	
1599	0	32775	32767	32743	32775	32675	32629	32599	32759	
1600	0	32727	32715	32585	32738	32640	32679	32739	32708	
1601	0	32765	32607	32745	32773	32775	32638	32707	32644	
1602	0	32755	32743	32827	32819	32762	32675	32695	32819	
1603	0	32727	32743	32646	32804	32773	32771	32705	32765	
1604	0	32759	32645	32854	32716	32741	32711	32598	32637	
1605	0	32799	32773	32753	32727	32622	32711	32647	32859	
1606	0	32775	32683	32647	32765	32709	32767	32647	32794	
1607	0	32775	32551	32811	32742	32711	32695	32689	32523	
1608	0	32795	32709	32730	32768	32775	32839	32698	32740	
1609	0	32740	32647	32671	32821	32727	32786	32674	32759	
1610	0	32727	32607	32871	32795	32635	32663	32639	32751	
1611	0	32759	32687	32805	32713	32787	32641	32615	32685	
1612	0	32763	32670	32807	32739	32743	32684	32670	32871	
1613	0	32740	32759	32690	32735	32674	32767	32630	32804	
1614	0	32729	32567	32725	32758	32619	32754	32583	32619	
1615	0	32727	32755	32723	32735	32661	32743	32627	32827	
1616	0	32701	32699	32607	32789	32787	32822	32671	32757	
1617	0	32719	32767	32759	32679	32834	32755	32679	32756	
1618	0	32810	32647	32731	32775	32730	32673	32682	32590	
1619	0	32837	32773	32765	32770	32762	32623	32713	32806	
1620	0	32751	32699	32647	32761	32802	32599	32573	32858	
1621	0	32755	32710	32647	32612	32684	32583	32541	32775	
1622	0	32747	32685	32860	32711	32738	32623	32603	32735	
1623	0	32775	32627	32747	32687	32709	32741	32587	32594	
1624	0	32788	32679	32797	32647	32647	32733	32601	32814	
1625	0	32813	32731	32711	32702	32719	32803	32559	32743	
1626	0	32746	32559	32775	32764	32783	32793	32596	32565	
1627	0	32723	32679	32815	32647	32775	32674	32493	32767	
1628	0	32762	32701	32843	32719	32671	32641	32525	32786	
1629	0	32740	32575	32815	32826	32667	32759	32541	32549	
1630	0	32757	32759	32792	32771	32727	32742	32663	32775	
1631	0	32771	32742	32679	32775	32716	32645	32741	32759	
1632	0	32788	32671	32839	32767	32775	32578	32733	32630	
1633	0	32775	32695	32789	32855	32925	32639	32701	32852	
1634	0	32791	32743	32742	32797	32726	32732	32633	32791	
1635	0	32711	32578	32627	32851	32769	32699	32739	32814	
1636	0	32769	32735	32677	32818	32727	32719	32773	32755	
1637	0	32746	32699	32862	32751	32620	32743	32679	32738	
1638	0	32764	32811	32647	32775	32573	32623	32583	32695	
1639	0	32769	32623	32759	32759	32715	32594	32601	32629	
1640	0	32780	32762	32729	32771	32635	32633	32703	32828	
1641	0	32745	32699	32613	32799	32767	32681	32685	32759	
1642	0	32749	32621	32749	32815	32695	32678	32654	32637	
1643	0	32762	32791	32747	32812	32610	32758	32619	32903	
1644	0	32789	32761	32623	32783	32723	32755	32647	32775	
1645	0	32764	32746	32786	32743	32807	32671	32639	32621	
1646	0	32771	32587	32767	32799	32791	32575	32655	32846	
1647	0	32765	32755	32791	32831	32719	32610	32581	32816	
1648	0	32775	32750	32658	32775	32722	32707	32659	32719	
1649	0	32756	32628	32764	32775	32711	32754	32644	32743	
1650	0	32775	32773	32799	32743	32775	32722	32667	32823	
1651	0	32775	32727	32671	32759	32698	32711	32683	32737	
1652	0	32733	32679	32807	32743	32822	32725	32668	32565	
1653	0	32743	32621	32845	32775	32729	32739	32619	32631	
1654	0	32741	32577	32749	32751	32677	32589	32722	32837	
1655	0	32735	32769	32660	32682	32761	32611	32667	32738	
1656	0	32689	32708	32719	32775	32731	32555	32633	32565	
1657	0	32736	32565	32773	32767	32743	32743	32607	32843	
1658	0	32679	32789	32694	32831	32694	32679	32702	32802	
1659	0	32765	32719	32647	32795	32607	32757	32675	32615	
1660	0	32742	32505	32794	32815	32621	32668	32711	32871	
1661	0	32749	32743	32665	32817	32739	32677	32762	32791	
1662	0	32760	32751	32679	32871	32671	32641	32711	32615	
1663	0	32715	32563	32775	32775	32578	32711	32723	32697	
1664	0	32726	32763	32685	32727	32733	32740	32701	32769	
1665	0	32794	32686	32711	32732	32692	32687	32773	32721	
1666	0	32694	32707	32775	32827	32735	32703	32706	32771	
1667	0	32743	32531	32830	32775	32689	32774	32724	32695	
1668	0	32741	32786	32660	32749	32805	32731	32710	32733	
1669	0	32747	32695	32799	32739	32695	32615	32725	32709	
1670	0	32789	32759	32743	32764	32722	32698	32657	32579	
1671	0	32764	32580	32787	32741	32661	32719	32628	32815	
1672	0	32751	32734	32659	32727	32709	32751	32583	32767	
1673	0	32795	32701	32787	32775	32763	32702	32671	32628	
1674	0	32746	32605	32771	32813	32687	32800	32719	32807	
1675	0	32743	32807	32671	32799	32571	32635	32759	32771	
1676	0	32771	32735	32775	32749	32622	32669	32661	32647	
1677	0	32782	32602	32771	32751	32775	32703	32791	32895	
1678	0	32743	32722	32789	32731	32809	32808	32614	32715	
1679	0	32796	32643	32644	32749	32679	32819	32621	32532	
1680	0	32759	32582	32731	32770	32703	32783	32583	32853	
1681	0	32718	32639	32769	32785	32743	32775	32615	32831	
1682	0	32721	32635	32635	32687	32755	32671	32783	32640	
1683	0	32747	32763	32725	32663	32682	32683	32727	32709	
1684	0	32749	32711	32787	32703	32749	32698	32635	32743	
1685	0	32757	32517	32815	32775	32772	32722	32629	32738	
1686	0	32791	32699	32775	32786	32647	32663	32615	32551	
1687	0	32768	32695	32679	32709	32711	32641	32711	32673	
1688	0	32731	32742	32757	32775	32741	32647	32658	32770	
1689	0	32783	32704	32703	32774	32743	32695	32647	32751	
1690	0	32802	32535	32767	32694	32853	32595	32535	32623	
1691	0	32825	32707	32754	32743	32804	32629	32495	32679	
1692	0	32758	32643	32831	32741	32743	32711	32607	32870	
1693	0	32791	32693	32811	32783	32675	32722	32579	32731	
1694	0	32703	32675	32829	32835	32733	32643	32610	32623	
1695	0	32748	32655	32763	32786	32751	32685	32658	32871	
1696	0	32846	32765	32773	32799	32726	32603	32645	32757	
1697	0	32834	32535	32820	32743	32705	32647	32509	32655	
1698	0	32831	32731	32677	32773	32813	32643	32567	32642	
1699	0	32708	32742	32791	32802	32807	32773	32674	32775	
1700	0	32762	32525	32743	32765	32743	32769	32587	32683	
1701	0	32804	32695	32784	32723	32671	32709	32611	32595	
1702	0	32775	32668	32783	32671	32810	32746	32519	32847	
1703	0	32774	32749	32739	32683	32827	32743	32583	32791	
1704	0	32777	32579	32751	32745	32659	32639	32610	32719	
1705	0	32736	32786	32711	32735	32720	32636	32598	32615	
1706	0	32804	32679	32819	32727	32724	32713	32637	32913	
1707	0	32834	32602	32732	32762	32772	32804	32647	32759	
1708	0	32748	32686	32838	32725	32647	32775	32738	32598	
1709	0	32775	32711	32791	32787	32775	32749	32843	32903	
1710	0	32799	32773	32775	32757	32705	32787	32805	32790	
1711	0	32775	32538	32819	32799	32757	32727	32765	32771	
1712	0	32791	32727	32766	32719	32713	32596	32695	32631	
1713	0	32791	32695	32766	32765	32759	32565	32647	32759	
1714	0	32787	32735	32803	32797	32738	32655	32627	32871	
1715	0	32738	32541	32751	32839	32679	32620	32621	32807	
1716	0	32745	32741	32783	32771	32721	32765	32647	32575	
1717	0	32729	32749	32679	32677	32715	32738	32644	32771	
1718	0	32717	32583	32754	32716	32646	32694	32645	32749	
1719	0	32735	32671	32747	32735	32701	32706	32591	32560	
1720	0	32726	32679	32564	32783	32734	32719	32675	32718	
1721	0	32711	32647	32742	32754	32727	32661	32686	32750	
1722	0	32791	32583	32775	32698	32627	32681	32670	32775	
1723	0	32747	32731	32831	32741	32730	32662	32663	32615	
1724	0	32733	32711	32729	32743	32740	32659	32659	32679	
1725	0	32786	32655	32755	32775	32605	32687	32599	32870	
1726	0	32807	32583	32773	32711	32694	32669	32527	32739	
1727	0	32742	32739	32743	32764	32723	32677	32545	32591	
1728	0	32774	32739	32786	32755	32647	32775	32493	32749	
1729	0	32747	32749	32781	32717	32799	32821	32589	32703	
1730	0	32764	32554	32767	32755	32773	32767	32725	32724	
1731	0	32738	32747	32745	32703	32644	32729	32690	32723	
1732	0	32769	32807	32595	32771	32662	32775	32685	32668	
1733	0	32761	32807	32719	32756	32646	32699	32743	32799	
1734	0	32795	32775	32790	32764	32717	32739	32637	32887	
1735	0	32820	32799	32797	32694	32767	32703	32630	32793	
1736	0	32791	32605	32775	32726	32772	32717	32635	32771	
1737	0	32750	32783	32655	32747	32937	32772	32615	32615	
1738	0	32797	32719	32807	32743	32911	32690	32667	32760	
1739	0	32751	32692	32695	32727	32799	32687	32711	32775	
1740	0	32724	32669	32783	32763	32811	32671	32658	32749	
1741	0	32762	32503	32639	32751	32675	32775	32675	32743	
1742	0	32751	32583	32701	32751	32665	32762	32647	32571	
1743	0	32775	32758	32731	32785	32751	32767	32620	32775	
1744	0	32788	32695	32754	32775	32758	32765	32513	32801	
1745	0	32751	32676	32806	32723	32683	32734	32628	32691	
1746	0	32775	32731	32709	32751	32775	32791	32714	32729	
1747	0	32742	32671	32919	32775	32709	32713	32595	32705	
1748	0	32804	32663	32858	32791	32639	32694	32577	32806	
1749	0	32783	32613	32703	32766	32708	32735	32607	32775	
1750	0	32766	32631	32749	32782	32715	32713	32534	32625	
1751	0	32804	32660	32809	32783	32862	32679	32647	32879	
1752	0	32743	32787	32638	32804	32731	32727	32675	32716	
1753	0	32784	32615	32791	32785	32799	32689	32695	32660	
1754	0	32802	32727	32775	32751	32672	32671	32735	32837	
1755	0	32798	32713	32603	32775	32687	32741	32695	32767	
1756	0	32829	32566	32803	32764	32719	32757	32647	32567	
1757	0	32771	32605	32756	32763	32751	32739	32604	32810	
1758	0	32789	32751	32850	32726	32700	32735	32689	32845	
1759	0	32719	32711	32711	32723	32791	32690	32668	32733	
1760	0	32772	32737	32823	32775	32699	32685	32717	32587	
1761	0	32764	32614	32751	32749	32675	32743	32685	32826	
1762	0	32796	32829	32743	32823	32605	32670	32711	32743	
1763	0	32804	32767	32681	32709	32791	32633	32756	32729	
1764	0	32787	32559	32803	32723	32885	32675	32763	32646	
1765	0	32743	32572	32690	32773	32757	32679	32727	32789	
1766	0	32787	32686	32791	32751	32742	32671	32726	32815	
1767	0	32742	32658	32695	32759	32806	32639	32647	32827	
1768	0	32763	32727	32862	32742	32625	32679	32603	32775	
1769	0	32764	32591	32761	32714	32659	32771	32713	32642	
1770	0	32713	32499	32818	32807	32619	32755	32525	32829	
1771	0	32704	32647	32775	32751	32694	32707	32495	32839	
1772	0	32758	32655	32762	32751	32663	32855	32509	32743	
1773	0	32731	32703	32834	32749	32671	32756	32562	32551	
1774	0	32708	32595	32739	32738	32620	32695	32591	32807	
1775	0	32764	32561	32694	32810	32769	32702	32815	32791	
1776	0	32721	32711	32775	32783	32767	32758	32797	32741	
1777	0	32788	32719	32741	32767	32662	32755	32690	32709	
1778	0	32799	32583	32826	32751	32679	32638	32749	32784	
1779	0	32742	32667	32647	32797	32690	32679	32689	32723	
1780	0	32760	32799	32722	32827	32711	32662	32706	32581	
1781	0	32767	32727	32715	32723	32663	32685	32743	32732	
1782	0	32735	32637	32807	32775	32740	32702	32743	32783	
1783	0	32782	32687	32647	32706	32706	32706	32847	32773	
1784	0	32745	32751	32730	32655	32810	32710	32583	32640	
1785	0	32692	32755	32749	32686	32663	32739	32598	32796	
1786	0	32804	32525	32684	32865	32799	32702	32658	32773	
1787	0	32808	32647	32823	32759	32862	32675	32773	32748	
1788	0	32791	32693	32742	32721	32706	32623	32754	32596	
1789	0	32738	32679	32759	32775	32796	32635	32647	32671	
1790	0	32791	32775	32818	32813	32723	32647	32687	32855	
1791	0	32767	32527	32638	32755	32785	32687	32660	32702	
1792	0	32831	32707	32765	32743	32718	32743	32671	32725	
1793	0	32823	32707	32727	32747	32763	32662	32647	32775	
1794	0	32775	32577	32615	32767	32775	32647	32719	32771	
1795	0	32743	32759	32775	32773	32751	32569	32815	32646	
1796	0	32748	32702	32759	32707	32747	32647	32645	32838	
1797	0	32763	32586	32743	32741	32687	32767	32589	32802	
1798	0	32744	32756	32679	32791	32671	32711	32537	32623	
1799	0	32713	32662	32699	32791	32788	32726	32571	32887	
1800	0	32742	32607	32708	32693	32757	32738	32647	32838	
1801	0	32759	32823	32767	32711	32695	32687	32687	32615	
1802	0	32794	32711	32740	32704	32719	32783	32708	32850	
1803	0	32718	32735	32895	32755	32703	32798	32663	32739	
1804	0	32775	32484	32647	32799	32707	32708	32619	32503	
1805	0	32750	32660	32811	32831	32686	32765	32647	32775	
1806	0	32706	32719	32767	32775	32735	32721	32655	32809	
1807	0	32741	32631	32678	32767	32712	32757	32587	32807	
1808	0	32749	32551	32820	32748	32695	32727	32615	32610	
1809	0	32737	32828	32637	32827	32686	32647	32766	32743	
1810	0	32723	32786	32659	32788	32623	32633	32708	32851	
1811	0	32767	32786	32816	32829	32695	32699	32763	32769	
1812	0	32771	32724	32839	32745	32695	32734	32695	32633	
1813	0	32743	32759	32718	32769	32757	32695	32705	32875	
1814	0	32775	32823	32743	32829	32741	32742	32718	32815	
1815	0	32799	32819	32807	32735	32891	32759	32687	32797	
1816	0	32800	32561	32743	32747	32807	32735	32687	32634	
1817	0	32766	32749	32789	32743	32684	32702	32692	32807	
1818	0	32832	32675	32588	32775	32755	32711	32749	32759	
1819	0	32751	32711	32761	32773	32795	32724	32679	32772	
1820	0	32775	32527	32791	32647	32661	32633	32566	32695	
1821	0	32775	32607	32726	32775	32804	32685	32455	32548	
1822	0	32798	32711	32839	32756	32786	32695	32483	32793	
1823	0	32769	32695	32647	32699	32839	32735	32435	32686	
1824	0	32811	32519	32806	32706	32687	32774	32543	32606	
1825	0	32753	32717	32757	32681	32671	32683	32483	32885	
1826	0	32775	32655	32637	32775	32754	32691	32510	32767	
1827	0	32671	32572	32691	32751	32711	32643	32555	32591	
1828	0	32751	32689	32738	32735	32743	32658	32586	32821	
1829	0	32863	32669	32815	32762	32655	32689	32480	32743	
1830	0	32775	32595	32786	32751	32690	32703	32609	32631	
1831	0	32786	32646	32679	32775	32727	32718	32639	32739	
1832	0	32762	32775	32762	32690	32679	32767	32660	32811	
1833	0	32750	32775	32642	32773	32655	32715	32647	32756	
1834	0	32764	32631	32775	32767	32615	32647	32601	32627	
1835	0	32807	32738	32759	32727	32755	32646	32521	32749	
1836	0	32751	32730	32806	32789	32799	32642	32557	32815	
1837	0	32811	32634	32617	32766	32735	32707	32503	32748	
1838	0	32772	32691	32667	32767	32691	32719	32619	32603	
1839	0	32753	32763	32866	32759	32703	32647	32694	32735	
1840	0	32759	32663	32836	32773	32695	32711	32679	32877	
1841	0	32759	32727	32811	32736	32759	32733	32669	32775	
1842	0	32750	32551	32839	32749	32739	32759	32691	32695	
1843	0	32705	32570	32823	32786	32731	32727	32749	32614	
1844	0	32790	32759	32835	32799	32723	32739	32719	32855	
1845	0	32798	32719	32789	32743	32737	32775	32711	32717	
1846	0	32784	32615	32809	32747	32727	32691	32646	32598	
1847	0	32742	32773	32725	32743	32695	32731	32714	32765	
1848	0	32743	32643	32685	32766	32763	32671	32713	32751	
1849	0	32732	32716	32810	32807	32775	32647	32620	32756	
1850	0	32766	32583	32729	32763	32639	32685	32485	32619	
1851	0	32811	32610	32771	32783	32732	32615	32513	32834	
1852	0	32806	32782	32809	32821	32665	32683	32682	32763	
1853	0	32751	32711	32677	32707	32669	32701	32675	32743	
1854	0	32804	32663	32821	32705	32669	32639	32700	32807	
1855	0	32762	32611	32767	32671	32691	32715	32668	32795	
1856	0	32707	32751	32791	32799	32658	32805	32629	32698	
1857	0	32713	32724	32613	32727	32763	32671	32678	32519	
1858	0	32675	32589	32746	32698	32759	32663	32647	32847	
1859	0	32667	32752	32767	32691	32669	32679	32681	32775	
1860	0	32660	32646	32711	32763	32594	32719	32749	32699	
1861	0	32722	32579	32775	32731	32833	32647	32756	32884	
1862	0	32791	32799	32759	32767	32790	32810	32775	32807	
1863	0	32814	32700	32660	32791	32738	32642	32722	32586	
1864	0	32839	32671	32743	32818	32655	32619	32677	32826	
1865	0	32877	32695	32775	32679	32743	32615	32546	32763	
1866	0	32844	32677	32655	32715	32687	32715	32549	32583	
1867	0	32833	32717	32775	32718	32591	32807	32583	32711	
1868	0	32779	32647	32771	32751	32644	32721	32615	32759	
1869	0	32811	32673	32655	32838	32727	32765	32551	32569	
1870	0	32754	32629	32819	32803	32718	32702	32567	32830	
1871	0	32726	32699	32793	32815	32631	32621	32491	32701	
1872	0	32735	32671	32671	32788	32635	32647	32511	32735	
1873	0	32740	32527	32763	32759	32743	32754	32546	32899	
1874	0	32716	32687	32751	32783	32855	32767	32677	32885	
1875	0	32799	32733	32629	32763	32965	32743	32553	32823	
1876	0	32759	32679	32823	32783	32702	32615	32541	32799	
1877	0	32742	32721	32767	32820	32831	32623	32759	32773	
1878	0	32793	32775	32747	32759	32823	32595	32775	32679	
1879	0	32743	32827	32631	32727	32715	32655	32703	32851	
1880	0	32725	32773	32847	32764	32871	32796	32713	32736	
1881	0	32690	32647	32815	32804	32830	32762	32646	32740	
1882	0	32695	32775	32775	32695	32711	32671	32694	32621	
1883	0	32706	32775	32597	32698	32663	32719	32647	32732	
1884	0	32740	32727	32743	32710	32671	32815	32675	32770	
1885	0	32729	32599	32730	32763	32679	32735	32605	32719	
1886	0	32740	32671	32595	32834	32579	32663	32647	32621	
1887	0	32810	32757	32743	32791	32626	32607	32642	32739	
1888	0	32795	32581	32837	32743	32722	32687	32623	32730	
1889	0	32813	32605	32838	32783	32523	32626	32583	32727	
1890	0	32787	32721	32631	32741	32734	32681	32583	32585	
1891	0	32764	32703	32767	32707	32775	32719	32683	32775	
1892	0	32786	32725	32655	32775	32775	32749	32532	32834	
1893	0	32855	32679	32831	32804	32851	32767	32549	32743	
1894	0	32783	32599	32810	32806	32836	32791	32628	32719	
1895	0	32800	32718	32755	32705	32683	32727	32665	32621	
1896	0	32815	32663	32798	32727	32806	32748	32587	32815	
1897	0	32781	32549	32788	32775	32740	32615	32559	32758	
1898	0	32775	32732	32599	32763	32775	32540	32566	32554	
1899	0	32714	32679	32803	32775	32738	32587	32603	32726	
1900	0	32738	32731	32751	32755	32755	32621	32727	32823	
1901	0	32729	32679	32835	32703	32733	32662	32674	32748	
1902	0	32702	32495	32707	32730	32698	32753	32727	32607	
1903	0	32708	32738	32875	32850	32621	32771	32709	32711	
1904	0	32681	32739	32747	32727	32711	32758	32730	32810	
1905	0	32744	32611	32692	32662	32771	32791	32731	32763	
1906	0	32744	32639	32679	32775	32735	32699	32626	32606	
1907	0	32722	32715	32756	32699	32705	32645	32667	32855	
1908	0	32729	32743	32799	32743	32771	32711	32677	32755	
1909	0	32822	32609	32679	32807	32750	32687	32726	32691	
1910	0	32821	32677	32758	32735	32725	32711	32721	32755	
1911	0	32708	32687	32772	32807	32722	32621	32535	32711	
1912	0	32770	32399	32751	32839	32615	32583	32507	32718	
1913	0	32759	32491	32711	32867	32671	32727	32509	32774	
1914	0	32745	32626	32827	32799	32739	32630	32525	32788	
1915	0	32716	32507	32731	32749	32723	32647	32566	32643	
1916	0	32690	32766	32694	32749	32690	32830	32559	32791	
1917	0	32744	32775	32839	32775	32647	32679	32603	32709	
1918	0	32771	32805	32734	32711	32767	32607	32530	32567	
1919	0	32769	32951	32755	32791	32813	32673	32559	32885	
1920	0	32802	32871	32783	32745	32690	32699	32556	32831	
1921	0	32845	32975	32621	32786	32717	32699	32519	32749	
1922	0	32858	32647	32803	32719	32767	32700	32594	32695	
1923	0	32782	32766	32811	32754	32735	32727	32663	32848	
1924	0	32757	32743	32717	32791	32799	32755	32670	32604	
1925	0	32701	32527	32645	32767	32666	32751	32647	32719	
1926	0	32605	32500	32805	32739	32767	32723	32551	32793	
1927	0	32639	32634	32807	32717	32749	32734	32551	32687	
1928	0	32660	32615	32748	32691	32607	32749	32551	32610	
1929	0	32719	32479	32767	32705	32701	32751	32545	32815	
1930	0	32775	32420	32852	32751	32702	32749	32535	32739	
1931	0	32793	32509	32848	32775	32727	32791	32633	32615	
1932	0	32782	32706	32861	32807	32655	32700	32612	32895	
1933	0	32891	32633	32788	32851	32647	32690	32679	32774	
1934	0	32925	32759	32711	32775	32695	32647	32599	32540	
1935	0	33008	32829	32770	32668	32773	32775	32539	32762	
1936	0	32976	32903	32662	32699	32637	32750	32549	32819	
1937	0	32883	32661	32731	32741	32871	32698	32532	32807	
1938	0	32827	32989	32749	32807	32949	32711	32535	32603	
1939	0	32754	32967	32685	32734	32811	32711	32583	32847	
1940	0	32783	32803	32802	32703	32669	32625	32553	32804	
1941	0	32734	32679	32731	32709	32698	32707	32539	32735	
1942	0	32591	32884	32786	32727	32683	32663	32508	32671	
1943	0	32498	32759	32707	32759	32654	32567	32507	32866	
1944	0	32502	32727	32850	32723	32658	32583	32477	32723	
1945	0	32569	32527	32775	32701	32663	32699	32501	32575	
1946	0	32619	32711	32671	32748	32731	32717	32493	32751	
1947	0	32706	32726	32862	32727	32738	32767	32563	32747	
1948	0	32785	32775	32711	32802	32807	32758	32623	32715	
1949	0	32892	32611	32641	32703	32743	32775	32595	32571	
1950	0	32967	32788	32775	32679	32729	32690	32619	32844	
1951	0	33004	32773	32742	32772	32614	32671	32647	32802	
1952	0	33050	32839	32659	32773	32551	32631	32483	32727	
1953	0	32932	32637	32769	32850	32647	32751	32489	32599	
1954	0	32841	32799	32695	32821	32727	32755	32709	32869	
1955	0	32687	32764	32731	32775	32803	32690	32775	32717	
1956	0	32717	32783	32711	32726	32791	32691	32739	32605	
1957	0	32727	32669	32758	32844	32767	32731	32731	32646	
1958	0	32689	32766	32799	32853	32730	32837	32733	32855	
1959	0	32663	32639	32673	32775	32757	32659	32687	32775	
1960	0	32647	32627	32791	32775	32751	32595	32637	32635	
1961	0	32737	32458	32767	32683	32706	32609	32669	32855	
1962	0	32799	32455	32694	32676	32676	32695	32661	32822	
1963	0	32863	32451	32796	32663	32715	32738	32631	32645	
1964	0	32858	32491	32795	32676	32735	32718	32695	32823	
1965	0	32782	32279	32727	32693	32769	32766	32731	32773	
1966	0	32775	32567	32819	32753	32662	32754	32751	32797	
1967	0	32783	32517	32767	32794	32725	32654	32747	32635	
1968	0	32823	32695	32674	32799	32727	32615	32663	32927	
1969	0	32815	32621	32829	32775	32660	32586	32702	32796	
1970	0	32855	32534	32755	32862	32805	32612	32725	32755	
1971	0	32812	32775	32799	32761	32749	32607	32706	32551	
1972	0	32827	32733	32679	32708	32615	32696	32655	32659	
1973	0	32831	32831	32785	32771	32823	32764	32627	32749	
1974	0	32677	32635	32769	32815	32717	32700	32647	32720	
1975	0	32662	32850	32654	32799	32769	32695	32503	32629	
1976	0	32720	32737	32772	32811	32633	32839	32603	32885	
1977	0	32740	32609	32763	32806	32694	32706	32614	32711	
1978	0	32789	32757	32689	32773	32716	32615	32635	32647	
1979	0	32749	32635	32742	32719	32749	32708	32640	32789	
1980	0	32719	32629	32733	32771	32631	32715	32511	32700	
1981	0	32740	32427	32589	32773	32757	32734	32477	32526	
1982	0	32753	32655	32727	32702	32709	32751	32473	32811	
1983	0	32759	32717	32775	32721	32668	32706	32534	32739	
1984	0	32714	32709	32759	32775	32737	32727	32548	32751	
1985	0	32796	32775	32671	32804	32730	32730	32615	32647	
1986	0	32750	32518	32807	32795	32671	32739	32775	32798	
1987	0	32775	32775	32822	32695	32733	32646	32724	32773	
1988	0	32740	32873	32671	32679	32783	32642	32708	32555	
1989	0	32714	32892	32885	32717	32811	32629	32759	32717	
1990	0	32757	32634	32863	32727	32690	32679	32640	32762	
1991	0	32778	32805	32702	32767	32775	32765	32647	32765	
1992	0	32780	32727	32861	32694	32742	32748	32647	32591	
1993	0	32769	32775	32749	32698	32666	32715	32727	32749	
1994	0	32773	32583	32735	32766	32775	32699	32803	32814	
1995	0	32759	32677	32595	32733	32887	32695	32769	32799	
1996	0	32722	32671	32627	32786	32860	32647	32567	32639	
1997	0	32771	32737	32767	32773	32704	32702	32513	32787	
1998	0	32724	32459	32668	32743	32643	32663	32580	32743	
1999	0	32708	32691	32679	32743	32711	32739	32511	32676	
2000	0	32699	32585	32811	32763	32751	32731	32575	32850	
2001	0	32723	32611	32615	32749	32653	32758	32511	32814	
2002	0	32765	32495	32815	32791	32699	32740	32621	32759	
2003	0	32767	32543	32743	32719	32895	32767	32775	32647	
2004	0	32790	32719	32815	32759	32754	32756	32703	32919	
2005	0	32725	32691	32683	32740	32747	32751	32795	32855	
2006	0	32783	32829	32839	32771	32751	32764	32711	32811	
2007	0	32784	32671	32819	32695	32619	32723	32723	32626	
2008	0	32729	32761	32839	32630	32759	32658	32617	32719	
2009	0	32750	32758	32659	32749	32731	32666	32676	32719	
2010	0	32736	32769	32787	32775	32679	32647	32605	32703	
2011	0	32718	32710	32835	32743	32660	32615	32671	32557	
2012	0	32719	32682	32854	32690	32701	32679	32655	32738	
2013	0	32722	32788	32668	32682	32732	32629	32735	32807	
2014	0	32706	32717	32863	32829	32683	32743	32751	32743	
2015	0	32762	32798	32786	32827	32767	32665	32757	32555	
2016	0	32807	32507	32805	32733	32695	32573	32756	32715	
2017	0	32815	32706	32749	32724	32726	32683	32705	32775	
2018	0	32831	32658	32719	32775	32685	32767	32619	32772	
2019	0	32785	32579	32678	32714	32775	32690	32701	32685	
2020	0	32747	32742	32812	32747	32695	32646	32741	32811	
2021	0	32751	32685	32711	32829	32669	32685	32731	32709	
2022	0	32761	32667	32775	32830	32647	32805	32658	32487	
2023	0	32801	32679	32799	32759	32666	32759	32655	32757	
2024	0	32756	32875	32721	32740	32684	32765	32599	32775	
2025	0	32741	32773	32594	32743	32731	32707	32691	32830	
2026	0	32748	32818	32775	32819	32667	32675	32637	32612	
2027	0	32772	32711	32647	32775	32799	32617	32674	32832	
2028	0	32807	32817	32771	32717	32775	32611	32731	32822	
2029	0	32775	32717	32635	32775	32647	32679	32679	32783	
2030	0	32730	32743	32711	32811	32763	32630	32687	32591	
2031	0	32747	32614	32775	32753	32791	32645	32607	32594	
2032	0	32714	32631	32641	32735	32710	32679	32775	32750	
2033	0	32765	32723	32807	32835	32699	32621	32759	32890	
2034	0	32755	32655	32715	32695	32643	32647	32660	32861	
2035	0	32732	32646	32831	32747	32707	32628	32639	32809	
2036	0	32717	32479	32758	32667	32682	32687	32725	32615	
2037	0	32707	32422	32592	32679	32639	32631	32511	32671	
2038	0	32791	32647	32703	32647	32765	32629	32543	32807	
2039	0	32823	32551	32819	32711	32738	32605	32715	32773	
2040	0	32752	32549	32807	32799	32711	32671	32732	32559	
2041	0	32730	32535	32742	32775	32847	32674	32743	32598	
2042	0	32760	32723	32701	32758	32923	32734	32601	32813	
2043	0	32834	32741	32763	32731	32775	32719	32665	32767	
2044	0	32808	32764	32755	32756	32818	32739	32735	32753	
2045	0	32819	32775	32845	32687	32762	32722	32684	32559	
2046	0	32775	32801	32703	32711	32607	32697	32675	32782	
2047	0	32772	32821	32869	32749	32621	32719	32527	32727	
2048	0	32715	32823	32787	32803	32766	32635	32660	32567	
2049	0	32716	32903	32695	32831	32685	32572	32671	32788	
2050	0	32722	32847	32795	32787	32719	32702	32615	32775	
2051	0	32760	32887	32708	32722	32679	32686	32636	32759	
2052	0	32763	32867	32781	32775	32711	32711	32503	32551	
2053	0	32749	32555	32700	32696	32647	32759	32615	32595	
2054	0	32755	32559	32677	32575	32695	32727	32564	32801	
2055	0	32841	32519	32752	32607	32775	32769	32751	32722	
2056	0	32752	32507	32759	32623	32626	32812	32683	32687	
2057	0	32734	32494	32751	32647	32694	32736	32581	32582	
2058	0	32749	32381	32690	32694	32739	32735	32551	32742	
2059	0	32684	32167	32743	32718	32599	32690	32667	32903	
2060	0	32708	32327	32767	32583	32755	32719	32599	32835	
2061	0	32730	32631	32698	32699	32731	32767	32579	32734	
2062	0	32742	32685	32851	32775	32725	32798	32605	32674	
2063	0	32796	32933	32914	32863	32789	32743	32703	32607	
2064	0	32787	32903	32628	32883	32773	32679	32866	32767	
2065	0	32781	32999	32823	32859	32684	32675	32826	32883	
2066	0	32593	33191	32775	32937	32814	32711	32805	32740	
2067	0	32413	33153	32748	32900	32687	32713	32667	32674	
2068	0	32397	33071	32815	32924	32751	32843	32679	32615	
2069	0	32527	32983	32801	32994	32724	32751	32565	32647	
2070	0	32623	32691	32693	32863	32693	32615	32575	32863	
2071	0	32841	32583	32846	32834	32717	32559	32543	32821	
2072	0	32941	32706	32775	32799	32819	32598	32549	32773	
2073	0	33033	32605	32791	32842	32692	32669	32655	32647	
2074	0	33241	32511	32762	32823	32775	32671	32770	32725	
2075	0	33268	32231	32615	32686	32775	32621	32787	32789	
2076	0	33101	32209	32739	32659	32681	32730	32741	32775	
2077	0	32863	31991	32825	32685	32775	32811	32677	32802	
2078	0	32642	31973	32717	32797	32679	32739	32614	32639	
2079	0	32523	32020	32759	32775	32647	32799	32690	32791	
2080	0	32535	32322	32731	32745	32767	32762	32670	32798	
2081	0	32679	32594	32735	32707	32709	32683	32647	32771	
2082	0	32752	33059	32759	32799	32685	32674	32647	32727	
2083	0	32862	33279	32647	32771	32679	32591	32647	32823	
2084	0	32915	33632	32718	32703	32767	32581	32647	32755	
2085	0	32893	33527	32677	32623	32691	32711	32629	32692	
2086	0	32830	33321	32775	32587	32724	32679	32647	32827	
2087	0	32751	33020	32700	32596	32630	32742	32659	32799	
2088	0	32639	33055	32735	32552	32751	32765	32647	32603	
2089	0	32642	32903	32766	32567	32738	32674	32573	32647	
2090	0	32805	32919	32679	32595	32754	32681	32514	32815	
2091	0	32849	32775	32775	32721	32839	32690	32757	32740	
2092	0	32729	32682	32721	32732	32735	32721	32663	32759	
2093	0	32743	32559	32759	32831	32762	32711	32718	32764	
2094	0	32767	32442	32662	32775	32660	32775	32612	32805	
2095	0	32796	32517	32771	32855	32725	32726	32569	32594	
2096	0	32796	32561	32789	32935	32743	32713	32493	32825	
2097	0	32830	32553	32911	33047	32615	32755	32511	32791	
2098	0	32810	32505	32862	33065	32806	32749	32841	32786	
2099	0	32837	32399	32692	33036	32791	32749	32775	32535	
2100	0	32916	32391	32655	33063	32689	32727	32683	32586	
2101	0	32865	32531	32803	32982	32709	32726	32645	32745	
2102	0	32752	32543	32681	32899	32652	32758	32699	32747	
2103	0	32613	32455	32807	32919	32634	32687	32599	32726	
2104	0	32639	32610	32669	32775	32722	32695	32607	32619	
2105	0	32611	32300	32807	32783	32821	32638	32527	32912	
2106	0	32599	32547	32658	32775	32599	32627	32607	32826	
2107	0	32586	32598	32775	32742	32773	32722	32527	32609	
2108	0	32551	32743	32582	32659	32711	32818	32535	32819	
2109	0	32607	32518	32823	32727	32681	32714	32510	32743	
2110	0	32621	32750	32775	32733	32627	32711	32527	32743	
2111	0	32667	32791	32769	32707	32635	32711	32631	32615	
2112	0	32810	32980	32703	32714	32681	32710	32663	32756	
2113	0	32858	32789	32735	32612	32700	32773	32709	32831	
2114	0	32951	32839	32846	32695	32757	32631	32675	32759	
2115	0	32993	32831	32787	32738	32751	32607	32635	32583	
2116	0	32974	32931	32703	32659	32711	32642	32647	32607	
2117	0	32903	33015	32775	32538	32757	32676	32609	32739	
2118	0	32773	32822	32791	32629	32724	32743	32647	32751	
2119	0	32717	32391	32751	32530	32807	32751	32847	32727	
2120	0	32703	32309	32837	32687	32817	32717	32773	32775	
2121	0	32694	32199	32766	32695	32647	32729	32647	32763	
2122	0	32660	32015	32631	32647	32685	32687	32634	32639	
2123	0	32680	32082	32820	32733	32797	32644	32607	32841	
2124	0	32685	32127	32791	32827	32634	32699	32639	32782	
2125	0	32630	32303	32709	32916	32724	32641	32638	32759	
2126	0	32660	32527	32595	32887	32751	32719	32692	32702	
2127	0	32595	32525	32811	32926	32693	32663	32716	32741	
2128	0	32598	32443	32838	32839	32767	32671	32675	32727	
2129	0	32638	32839	32663	32823	32823	32719	32711	32747	
2130	0	32692	32967	32647	32733	32759	32639	32631	32535	
2131	0	32888	33311	32710	32680	32741	32571	32676	32687	
2132	0	32914	33247	32737	32706	32678	32799	32681	32767	
2133	0	32799	33463	32667	32711	32804	32735	32719	32707	
2134	0	32808	33423	32802	32783	32727	32735	32559	32535	
2135	0	32726	33223	32775	32767	32807	32774	32662	32839	
2136	0	32742	33092	32775	32731	32671	32631	32653	32717	
2137	0	32839	32999	32683	32695	32705	32628	32635	32594	
2138	0	32851	32999	32786	32775	32709	32668	32767	32903	
2139	0	32860	32754	32815	32813	32719	32711	32753	32855	
2140	0	32891	32583	32764	32703	32603	32723	32743	32855	
2141	0	32840	32541	32769	32705	32698	32722	32724	32733	
2142	0	32905	32519	32757	32739	32751	32641	32767	32927	
2143	0	32881	32258	32647	32703	32775	32615	32759	32740	
2144	0	32775	32251	32687	32833	32825	32721	32666	32533	
2145	0	32751	32343	32695	32669	32943	32647	32595	32590	
2146	0	32722	32451	32694	32575	32791	32695	32534	32717	
2147	0	32789	32519	32687	32619	32658	32725	32469	32698	
