# OpenSignals Text File Format
# {"00:07:80:3B:46:38": {"sensor": ["CUSTOM/0.5/1.0/V", "CUSTOM/0.5/1.0/V", "CUSTOM/0.5/1.0/V", "CUSTOM/0.5/1.0/V", "CUSTOM/0.5/1.0/V", "CUSTOM/0.5/1.0/V", "CUSTOM/0.5/1.0/V", "CUSTOM/0.5/1.0/V"], "device name": "EMGs", "column": ["nSeq", "DI", "RA_L", "RA_R", "OE_L", "OE:R", "IL_L", "IL_R", "MF_L", "MF_R"], "sync interval": 2, "time": "11:16:59.265", "comments": "", "device connection": "BTH00:07:80:3B:46:38", "channels": [1, 2, 3, 4, 5, 6, 7, 8], "date": "2017-6-2", "mode": 0, "digital IO": [0, 1], "firmware version": 772, "device": "biosignalsplux", "position": 0, "sampling rate": 1000, "label": ["RA_L", "RA_R", "OE_L", "OE:R", "IL_L", "IL_R", "MF_L", "MF_R"], "resolution": [16, 16, 16, 16, 16, 16, 16, 16], "special": [{}, {}, {}, {}, {}, {}, {}, {}]}}
# EndOfHeader
0	0	32748	32795	32711	32855	32807	32877	32551	32831	
1	0	32758	32660	32615	32807	32759	32738	32461	32813	
2	0	32817	32775	32460	32773	32734	32647	32699	32813	
3	0	32801	32823	32676	32773	32823	32873	32559	32695	
4	0	32783	32647	32747	32745	32823	32639	32731	32759	
5	0	32807	32671	32567	32785	32735	32869	32574	32896	
6	0	32732	32666	32743	32763	32836	32775	32673	32745	
7	0	32744	32711	32638	32706	32829	32850	32587	32725	
8	0	32743	32719	32683	32703	32673	32733	32635	32719	
9	0	32752	32727	32543	32643	32775	32821	32695	32669	
10	0	32760	32919	32693	32677	32795	32790	32615	32699	
11	0	32786	32965	32607	32759	32761	32745	32685	32679	
12	0	32740	32711	32695	32671	32669	32875	32587	32685	
13	0	32699	32759	32475	32642	32782	32798	32715	32663	
14	0	32686	32623	32736	32741	32675	32773	32775	32786	
15	0	32687	32765	32669	32646	32663	32564	32903	32772	
16	0	32764	32935	32727	32826	32667	32746	32871	32723	
17	0	32705	32647	32551	32647	32647	32671	32663	32807	
18	0	32786	32609	32519	32734	32775	32783	32589	32829	
19	0	32735	32743	32495	32775	32807	32807	32506	32839	
20	0	32811	32735	32793	32724	32799	32723	32606	32807	
21	0	32749	32647	32647	32683	32734	32839	32452	32841	
22	0	32775	32796	32698	32735	32615	32775	32686	32703	
23	0	32805	32775	32555	32677	32687	32863	32739	32633	
24	0	32769	32717	32791	32711	32699	32727	32828	32743	
25	0	32757	32731	32732	32786	32591	32738	32707	32727	
26	0	32743	32873	32687	32831	32607	32711	32600	32749	
27	0	32774	32731	32749	32850	32619	32438	32579	32775	
28	0	32744	32559	32579	32781	32479	32767	32659	32591	
29	0	32662	32742	32514	32757	32623	32687	32585	32541	
30	0	32743	32677	32757	32839	32661	32818	32477	32540	
31	0	32694	32669	32782	32775	32631	32718	32567	32598	
32	0	32767	32675	32811	32815	32701	32854	32575	32575	
33	0	32822	32903	32658	32832	32775	32765	32911	32605	
34	0	32799	32818	32775	32862	32745	32695	32862	32515	
35	0	32786	32764	32638	32771	32831	32831	32958	32501	
36	0	32783	32730	32525	32728	32972	32669	32711	32717	
37	0	32788	32759	32711	32663	32839	32827	32795	32722	
38	0	32726	32738	32674	32607	32878	32687	32455	32883	
39	0	32818	32823	32475	32807	32892	32709	32451	33095	
40	0	32821	32647	32539	32806	32839	32647	32232	33195	
41	0	32799	32655	32679	32763	32727	32690	32002	32967	
42	0	32778	32733	32587	32681	32549	32691	31699	33173	
43	0	32733	32839	32623	32727	32627	32850	32079	33111	
44	0	32715	32863	32581	32813	32531	32666	32143	33143	
45	0	32735	32722	32501	32731	32374	32671	32927	33274	
46	0	32791	32742	32615	32829	32190	32623	33127	33019	
47	0	32712	32711	32599	32788	32497	32739	33309	32629	
48	0	32736	32595	32607	32791	32775	32815	33503	32663	
49	0	32761	32727	32643	32727	32935	32927	33393	32709	
50	0	32749	32796	32711	32804	32949	32884	33103	32659	
51	0	32758	32751	32647	32932	32885	32897	32854	32555	
52	0	32687	32733	32610	32956	32769	32903	32646	32551	
53	0	32722	32751	32525	32819	32723	32879	32551	32543	
54	0	32731	32738	32708	32795	32759	32821	32546	32487	
55	0	32749	32754	32626	32771	32775	32753	32527	32678	
56	0	32741	32693	32677	32738	32821	32751	32421	32723	
57	0	32735	32711	32559	32791	32713	32798	32429	32757	
58	0	32801	32802	32571	32767	32743	32740	32438	32715	
59	0	32807	32707	32674	32817	32843	32807	32454	32755	
60	0	32767	32687	32719	32775	32799	32827	32595	32775	
61	0	32775	32759	32492	32663	32815	32867	32623	32683	
62	0	32734	32771	32711	32701	32817	32762	32619	32647	
63	0	32744	32643	32594	32788	32765	32803	32713	32775	
64	0	32764	32711	32619	32653	32657	32759	32743	32788	
65	0	32751	32641	32775	32767	32807	32703	32787	32771	
66	0	32745	32763	32627	32702	32771	32658	32750	32715	
67	0	32710	32767	32662	32791	32815	32575	32727	32727	
68	0	32698	32647	32729	32684	32707	32771	32751	32843	
69	0	32751	32638	32492	32775	32727	32805	32807	32865	
70	0	32711	32787	32739	32789	32715	32647	32813	32775	
71	0	32772	32846	32709	32843	32746	32817	32801	32793	
72	0	32764	32642	32743	32795	32723	32775	32673	32767	
73	0	32772	32799	32623	32631	32775	32596	32545	32829	
74	0	32759	32791	32603	32791	32774	32583	32498	32711	
75	0	32804	32679	32631	32759	32717	32751	32575	32615	
76	0	32772	32903	32679	32749	32718	32736	32615	32686	
77	0	32766	32635	32509	32757	32711	32785	32595	32679	
78	0	32712	32699	32521	32763	32623	32695	32787	32613	
79	0	32731	32709	32548	32871	32691	32583	32623	32727	
80	0	32774	32463	32625	32655	32588	32639	32596	32743	
81	0	32711	32613	32641	32783	32727	32571	32647	32762	
82	0	32736	32735	32611	32789	32845	32581	32621	32775	
83	0	32733	32759	32727	32735	32764	32525	32647	32831	
84	0	32773	32647	32587	32663	32817	32724	32643	32693	
85	0	32828	32693	32767	32788	32735	32725	32670	32759	
86	0	32807	32991	32540	32723	32711	32741	32701	32831	
87	0	32773	32759	32725	32791	32663	32698	32775	32914	
88	0	32711	32454	32668	32611	32740	32743	32771	32831	
89	0	32743	32545	32743	32775	32687	32681	32843	32885	
90	0	32775	32751	32509	32708	32723	32749	32775	32831	
91	0	32784	32751	32647	32765	32606	32775	32813	32854	
92	0	32763	32709	32619	32801	32647	32802	32822	32854	
93	0	32787	32669	32687	32790	32755	32858	32813	32834	
94	0	32775	32749	32543	32775	32729	32835	32802	32793	
95	0	32790	32755	32592	32798	32784	32832	32717	32763	
96	0	32746	32731	32659	32839	32701	32839	32695	32681	
97	0	32779	32727	32439	32767	32701	32892	32673	32771	
98	0	32772	32855	32635	32837	32755	32931	32615	32788	
99	0	32819	32743	32591	32775	32701	32887	32543	32711	
100	0	32837	32727	32735	32818	32727	32852	32548	32707	
101	0	32771	32643	32583	32775	32717	32873	32589	32730	
102	0	32789	32727	32647	32804	32756	32892	32577	32701	
103	0	32839	32763	32711	32751	32763	32887	32531	32683	
104	0	32764	32665	32591	32862	32749	32878	32615	32671	
105	0	32795	32839	32739	32853	32627	32803	32727	32647	
106	0	32708	32863	32735	32771	32663	32790	32775	32659	
107	0	32731	32679	32775	32762	32692	32807	32751	32707	
108	0	32743	32682	32518	32775	32711	32875	32755	32751	
109	0	32710	32738	32655	32687	32775	32763	32815	32734	
110	0	32745	32655	32610	32583	32743	32793	32775	32749	
111	0	32723	32727	32658	32683	32635	32631	32815	32703	
112	0	32773	32795	32727	32761	32690	32813	32815	32711	
113	0	32730	32771	32527	32725	32679	32711	32739	32740	
114	0	32725	32719	32729	32727	32691	32822	32742	32815	
115	0	32775	32983	32674	32813	32744	32791	32743	32740	
116	0	32748	32826	32679	32789	32763	32798	32635	32831	
117	0	32722	32621	32598	32745	32683	32826	32692	32703	
118	0	32810	32679	32693	32733	32719	32711	32594	32659	
119	0	32842	32775	32701	32751	32671	32801	32767	32719	
120	0	32766	32644	32563	32775	32751	32677	32589	32775	
121	0	32839	32759	32667	32734	32726	32835	32697	32773	
122	0	32772	32669	32467	32746	32715	32791	32727	32788	
123	0	32751	32701	32661	32818	32660	32813	32615	32823	
124	0	32747	32647	32619	32823	32668	32743	32719	32815	
125	0	32753	32508	32583	32895	32692	32887	32557	32763	
126	0	32727	32604	32663	32762	32623	32759	32543	32979	
127	0	32755	32615	32637	32735	32687	32613	32639	32839	
128	0	32754	32629	32695	32703	32708	32773	32572	32863	
129	0	32675	32711	32575	32829	32740	32663	32647	32869	
130	0	32725	32719	32781	32810	32711	32733	32662	32883	
131	0	32724	32737	32711	32775	32788	32599	32735	32854	
132	0	32738	32679	32685	32698	32808	32845	32743	32711	
133	0	32773	32817	32868	32759	32755	32821	32763	32819	
134	0	32737	32823	32722	32791	32767	32875	32790	32749	
135	0	32722	32711	32631	32791	32803	32817	32702	32711	
136	0	32773	32692	32733	32739	32752	32620	32666	32599	
137	0	32773	32793	32645	32745	32791	32836	32703	32620	
138	0	32726	32775	32543	32699	32703	32740	32615	32685	
139	0	32735	32676	32663	32834	32786	32615	32631	32647	
140	0	32765	32669	32535	32799	32719	32735	32589	32719	
141	0	32815	32767	32617	32791	32780	32647	32722	32639	
142	0	32812	32819	32695	32818	32683	32775	32644	32639	
143	0	32796	32765	32501	32767	32734	32532	32700	32571	
144	0	32827	33053	32508	32835	32783	32791	32621	32775	
145	0	32775	32742	32647	32806	32645	32775	32814	32799	
146	0	32758	32553	32636	32677	32782	32879	32723	32769	
147	0	32785	32598	32663	32788	32741	32743	32613	32735	
148	0	32775	32562	32619	32701	32749	32815	32703	32765	
149	0	32783	32701	32723	32521	32647	32775	32687	32922	
150	0	32705	32756	32695	32652	32703	32502	32724	33069	
151	0	32747	32759	32858	32762	32735	32866	32759	33010	
152	0	32787	32623	32719	32631	32619	32563	32715	33086	
153	0	32790	32711	32743	32671	32799	32807	32711	33075	
154	0	32801	32841	32493	32646	32767	32664	32687	33068	
155	0	32745	32938	32695	32662	32730	32687	32548	33029	
156	0	32719	32609	32551	32619	32607	32679	32553	32912	
157	0	32759	32643	32506	32631	32620	32639	32373	32919	
158	0	32695	32759	32525	32671	32566	32647	32591	32867	
159	0	32737	32679	32647	32715	32679	32679	32621	32564	
160	0	32710	32765	32659	32692	32607	32695	32727	32461	
161	0	32738	32655	32500	32637	32647	32583	32567	32530	
162	0	32740	32710	32662	32794	32683	32817	32637	32556	
163	0	32801	32903	32535	32747	32583	32615	32675	32563	
164	0	32790	32871	32631	32819	32663	32899	32660	32509	
165	0	32764	32793	32515	32715	32759	32855	32759	32463	
166	0	32734	32795	32644	32717	32759	32903	32759	32491	
167	0	32775	32847	32639	32903	32675	32873	32772	32511	
168	0	32797	32709	32556	32970	32818	32931	32615	32563	
169	0	32852	32756	32757	32935	32836	32881	32677	32679	
170	0	32796	32627	32631	32969	32902	32815	32607	32739	
171	0	32751	32586	32668	32879	32725	32858	32719	32859	
172	0	32783	32748	32783	32809	32879	32789	32581	32809	
173	0	32799	32748	32598	32949	32855	32805	32747	32859	
174	0	32806	32643	32679	32889	32759	32623	32543	32903	
175	0	32731	32676	32543	32800	32811	32818	32679	32931	
176	0	32721	32757	32743	32695	32836	32501	32749	32799	
177	0	32808	32711	32643	32734	32851	32807	32767	32933	
178	0	32743	32695	32522	32788	32769	32711	32581	32773	
179	0	32710	32687	32739	32731	32842	32740	32711	32797	
180	0	32760	32883	32658	32709	32867	32719	32578	32807	
181	0	32717	32961	32717	32775	32714	32564	32687	32815	
182	0	32647	32543	32647	32701	32788	32687	32609	32726	
183	0	32647	32687	32609	32663	32799	32575	32791	32797	
184	0	32727	32719	32631	32738	32723	32782	32647	32751	
185	0	32732	32735	32751	32758	32699	32765	32775	32708	
186	0	32707	32619	32525	32694	32742	32899	32807	32707	
187	0	32747	32647	32543	32727	32742	32882	33011	32677	
188	0	32772	32698	32671	32842	32707	32863	32879	32642	
189	0	32762	32751	32553	32759	32749	32847	32941	32773	
190	0	32798	32859	32643	32818	32711	32863	32935	32763	
191	0	32715	32660	32575	32788	32732	32835	32876	32803	
192	0	32788	32663	32629	32711	32699	32743	32705	32815	
193	0	32781	32591	32623	32775	32733	32806	32500	32724	
194	0	32826	32622	32477	32834	32743	32612	32089	32786	
195	0	32802	32603	32671	32863	32671	32767	32159	32759	
196	0	32799	32735	32709	32790	32786	32555	32343	32647	
197	0	32817	32799	32671	32755	32725	32903	32546	32563	
198	0	32748	32854	32767	32871	32574	32813	32470	32619	
199	0	32745	32615	32731	32734	32655	32727	32732	32647	
200	0	32687	32755	32583	32643	32614	32831	33155	32485	
201	0	32778	32797	32745	32643	32564	32711	33223	32474	
202	0	32733	32706	32655	32663	32815	32831	32938	32621	
203	0	32743	32807	32660	32743	32691	32595	32690	32762	
204	0	32789	32742	32594	32796	32615	32727	32551	33012	
205	0	32743	32647	32735	32807	32609	32479	32415	33251	
206	0	32767	32695	32647	32838	32485	32537	32247	33650	
207	0	32785	32807	32687	32860	32598	32427	32135	33522	
208	0	32764	32709	32537	32759	32611	32695	32642	33159	
209	0	32761	32669	32603	32748	32679	32570	32983	32979	
210	0	32783	32692	32671	32759	32519	32647	33131	32671	
211	0	32838	32859	32655	32749	32726	32677	32635	32482	
212	0	32768	32699	32637	32765	32919	32751	32753	32473	
213	0	32808	32775	32639	32736	32917	32775	32787	32573	
214	0	32783	32719	32530	32687	32775	32951	32692	32775	
215	0	32789	32831	32838	32756	32722	32662	32687	32693	
216	0	32745	32871	32711	32805	32676	32899	32486	32655	
217	0	32775	32843	32596	32671	32772	32830	32646	32734	
218	0	32750	33071	32652	32785	32738	32948	32641	32647	
219	0	32735	32509	32654	32679	32727	32795	32763	32623	
220	0	32775	32325	32661	32659	32581	32726	32743	32607	
221	0	32743	32541	32615	32670	32655	32711	32667	32562	
222	0	32764	32804	32607	32697	32623	32557	32850	32507	
223	0	32793	32789	32711	32607	32519	32787	32757	32505	
224	0	32839	32756	32715	32589	32583	32630	32878	32500	
225	0	32782	32655	32679	32668	32785	32860	32493	32647	
226	0	32795	32799	32599	32655	32823	32660	32759	32263	
227	0	32814	32715	32711	32553	32855	33079	32675	32105	
228	0	32731	32675	32663	32655	32807	32823	32711	32031	
229	0	32712	32699	32464	32743	32955	33059	32228	32246	
230	0	32805	32694	32663	32793	33437	33126	31511	32852	
231	0	32734	32766	32641	32758	33135	33129	31027	33347	
232	0	32760	32751	32647	32735	32903	32973	31395	33710	
233	0	32735	32800	32463	32722	32572	32742	31567	33955	
234	0	32774	32679	32577	32791	32559	32493	31791	33822	
235	0	32782	32745	32658	32614	32589	32131	32699	34063	
236	0	32754	32677	32679	32791	32377	32276	33627	34255	
237	0	32722	32775	32545	32827	32554	32295	34239	33468	
238	0	32705	32676	32578	32681	33271	32237	35100	32423	
239	0	32691	32750	32643	32833	33140	32338	34259	31698	
240	0	32719	32771	32423	32834	32796	32635	33526	31599	
241	0	32823	32741	32692	32839	32455	32698	32981	32075	
242	0	32766	32771	32637	32859	32187	32791	32579	32270	
243	0	32690	32871	32647	32871	32175	32837	32220	32559	
244	0	32702	32790	32466	32861	32273	32647	32202	32599	
245	0	32782	32655	32663	32685	32595	32895	32262	32705	
246	0	32756	32791	32599	32719	32647	33110	32151	32857	
247	0	32792	32737	32831	32647	32570	33103	32011	32935	
248	0	32789	32775	32580	32815	32631	32847	32103	32989	
249	0	32818	32701	32711	32711	32819	32813	32359	32749	
250	0	32842	32850	32655	32845	32645	32846	33482	32571	
251	0	32771	32694	32723	32843	32659	32929	33275	32499	
252	0	32697	32787	32611	32828	32967	32658	32881	32351	
253	0	32716	32775	32843	32766	32881	32775	32899	32335	
254	0	32773	32783	32791	32683	32927	32621	32791	32525	
255	0	32736	32655	32663	32751	32701	32695	32959	32567	
256	0	32843	32694	32631	32787	32868	32647	32775	32775	
257	0	32736	32679	32518	32783	32945	32943	32551	32811	
258	0	32785	32639	32775	32711	32967	32981	32742	32764	
259	0	32786	32647	32773	32735	32759	32943	32743	32535	
260	0	32815	32700	32783	32867	32506	33027	33085	32263	
261	0	32908	32861	32807	32799	32686	32941	33346	32439	
262	0	32903	32843	32668	32751	33254	33159	33787	32378	
263	0	32804	32843	32754	32748	33298	33243	34011	32567	
264	0	32743	32790	32655	32735	33260	33159	33451	32475	
265	0	32724	32871	32636	32797	33468	33099	33318	32615	
266	0	32683	32714	32580	32799	33317	32804	32694	32757	
267	0	32701	32639	32365	32793	32629	32135	31719	33084	
268	0	32685	32487	32177	32749	32585	32244	30780	33601	
269	0	32596	32559	32335	32719	32378	32511	30741	34143	
270	0	32620	32697	32405	32671	31959	32147	30582	34878	
271	0	32637	32829	32611	32699	32119	31879	30447	35687	
272	0	32710	32954	32548	32593	32287	31830	31111	36059	
273	0	32734	32827	32644	32612	32263	31971	32228	35439	
274	0	32772	32806	32703	32639	32375	33287	32735	34471	
275	0	32814	32744	32783	32756	32663	33387	33115	32050	
276	0	32724	32919	32692	32828	32572	33559	33170	30667	
277	0	32775	33059	32871	32821	32623	32871	33279	30599	
278	0	32805	32377	32866	32749	32476	32743	33639	30735	
279	0	32804	32391	32755	32783	32481	32629	33999	30820	
280	0	32741	32525	32927	32897	32635	32455	34099	30265	
281	0	32703	32633	32811	32850	33277	33030	33479	30364	
282	0	32756	32631	32790	32843	33735	33779	32763	30759	
283	0	32775	32549	32718	32805	33237	33655	32503	31683	
284	0	32844	32940	32763	32791	33159	33603	32114	32830	
285	0	32782	32631	32711	32787	33045	33783	32647	33463	
286	0	32703	32439	32647	32890	32585	33374	32838	33050	
287	0	32775	32687	32559	33003	31852	31895	33444	32210	
288	0	32871	33046	32486	32999	31548	31661	33351	32767	
289	0	32797	32727	32621	32811	31518	31575	33023	33381	
290	0	32797	32615	32567	32903	31767	31287	33089	32555	
291	0	32790	32957	32605	32994	32111	31935	32756	32079	
292	0	32775	32839	32639	32975	32219	32175	32327	31909	
293	0	32861	32621	32612	32845	32666	33103	31443	32468	
294	0	32918	32647	32667	32847	32850	34713	30779	33611	
295	0	32825	32711	32685	32811	32870	34863	30127	34257	
296	0	32736	32663	32668	32830	32935	34175	31159	33683	
297	0	32699	32763	32455	32700	33325	33895	31877	33470	
298	0	32736	32721	32591	32715	32181	32321	31973	33538	
299	0	32709	32684	32467	32549	30724	30290	32240	33332	
300	0	32671	32600	32620	32608	31205	30211	30365	34279	
301	0	32757	32655	32607	32749	32826	31751	29961	34045	
302	0	32711	32671	32551	32695	33951	32443	31619	33287	
303	0	32759	32617	32509	32639	32787	32501	32685	32879	
304	0	32793	32687	32771	32596	31495	32559	34521	32299	
305	0	32877	32811	32711	32449	33298	33733	35659	32175	
306	0	32746	32751	32600	32487	34470	33330	34646	32549	
307	0	32770	32830	32467	32498	34659	33117	34203	32861	
308	0	32787	32918	32698	32666	34898	32183	35458	32715	
309	0	32677	33159	32485	32775	34942	32436	36811	32193	
310	0	32658	33422	32530	32807	33979	31972	37495	32183	
311	0	32600	32731	32327	32811	32631	32311	37299	31774	
312	0	32604	32793	32447	32711	32072	32183	35083	31931	
313	0	32751	32806	32663	32671	32519	32303	32679	32823	
314	0	32656	32715	32551	32803	33687	34041	31279	33101	
315	0	32702	32723	32524	32756	33213	32831	30380	33587	
316	0	32826	32594	32697	32569	32587	33221	30343	33789	
317	0	32828	32495	32926	32587	32050	34285	31599	33656	
318	0	32759	32247	32677	32589	32434	34679	33087	33570	
319	0	32919	32363	32775	32410	31941	34205	32807	33483	
320	0	32872	32327	32694	32331	31767	32254	31781	33118	
321	0	32715	32375	32691	32461	31671	31794	30407	33454	
322	0	32841	32901	32791	32525	30631	30325	29716	33908	
323	0	32761	32890	32660	32630	32543	31751	30334	33031	
324	0	32749	32480	32843	32742	33940	33146	31975	31943	
325	0	32708	32599	32639	32807	33895	33149	32711	31631	
326	0	32620	32843	32700	32822	32860	31906	32711	31071	
327	0	32748	32895	32542	32799	33223	31614	32543	31423	
328	0	32844	33135	32743	32895	33083	31229	32623	32148	
329	0	32796	33015	32683	32900	32523	31258	32983	31766	
330	0	32727	32450	32529	32767	32391	32205	33678	31815	
331	0	32663	32551	32377	32750	32751	32683	34279	32625	
332	0	32769	32727	32553	32715	32407	32565	33767	32918	
333	0	32752	32821	32698	32691	32420	32735	33367	32532	
334	0	32775	32919	32463	32621	32484	32759	33212	32215	
335	0	32775	32971	32635	32619	32555	33151	33263	32726	
336	0	32795	32676	32559	32523	32643	32965	32605	32947	
337	0	32743	32723	32681	32514	32604	33122	32557	33007	
338	0	32773	32612	32763	32583	32739	33135	32511	33059	
339	0	32775	32664	32602	32587	32775	32962	32615	32647	
340	0	32759	32475	32742	32615	32759	32836	32911	32532	
341	0	32875	33021	32615	32606	32711	32877	32771	32479	
342	0	32798	32927	32703	32477	32911	32630	32303	32207	
343	0	32831	32615	32771	32519	33251	32919	31332	32071	
344	0	32889	33071	32719	32683	33095	32734	31247	32617	
345	0	32756	32788	31678	32787	32980	32412	32749	32135	
346	0	32738	33091	31782	32813	32796	33031	32415	32404	
347	0	32721	33396	31947	32975	32588	33010	31047	32969	
348	0	32667	32711	32363	32701	32087	33558	30292	32965	
349	0	32677	32503	32617	32679	33247	34876	28481	34111	
350	0	32664	32724	32647	32663	33918	35173	28415	33997	
351	0	32968	33279	33095	32660	32959	33723	30005	33567	
352	0	32925	33355	33174	32635	32642	32306	32007	33317	
353	0	32801	33599	33143	32871	32425	33330	34743	33978	
354	0	32695	33035	33171	32959	33234	33789	36443	35155	
355	0	32586	32703	33119	33075	30747	32380	37919	34210	
356	0	32588	33246	32471	33144	28390	32739	38699	33692	
357	0	32852	33616	32703	32983	30469	33199	36206	34469	
358	0	32918	32314	32775	32773	32525	32259	34595	34695	
359	0	32996	31985	32805	32644	32931	30831	33625	34532	
360	0	32831	31890	32526	32447	32479	29359	32890	33863	
361	0	32694	32453	32631	32436	33254	29773	31918	33013	
362	0	32679	31425	32510	32449	34215	30433	29607	33298	
363	0	32823	31510	32931	32391	32903	29905	29643	32919	
364	0	32568	32053	32721	32465	33767	32071	30935	32566	
365	0	32632	32647	32595	32385	32671	32643	32935	31996	
366	0	32775	33001	33012	32601	31766	34164	33851	32284	
367	0	32967	33212	32941	32887	31671	35753	32159	31591	
368	0	32820	32212	32739	32967	34156	36684	32359	29473	
369	0	32713	32063	32582	33076	35861	35860	34130	27463	
370	0	32633	32315	32628	32931	35829	34299	34411	27295	
371	0	32694	32135	32564	33082	34102	34439	34799	27687	
372	0	32903	31687	32647	32871	33671	33740	32749	30583	
373	0	32714	31931	32831	32422	34293	35317	31367	33351	
374	0	32696	32175	32639	31965	33903	35023	30507	33495	
375	0	32747	32791	32513	32199	32404	33097	30468	32703	
376	0	32715	32971	32555	32583	30563	31399	30679	32735	
377	0	32633	32903	32476	32726	30119	30375	32446	33086	
378	0	32711	33251	32537	32796	31095	32743	32509	33560	
379	0	32796	33339	32677	32803	32671	33825	30740	34071	
380	0	32732	33247	32570	32783	31326	32555	31678	34411	
381	0	32612	32960	32795	32818	30349	32359	34608	34455	
382	0	32799	32887	32754	32698	28869	31791	37031	33379	
383	0	32884	32737	32562	32775	29935	32076	36533	32978	
384	0	33002	32988	32681	32782	31393	33108	33340	33608	
385	0	32996	33407	32680	32924	33147	33302	30081	33755	
386	0	32917	33223	32642	32865	35146	33475	29943	33214	
387	0	32797	32699	32566	32817	36005	32191	32383	32429	
388	0	32710	32974	32693	32839	36703	32501	33195	32046	
389	0	32724	33029	32519	32740	35915	32751	33964	32135	
390	0	32807	33154	32525	32659	35204	32554	33775	31521	
391	0	32743	33007	32646	32698	33951	32499	33345	31315	
392	0	32615	33092	32733	32631	32756	32495	32575	32554	
393	0	32508	32844	32951	32804	32425	32387	31262	33385	
394	0	32525	32447	32749	32805	32200	32135	31239	33143	
395	0	32534	32554	32799	32845	32342	32229	32303	32775	
396	0	32634	32721	32941	32856	31591	32330	33563	33355	
397	0	32710	32791	32701	32919	32509	32240	34163	33439	
398	0	32771	32871	32625	32922	33218	32180	34665	32817	
399	0	32807	33311	32439	32757	33251	32644	34055	32667	
400	0	32807	32927	32483	32691	32939	32775	33221	32874	
401	0	32969	32866	32615	32647	32647	32873	32447	33159	
402	0	32956	32679	32461	32775	32268	32775	31641	32903	
403	0	32809	32839	32655	32806	32804	33436	31743	32149	
404	0	32855	33238	32621	32834	33635	33966	31277	32167	
405	0	32798	33258	32731	32883	34293	34463	31855	32251	
406	0	32934	33435	32710	32903	32570	33187	32052	32594	
407	0	32966	33182	32825	32919	32167	33030	32087	32687	
408	0	32858	32247	32687	32847	32719	32380	32295	32327	
409	0	32710	32276	32391	32598	31139	30503	32934	33170	
410	0	32571	32291	32447	32364	31133	30127	34004	33295	
411	0	32764	32035	32381	32223	31459	29904	34166	33637	
412	0	32647	32055	32183	32498	31717	30786	30848	34843	
413	0	32669	31727	32057	32487	30951	31045	30194	34664	
414	0	32663	32619	32487	32692	32148	32221	29407	34962	
415	0	32749	33237	32479	32646	32687	32919	28986	34693	
416	0	32773	33441	32687	32935	32833	33963	30004	34077	
417	0	32613	33042	32567	33006	33215	33671	32351	34276	
418	0	32301	32546	32402	33159	33267	34575	34987	34163	
419	0	32412	32889	32586	33158	31635	33186	36206	32566	
420	0	32622	33557	32485	33061	30846	31249	36607	31527	
421	0	32667	32189	32420	32799	30917	30438	35015	30735	
422	0	32932	32382	32548	32559	31517	32251	33815	31154	
423	0	32756	32501	32439	32164	32603	34463	32775	31791	
424	0	32843	32723	32573	32102	33399	34661	32500	32169	
425	0	32960	32759	32729	32181	34565	34671	31447	32135	
426	0	33030	32567	32823	32387	32454	33087	33223	30871	
427	0	33097	32775	32991	32348	30850	32167	33287	31894	
428	0	33159	32983	32941	32331	32210	33035	32900	33335	
429	0	32902	32446	32833	32473	34052	34285	33991	32913	
430	0	32739	32173	32815	32674	34095	33618	34567	32943	
431	0	32844	32339	32545	32773	33967	31769	33185	33453	
432	0	32974	32543	32521	32687	34615	32028	31743	33911	
433	0	32948	32473	32259	32806	34439	30842	31441	34498	
434	0	33043	32855	32454	32818	34375	30113	32089	34814	
435	0	33158	33184	32545	32953	34178	31152	33089	33732	
436	0	33150	33267	32677	33006	32566	32841	33659	33315	
437	0	33134	32903	32855	33015	31463	29770	33351	34353	
438	0	33006	33209	33067	32686	31983	30065	31439	34567	
439	0	32683	33719	33303	32933	33584	32794	30893	34386	
440	0	32315	33247	33091	32971	33051	34637	31906	33087	
441	0	32385	32543	33317	33302	32624	35317	32117	31290	
442	0	32609	32189	33152	33372	33211	36326	32991	28405	
443	0	32600	31919	33380	33125	33322	36457	33023	28613	
444	0	32432	31838	33563	32858	32082	35141	32783	28781	
445	0	32582	31453	33426	32735	31223	34547	33763	27901	
446	0	32812	31342	33767	32879	31804	32429	32954	29783	
447	0	32938	31855	33762	32534	32442	32199	32617	31406	
448	0	32976	32634	33538	32343	30497	32871	32534	32903	
449	0	32903	32845	32943	32683	29392	33363	33115	34173	
450	0	32854	32541	32754	32911	32376	34178	32457	34375	
451	0	32805	32677	32566	33095	34156	32978	32374	34439	
452	0	32837	32695	32571	33050	34695	32630	31781	34151	
453	0	32932	32561	32325	32997	35703	32751	31428	33229	
454	0	32885	32535	32354	32799	35399	32082	29497	33167	
455	0	32903	33111	32503	32647	33426	31140	29533	32663	
456	0	32726	32698	31991	32461	33221	31451	31689	31887	
457	0	32661	32561	32059	32573	33834	32359	33351	31367	
458	0	32608	32879	32095	32645	33247	32180	34991	30272	
459	0	32596	33582	31931	32895	32993	32293	35204	30223	
460	0	32655	33308	31951	32929	32955	33007	36445	30805	
461	0	32588	33415	31766	33099	34045	33870	35606	31623	
462	0	32758	33874	32037	33337	33759	34138	32190	34091	
463	0	32839	34075	31830	33276	32984	33505	29740	35113	
464	0	32948	33709	31914	33155	30714	30565	29300	36174	
465	0	32820	33095	31765	32901	31277	30543	28577	37330	
466	0	32623	32775	32054	32775	31613	31516	27728	38231	
467	0	32369	33285	32223	32535	30311	30087	28883	36898	
468	0	32235	32511	32764	31975	29519	29483	28806	34847	
469	0	32278	31751	33524	31964	30554	30586	28339	35106	
470	0	32302	31303	33728	31815	30431	33303	33036	33224	
471	0	32348	31695	33835	31984	28737	35072	37499	29727	
472	0	32606	32263	33454	32237	28869	34350	39806	28965	
473	0	32764	31831	33466	32383	30316	32935	37302	30819	
474	0	32796	31916	32923	32771	33457	34245	34738	33157	
475	0	32636	32243	32447	32918	33628	34639	36553	32998	
476	0	32867	32825	32455	32795	34351	32379	36948	33730	
477	0	32757	33145	32238	32854	34146	29453	36231	34163	
478	0	32758	33159	32087	32948	34271	29062	35911	35027	
479	0	33033	33439	32217	32846	33687	30431	32801	37196	
480	0	33110	33261	32360	32852	35228	33306	32045	35655	
481	0	32773	32918	32309	33071	37659	33579	32058	33647	
482	0	32705	32824	32330	33047	36694	33951	33718	30658	
483	0	32708	32759	32505	32799	35572	33125	34369	28623	
484	0	32601	32604	32370	32780	35821	33709	33230	27363	
485	0	32615	32853	32359	32599	34196	34325	32143	28514	
486	0	32811	32917	32587	32663	32227	34529	32234	30150	
487	0	32782	32937	32411	32775	32579	34532	33823	30514	
488	0	32727	33047	32629	32647	33415	33486	32743	30375	
489	0	32888	33606	32625	32775	31916	32447	31815	30349	
490	0	32852	32839	32710	33170	30727	31246	31141	31303	
491	0	32926	32436	32953	33018	29895	30055	29247	33671	
492	0	33053	33106	32572	32767	30791	31702	28187	35039	
493	0	32890	33175	32427	32961	31119	33102	27976	36423	
494	0	32799	32902	32701	33101	30052	35607	29402	36073	
495	0	32829	32753	32646	33073	30157	38331	30814	33655	
496	0	32984	32956	32660	33091	32986	40241	30807	32236	
497	0	33260	33414	32799	32885	33167	37805	30695	33094	
498	0	33330	33255	32662	32683	31585	32895	32289	32955	
499	0	33080	32443	32684	32495	33511	30439	38225	31406	
500	0	32695	31901	32529	32612	33451	31025	39506	30452	
501	0	32391	31661	32083	32775	34777	33510	35207	32373	
502	0	32597	31959	32406	32722	32765	30867	31913	33167	
503	0	32607	32301	32381	32646	32107	29421	30994	30363	
504	0	32965	33012	32444	32495	29739	27726	31431	29471	
505	0	32880	33513	32495	32879	28744	28191	30076	31721	
506	0	32754	33687	32549	33159	29567	30470	28979	34585	
507	0	32588	33483	32292	33264	31463	32519	29655	37796	
508	0	32401	32890	32270	33322	36374	36820	30669	36207	
509	0	32550	32607	32623	33087	37717	37127	30663	34269	
510	0	32879	32591	32900	32564	37151	36151	30795	33831	
511	0	32794	32075	33077	32083	36295	33665	30721	32747	
512	0	32716	31495	33343	31724	35975	31197	32877	31835	
513	0	32388	31528	33453	32020	33308	30994	36218	33156	
514	0	32075	31777	33821	32040	31351	32769	38850	33767	
515	0	32135	31865	33463	32287	31669	31062	40718	31695	
516	0	32371	32336	33083	32390	33446	31254	39761	32247	
517	0	32615	32668	32607	32591	34614	32090	35503	33275	
518	0	32858	32718	32075	32839	33206	31151	34277	32931	
519	0	33223	33166	31879	32971	29749	30410	31934	35310	
520	0	33483	33878	31766	33005	29210	30786	29165	36544	
521	0	33762	33399	32004	32567	28600	31459	28777	35719	
522	0	33444	33607	32056	32854	29503	30807	29506	32239	
523	0	32968	33638	31903	33381	31350	34207	30438	29509	
524	0	32834	33183	32243	33359	33356	38103	31035	28188	
525	0	32385	32826	32340	33358	35279	37231	32875	29401	
526	0	32084	32481	33468	33223	33415	36373	34563	30377	
527	0	32126	32675	33938	33014	32301	35167	34226	32945	
528	0	32454	32361	33604	32500	32807	32999	33118	33715	
529	0	32620	32421	33560	32407	31207	31539	33954	31559	
530	0	32374	32815	33281	32471	31162	29799	35071	29923	
531	0	32699	32993	33023	32567	33091	31189	32790	31815	
532	0	32719	33081	32935	32839	36444	32498	31053	34104	
533	0	32620	32455	32623	32961	37999	33367	31253	33671	
534	0	32839	32567	32669	32903	34927	32126	31623	33644	
535	0	32892	32301	32481	32751	32639	33502	30981	33274	
536	0	32836	32274	32182	32562	31837	34005	30589	32743	
537	0	32887	32215	32167	32303	33298	34069	31225	33060	
538	0	32810	32348	32071	32183	33051	32391	31463	33579	
539	0	32441	32211	32064	32564	32383	31890	34855	33659	
540	0	32644	32757	32327	32623	31827	28359	34665	34361	
541	0	32767	32882	32354	32727	34807	27835	34578	34201	
542	0	32843	32925	32749	32839	34459	27026	34907	34791	
543	0	33044	33031	32903	32890	34311	26209	32403	34593	
544	0	33140	33365	33132	32895	33326	26727	33256	34189	
545	0	33287	33927	33082	32786	31134	28396	32971	35097	
546	0	33156	34027	32508	32901	32607	29360	32213	35655	
547	0	32998	33879	32161	33245	32343	32278	33861	34104	
548	0	32775	32762	32365	33127	29275	33191	33963	31746	
549	0	32284	32326	31725	33345	30343	35900	32951	30325	
550	0	32324	32039	31951	33219	30151	37555	32191	30596	
551	0	32828	32121	32201	32867	32710	43113	29713	32783	
552	0	32861	31991	32391	32667	32245	44559	29665	31471	
553	0	32903	32308	32902	32559	32343	38911	31751	28730	
554	0	32871	32865	32927	32711	34412	36381	33415	26889	
555	0	32831	32479	32693	32887	36732	34911	34356	30213	
556	0	32672	32362	32588	32999	35517	33671	37351	31439	
557	0	32534	32578	32193	33151	32135	33862	37023	29179	
558	0	32538	32655	32130	33116	31855	33821	33818	28846	
559	0	32449	32655	32327	32821	32053	34113	31052	30429	
560	0	32673	32589	32325	32671	31871	33399	30700	33383	
561	0	32809	32699	32643	32617	32626	33703	30141	34099	
562	0	32694	32807	32715	32525	31650	32813	30891	32885	
563	0	32985	32927	32999	32405	29510	31359	31097	33617	
564	0	32875	32987	32923	32487	28618	30947	31312	33175	
565	0	32946	33153	32830	32329	29591	31239	30123	33269	
566	0	32786	33327	32871	32223	29545	30893	31047	33145	
567	0	32679	33222	32791	32564	30421	32297	32203	34140	
568	0	32935	32727	32999	32601	31492	32855	31615	36076	
569	0	33148	32865	32824	32572	34040	32599	33706	36604	
570	0	33292	32826	32415	32681	36177	31435	35778	35033	
571	0	33065	32683	32284	32681	37055	30927	34612	34397	
572	0	32888	32937	32506	32450	34199	30791	33654	34583	
573	0	32540	32244	32279	32145	32927	31486	32615	34294	
574	0	32109	32205	32412	32471	32854	31194	31431	34454	
575	0	32012	32112	32571	32861	33599	31929	32041	33015	
576	0	32513	32353	32879	32681	32183	31788	33575	31403	
577	0	33019	33063	33120	32685	28807	33019	33120	31724	
578	0	33237	33410	33142	32897	30114	32677	30688	32935	
579	0	32926	33342	32713	33084	31871	31775	28871	33789	
580	0	32353	32597	32358	33283	34898	33677	32400	34675	
581	0	32676	32975	32375	32858	34503	30074	34291	36946	
582	0	32996	33139	32554	32512	32261	27032	35428	37381	
583	0	33392	33367	32724	32438	33137	24695	35364	37226	
584	0	33033	33247	32310	32657	36871	29225	32719	36885	
585	0	32791	32487	32306	32711	38919	32040	32493	36557	
586	0	32598	32253	32713	33113	37743	32969	37120	32963	
587	0	32377	32100	32503	33191	34972	32532	40297	30774	
588	0	32007	31905	32556	33396	33523	29665	38268	28533	
589	0	31877	32554	33186	33063	33421	26333	34841	29958	
590	0	31908	33386	33611	33159	32985	24479	32518	29643	
591	0	32465	33373	33471	33302	34089	24415	30174	27711	
592	0	32551	33303	32933	33501	32543	24304	30521	26419	
593	0	32948	33616	32959	33176	32626	30082	30548	26025	
594	0	33273	32730	32709	32471	34151	40782	30629	27916	
595	0	33389	31958	32556	31974	33426	45724	30580	29201	
596	0	33285	31708	32301	32079	31702	44506	30383	28941	
597	0	32915	31284	32367	31663	30636	45604	29953	29229	
598	0	32628	30986	32386	31686	29094	51847	30289	32713	
599	0	32434	31139	32711	32047	28750	48884	31257	37181	
600	0	32508	31615	32523	32285	30989	40831	31484	36474	
601	0	32815	32159	32653	32678	32171	36727	31323	35571	
602	0	33031	32986	32599	33142	32479	33714	31779	35207	
603	0	32863	33250	32614	33271	32658	31556	33298	33847	
604	0	32766	33828	32599	33428	31969	28639	34023	34263	
605	0	32471	33479	32489	33295	31871	25635	35153	32630	
606	0	32632	33271	32723	33110	32807	26651	34037	30299	
607	0	32722	33473	32679	32975	33740	28149	33019	29823	
608	0	32771	33343	33095	32991	33759	29383	33209	29611	
609	0	32989	33277	33431	32815	34001	31806	32463	30555	
610	0	32887	33142	32935	32735	34149	32663	32843	30906	
611	0	32691	32763	32868	32969	32623	32315	33796	32154	
612	0	32807	33356	32258	33131	33082	33318	33220	31574	
613	0	33104	32922	32146	33215	33695	34731	30842	34115	
614	0	33104	33172	32192	33189	31215	32924	27363	38437	
615	0	33165	33146	32215	32918	28258	30211	25816	40054	
616	0	33147	32679	32232	32925	27069	29355	27781	37607	
617	0	32861	32314	32162	33246	30868	31277	27423	34614	
618	0	32868	32171	32609	32831	31463	31802	28189	33295	
619	0	32454	32018	32577	32573	27564	28125	33831	31318	
620	0	32060	32022	32535	32410	27316	27922	39910	32203	
621	0	31920	31910	32926	32503	28603	29861	38006	31219	
622	0	32518	32447	33029	32500	26717	29687	35809	31130	
623	0	33063	32871	33077	32423	28833	32911	35269	32177	
624	0	33152	32935	33362	32367	36546	35177	35863	33255	
625	0	33080	33106	33490	32452	42727	35551	34811	32754	
626	0	32741	32978	33191	32587	43871	35521	36100	31947	
627	0	32543	32690	32531	32667	41783	35238	36559	31570	
628	0	32727	32816	32241	32803	38196	35014	33950	31667	
629	0	33050	33111	32531	32731	34153	34130	32241	32727	
630	0	33002	32841	32443	32627	33271	34149	33191	33183	
631	0	33060	33031	32246	32579	34575	33613	34173	33607	
632	0	32954	32786	32287	32692	34663	33474	34119	33886	
633	0	32937	32702	32261	32826	31524	31343	34929	33507	
634	0	32828	33237	32236	32895	31134	30882	34855	33088	
635	0	32934	33653	32485	32679	32590	31412	32470	33799	
636	0	32995	33636	32423	32881	32879	31667	32010	33739	
637	0	32674	33001	31963	33177	32853	33071	32438	32236	
638	0	32524	32811	32244	33142	32687	32735	29947	32171	
639	0	32476	32439	32436	33089	31517	31643	29191	32333	
640	0	32330	32287	32467	33231	30789	32435	27943	33327	
641	0	32574	32623	32533	33339	32239	32823	28857	33505	
642	0	32724	32722	32652	33019	31578	32027	31359	33554	
643	0	32793	32671	32730	32548	30553	32091	32301	33883	
644	0	33105	32473	32587	32427	31681	31348	32439	34299	
645	0	33356	32543	32690	32215	32967	30446	33391	34459	
646	0	33031	32647	32437	32167	34911	32993	36162	34215	
647	0	32894	32254	32461	32098	30557	33639	37613	33319	
648	0	32752	32237	32447	32203	30795	32973	34727	33682	
649	0	32456	32498	32457	32535	34064	32820	33303	33415	
650	0	32276	32055	32747	32692	34754	34223	33967	31659	
651	0	32029	31777	32808	32722	36067	33177	34958	29744	
652	0	32388	31636	33068	32690	35527	27245	34406	30980	
653	0	32607	31673	32781	32540	34045	23708	29786	35994	
654	0	32521	32134	33119	32481	32194	24829	29646	36509	
655	0	32278	32550	33511	32604	31718	28925	29949	33849	
656	0	32640	33285	33611	32538	31391	31223	28855	35759	
657	0	32884	33733	33261	32383	33313	36932	29203	36019	
658	0	32972	33639	32886	32503	33227	40527	30391	34533	
659	0	33008	33711	32690	32849	31398	39351	30650	32190	
660	0	32949	34012	32311	33119	31367	41164	31477	29414	
661	0	33055	33159	32315	32898	31413	38214	31899	29190	
662	0	33170	33131	32317	33169	32364	35244	31264	30811	
663	0	32823	32447	32246	33287	32514	33634	31533	30233	
664	0	32713	32447	32284	33356	31346	33810	34503	26300	
665	0	32706	32343	32319	33235	31176	34636	35379	25757	
666	0	33016	31996	32412	33172	32047	34887	35106	28771	
667	0	33287	32304	32562	32630	31555	33745	34043	30062	
668	0	33052	32331	32667	32542	29842	33979	35623	29585	
669	0	33190	32381	32708	32500	29575	32935	34335	29935	
670	0	33143	32164	32727	32679	29619	30862	31385	30212	
671	0	33477	32429	32731	32667	30407	31653	28183	31535	
672	0	33166	32529	32598	32959	32623	33685	28103	30499	
673	0	32748	32691	32314	33115	31974	32711	29506	30630	
674	0	32417	32742	32161	32891	32127	31048	31079	34306	
675	0	32679	33382	32566	32636	28903	26524	33369	37126	
676	0	32667	33281	32700	32852	25420	25096	34415	37931	
677	0	32866	33415	32231	32854	29190	27421	32135	38506	
678	0	32740	33569	32247	32831	35199	27911	32792	40474	
679	0	32336	33299	32613	32910	40310	30900	34217	41895	
680	0	32425	33319	32134	32829	40613	32688	36356	41642	
681	0	32516	33250	32276	32754	36777	29871	37273	38756	
682	0	32253	32883	32545	32857	39511	30116	37783	35655	
683	0	32663	32445	32818	32988	37334	33769	34852	33558	
684	0	32492	32276	32543	33159	35719	36282	35583	30766	
685	0	31945	32708	32071	32855	36197	38770	35911	28263	
686	0	31858	32927	33187	32587	35492	41290	36417	26031	
687	0	32117	32949	33200	33007	35499	39732	34726	24706	
688	0	32562	32699	33039	32919	33719	38327	32161	24994	
689	0	32655	32294	33309	32471	32761	37865	31306	27271	
690	0	32834	31762	33519	32579	32303	34723	30843	29591	
691	0	32802	31583	32890	32391	29639	32479	29735	32334	
692	0	33087	31905	32909	31719	26554	29466	28111	35653	
693	0	32801	32202	32701	32071	28206	29239	26260	37143	
694	0	32982	32621	32347	32347	27679	30665	26797	36314	
695	0	33069	32647	31929	32665	25498	30558	29046	34636	
696	0	33257	32695	32070	32615	25295	30083	28719	35365	
697	0	33245	32879	32269	32639	27602	29969	30711	32423	
698	0	33236	33167	32279	32636	30223	32090	31864	30501	
699	0	32820	33027	32511	32937	38847	37615	30239	32996	
700	0	32861	33321	33420	33075	38484	34183	35911	34257	
701	0	32643	33360	33535	33046	37268	30313	46636	33567	
702	0	32437	32959	33014	33121	35319	29333	46239	32039	
703	0	32336	33250	33215	32879	36717	31709	38117	32647	
704	0	32576	33143	33463	32627	36723	32953	34182	32935	
705	0	32692	32835	33159	32607	38209	34218	32615	33001	
706	0	32720	32135	32647	32718	35909	32399	33589	34064	
707	0	33003	32005	32228	32738	31346	29766	34291	32171	
708	0	32928	32210	32128	33039	30605	28671	34582	30071	
709	0	32647	32029	31959	33209	29437	30034	34335	28710	
710	0	33093	32564	31975	33058	28830	33910	28916	31268	
711	0	33449	33506	32252	32793	26063	35252	24775	32767	
712	0	32662	32948	31934	32999	27197	35619	23279	30973	
713	0	32391	32886	31828	33125	30400	36101	22222	30546	
714	0	32740	32914	31726	33125	36255	37190	21637	32436	
715	0	33019	33131	31705	32836	38383	34295	23493	33812	
716	0	33099	33388	32141	32719	34404	31696	31325	34551	
717	0	33017	32925	32791	32577	29673	31980	37741	35820	
718	0	32734	32929	33487	32191	29341	31635	41810	35884	
719	0	32382	32762	34199	32045	32397	29924	42015	35462	
720	0	31959	32903	34383	32775	38671	31018	38865	35458	
721	0	31527	32387	34112	33093	40885	33429	37497	33321	
722	0	31971	32351	33563	32723	37376	34102	39111	31680	
723	0	32223	32299	33200	32258	33148	32690	38335	32097	
724	0	32620	32239	32751	32211	30991	29893	35828	33325	
725	0	32884	32311	32567	32507	33335	29084	34157	34331	
726	0	32725	32358	32547	32687	34556	30735	33074	34800	
727	0	32863	32948	32421	32429	33303	33171	30372	35034	
728	0	33145	33184	32716	32455	32364	32332	29165	34881	
729	0	33149	33057	32631	32599	35471	31820	30191	32775	
730	0	33154	33138	32420	32679	34381	31122	31566	32557	
731	0	33138	33047	32295	32898	32159	32417	30401	34174	
732	0	33213	33094	32254	33078	32125	30885	28720	33380	
733	0	32905	32903	31770	33159	31391	25679	30463	29479	
734	0	32780	32752	31538	33231	29710	27295	31630	30569	
735	0	33206	32764	31789	33007	29282	34422	29879	36383	
736	0	33358	32867	32255	32720	28794	35393	27671	36766	
737	0	33516	33321	32335	32630	28859	33927	27472	31989	
738	0	32798	32996	31975	33137	31389	37975	30282	26540	
739	0	32130	32463	31886	33104	32423	37277	33557	26909	
740	0	32188	32612	32514	33194	30980	34247	32903	28551	
741	0	32151	32201	32959	33408	32055	32830	32561	27978	
742	0	32709	32502	32979	33218	32590	32539	34855	28843	
743	0	32810	32710	32827	32775	31582	35088	32535	32122	
744	0	32656	33191	33613	32343	31245	38188	31973	33039	
745	0	32433	33462	34345	32623	30671	35441	35687	32310	
746	0	32968	33439	33993	32829	31394	34241	36677	33107	
747	0	32944	32903	33390	32754	34271	37331	35275	34137	
748	0	32596	31991	32487	32990	35387	39645	34665	32979	
749	0	32429	32012	31575	33170	35770	38322	33005	32566	
750	0	32248	32322	31794	32812	35911	35504	29415	33311	
751	0	32484	32307	33127	32361	35084	31321	28493	33332	
752	0	32662	32444	32759	32015	33511	30181	30791	33038	
753	0	32575	32594	32445	32287	35047	31235	34151	33387	
754	0	32389	32836	32608	32436	34390	28101	36436	31972	
755	0	32441	33349	32832	32321	32622	24901	36662	33990	
756	0	32687	33083	32783	33157	29969	25649	38019	34805	
757	0	32984	33087	32497	33799	29103	26812	37173	33655	
758	0	33328	32687	32543	33437	27958	24446	33199	33145	
759	0	33022	31975	32242	33016	28239	24831	33959	35297	
760	0	33091	32378	32640	32004	29740	28417	31086	38806	
761	0	32936	32270	32895	32036	31655	32756	26702	41581	
762	0	33452	32332	32718	32095	35033	34836	26071	41664	
763	0	33410	32783	33087	32114	39476	38626	26922	39482	
764	0	32786	33358	33102	31815	39591	41135	31742	33497	
765	0	32213	32871	32859	32311	38201	43815	32925	28111	
766	0	32096	32215	32339	32883	37454	41622	34183	23055	
767	0	32127	31919	32015	33022	36221	39399	36255	24535	
768	0	32414	32087	32213	32863	34402	35463	36754	27489	
769	0	32457	31533	32525	32895	31655	31599	35897	27756	
770	0	32676	32285	32539	32493	30423	30855	33319	27749	
771	0	32816	32525	32308	32762	30564	33223	32747	26887	
772	0	32964	32911	32468	32965	27133	33105	37375	27336	
773	0	33140	33127	32430	32915	25133	31516	35719	30629	
774	0	33426	33303	32688	32788	27476	29697	29408	32751	
775	0	33332	33725	33197	32887	32015	30855	26742	35660	
776	0	32488	33730	33018	32871	33129	32159	29884	35649	
777	0	32383	33306	33303	32670	31407	31195	34423	33607	
778	0	32487	32580	33101	33135	32527	30852	35014	32793	
779	0	32638	32725	32563	33074	32951	29985	31359	33822	
780	0	32895	33315	32647	32116	32101	31100	30441	32901	
781	0	33170	33189	32890	31942	31481	31647	32921	34485	
782	0	32930	32463	32230	33070	32318	31432	35410	34201	
783	0	32793	32031	32199	33320	31782	32494	30678	33606	
784	0	33202	32724	33118	33549	27905	32100	29022	33146	
785	0	32903	32914	32930	33927	28282	35639	29258	30314	
786	0	32836	33299	32742	33455	32319	34448	30721	31194	
787	0	33038	33192	32865	32940	40834	31808	31845	35400	
788	0	33263	33396	32143	32881	42375	27287	34509	38246	
789	0	32775	33256	31653	33121	38958	25422	38171	37607	
790	0	32326	32754	31622	33183	38718	23599	41018	38095	
791	0	32152	32283	31821	33200	36296	24445	44183	39604	
792	0	32252	31997	32455	32775	34004	24679	42237	39923	
793	0	33012	32308	32828	31893	30636	27251	33875	42429	
794	0	32955	32729	32850	32258	29353	31588	28847	41169	
795	0	32717	32780	33133	32997	33505	34937	26146	41263	
796	0	32561	32642	33917	32841	35196	39412	25988	31981	
797	0	32690	32249	33464	32576	36508	47384	25141	22761	
798	0	32372	32100	32549	32299	34833	48599	28285	20413	
799	0	32121	32146	32129	32380	30764	44244	30503	21482	
800	0	32198	32471	32182	32310	25735	37195	29212	25618	
801	0	32997	33097	32809	32242	27352	31675	25444	29130	
802	0	33376	33251	33050	32316	29353	34583	27560	30255	
803	0	33224	32924	32692	32410	31615	37435	33236	31543	
804	0	32946	32840	32224	32431	34671	35047	37444	31210	
805	0	32535	32898	31687	32461	36421	29715	39716	31483	
806	0	32826	33174	32037	33531	32399	29311	36622	32423	
807	0	33062	33242	32348	34382	29681	28276	38749	32642	
808	0	32811	33245	32427	33728	29129	25429	39746	34583	
809	0	32969	33321	32733	33018	29157	22049	36071	37108	
810	0	32908	33215	32949	32626	28987	25274	32613	33346	
811	0	32508	32493	33014	32311	31271	28860	32890	33679	
812	0	32715	32103	33110	32182	34965	32549	34591	35308	
813	0	32834	32063	33210	31757	37609	35325	33466	33109	
814	0	32953	32322	33077	31479	39762	36976	32975	30428	
815	0	32251	31873	32503	31815	40877	37875	33303	31230	
816	0	32018	31636	32644	31783	38141	36375	32538	34228	
817	0	32204	32110	32707	32105	33828	37314	30629	35156	
818	0	32284	32183	32823	32411	31452	37580	30207	32277	
819	0	32235	31963	32180	32783	32583	39092	31897	29586	
820	0	32679	32474	32211	32708	32969	37805	31173	31613	
821	0	33197	33082	32692	32827	31394	33614	30207	33079	
822	0	33437	33431	32403	32869	30464	29182	30025	35205	
823	0	33330	33363	32206	33307	31085	31185	30292	36758	
824	0	33415	33330	32023	33409	30551	30551	31334	37991	
825	0	33375	33600	32391	33159	30756	27957	31981	36145	
826	0	33026	33461	32135	33270	31889	26746	31493	31444	
827	0	32864	33209	31957	32901	31783	25577	29319	29447	
828	0	32772	32771	33327	32594	31900	30575	27647	29831	
829	0	32172	32607	33558	32814	30327	33614	31314	24514	
830	0	31584	32191	34380	32735	31757	34076	34734	23132	
831	0	31734	31797	34162	32755	32811	32122	35625	26104	
832	0	32009	32023	33474	32903	32753	32555	35183	31418	
833	0	32502	32462	33069	32877	32699	31827	34247	37919	
834	0	32871	32636	32479	32887	32571	30647	34198	39431	
835	0	33213	32999	32498	32679	31854	31165	32437	40871	
836	0	33062	33075	32172	32835	31509	33750	31908	39890	
837	0	32908	33135	32208	32903	31421	33159	32378	35871	
838	0	33021	33139	32418	32819	31935	33790	32626	31831	
839	0	32764	32828	32343	32911	32483	36116	32384	28775	
840	0	32741	32540	32352	32941	32783	35073	32732	28751	
841	0	32734	32391	32539	32874	32719	31669	34270	27455	
842	0	32487	32230	32615	32999	30941	29941	34535	26749	
843	0	32551	32321	32457	33005	29783	29399	33951	29389	
844	0	32937	32821	32663	32852	29725	31443	32295	30273	
845	0	33071	32910	32742	32822	29164	36043	32303	29652	
846	0	33217	32866	32893	32814	33343	39058	31821	30287	
847	0	33238	32833	32894	33015	36655	39140	31339	32315	
848	0	32709	32534	32665	33121	39399	37522	30532	34550	
849	0	32194	32310	32645	33215	40410	37876	32101	33908	
850	0	32420	32423	32446	33012	37033	36685	32311	33082	
851	0	32705	32811	32494	32738	33639	33892	29682	35092	
852	0	32980	33183	32239	32391	32355	31067	28927	36189	
853	0	33453	33812	32279	32195	30941	30733	29239	36316	
854	0	33739	33603	32156	32479	31396	32413	30428	38677	
855	0	33366	33098	32231	32584	31318	31623	35777	36735	
856	0	32977	32935	31699	32810	32575	31823	39634	35782	
857	0	32578	32843	31588	32698	30643	30182	39299	37644	
858	0	32788	32470	32612	32810	31122	24770	36381	38470	
859	0	32676	32285	32871	32278	34658	26503	35346	34253	
860	0	32542	32103	33023	32154	33663	29149	33863	30754	
861	0	32615	31903	33389	32555	33499	29607	29121	28502	
862	0	32518	31663	33428	32822	30917	30326	28807	28980	
863	0	32331	31855	33007	32879	28167	32208	28870	33255	
864	0	32448	32263	33261	32769	27850	33828	30327	34910	
865	0	32885	33213	33199	32446	28897	30745	30974	35088	
866	0	32679	33187	33487	32615	31634	30753	34149	33076	
867	0	32439	32756	33373	32692	34434	31140	37615	28879	
868	0	32280	32202	32736	32528	38112	31050	41145	27240	
869	0	31852	31823	32244	32733	40006	35540	39815	29803	
870	0	32492	32476	32459	32228	36487	37019	34289	34692	
871	0	33127	32698	32498	31878	34823	35435	30891	35661	
872	0	33476	32774	32390	32226	33716	31391	31042	33215	
873	0	33332	33197	32319	32334	33597	28591	31332	33313	
874	0	33049	32997	32064	32682	34595	29297	31367	35765	
875	0	32929	33127	31765	33076	33685	31043	32895	36790	
876	0	32668	33152	31809	33343	31477	34258	31205	34055	
877	0	32436	33158	32486	33695	29865	36276	30071	28309	
878	0	32555	32903	32785	33718	29940	37207	28061	24494	
879	0	32704	32693	33175	33834	29429	36359	28251	24938	
880	0	32840	32617	33575	33787	28467	35583	30951	29282	
881	0	32425	32516	33069	33415	29495	35719	32172	31495	
882	0	32542	32093	32731	33271	31650	38556	32580	30719	
883	0	32954	31907	32793	33023	33030	37324	33613	30971	
884	0	32759	31909	32314	32735	34663	37023	36503	32367	
885	0	32863	32517	32762	32481	32353	34124	36119	34920	
886	0	33251	32910	33134	32590	33608	31601	33715	35917	
887	0	33028	32781	32885	32621	39327	32856	31694	36070	
888	0	32442	32600	32337	32811	39031	30987	32828	36319	
889	0	32285	32641	32225	32927	35921	29275	32758	37119	
890	0	32500	32879	32583	32829	33411	27436	31334	35757	
891	0	32573	32887	32199	32786	32191	26151	31684	32987	
892	0	32891	32820	32349	32687	30702	26897	35727	32167	
893	0	33226	33119	32568	32615	30456	30188	32887	32079	
894	0	33362	33331	32838	32317	29623	34951	33494	30651	
895	0	32961	32670	32751	32543	30383	39559	36871	29068	
896	0	33084	32501	32612	32794	33293	36487	35003	30598	
897	0	32927	32427	32039	33015	35619	35079	32436	30311	
898	0	33006	32934	32201	33026	37012	35986	28898	32607	
899	0	32902	33174	32200	33200	35149	35037	28979	35344	
900	0	32647	32974	32397	33769	29869	31865	33346	35529	
901	0	32553	32887	32477	34380	26654	31015	33949	34284	
902	0	32804	33263	32751	33751	26598	31270	31356	35525	
903	0	33204	33255	32945	33003	27206	29596	32562	34407	
904	0	32633	32525	32895	32488	30895	31040	31787	33920	
905	0	32610	32327	33191	31847	33468	30489	29155	36375	
906	0	32402	31703	34182	31725	32065	29905	32993	34747	
907	0	32006	30975	33334	31762	33157	33911	32399	31787	
908	0	32006	31062	32489	31582	34791	35052	31511	27884	
909	0	32507	31812	32455	31560	32051	32124	31671	25735	
910	0	32762	32183	32615	32086	32292	31862	33951	24869	
911	0	33246	32701	33158	32876	32811	33989	32399	28249	
912	0	32975	32898	32721	32925	34713	34863	31704	33558	
913	0	32480	32755	32205	32929	37149	32274	33357	35142	
914	0	32348	32705	32078	33223	36741	31895	32025	33862	
915	0	32474	33221	32262	33005	35190	29701	29985	38640	
916	0	32820	33645	32231	32491	32599	26615	29798	40649	
917	0	33352	33735	32687	32225	32514	26252	29768	41486	
918	0	33749	33882	33140	32367	29485	26279	32409	39848	
919	0	33738	34024	32876	32431	30630	30717	38314	36049	
920	0	33359	33093	32412	32628	38664	37814	41069	33754	
921	0	33170	32918	32081	32537	39016	37297	39870	31175	
922	0	32230	32426	31956	32677	34735	34481	37399	28891	
923	0	32103	32253	32748	32940	29889	35676	36631	28903	
924	0	32133	32103	32791	32728	28849	34180	33489	30018	
925	0	32695	32524	32638	32535	30527	31518	28639	31159	
926	0	32970	32604	32443	32809	32671	30271	28999	29754	
927	0	33195	32949	32167	32916	33846	33573	29681	28925	
928	0	33528	33391	31728	32839	31851	33721	29713	29023	
929	0	33508	33452	31641	32695	29970	33647	28582	28871	
930	0	33152	32903	31974	33135	29148	34997	28218	28831	
931	0	32812	32420	32127	33389	29362	37727	31092	29114	
932	0	32702	32599	32012	33035	29329	38100	28462	30044	
933	0	32196	32610	33070	32684	27072	35710	25880	29081	
934	0	31604	32684	34402	32972	26553	31657	23722	31718	
935	0	31856	32231	34414	33616	30522	32678	28444	34094	
936	0	32532	32632	33894	33716	28911	27621	40338	36710	
937	0	32985	32583	33549	33857	31518	27253	41677	38455	
938	0	33264	33079	33375	33512	37680	28975	35086	40279	
939	0	32600	32726	33241	33782	40934	30107	36253	40153	
940	0	31922	32095	32729	33765	43807	32364	41622	42423	
941	0	32417	32215	32249	32903	41764	33207	41863	37715	
942	0	33063	32249	31865	32391	39094	32551	39799	35975	
943	0	33516	31843	32027	31971	34290	31698	36941	35877	
944	0	32959	31844	31798	31423	36849	30475	33989	33243	
945	0	32756	32562	32082	30998	36999	30538	31915	29913	
946	0	32577	32839	32400	31351	34437	33744	30982	28485	
947	0	32366	32900	32671	31911	31849	35511	31921	29154	
948	0	32074	32845	33235	32087	31879	36158	33517	27255	
949	0	32067	32807	32574	32285	31920	38480	32547	28106	
950	0	32632	33326	32487	31975	29444	33044	30596	33746	
951	0	32836	33355	32263	32270	29125	30980	29879	37087	
952	0	32663	33076	32316	32697	30867	32634	29091	35911	
953	0	32831	33115	32615	32635	31879	32983	28471	34755	
954	0	33089	33311	32293	32617	31963	30446	29146	31173	
955	0	33164	33111	32501	32890	31933	28579	31559	26799	
956	0	32998	32595	32577	33182	33026	32307	31751	26331	
957	0	33222	33063	32527	32871	31167	32479	31207	28451	
958	0	33252	32948	32621	33023	30127	32630	31011	28055	
959	0	32946	33115	32421	33134	30124	38598	31075	26861	
960	0	32698	33404	32540	33115	31189	40351	31366	27815	
961	0	32739	33437	32739	33082	31475	39132	32303	28539	
962	0	32866	33159	32697	33012	30951	35901	32861	30087	
963	0	32919	32591	32562	32993	31501	35268	34099	31994	
964	0	32852	31941	32057	33011	32811	35907	33902	33446	
965	0	32810	31777	32086	32852	32477	34410	32804	37366	
966	0	32925	31957	32207	32559	31911	32055	32294	40759	
967	0	32732	32174	32621	32715	32557	32719	32541	40967	
968	0	32464	32201	32775	32858	33709	31978	32503	38743	
969	0	32406	32197	33164	32871	34179	31517	33024	35792	
970	0	32426	32548	33479	32791	33149	29326	33571	33404	
971	0	32434	32660	33159	32807	33175	30247	33691	30675	
972	0	32359	32425	33071	32919	32492	31788	33910	27452	
973	0	32576	32885	32911	33091	33133	32459	34040	25303	
974	0	32706	33171	32735	33069	33860	32532	32626	26794	
975	0	33108	33763	32687	32747	32178	31133	31530	29615	
976	0	32854	33636	32613	32762	32353	31463	29439	33791	
977	0	32530	33103	32452	32896	31091	30919	25956	37977	
978	0	32751	32734	32214	32540	30459	29789	22559	39273	
979	0	32975	32549	32074	32582	27532	30871	23218	39374	
980	0	33294	32364	32067	32701	28100	32766	25831	41954	
981	0	33125	32740	32635	32260	28716	29575	31543	37026	
982	0	32653	32833	32461	32342	29802	27924	38407	29273	
983	0	32248	32535	32954	33330	33083	28507	42332	30454	
984	0	32500	33223	33188	33071	37549	30738	43063	32903	
985	0	32446	33113	32687	32813	37636	33352	47767	33347	
986	0	32226	32231	32319	32811	39359	34706	45439	32588	
987	0	32509	32130	32141	32324	40972	33122	39133	34654	
988	0	33028	32263	32669	31913	36429	32326	34775	35867	
989	0	32757	32158	32733	32319	35639	31998	32261	34513	
990	0	32452	32107	32729	32372	35052	32016	30390	35479	
991	0	32568	32627	33015	32487	33116	34151	30495	36407	
992	0	32501	32790	33029	32439	30378	29678	31399	34930	
993	0	32389	32784	33087	32475	28740	27226	30057	31503	
994	0	32439	32739	32775	32727	29575	27511	29877	30086	
995	0	33126	33127	32231	32696	31996	28601	30654	30205	
996	0	33315	33426	32052	32671	33449	37066	30443	26252	
997	0	33070	33080	31847	32982	34122	39814	31453	21046	
998	0	32784	32717	31686	33285	34177	42460	30535	17664	
999	0	32493	32660	31918	32771	30975	41691	31418	18327	
1000	0	32647	32783	32383	32615	30079	37433	31222	26857	
1001	0	32862	33207	32990	32494	32625	35412	29615	35207	
1002	0	33196	33327	33191	32538	34695	37079	28566	38108	
1003	0	33168	33615	32857	32403	33795	36615	28357	36219	
1004	0	32921	33506	32647	32509	34066	32647	30907	37285	
1005	0	32719	33063	32463	33188	31623	31367	30588	35398	
1006	0	32876	32941	32753	32999	29796	33101	30070	35661	
1007	0	33484	32839	32932	32978	31204	34363	30493	39151	
1008	0	33873	32730	33260	32868	32120	32099	32295	40487	
1009	0	33595	32413	32982	32823	32584	30799	37484	38407	
1010	0	32778	31908	32187	32756	36991	34061	40863	38180	
1011	0	32790	32164	32471	32598	33453	31099	37347	37161	
1012	0	32101	32063	33051	33055	31950	28443	34023	33062	
1013	0	32161	32403	34137	32819	31351	26087	32231	29949	
1014	0	32594	32629	33923	32582	33058	26818	32955	28535	
1015	0	32735	32626	33714	32372	33026	31622	35986	33863	
1016	0	32748	32414	33375	32596	30831	33224	38404	36407	
1017	0	32797	32575	33063	32707	29964	31827	35975	35469	
1018	0	32774	32438	33104	32871	32669	28436	32380	33502	
1019	0	32752	32374	32989	32855	34853	26802	34659	31234	
1020	0	33180	32775	33117	32450	31943	24644	34638	31111	
1021	0	33492	33004	33044	32455	29839	30674	34293	32897	
1022	0	33184	32903	32646	32663	31812	38906	33829	35830	
1023	0	33159	33221	32795	32468	32953	36751	33334	33151	
1024	0	33546	33659	32918	32229	33352	33007	30554	32385	
1025	0	33040	33629	32502	32564	35975	32781	31335	30758	
1026	0	32562	33031	31688	33242	39381	34516	31145	27015	
1027	0	32449	32694	31400	33610	36759	35542	30522	21734	
1028	0	32600	32342	31487	33536	32423	34982	30756	23227	
1029	0	32584	32207	31751	33455	30966	32973	31352	30013	
1030	0	32237	31785	32205	33195	30565	31886	31385	35077	
1031	0	32252	31796	32200	32790	29267	34205	30756	30843	
1032	0	32060	31468	32449	32340	31871	37501	31117	27481	
1033	0	32215	32318	32852	32087	33551	38717	30701	32607	
1034	0	32326	32756	33027	32279	33526	37568	30175	34149	
1035	0	32378	32617	32558	32628	34086	35538	31471	35007	
1036	0	32374	32575	32388	32891	33938	34035	32391	37370	
1037	0	32458	32863	32343	32871	33195	32371	33671	38087	
1038	0	32508	33127	32263	32541	31169	31637	33630	37871	
1039	0	32898	33369	32647	32714	30164	31388	32391	36356	
1040	0	33207	33520	32817	32917	31042	33381	32063	33635	
1041	0	32758	33348	32603	33139	30339	33414	33402	30073	
1042	0	32375	32949	32263	33323	28841	36009	33241	27848	
1043	0	32586	32925	32013	33279	27622	36330	33230	28444	
1044	0	32823	32813	32050	33123	27247	32058	32702	29679	
1045	0	33316	32546	32662	32698	28947	30075	29801	31375	
1046	0	33447	32295	32951	32041	32199	31671	29170	33835	
1047	0	32676	31997	32586	32164	39411	33006	31139	32743	
1048	0	31636	31568	32983	32707	42740	32909	34237	32541	
1049	0	31655	32007	33793	32695	40660	31271	33301	34223	
1050	0	32340	32451	33197	32327	37895	31421	32381	36855	
1051	0	32788	32897	32825	32263	37415	30737	32605	40484	
1052	0	32873	33044	33006	32358	35815	30120	34618	42855	
1053	0	32943	33007	32958	32475	32085	30239	35207	42564	
1054	0	33034	33127	32739	32319	29724	29769	33191	40506	
1055	0	33287	33307	33001	32367	29306	28967	33415	39591	
1056	0	33082	33063	33030	32540	29369	27644	34356	33261	
1057	0	32867	32950	32415	32943	30701	28791	34454	27118	
1058	0	32749	32879	32087	33318	32421	29110	34758	24036	
1059	0	32890	32551	31913	33449	31855	33260	34255	25302	
1060	0	32793	32167	31745	33387	31786	36485	34295	25670	
1061	0	32686	32253	31961	33308	29233	35474	31815	27653	
1062	0	32502	32311	32884	33118	29667	35129	30004	27793	
1063	0	32420	32239	33076	32985	29831	33207	30916	25865	
1064	0	32360	32516	33386	32655	32759	36261	29143	29167	
1065	0	32804	33041	33687	32297	34751	35543	26902	31612	
1066	0	33426	33494	33733	32126	35634	29452	27369	34610	
1067	0	32999	33381	32908	32274	36223	28252	34017	36575	
1068	0	32789	33159	32348	32356	36024	33875	37068	36662	
1069	0	32837	33026	32169	32380	32967	34227	38023	36035	
1070	0	32991	33385	32208	32441	33347	32271	34823	37884	
1071	0	33048	32999	32199	32647	33030	28852	34183	39810	
1072	0	32825	32991	32244	32497	32543	32841	36002	41828	
1073	0	33093	32978	32550	32095	32855	34787	34063	39886	
1074	0	33008	32640	32470	32239	32708	32839	32447	30102	
1075	0	32548	32067	32228	32567	31647	32367	32303	23869	
1076	0	32789	32233	32165	32775	31289	31266	32215	24153	
1077	0	32720	32690	32231	32695	31653	31170	32822	25393	
1078	0	32748	33147	32543	32611	31741	31799	32492	24531	
1079	0	32874	33511	32719	32789	31815	34708	31645	26351	
1080	0	32545	33148	32747	33401	32187	38819	31847	30766	
1081	0	32549	32870	32698	33204	32285	39191	33346	34005	
1082	0	32573	32829	32903	33259	32531	38100	34172	34543	
1083	0	32638	32391	33204	33471	33445	36889	33505	35117	
1084	0	32708	32117	32903	33526	34524	35604	32156	35814	
1085	0	32861	32391	32628	32946	32846	30103	31155	36175	
1086	0	32697	32967	32561	32551	32599	29903	31063	35321	
1087	0	32822	33243	32679	32314	32701	30329	31404	34815	
1088	0	32876	32877	32655	32327	31761	30724	32359	34183	
1089	0	32937	32807	32726	32156	31163	33584	32722	33471	
1090	0	32742	32687	32407	32302	32171	36383	32263	33266	
1091	0	32645	32532	32231	32610	32423	34868	31843	32663	
1092	0	32500	32839	32289	32885	33372	32899	32015	31549	
1093	0	32775	33479	32380	32767	34098	32279	31751	31885	
1094	0	32853	32823	32543	32927	35047	30507	32386	31087	
1095	0	32807	32135	32450	32847	33006	30197	32540	30848	
1096	0	32758	31827	32338	32500	32810	31074	32615	31471	
1097	0	32827	31405	32612	32484	32527	31342	33523	31794	
1098	0	32859	31107	32741	32594	32765	31988	33889	32791	
1099	0	32758	31613	32611	32175	33309	31988	33815	33747	
1100	0	32637	32801	32884	31897	32902	31879	32903	35716	
1101	0	32821	33287	32980	32437	32568	32690	32020	35719	
1102	0	33182	33422	32669	32775	32738	31578	31327	35553	
1103	0	33402	33482	32695	33001	32477	29735	30770	37362	
1104	0	33049	33439	32119	33190	33538	29117	32116	39332	
1105	0	32976	33711	32283	32949	32945	26817	32550	41158	
1106	0	33201	33839	32292	32911	32390	26290	32375	40569	
1107	0	33007	33111	32333	33671	32583	27991	33346	40351	
1108	0	32556	32833	32638	34476	32955	30467	33015	36212	
1109	0	32359	33123	33033	34636	33083	32964	31740	29645	
1110	0	32626	33611	33099	33957	32614	34537	31866	22285	
1111	0	32642	33437	33653	33511	31661	36152	32321	19354	
1112	0	32196	32510	33548	33241	31315	38196	33518	18932	
1113	0	31869	31623	33351	32919	31774	39081	34944	19654	
1114	0	31682	30995	32930	32579	32159	40582	35259	21924	
1115	0	32051	31111	32436	32071	32450	39750	34439	26518	
1116	0	32448	31604	32306	31462	32431	37379	33831	29661	
1117	0	32812	32363	32135	31057	32991	34337	33708	31619	
1118	0	33045	32882	32358	31239	33307	32617	34882	32451	
1119	0	32976	32855	31999	31545	32059	31567	35243	32888	
1120	0	32854	33141	32096	31803	30580	32469	32961	35271	
1121	0	32617	33313	32012	31993	31134	34104	30793	37245	
1122	0	32884	33654	32646	31949	29407	32967	27651	37651	
1123	0	32789	33524	32727	32137	27650	32322	26239	34823	
1124	0	32882	33063	33070	32099	28577	33067	25671	33838	
1125	0	32958	32023	33193	32191	34390	32404	27015	33927	
1126	0	32827	31744	32647	32197	38374	31693	31343	34652	
1127	0	32884	31812	32877	32233	35259	31005	35663	36380	
1128	0	32796	31758	33089	32823	36832	31524	39790	40264	
1129	0	32460	31909	32951	33139	37135	32326	43191	38898	
1130	0	32685	32635	32769	32957	34159	32039	36586	35975	
1131	0	33274	32929	32599	33303	32116	29615	30975	35047	
1132	0	33449	33213	32359	33377	33402	30166	33107	32275	
1133	0	33317	33041	32167	33415	33584	30109	34868	29694	
1134	0	33241	33145	31964	33305	33396	31199	35474	30839	
1135	0	33309	33261	31719	33349	34772	32376	33810	32950	
1136	0	32932	33132	32059	33513	34690	31788	32126	35215	
1137	0	32756	33531	32617	33112	31596	30830	30998	37190	
1138	0	32694	33515	32491	32969	31337	31908	31695	37710	
1139	0	32587	33629	32636	32903	33943	33044	31367	37079	
1140	0	32487	33627	32522	32869	34600	33811	32205	33631	
1141	0	32578	33662	32567	32753	33953	32922	32117	32116	
1142	0	32617	33588	32848	32804	32301	31818	32475	33106	
1143	0	32455	32611	32829	33149	31797	29219	32983	32237	
1144	0	32118	32646	32875	33055	31824	27625	32729	30914	
1145	0	32148	33047	33305	33018	32003	27923	30599	32535	
1146	0	32354	32803	33367	32930	32241	29791	29159	34529	
1147	0	32760	32489	33364	32419	32717	32175	28997	37217	
1148	0	32700	32701	32949	32302	32795	37511	30428	35982	
1149	0	32433	32319	33029	32774	32735	37318	32569	29330	
1150	0	32634	31679	33159	32714	31789	31607	33394	25353	
1151	0	32916	31744	32735	32271	31132	33503	34923	25759	
1152	0	33124	32035	32535	32419	31791	37479	33630	30666	
1153	0	32994	32583	32204	32834	32355	40271	33047	30108	
1154	0	32804	32420	31949	33117	32461	38391	33739	25881	
1155	0	32860	33074	32112	32734	29795	34341	33959	26543	
1156	0	32834	33495	32516	32831	30129	32087	32405	29169	
1157	0	32943	33175	32357	32967	31361	33867	29589	30929	
1158	0	33125	32913	32635	32755	33684	34642	29582	31596	
1159	0	33072	32647	32740	32631	34253	34467	29885	30711	
1160	0	32884	32327	32391	32308	31485	33961	30743	31844	
1161	0	32607	31767	32021	32527	30562	34382	31701	34532	
1162	0	32767	32084	31890	32594	29890	31975	31566	36118	
1163	0	33282	32895	32242	32295	31056	30419	32285	35947	
1164	0	33298	33242	32091	32495	32154	30436	33215	35274	
1165	0	32455	33412	32239	33302	34470	31318	38382	33366	
1166	0	32198	33663	32561	33373	35734	31215	41195	32495	
1167	0	32328	34107	32941	33403	36543	32087	38941	33279	
1168	0	32444	34102	33466	33170	35219	32411	36047	33463	
1169	0	32383	33159	33463	33133	34343	33989	35234	32007	
1170	0	32644	32423	33350	32770	33055	31614	31145	35895	
1171	0	32605	32354	33227	32612	33557	29701	30322	37335	
1172	0	32686	33084	33124	32383	32169	28923	31661	39281	
1173	0	32890	32439	32507	32670	29551	31125	31213	41575	
1174	0	33047	32180	31403	32691	31277	29630	28762	37545	
1175	0	33116	31838	31035	32495	35846	29384	27900	31713	
1176	0	33320	32171	31575	32279	36743	30992	28743	31901	
1177	0	33147	31527	31955	32356	32823	32527	32229	29790	
1178	0	32529	31420	32973	32075	30397	34466	36114	27039	
1179	0	32182	31787	33757	32332	30321	35559	34034	28173	
1180	0	32023	32855	35011	32511	31711	36182	32759	29757	
1181	0	31814	32647	34566	32886	30804	34562	35431	28982	
1182	0	32112	32633	33939	33080	27817	33255	36925	29039	
1183	0	32673	32968	33379	33061	30855	33460	36095	31682	
1184	0	32819	32765	33007	32866	34911	34550	32135	32914	
1185	0	32840	32425	32468	32831	36295	35159	30611	34839	
1186	0	32864	32094	31980	32804	36477	34751	32252	35323	
1187	0	32868	32501	31846	32661	36087	33527	32823	35638	
1188	0	32924	32671	31824	32499	34213	32157	31125	33613	
1189	0	33014	32972	32042	32554	32647	32511	31714	32258	
1190	0	33056	33221	31963	33077	32957	32943	32411	33927	
1191	0	32929	33751	31773	33287	32627	31962	32719	33031	
1192	0	32979	33979	31724	33423	33948	32701	32318	31805	
1193	0	32934	34015	31519	33251	33811	32493	31935	34163	
1194	0	32881	33822	31833	33151	32058	29985	31943	35819	
1195	0	32888	33235	32175	32666	30607	28932	32388	37741	
1196	0	32850	32516	32326	32023	30455	30113	31696	35861	
1197	0	32743	31854	33382	31703	29873	31675	30791	31204	
1198	0	32602	31587	33822	32059	29263	33927	31141	29811	
1199	0	32721	31462	33622	32199	30790	34951	31704	27151	
1200	0	32708	31823	32726	32551	32383	34969	32074	27685	
1201	0	32592	32023	32194	32996	33678	33719	30427	32061	
1202	0	32809	32945	32766	32948	32411	30751	31223	36333	
1203	0	32934	33319	32813	32783	31284	29431	34212	34179	
1204	0	32452	32836	32381	33004	32241	32629	35044	28393	
1205	0	32375	32767	32562	32941	32903	33569	35303	28025	
1206	0	32768	33039	32793	32799	31691	32285	32533	29420	
1207	0	32775	32967	32861	32919	32239	33927	31995	31737	
1208	0	32752	32823	32608	33015	33127	33196	32207	33641	
1209	0	32993	33185	32662	32766	35278	32069	31595	35583	
1210	0	32968	33174	32561	32727	40071	32695	33071	36135	
1211	0	32746	32875	32387	32967	40455	34557	36174	35366	
1212	0	32642	32623	32263	33035	35919	35859	35234	34752	
1213	0	32881	32743	32326	32843	32348	34804	30191	33191	
1214	0	32792	32637	32311	32873	31252	33709	29900	30767	
1215	0	32559	32444	32281	33012	31913	34335	30919	31071	
1216	0	32765	32750	32469	32898	31153	33138	29565	33467	
1217	0	32892	32747	32135	32795	31827	33287	31598	32727	
1218	0	32786	32583	32329	32894	32212	33415	33869	32142	
1219	0	32720	32658	32446	32805	32153	33711	35123	31657	
1220	0	32855	32698	32594	32711	29335	31794	34885	31767	
1221	0	32689	32810	32087	32758	29670	32729	33565	30951	
1222	0	32638	32847	32439	32665	31062	32022	32591	30172	
1223	0	32877	33003	33012	32527	31414	32354	31286	33337	
1224	0	33047	33028	32390	32477	34204	31340	32356	36801	
1225	0	32997	32860	32285	32555	36507	30444	32566	38300	
1226	0	32526	32879	32727	32530	33390	29753	34513	37412	
1227	0	32556	32734	33807	32487	29769	28783	32821	37505	
1228	0	32756	32819	34231	32668	28825	27783	32455	38159	
1229	0	33144	33772	33539	32715	32354	30189	32893	34846	
1230	0	32882	33492	32021	33272	35914	34611	33190	30215	
1231	0	32951	33760	31687	33334	32921	32169	32647	27759	
1232	0	33230	34009	31358	33071	30660	29681	33259	31219	
1233	0	32967	33622	31237	33225	29763	30941	34066	32123	
1234	0	32372	32226	32062	33481	30489	34783	32271	31489	
1235	0	32064	32196	34387	33159	31570	38915	30486	30460	
1236	0	32064	32159	34605	33136	31758	38861	29231	29895	
1237	0	32398	32081	33281	32898	31325	39483	30027	30054	
1238	0	33101	31845	32057	32358	29825	36702	30987	29831	
1239	0	33460	31604	31454	32140	32954	31491	32075	31201	
1240	0	33245	31679	31812	32305	37814	32525	31927	32231	
1241	0	32808	31586	32879	32530	37819	33351	34204	31527	
1242	0	32292	31759	33262	32231	38591	32473	37293	31069	
1243	0	32029	32053	34118	32120	36255	30909	39963	30580	
1244	0	32179	31381	34508	32119	33047	30977	39591	30982	
1245	0	32349	30820	33815	32306	34331	32054	36047	31203	
1246	0	32357	30866	33620	31879	33810	33073	32045	32095	
1247	0	32455	30539	33274	32191	32699	33043	29076	34074	
1248	0	32621	31021	33204	32127	33364	33199	28361	35460	
1249	0	33159	32492	32973	32041	32551	32389	27117	37868	
1250	0	33359	33223	32474	32577	31095	32060	27195	39891	
1251	0	33248	33671	32251	32829	32228	31687	31991	38849	
1252	0	32911	33991	31842	32993	34537	31581	36967	35931	
1253	0	32933	33895	31351	33033	33115	29755	38889	31922	
1254	0	33350	34100	31591	32978	31247	28781	35773	31335	
1255	0	33226	33718	31559	33089	31745	30390	34766	32287	
1256	0	33012	33537	31314	33173	33867	30013	35098	33159	
1257	0	32654	33247	31846	33135	32047	29805	34735	33805	
1258	0	32250	33145	32700	33103	30751	30105	32346	33457	
1259	0	32839	33415	32935	33092	30644	28623	30945	33181	
1260	0	32972	33205	32495	32955	30537	31476	30821	31909	
1261	0	32903	33276	33119	32742	28521	35583	29253	32899	
1262	0	32935	33187	33159	32679	27647	34001	30494	31199	
1263	0	32761	32849	32591	32748	28839	33735	33494	31975	
1264	0	32511	32328	32869	32933	33679	37686	36231	31225	
1265	0	32639	32553	32749	32931	36716	37488	34370	30994	
1266	0	32956	32941	32480	32830	36923	31959	33867	30988	
1267	0	32889	32632	32272	32697	38263	30116	32135	35326	
1268	0	32695	32999	32439	32593	37174	35088	30160	38955	
1269	0	32676	32925	32657	32562	34503	35815	29371	36869	
1270	0	32858	32742	33317	32363	33383	33191	29450	33283	
1271	0	32933	32551	33151	32362	32996	33126	30686	29209	
1272	0	33135	32423	32677	32524	32567	34066	30943	25731	
1273	0	32686	31975	32749	32937	32335	33426	32505	23766	
1274	0	32617	32135	32223	32991	31250	33387	32775	27645	
1275	0	32731	32570	31691	33037	30985	34979	34068	29488	
1276	0	32664	32831	31615	33091	30947	35887	34107	30294	
1277	0	32421	32570	31931	33154	30487	31935	35009	30671	
1278	0	32425	32692	32911	33207	31127	31751	33524	34836	
1279	0	32295	32381	32567	33335	31767	33982	32763	34339	
1280	0	32483	32598	32515	33650	31682	32037	31703	34096	
1281	0	32622	32546	32937	33799	33287	32719	32455	34343	
1282	0	32701	32741	33067	33592	34543	35143	33154	34183	
1283	0	32863	32735	33311	33409	34077	35457	32883	33687	
1284	0	32760	33126	33414	33021	32751	32543	32866	33821	
1285	0	32694	33093	33278	32381	32217	29668	33287	33734	
1286	0	32857	32717	32989	32109	32735	28509	32482	32759	
1287	0	32900	32319	32419	32045	32754	30024	31895	32925	
1288	0	32937	32194	32780	31671	32012	31621	31879	34327	
1289	0	33074	32687	32711	31571	33685	34201	32412	33006	
1290	0	33026	32818	32717	31398	34461	37637	32655	31687	
1291	0	32972	32581	32343	31291	32533	35908	32978	33317	
1292	0	33010	33133	32567	31847	31830	34021	33464	33391	
1293	0	32837	32951	32271	32225	32566	32031	33465	32807	
1294	0	32825	33219	32493	32318	32159	30335	32531	32679	
1295	0	32722	32768	32756	32783	31359	30691	30885	33943	
1296	0	32170	32027	31666	33243	30830	31399	30854	33115	
1297	0	32535	32150	32279	33159	27755	32107	30061	33254	
1298	0	32968	32466	32802	32998	27335	32006	27563	32681	
1299	0	32972	33330	32809	33158	30873	33014	28764	34548	
1300	0	33056	34139	32726	33043	34329	34453	29719	36885	
1301	0	32823	34269	32326	32813	38375	32545	29191	33992	
1302	0	32627	33919	32527	33095	38221	30016	33215	32421	
1303	0	32614	32317	32479	33380	34815	29222	36427	33927	
1304	0	32862	30770	32582	33038	32798	32164	35273	36965	
1305	0	33196	31211	32724	32014	30759	33464	36157	38691	
1306	0	32950	31143	33037	31899	34061	35295	39222	35165	
1307	0	32564	31223	32955	32135	34758	33503	41754	30194	
1308	0	32444	32223	32981	31920	33989	31351	36775	30189	
1309	0	32348	32771	33015	32243	34583	32580	34554	28594	
1310	0	32481	33151	32877	32746	34412	33378	34491	27634	
1311	0	32615	33511	32414	33070	33915	33309	31526	28913	
1312	0	32877	33463	32418	33255	30802	32243	30196	29305	
1313	0	33140	32811	32487	33350	29590	31837	30727	28975	
1314	0	32909	32343	33007	33366	28631	33415	30654	29791	
1315	0	32812	32279	33373	33295	28502	36071	29679	30758	
1316	0	32743	31990	33954	33395	30716	36247	29699	31775	
1317	0	32720	32293	33414	33287	33712	34881	30881	33154	
1318	0	32551	32671	32935	33503	36539	34000	33191	33708	
1319	0	32484	32951	32406	33641	39463	33919	34431	34455	
1320	0	32719	33383	32692	33588	36383	32373	34543	34855	
1321	0	32837	33346	32302	33381	34740	30839	34263	35029	
1322	0	32871	33350	32343	33222	33561	31179	33586	36303	
1323	0	32736	33004	32077	33159	33287	30227	35079	36453	
1324	0	32698	33073	31824	32966	32691	32122	34667	35008	
1325	0	32665	33415	31989	32690	31119	31773	32623	34029	
1326	0	32775	33143	32020	32626	31387	31587	30338	32627	
1327	0	32903	33118	32041	32647	31078	29671	30599	31959	
1328	0	32899	32958	31789	32642	31222	30573	31029	31889	
1329	0	33019	32967	31639	32631	32805	32729	30791	31051	
1330	0	33078	33206	31698	32559	33209	33740	30788	29319	
1331	0	33148	33131	32287	32338	31941	32475	31419	30102	
1332	0	33004	32861	33383	32359	31765	33267	31610	32374	
1333	0	32806	32774	33667	32589	31764	35034	31911	33549	
1334	0	32567	32629	33111	32679	31926	32914	32751	34299	
1335	0	32481	32285	33447	32508	29810	29295	32676	35063	
1336	0	32432	32089	33431	32159	29471	29211	33829	35374	
1337	0	32657	32529	33346	32173	29782	28993	34820	34324	
1338	0	32671	32379	33114	32404	30790	33839	32121	34904	
1339	0	32788	31822	33067	32639	31038	35444	31559	32978	
1340	0	32807	32441	32892	32427	33367	36937	33278	32167	
1341	0	32700	32647	32413	32418	38043	36780	34750	31967	
1342	0	32871	33177	32374	32327	38839	33799	34449	31039	
1343	0	32932	33177	32339	32356	34786	33460	33860	31431	
1344	0	32919	32758	32231	32703	33687	32413	33825	31058	
1345	0	32857	33060	32198	32775	34141	32775	33751	30937	
1346	0	32709	33189	31834	32855	34797	33082	32338	32205	
1347	0	32812	33415	31975	32749	31737	30779	32561	32751	
1348	0	32838	33618	32568	32929	31565	29910	30407	34037	
1349	0	33091	33547	32802	32959	31967	26726	29069	36027	
1350	0	33170	32914	32415	32869	32792	25138	30448	39303	
1351	0	33100	32749	32350	32665	33533	27158	35268	41095	
1352	0	32679	32365	32663	32540	32783	28666	35899	40354	
1353	0	32881	32719	32694	32017	31783	30117	31945	37863	
1354	0	33159	32771	32740	31816	33357	36297	28846	32590	
1355	0	32947	32498	32826	32356	34215	37693	30180	25665	
1356	0	32728	32020	33250	32854	33956	39116	33754	23905	
1357	0	32184	32081	33145	33322	32821	42999	36166	22107	
1358	0	31968	31833	32192	33623	30055	36637	35252	23616	
1359	0	31964	31661	31790	33691	30367	34135	33003	27316	
1360	0	32412	32212	32543	33701	30795	36135	32111	31388	
1361	0	32549	33190	32451	33255	29889	34115	32641	33494	
1362	0	32479	33197	32951	32929	31380	35375	32705	35912	
1363	0	32770	32834	33495	33144	33407	34199	32645	35031	
1364	0	32665	32668	33579	32834	34515	36743	33711	31810	
1365	0	32655	32331	33926	32643	33919	34977	33683	31697	
1366	0	32500	32637	33839	32421	33367	34047	33783	31037	
1367	0	32562	32540	33426	32487	31239	32841	33603	30526	
1368	0	32741	32524	33123	32708	27631	29822	32807	32195	
1369	0	32640	32727	33151	32887	27624	28422	31663	33295	
1370	0	33132	33389	32854	32966	30231	28254	30932	34297	
1371	0	33038	33248	32312	33323	37279	31680	30850	35190	
1372	0	32799	32855	32479	33415	37319	32655	30911	35694	
1373	0	32700	32421	32426	32916	34866	29906	32575	33694	
1374	0	32722	32313	32215	32497	36739	30493	33766	31143	
1375	0	32809	32594	31838	31971	36063	30930	33740	31235	
1376	0	33001	32419	32228	31933	33895	31127	32667	34363	
1377	0	32975	32043	31947	32110	32655	32164	32518	34773	
1378	0	33029	32671	32051	31958	32131	32805	31682	35355	
1379	0	33002	33105	32167	32134	32099	32029	31899	36533	
1380	0	33054	33530	32171	32716	31942	30903	32383	37182	
1381	0	33076	33595	32331	32877	31846	31316	31842	37103	
1382	0	33060	33107	32799	33153	31406	31895	31907	36018	
1383	0	32790	32845	32359	33035	32111	31814	32286	31821	
1384	0	32774	32879	32293	32623	31947	33556	32455	31543	
1385	0	32728	32023	32254	32577	31917	34615	33470	30870	
1386	0	32546	31343	31931	32570	32743	33551	33863	28562	
1387	0	32496	32029	32334	32074	32135	31787	32753	30415	
1388	0	32658	32274	32723	31806	32708	32434	33255	32720	
1389	0	32781	32027	32479	32341	34548	31166	33873	34089	
1390	0	32647	32919	32653	32199	32594	30503	33815	32387	
1391	0	32742	33045	32950	32274	30685	33189	32831	28486	
1392	0	32726	32781	32698	32655	30509	40383	32039	26097	
1393	0	32750	32598	32620	32535	30813	41125	29627	28334	
1394	0	32816	32451	32595	32494	33967	36545	27671	31201	
1395	0	32988	32617	32695	32213	33911	34301	28557	32869	
1396	0	32775	32593	32903	32613	34290	32527	31422	32433	
1397	0	32695	33087	32815	32646	34532	31367	31489	32343	
1398	0	32820	32935	32514	32861	30043	29794	32284	34125	
1399	0	32460	32933	32891	32999	28707	29895	32720	34558	
1400	0	32434	33514	33823	33429	31149	31349	30125	35559	
1401	0	32830	33465	33783	33650	31378	31268	32247	34646	
1402	0	33042	33323	33464	33764	31683	31501	34789	34507	
1403	0	32962	32975	32932	33967	33721	32451	35863	34192	
1404	0	32677	32295	32041	33775	34168	32372	37334	33783	
1405	0	32409	31516	31525	33679	37474	31653	40756	33283	
1406	0	32583	31355	31687	32963	35159	31557	41469	33053	
1407	0	32788	31875	32059	32451	32508	31879	37735	33300	
1408	0	32966	31941	32117	32722	33287	32937	36326	33275	
1409	0	32876	32039	32251	32734	33539	33223	33898	33159	
1410	0	32536	32553	32518	32715	34487	32375	32415	33283	
1411	0	32186	32631	33115	32721	35719	32383	32066	33135	
1412	0	32407	32801	32903	32733	34685	31809	31362	33085	
1413	0	32619	33023	32739	32786	32621	31701	31475	32982	
1414	0	32561	33167	33437	32804	31879	32493	30593	33143	
1415	0	32700	33245	33423	32845	31170	32894	29879	33103	
1416	0	32743	33087	32987	32671	30411	33319	29724	32719	
1417	0	32742	33003	32543	32542	31278	33659	30095	32487	
1418	0	32730	33069	32151	32629	34237	34101	30722	32671	
1419	0	33091	32695	32356	32787	32957	33223	30685	33023	
1420	0	33287	32764	32519	32429	29441	31908	31761	32756	
1421	0	33174	33485	32479	32146	29991	32590	32088	32255	
1422	0	33016	33654	32503	32417	33062	33954	31956	32122	
1423	0	33114	33511	32619	32715	35043	33650	32823	32135	
1424	0	33062	33191	32735	33043	35631	32980	34233	31974	
1425	0	32935	33095	32692	33271	36694	32711	34227	31611	
1426	0	32701	32879	32071	33327	34750	33001	32827	31478	
1427	0	32784	32398	31894	33017	32747	32386	30535	31521	
1428	0	32756	32066	32007	32635	32111	31922	30773	32470	
1429	0	32803	31655	32375	32475	31396	30411	31679	32603	
1430	0	32685	31399	32665	32239	31651	29827	32347	33394	
1431	0	32134	31266	33181	32389	33012	33082	33961	32432	
1432	0	32251	32012	33663	32403	32639	32210	32519	31900	
1433	0	32666	32490	33213	32364	32037	31610	30895	32301	
1434	0	32477	32195	33159	32596	32795	32695	31473	32705	
1435	0	32624	32703	32990	32679	31501	33622	31943	35414	
1436	0	32541	32924	32413	32681	30727	33383	32091	35431	
1437	0	32653	33055	32433	32823	30374	32167	32415	35055	
1438	0	32838	33364	32109	32991	32399	32481	32903	38688	
1439	0	33229	33773	31652	33039	32990	30829	33537	40583	
1440	0	33436	33885	31436	33082	32691	30639	34359	36397	
1441	0	33374	33219	31239	32836	32546	31318	34371	32103	
1442	0	33228	32544	31934	32492	32100	32927	33076	29811	
1443	0	32650	31751	32162	32722	32559	35631	32700	26313	
1444	0	32080	31935	33415	32775	32774	38289	32263	25333	
1445	0	32400	32134	34972	32413	32249	34036	32029	27491	
1446	0	32455	32318	34666	32450	31682	32215	33279	28903	
1447	0	32491	32494	33639	32815	32462	34163	32455	32041	
1448	0	32520	32946	32575	33067	32607	34139	31831	32739	
1449	0	32692	32775	31951	33183	32519	32817	31163	34050	
1450	0	33159	32749	31903	33004	32238	32786	30674	36850	
1451	0	33065	32708	31607	32750	33295	35096	31552	37028	
1452	0	32692	32823	31943	32538	32671	36166	35183	34388	
1453	0	32458	32404	33133	32585	31066	34178	36426	32373	
1454	0	32526	32020	33831	32194	32150	33967	33087	33768	
1455	0	32748	32562	33903	32407	32457	31970	32379	34128	
1456	0	32842	32887	33106	32741	33090	31510	33745	31327	
1457	0	32836	32817	32738	33119	33019	31787	33757	29617	
1458	0	32786	32860	32274	32804	34363	32111	32300	30775	
1459	0	32620	32751	31867	32743	35887	30983	32759	29678	
1460	0	32787	32359	32149	32468	34247	32939	33018	30567	
1461	0	32850	32195	32402	32263	33746	32759	33498	32601	
1462	0	32705	32263	32583	32183	33629	30842	34434	32423	
1463	0	32732	32588	32570	32487	32759	30855	34726	30655	
1464	0	32871	33129	32813	32879	33281	33231	34839	31068	
1465	0	33213	33196	32677	32785	33255	32738	33268	34267	
1466	0	32952	33209	32431	32855	32134	30991	32295	34357	
1467	0	32582	33111	31943	33087	30983	31119	30804	33756	
1468	0	32626	33127	33047	33084	28572	30581	29785	34808	
1469	0	32428	32850	33778	32999	28973	31417	30359	34810	
1470	0	32791	33505	33071	32373	30343	31155	30772	34779	
1471	0	32816	33035	32920	32502	34471	33740	31174	32423	
1472	0	32706	32491	32671	32740	38788	36461	31052	30982	
1473	0	32679	32450	32221	32769	37357	35572	31583	32934	
1474	0	32724	32263	32203	32769	36032	36591	33506	35269	
1475	0	32815	32037	32255	32683	32471	34500	34541	34535	
1476	0	32688	32500	32127	32512	31314	34446	33863	31631	
1477	0	32509	32463	32359	32851	33707	34022	33342	30787	
1478	0	32700	32511	32687	32942	32719	32171	33188	31333	
1479	0	32612	32721	32507	32900	32079	32925	31879	31443	
1480	0	32655	33121	32590	32850	31846	32519	32039	31197	
1481	0	32736	33313	32293	32879	32059	32183	31843	32115	
1482	0	32896	33007	32208	32966	32330	32588	30111	33005	
1483	0	32985	32879	32303	32903	31207	33363	30076	33191	
1484	0	32984	33225	32401	32893	29463	32594	30271	33599	
1485	0	33044	32711	32420	32911	28178	31743	31743	33223	
1486	0	33092	32694	32557	32813	30189	31780	32103	33199	
1487	0	33091	33242	32431	32817	32826	32236	34130	33519	
1488	0	32980	33338	32665	32879	34439	31983	35463	33223	
1489	0	33002	33443	32315	33127	35975	32526	37719	32951	
1490	0	32764	33940	32015	33615	36487	33159	36071	33405	
1491	0	32588	33751	32021	33645	34786	32721	34223	33015	
1492	0	32749	32853	32249	33201	33695	32583	32978	33293	
1493	0	32734	32281	33250	32582	34142	32359	33030	32855	
1494	0	32481	31543	33719	31978	36577	32135	33187	31799	
1495	0	32361	30991	33653	31613	34943	31925	33084	30022	
1496	0	32284	30756	33577	31437	32487	31393	32000	30519	
1497	0	32323	31691	33082	31611	31751	31333	33799	30727	
1498	0	32400	32827	32466	32263	32098	30596	32884	33401	
1499	0	32861	33399	31936	32858	31431	27661	28479	35800	
1500	0	33126	33907	31582	32813	32260	28103	27421	37919	
1501	0	33221	33543	31527	32830	31702	28163	28461	38641	
1502	0	33118	32775	31807	32938	31721	31682	31335	38691	
1503	0	33140	32342	33633	32997	30682	35810	33100	39181	
1504	0	32727	31889	34220	32769	31788	38478	35117	33046	
1505	0	32268	31837	33665	32508	32569	39124	37255	28471	
1506	0	31822	32195	34279	32311	31955	38141	37140	28729	
1507	0	32179	32001	33492	32680	30452	35751	36525	29216	
1508	0	32460	32255	33327	32877	30369	33175	34390	30252	
1509	0	32900	32371	33063	32882	32719	32771	32227	31599	
1510	0	33073	32620	32116	32911	33309	32667	32028	31401	
1511	0	32743	33095	32167	32705	32959	33495	32385	30887	
1512	0	32692	33203	32349	32899	33247	31585	31806	30893	
1513	0	32909	33183	32299	33157	32831	31139	31951	31579	
1514	0	32976	33095	32399	33185	32447	31541	31575	32089	
1515	0	32612	32799	32775	33421	31553	31620	31304	31168	
1516	0	32489	32761	32870	33407	30149	32460	31439	31239	
1517	0	32852	33372	32460	33127	29278	32801	30682	31591	
1518	0	33380	33727	32455	32660	27815	31407	28988	33927	
1519	0	33605	34025	32492	32479	30546	32549	27751	36117	
1520	0	33664	34188	32295	32431	33447	34198	29650	36668	
1521	0	33330	33985	32158	32694	36327	33975	32927	38338	
1522	0	32867	32647	31783	32764	36503	31287	32695	39087	
1523	0	32669	32444	31530	32942	36845	28901	33648	36983	
1524	0	32340	32029	31591	33223	35229	30388	36641	32327	
1525	0	32204	31750	31563	33199	37087	33391	35426	29375	
1526	0	32225	31927	32177	32941	36269	33335	34969	27209	
1527	0	32323	32647	33036	32719	34935	32467	33439	26805	
1528	0	32390	32322	33349	32450	33639	32308	31483	28935	
1529	0	32237	32079	33083	32567	32273	33371	32052	30267	
1530	0	32495	32244	33031	32549	31612	34439	34545	31228	
1531	0	32599	31962	32599	32723	30505	33384	35375	32591	
1532	0	32732	32591	32935	32729	30166	32775	34527	32949	
1533	0	32756	33129	32869	32855	30059	32804	33495	32887	
1534	0	33326	33287	32737	32798	29418	33243	31726	33415	
1535	0	33241	33310	32146	32899	33007	33285	32331	33287	
1536	0	33010	33196	32103	33108	35631	33025	33858	33413	
1537	0	33050	33671	31979	32935	34243	32175	33467	34855	
1538	0	32879	33475	32097	32813	33959	33127	33386	34573	
1539	0	32566	33254	33189	32582	31699	33094	31407	34673	
1540	0	32753	33503	33215	32194	31037	33437	29487	34605	
1541	0	32594	33484	33531	32071	34029	33887	30447	34445	
1542	0	32489	32533	32935	32170	33595	32631	32102	32743	
1543	0	32367	32404	32881	32468	32716	31124	33428	31506	
1544	0	32293	32450	32709	32683	33273	31419	33927	31303	
1545	0	32285	32692	31943	32775	34595	32358	34578	31895	
1546	0	32485	32677	31967	32610	33159	32844	33342	32845	
1547	0	32796	32699	32391	32498	33241	33274	32436	33052	
1548	0	32950	32585	32299	32386	32295	34567	32258	32318	
1549	0	33036	32965	32437	32431	31399	32985	32786	31501	
1550	0	32960	33046	32317	32762	31933	33237	32537	32079	
1551	0	32966	32851	32133	32903	32282	33047	32391	32873	
1552	0	32961	33014	32271	32991	32551	33245	32223	32669	
1553	0	32962	33129	32237	32847	32135	33079	31821	32379	
1554	0	33174	33125	32480	32903	31159	32037	31750	32631	
1555	0	33223	32770	32545	32879	32374	32831	31303	32493	
1556	0	33047	32717	32679	33015	33439	33125	31375	31495	
1557	0	32945	32863	32717	32916	31979	32559	32787	31641	
1558	0	32956	33263	33013	32812	29899	31831	33371	32300	
1559	0	33021	33023	32962	32694	30791	31013	32413	33453	
1560	0	32903	32871	33044	33197	31956	32130	32263	34311	
1561	0	32626	32671	33115	33303	32598	32765	31721	34298	
1562	0	32799	32571	32914	32919	33334	33302	31643	34659	
1563	0	32829	32413	32835	32934	34415	32677	33185	34244	
1564	0	32848	32367	32915	32843	33826	33249	33323	32724	
1565	0	32788	32100	33068	32631	34331	33048	33309	31047	
1566	0	32795	32805	33321	32717	34183	31941	32095	31237	
1567	0	32993	33024	33903	32863	33780	32263	31042	31623	
1568	0	33061	32599	33838	33093	33847	32435	31551	30505	
1569	0	33190	32455	33465	33144	33353	31163	31683	30575	
1570	0	33193	32358	33174	33133	31743	29319	31792	33072	
1571	0	33209	31877	32575	33274	32177	30105	32317	33863	
1572	0	33030	32071	32459	33015	34559	33577	33632	35391	
1573	0	33053	32765	32192	32742	34409	33039	34053	37626	
1574	0	32854	32524	32023	33188	32763	32242	37088	38544	
1575	0	32282	32391	32917	33026	32519	31587	40919	38446	
1576	0	32058	32212	33798	32759	32463	28535	39143	35883	
1577	0	32150	32423	33703	32259	32199	26440	36075	32192	
1578	0	32740	33018	33172	31698	29595	27632	32660	29095	
1579	0	32780	33308	32514	32292	32086	35846	30255	30690	
1580	0	32699	32901	31991	32959	33530	42903	29701	31803	
1581	0	32612	32691	31445	33295	32902	40782	32148	28656	
1582	0	32375	32317	31036	33714	31686	36591	34545	24632	
1583	0	32828	32413	31187	33311	31118	34153	32023	28487	
1584	0	32690	32503	31794	32931	32605	35205	30188	32306	
1585	0	32326	33053	32278	32531	32951	33842	30297	33631	
1586	0	32135	33157	32629	32163	31820	31239	32551	31956	
1587	0	32352	32711	33814	32143	32080	31303	31959	31253	
1588	0	32309	32326	33309	32114	32457	32535	31868	32631	
1589	0	31729	32215	33327	32175	32749	32932	32181	35551	
1590	0	31990	32171	33502	32525	31946	30793	32457	36567	
1591	0	32369	33379	32911	32325	31501	29037	30931	36772	
1592	0	32667	33777	32127	32486	32942	31815	29489	36246	
1593	0	32816	33444	32110	32845	33644	32992	29999	34636	
1594	0	32998	33179	31997	33193	34214	33287	31115	32487	
1595	0	32941	32898	31795	33493	34252	33583	32124	29583	
1596	0	32802	32510	31761	33850	31751	34792	32785	28311	
1597	0	32574	32074	31698	33906	31911	36439	32807	29612	
1598	0	32825	32977	32247	33217	30914	33063	32548	30737	
1599	0	32964	32887	32543	32593	31199	33019	32004	32325	
1600	0	33051	32383	32879	32317	30449	32717	32193	32570	
1601	0	33104	33014	32582	32125	31282	32727	31961	33217	
1602	0	33050	33118	32583	32085	32835	32877	31815	33159	
1603	0	33187	33164	32799	31980	30541	32903	31602	33731	
1604	0	33460	33445	32950	31835	30964	34036	30881	34743	
1605	0	33316	33204	32975	31858	34855	34374	31957	34499	
1606	0	33008	32367	33325	31951	37791	32556	33012	33726	
1607	0	32734	32057	33101	32126	37531	32263	33405	33506	
1608	0	32543	32325	32751	32419	35815	32289	33897	33285	
1609	0	32481	32431	32719	32833	34839	32303	34583	33237	
1610	0	32574	32367	32509	33063	31367	31927	36567	32819	
1611	0	32861	32674	32339	33105	30906	31889	35463	33255	
1612	0	33071	33401	31878	32943	32461	32097	34230	33259	
1613	0	33144	33439	31794	33049	33927	33014	33223	33003	
1614	0	33039	33401	31917	32975	35359	32761	33828	32982	
1615	0	32818	32992	32215	33307	37750	32509	35455	32667	
1616	0	32295	32791	32892	33587	37303	32612	35623	32415	
1617	0	32013	32359	33681	33543	33634	32259	34143	32829	
1618	0	32256	32135	33382	33233	31993	32329	33692	32557	
1619	0	32391	32669	32720	33086	31135	32282	33234	32562	
1620	0	32634	32797	32471	32769	30717	32285	31291	32535	
1621	0	32703	32549	32642	32532	30599	32581	30317	32863	
1622	0	32710	32891	33009	32775	30668	32713	30386	32891	
1623	0	32855	33153	32668	33033	29779	32409	31750	32606	
1624	0	32963	33257	32770	33332	29775	32667	31526	32451	
1625	0	32887	32690	32708	33159	31145	32747	30803	32540	
1626	0	32903	32714	32836	32950	31492	32743	31934	32751	
1627	0	32836	32507	32505	32543	30878	32671	32333	32615	
1628	0	32836	32215	32503	32617	32124	33471	30999	33127	
1629	0	32925	32287	32671	32851	32186	32551	29727	33023	
1630	0	33121	32903	33132	32825	31764	32134	30671	32417	
1631	0	32797	32959	33306	32878	34023	32534	31695	32424	
1632	0	32856	32921	33124	32914	32639	32130	33763	33424	
1633	0	32692	32263	32696	32999	31118	31489	35863	33178	
1634	0	32935	32383	32692	32507	30079	30023	34659	32647	
1635	0	32941	32852	32537	32412	34429	33047	32274	32229	
1636	0	32741	32721	32883	32495	38749	35802	31457	32007	
1637	0	32695	32315	32695	32589	40391	35052	33668	32543	
1638	0	32748	32800	32270	32656	37924	35737	35687	31483	
1639	0	32901	33364	32141	32435	33746	34327	35002	31033	
1640	0	32908	32789	32365	32523	30993	30338	33784	30703	
1641	0	32971	33340	32378	32827	30247	30728	33529	34082	
1642	0	32890	33157	32022	32946	29713	33258	33751	36148	
1643	0	32782	33055	32131	33126	29954	33687	32287	36317	
1644	0	32895	33573	32313	33412	31239	33726	32390	35486	
1645	0	32914	33111	32195	33137	31682	31261	31746	34559	
1646	0	32751	32527	32069	33095	32484	31379	33189	33023	
1647	0	32585	32207	32628	32677	32407	33436	32628	30712	
1648	0	32378	31687	33410	32183	32279	33543	32308	29191	
1649	0	32066	31209	33013	32007	34275	35119	31968	30775	
1650	0	32218	31813	33451	31689	33507	32691	30965	33594	
1651	0	32438	32743	33240	31601	30714	29084	30626	36391	
1652	0	32884	32941	32833	32210	30418	30017	30996	38478	
1653	0	33110	32529	32388	32975	31719	33559	32215	39677	
1654	0	33058	33014	32033	33080	32412	31103	33073	34754	
1655	0	32762	32919	31692	33266	33115	30361	33590	31220	
1656	0	32722	33281	32149	33351	32825	33375	33967	31073	
1657	0	32994	33554	32107	33220	33850	32956	33711	30079	
1658	0	33085	32809	32275	33183	34055	32103	33429	28631	
1659	0	33001	32295	33010	33028	32859	30659	33223	29487	
1660	0	32458	32289	33262	32836	32053	32807	31931	29223	
1661	0	32292	32327	33538	32461	31853	35171	30934	29140	
1662	0	32886	32527	33119	32327	31446	37732	30706	30081	
1663	0	32730	32346	32326	32642	32054	38823	32533	27765	
1664	0	32923	32739	32359	32687	30614	34345	32103	29655	
1665	0	33191	32950	32843	32590	30497	32130	31879	32690	
1666	0	32903	32743	32879	32372	32334	33239	32383	33330	
1667	0	32492	33069	33072	32044	33612	33203	30995	33356	
1668	0	32498	32981	33223	32399	34521	32816	31049	33826	
1669	0	32573	32555	33167	32747	35755	32782	31657	33487	
1670	0	32869	32711	33118	32491	34516	31991	31559	33732	
1671	0	32764	32935	32769	32555	34339	32114	34319	33377	
1672	0	32872	33063	32839	32751	32810	32165	37461	32530	
1673	0	32814	33175	32883	32737	34039	32420	35975	32869	
1674	0	32780	32978	33038	32719	35164	32281	33719	33755	
1675	0	32890	33315	32855	33097	33641	31934	34261	34027	
1676	0	33055	33745	32751	33266	34014	32346	32831	33769	
1677	0	32722	33074	32213	33415	33446	32583	32407	33739	
1678	0	32664	32903	32009	33411	31566	31739	30829	35131	
1679	0	32487	32647	31904	33188	30409	30495	32973	35313	
1680	0	32902	32135	31699	33124	32135	30546	34606	34879	
1681	0	32941	31538	31551	32898	32271	30406	32717	34050	
1682	0	32903	32263	31698	32692	32892	30868	29938	35119	
1683	0	32863	32739	32375	32973	35879	32172	31010	34921	
1684	0	32772	31927	32117	32939	38023	33305	32023	32299	
1685	0	32597	32819	32166	32775	34975	33143	32141	30589	
1686	0	32383	33031	32785	32461	32247	34942	32687	30944	
1687	0	32036	32943	33671	33043	32391	34875	33326	29634	
1688	0	32615	32511	33373	33042	31803	34011	33780	32194	
1689	0	32552	32238	33439	32867	29532	33270	34486	33697	
1690	0	32615	32379	32951	32405	29425	34083	33687	34196	
1691	0	32863	32103	32756	31930	30643	34363	32077	35910	
1692	0	32957	32605	32687	32105	30919	33662	32071	35847	
1693	0	32900	33227	32866	31846	30937	32419	32935	33154	
1694	0	32703	32861	33007	32276	31271	33919	33644	31087	
1695	0	32753	33007	32844	32543	32199	35053	32431	29511	
1696	0	32852	33099	32821	32601	33053	32877	32098	27671	
1697	0	32775	32999	32647	32706	32945	31306	31989	28039	
1698	0	32735	32892	32687	32953	33535	32037	33411	30029	
1699	0	32873	32869	32855	33147	33145	32769	33007	31698	
1700	0	32802	33007	32570	33335	33515	32123	32647	32441	
1701	0	33045	33238	32518	33146	32748	31719	31443	33399	
1702	0	33153	33179	32151	32950	32469	31175	30639	35717	
1703	0	33166	33287	32246	32951	33303	31511	31204	36511	
1704	0	32897	32703	32151	32743	33878	31647	32191	35829	
1705	0	32718	32176	32487	32895	34198	32029	31795	34660	
1706	0	32623	32263	32836	32671	32062	32551	31029	34246	
1707	0	32795	32388	32855	32759	30593	34017	30123	34143	
1708	0	32858	32893	32183	32815	32357	33856	31019	33175	
1709	0	32767	33375	31927	32747	32666	33845	32815	31895	
1710	0	32975	33191	31775	32884	30394	32575	35763	30703	
1711	0	32688	32653	31731	33155	31439	31301	34818	30439	
1712	0	32295	32807	32534	32716	30460	30620	33781	31342	
1713	0	31751	32647	33613	32107	30587	30898	33762	31295	
1714	0	32144	32196	34205	32095	32233	31708	31443	32487	
1715	0	32669	31858	33643	32271	32869	32993	29415	32807	
1716	0	32687	32132	33098	32349	32830	33506	32711	32611	
1717	0	32629	32662	32831	32388	33465	33239	36203	32562	
1718	0	32592	32801	32380	32891	35174	33717	37563	32467	
1719	0	32807	32932	32671	32993	36806	33997	36118	32487	
1720	0	32916	32839	32767	33158	36255	33379	34948	32723	
1721	0	32943	32593	32583	32998	35127	32734	35230	32751	
1722	0	32968	32550	32590	32951	33641	32939	34823	32331	
1723	0	32772	33030	32441	32806	33285	33589	33767	32637	
1724	0	32784	33076	32742	32812	32390	32918	31271	33287	
1725	0	33139	33155	32706	32815	31431	31914	29639	33777	
1726	0	32880	32735	32609	33093	32637	33243	29242	33303	
1727	0	32921	32729	32689	33199	32587	32521	28752	33495	
1728	0	32899	32983	32639	33103	32750	32045	30022	32988	
1729	0	32976	33486	32276	33122	31327	31094	30759	32103	
1730	0	33177	33447	32399	32989	30406	31725	28861	33008	
1731	0	33317	33141	32490	32927	31164	31775	30317	33766	
1732	0	33010	33169	32401	32801	33654	31391	33998	33889	
1733	0	32782	32559	32358	32593	33487	30983	35975	34716	
1734	0	32712	32349	32274	32535	34018	31835	36831	33926	
1735	0	32390	32199	32199	32619	32677	33274	35935	33045	
1736	0	32828	32855	32105	32500	30087	33375	33830	34909	
1737	0	32959	33547	32660	32589	30303	30928	32991	36629	
1738	0	32965	33563	33061	32797	31583	30836	30052	35765	
1739	0	32911	32743	33835	32692	33359	30278	29005	35295	
1740	0	32734	32858	32823	32643	36373	31326	33610	33250	
1741	0	32496	32783	32354	33023	36487	31690	35726	30354	
1742	0	32387	32299	32403	33346	34199	33835	35444	30084	
1743	0	32652	32399	32654	33204	33527	34439	34647	30249	
1744	0	33081	32647	32518	32968	33543	35078	33536	31295	
1745	0	32906	32346	33120	32563	32343	37455	32609	31284	
1746	0	32036	31623	34011	32565	31764	40027	31175	30191	
1747	0	31471	31702	34439	32421	32201	39762	31286	29869	
1748	0	32054	32623	33565	32737	32731	39343	32338	29077	
1749	0	32716	32108	32612	33351	32576	34319	32910	29759	
1750	0	33039	31734	32239	33580	32094	29682	32692	31589	
1751	0	33053	33095	32143	33522	31431	28639	32819	33148	
1752	0	33099	34059	32358	33399	31519	29709	32602	34338	
1753	0	33229	34535	32231	32860	31546	31385	33407	33298	
1754	0	33050	33298	31783	32602	31519	31970	33055	31839	
1755	0	33053	32359	31459	32455	31547	33261	31823	31794	
1756	0	32914	31507	31421	32045	30069	34045	30567	33259	
1757	0	32838	31930	31873	31421	29356	32742	29767	32697	
1758	0	32692	32543	33260	31314	30061	31923	27917	32679	
1759	0	32800	33011	33391	31583	32662	33639	26751	33605	
1760	0	32487	32699	33223	32385	35035	32850	27999	33829	
1761	0	32396	32647	33616	32737	32958	33089	30080	32647	
1762	0	32765	32719	33147	32616	33407	32724	32900	32491	
1763	0	32637	32454	32420	32763	37112	33143	35762	32705	
1764	0	32684	32804	32438	32964	36095	30581	37501	32694	
1765	0	32815	33187	32223	32834	33265	29891	36599	32933	
1766	0	32759	33245	32470	32967	34423	32082	35130	33967	
1767	0	32684	33263	32419	33135	34240	32423	34320	35475	
1768	0	32679	33185	32590	33083	33014	32247	35604	36023	
1769	0	32750	32333	32358	33185	34515	32437	35559	35366	
1770	0	32854	32134	32420	32767	33991	31559	35515	34078	
1771	0	32825	32254	32370	31987	31531	31111	35060	33229	
1772	0	32888	31939	32642	32246	29989	30587	35823	32098	
1773	0	32960	32587	32775	32679	29449	30900	34466	31342	
1774	0	32912	32962	32895	32639	30042	32214	32071	31724	
1775	0	32854	32857	32769	32727	31094	34039	31047	30911	
1776	0	32869	32711	32550	32722	31615	33021	31039	30615	
1777	0	32878	32732	32551	32961	32837	32439	30963	32039	
1778	0	32676	32811	32327	33031	35654	33019	32323	32615	
1779	0	32729	32899	32251	33026	34228	33039	32103	32772	
1780	0	33003	33005	32658	32997	34285	33115	30551	33121	
1781	0	33076	33295	32724	33004	34989	34135	30215	33611	
1782	0	32865	33247	32692	33081	34594	34951	30747	33356	
1783	0	32646	32949	33116	32983	34087	34128	33131	33071	
1784	0	32570	32998	33038	33071	32605	31449	34218	33138	
1785	0	32685	32763	32903	33159	32283	30535	32742	33277	
1786	0	32868	32841	32962	33237	31696	30471	32249	33127	
1787	0	33022	32764	32837	32996	30964	29943	32337	33693	
1788	0	32749	32642	32439	32807	31465	31465	31926	34017	
1789	0	32918	32807	32623	32743	31059	33543	29415	35207	
1790	0	32763	32635	32405	32926	31735	35647	29399	33833	
1791	0	32665	33031	32383	32839	33049	35567	30583	32063	
1792	0	32632	33076	32587	32846	32235	35001	33248	30855	
1793	0	32659	32794	32677	32750	32359	34013	34079	30263	
1794	0	32879	32698	32165	32887	32142	33254	34684	31814	
1795	0	33061	32519	32151	32914	33951	33551	34687	32493	
1796	0	33121	32634	32052	32567	32687	32335	34157	32594	
1797	0	33220	33287	32050	32127	31635	33096	32687	32167	
1798	0	32612	33177	32111	32115	31525	31595	32748	32103	
1799	0	31868	32052	32930	32391	31649	32066	34751	31659	
1800	0	31884	31973	33571	32681	33437	33287	34557	31187	
1801	0	32580	32095	32663	32538	31925	33004	33978	31205	
1802	0	33156	32586	32177	32255	31066	33511	31938	33287	
1803	0	33117	32541	32375	32437	33395	33093	31158	33527	
1804	0	32692	32703	32612	32927	35154	32658	31095	33956	
1805	0	32506	32971	32811	33199	36327	31943	30641	34975	
1806	0	32532	33377	33243	32961	35148	30359	31725	34407	
1807	0	32507	33251	33133	33088	34830	31639	33783	35277	
1808	0	32473	32979	33278	33245	33827	31639	36095	35060	
1809	0	32628	32383	32983	32962	32751	30476	35397	33927	
1810	0	32756	32231	32799	32549	31194	29271	34823	33681	
1811	0	32718	31611	32739	32461	30573	31213	34055	31860	
1812	0	32866	32255	32653	32420	30853	31084	33061	32730	
1813	0	33159	32863	32518	32697	32322	31110	32301	33610	
1814	0	33046	33082	32479	33083	33423	33467	31718	31808	
1815	0	32884	33114	32443	33189	34291	35093	30886	29916	
1816	0	33184	33157	32346	32878	33350	35463	30551	30505	
1817	0	33096	33007	32351	32824	32957	36999	31487	31309	
1818	0	32601	32962	32161	32631	33746	40002	31525	31751	
1819	0	32285	32601	32502	32400	31218	37639	30852	31362	
1820	0	32537	32506	32903	32775	29747	33079	30274	31599	
1821	0	32609	32647	32657	32675	31193	31533	30094	30866	
1822	0	32699	32538	32519	32554	32443	33319	30996	30827	
1823	0	32632	32236	32722	32749	33262	32263	32810	31903	
1824	0	32670	32799	32646	32831	33143	30340	34268	34614	
1825	0	32711	33193	32470	33092	31922	29889	36220	36119	
1826	0	32757	33079	32507	33300	32342	30445	35846	35815	
1827	0	32819	33275	32623	33439	33294	29658	34145	36436	
1828	0	33174	33039	32588	33498	33259	29367	32729	35974	
1829	0	33415	32646	32469	33302	33316	31428	33236	34791	
1830	0	33436	32575	32523	32711	32560	33719	32451	32199	
1831	0	33010	32575	32918	32389	32263	35606	32367	31285	
1832	0	32635	32114	33069	32321	32549	35492	33187	28943	
1833	0	32320	31847	33269	32737	33229	34823	33457	26302	
1834	0	32459	32230	33127	32849	31879	34374	33363	27841	
1835	0	32460	32706	32659	33172	31711	35558	32599	30407	
1836	0	32827	33295	33023	33164	31337	34769	30646	32754	
1837	0	33015	33535	32715	33218	31291	32910	30351	33439	
1838	0	32935	33193	32635	33143	34235	33511	30559	34375	
1839	0	32790	32207	32677	33007	34707	32332	31404	33845	
1840	0	32823	31941	32205	32791	34800	31943	31698	33060	
1841	0	32956	32471	32577	32183	34823	31049	31532	32867	
1842	0	32708	32474	32804	32107	34791	32615	32647	33127	
1843	0	32548	32333	32492	32093	33551	31751	34371	33447	
1844	0	32564	32387	32587	31954	31063	30757	35069	33266	
1845	0	32671	32573	32437	32074	30438	30455	34051	34253	
1846	0	32407	32431	32337	32319	31095	31310	34491	34268	
1847	0	32171	32663	33271	32466	29934	31257	33685	34758	
1848	0	32443	33071	33159	32677	30465	32867	33217	34023	
1849	0	32556	33039	33283	33117	32766	33279	32410	32902	
1850	0	32694	33052	33141	33188	33868	33754	32207	31947	
1851	0	32679	33003	32843	33062	33159	33503	33045	30961	
1852	0	32536	32691	32519	33103	34876	32211	33804	32297	
1853	0	32868	32846	32247	33180	35159	32473	33100	33431	
1854	0	32983	33026	32262	33204	34695	33375	32699	32973	
1855	0	33069	33494	32135	33158	33747	33001	32347	33291	
1856	0	32983	33223	32207	32855	32700	32591	31707	33280	
1857	0	32988	32410	32509	32615	33103	32683	31459	33252	
1858	0	32679	32379	32511	32715	33415	32871	31197	32767	
1859	0	32815	32211	32855	32818	32463	32215	31117	32822	
1860	0	32911	32318	32854	32588	32143	32645	31087	33254	
1861	0	32912	32587	32683	31981	32022	33501	33352	32948	
1862	0	32882	33279	32455	32391	32206	34188	35775	32939	
1863	0	32869	33413	32431	32839	33327	35221	35598	32871	
1864	0	32913	33255	32499	32935	33315	34611	33535	31963	
1865	0	32931	33010	32454	32791	31657	31659	32015	32925	
1866	0	32910	32769	32603	32502	31210	30687	30973	33030	
1867	0	32793	31823	32175	32739	31603	32035	30672	32289	
1868	0	32775	32028	32125	32375	31485	31921	30290	32993	
1869	0	32614	32101	32180	31888	31974	31275	31663	32786	
1870	0	32625	32361	32105	32223	32526	31787	34067	32757	
1871	0	32633	32855	32607	32586	32427	32193	34343	33272	
1872	0	32428	32993	32817	32887	32927	31822	34794	33423	
1873	0	32481	32772	33079	32823	32029	30292	34691	33159	
1874	0	32508	32775	32903	32773	33948	31497	32951	32603	
1875	0	32442	32893	32859	32871	34863	33091	32163	32539	
1876	0	32391	32972	32916	32895	33415	34402	31860	32479	
1877	0	32687	32863	33127	32806	32283	35642	32633	32388	
1878	0	32803	32985	32802	32387	33071	35330	33093	32498	
1879	0	32933	32827	32687	32445	33375	33758	32401	32350	
1880	0	33036	32903	32446	32613	32868	32067	32356	32339	
1881	0	32993	33087	32703	32856	33313	32093	32463	32945	
1882	0	32860	33299	32652	33149	33091	32258	32861	33811	
1883	0	32788	33251	32840	33143	32771	32703	33323	33982	
1884	0	32661	32717	32538	33257	32617	32979	32775	32501	
1885	0	32768	32462	32527	33300	32621	32069	32190	32599	
1886	0	32910	32539	32562	32911	32029	29989	31879	33191	
1887	0	32685	32607	32359	32983	32135	30806	32375	32933	
1888	0	32674	32619	32601	33135	32121	33019	32124	34179	
1889	0	33028	32937	32583	33203	32647	33878	31382	34145	
1890	0	32955	33067	32525	33415	33065	33121	32647	31383	
1891	0	32880	32941	32348	33415	32669	31985	33359	31236	
1892	0	32934	32810	32615	33095	32117	32713	32970	31855	
1893	0	33037	32327	32285	32822	31942	31238	32223	30869	
1894	0	32791	32321	32333	32685	31969	32255	32487	30237	
1895	0	32894	32355	32230	32477	32223	34279	32158	32007	
1896	0	32809	32359	32233	32257	32975	35895	31559	32541	
1897	0	32710	32613	32549	32423	32347	35025	31578	32638	
1898	0	32537	33102	33099	32775	32390	33959	32315	31996	
1899	0	32638	33017	33131	32999	33579	32770	32662	31251	
1900	0	32713	32819	33191	32887	33261	31717	32902	31822	
1901	0	32553	32549	33465	32919	32957	32340	32630	32766	
1902	0	32485	31903	33563	33055	33771	33669	33184	32430	
1903	0	32391	31975	33663	32262	33087	33167	32543	31946	
1904	0	32569	32333	33715	31513	33062	33748	32365	32738	
1905	0	32745	32463	32996	32109	31623	32531	31501	33875	
1906	0	32860	32429	32586	32719	32197	33635	30423	34735	
1907	0	33074	32703	32407	33053	31093	32365	29554	36167	
1908	0	32844	33127	32175	33262	31611	32585	29471	36567	
1909	0	32857	33959	32277	33407	31696	31239	31643	35993	
1910	0	32887	33561	32135	33227	32135	29426	34327	35415	
1911	0	32605	32978	32445	33153	32801	29711	35007	33647	
1912	0	32501	32899	32812	33135	32980	29385	36645	32237	
1913	0	32662	32719	32639	33207	33564	31315	35499	32583	
1914	0	32754	32071	32450	33127	32727	33333	34823	31541	
1915	0	32953	31946	32342	32887	32021	33415	33623	31087	
1916	0	33260	32353	32300	32406	32535	32767	32367	32577	
1917	0	33134	32843	32251	32383	32128	30482	34093	32359	
1918	0	32908	32551	32537	32617	30427	30119	34863	34229	
1919	0	32664	32419	33102	32359	32654	30005	33158	35135	
1920	0	32438	32605	33127	32359	37223	31199	32034	31667	
1921	0	32438	32383	33003	32448	37477	32686	31847	29533	
1922	0	32468	32820	32553	32391	35639	33671	33231	31181	
1923	0	32228	32756	32041	32623	33835	35986	34898	31551	
1924	0	32452	32895	32447	32782	32123	38700	34987	29570	
1925	0	32505	32830	32352	33188	33460	42503	33582	29767	
1926	0	32623	32699	32371	33079	32347	38786	32565	30743	
1927	0	32652	32775	32469	32822	32276	35804	31924	32048	
1928	0	32719	32786	32339	32895	32171	33447	31932	32321	
1929	0	32804	33068	32621	32829	32231	32201	32218	32177	
1930	0	32898	33319	32593	32707	32135	30969	31439	32739	
1931	0	32996	32971	32475	32738	32007	31938	31127	33396	
1932	0	33030	32755	32485	32849	32463	33007	31781	33495	
1933	0	32926	33063	32331	32633	32711	32702	32323	33138	
1934	0	32912	33191	32348	32526	32470	32279	31751	33671	
1935	0	32812	32970	32410	32817	32543	32081	31637	33479	
1936	0	32903	32639	32557	32773	32302	31225	31502	33231	
1937	0	32823	32319	32566	32444	32519	30964	31987	32765	
1938	0	32668	32363	32748	32386	32233	30855	32217	32792	
1939	0	32620	32468	32754	32457	31706	29594	31799	33305	
1940	0	32709	32843	32914	32598	31711	30495	30877	34779	
1941	0	32762	32955	32719	32765	32182	32373	32057	35030	
1942	0	32844	32947	32605	32933	32775	33810	33195	33738	
1943	0	32918	32962	32775	32815	32615	32572	33723	33459	
1944	0	32953	32567	32719	32646	32487	32667	33381	33707	
1945	0	32864	32135	32429	32659	32621	32988	33774	32678	
1946	0	32844	32291	32527	32579	32599	32117	33275	32385	
1947	0	32844	32531	32347	32450	32354	30845	32086	32275	
1948	0	32902	32495	32231	32674	32748	32533	31399	32231	
1949	0	33083	32720	32263	32943	31943	32985	31859	32601	
1950	0	32868	32867	32287	33146	32295	34294	32541	32035	
1951	0	32560	32775	32644	33127	32647	34770	32551	31945	
1952	0	32445	32823	33025	32940	33660	34514	32007	32308	
1953	0	32694	33010	32939	32806	34839	33491	31644	32943	
1954	0	32676	33111	33055	32859	33375	32321	33193	33005	
1955	0	32316	32391	33390	32941	31818	31799	34327	33093	
1956	0	32199	32607	33607	32895	31100	31662	34699	33025	
1957	0	32359	32647	33311	32933	31483	32364	33895	33347	
1958	0	32720	32540	32929	33089	31266	31933	33404	33398	
1959	0	32868	32807	32939	32861	31111	31807	32945	32283	
1960	0	33135	32956	32758	32445	31949	32455	32049	32308	
1961	0	33188	32781	32529	32258	34283	32933	32391	32895	
1962	0	32830	32587	32175	32203	36447	32915	33383	32660	
1963	0	32912	32363	32339	32554	35719	33085	32831	32969	
1964	0	32962	32726	32375	32515	33924	32794	32863	32455	
1965	0	32871	32831	32439	32474	32804	33147	33220	31313	
1966	0	32556	32937	32916	32807	32939	33090	33601	30919	
1967	0	32876	33383	32937	32785	33563	33396	31589	32548	
1968	0	32849	33156	32515	32843	33989	34593	30330	33266	
1969	0	32764	32551	32295	32975	34960	35566	30023	34466	
1970	0	32617	32530	32081	32931	32804	34513	29956	35458	
1971	0	32509	32562	32135	32823	31311	32132	31455	36284	
1972	0	32327	32731	32385	32818	32063	32626	31783	36710	
1973	0	32602	32954	32745	32820	32017	30337	31362	36146	
1974	0	32722	33045	33101	32826	31463	27522	33579	34181	
1975	0	32684	32400	32935	32747	31215	28421	36541	30932	
1976	0	32639	32249	32623	32796	31030	30023	36853	28039	
1977	0	32759	32154	32708	32503	33468	32822	35058	28231	
1978	0	32590	32503	32537	32419	35391	33507	34308	30543	
1979	0	32734	32861	32869	32351	33272	32122	32343	33404	
1980	0	33057	32941	32978	32463	31183	28919	31826	33875	
1981	0	32953	32742	32495	32727	31553	29965	32679	32949	
1982	0	32879	33204	32635	33015	30945	33589	33736	31677	
1983	0	33020	33137	32565	32748	31011	34166	33587	31719	
1984	0	32924	32726	32583	32903	31903	33708	33159	34102	
1985	0	32646	32354	32474	33251	34740	36207	33143	35001	
1986	0	32996	32503	32720	32953	34973	39015	32019	33763	
1987	0	33128	32507	32827	32647	32932	36933	32135	32263	
1988	0	32700	32007	32452	32635	33207	33618	32718	31015	
1989	0	32551	32407	32722	32538	32842	33023	32694	30535	
1990	0	32492	32562	32788	32588	32791	33361	32215	30239	
1991	0	32613	32563	32706	32827	32378	33373	33037	29689	
1992	0	32588	32612	32492	32786	32751	33799	31421	29478	
1993	0	32666	33143	32391	32769	32383	33626	29671	30111	
1994	0	32881	33477	32285	32894	31111	31740	29527	31683	
1995	0	33010	33516	32444	32731	30412	31444	29388	33367	
1996	0	33023	32903	32321	32820	30195	31865	29737	33751	
1997	0	32980	32466	32391	32509	29937	31971	30854	33494	
1998	0	32919	32387	32829	31979	30724	32239	31425	33821	
1999	0	32500	32468	33211	31510	32291	31998	34111	34153	
2000	0	32087	32103	33027	31521	34595	32191	39138	33510	
2001	0	32054	32160	33007	31903	36059	32454	38741	33142	
2002	0	32436	32673	32783	32455	33577	32079	35527	33630	
2003	0	32561	33102	32515	33023	32978	31364	34391	33583	
2004	0	32752	33061	32545	33223	35220	31111	32978	34265	
2005	0	32757	32639	32508	33301	36519	31908	32647	34277	
2006	0	32799	32831	32595	33143	35167	32787	33002	33594	
2007	0	32791	32943	32492	32999	33085	33671	31783	33597	
2008	0	32812	32835	32735	33093	33099	34088	31486	33927	
2009	0	33006	32787	32788	33270	31901	33396	32074	32941	
2010	0	32942	32687	32774	33375	31615	33067	33117	32681	
2011	0	33004	32646	32667	33542	32595	33799	32813	33318	
2012	0	32834	32407	32438	33143	32903	33223	32335	34237	
2013	0	32815	32679	32385	32903	31508	32263	32363	34562	
2014	0	32928	33025	32371	32676	31679	30837	32527	33839	
2015	0	32892	33280	32391	32737	32919	30388	31874	33662	
2016	0	32812	33509	32497	32631	32836	31167	32334	33301	
2017	0	32804	33399	32562	32491	31743	31445	33718	32683	
2018	0	32933	32903	32551	32548	31494	33762	32823	32647	
2019	0	32952	32378	32583	32274	32002	35196	32513	32071	
2020	0	32972	32423	32871	32231	31653	34365	31861	31443	
2021	0	32726	32567	32542	31999	32230	32397	32723	28905	
2022	0	32581	33058	32574	31879	33199	30853	31675	28602	
2023	0	32807	32839	32642	32261	33779	31110	31529	31120	
2024	0	32942	32711	32343	32738	35583	32095	31843	32959	
2025	0	33070	32977	32287	33007	33794	29605	30963	35670	
2026	0	32766	33092	32821	33351	32407	30895	32439	35602	
2027	0	32884	33294	32981	33831	31621	28932	34052	34431	
2028	0	32853	33167	32971	33728	32463	28273	33221	37511	
2029	0	32799	32918	33621	33646	32402	31139	33687	37523	
2030	0	32832	32783	33541	33687	33041	37361	33019	34976	
2031	0	32730	32753	32829	33472	34230	43578	32536	32167	
2032	0	32566	32331	32583	32870	33487	39727	32903	30043	
2033	0	32496	31905	32608	32213	32461	34863	33059	28343	
2034	0	32735	32287	32909	31950	31915	34111	32135	27522	
2035	0	32908	31846	32122	31531	32079	38067	32746	26155	
2036	0	32607	31877	31556	31524	31159	34924	34174	25577	
2037	0	32294	32095	31853	31469	31378	32218	33791	28263	
2038	0	32159	32135	32474	31603	31201	31844	31986	32238	
2039	0	32203	32420	32815	31973	31581	31954	31162	33486	
2040	0	32683	32647	32992	32242	31591	32185	30823	34495	
2041	0	32623	32519	32724	32305	31862	31675	29482	34847	
2042	0	32767	32662	33079	32340	32434	31153	30039	33871	
2043	0	32933	32826	32854	32208	32890	31463	29185	34197	
2044	0	32966	33095	33031	32361	33063	31343	29399	34925	
2045	0	32658	32895	32615	33012	33668	31638	34301	34183	
2046	0	32466	32927	32519	33184	36605	31991	37735	33956	
2047	0	32924	33146	33027	33065	34165	32039	37835	33799	
2048	0	32903	33009	32859	33187	32027	32283	36279	33756	
2049	0	32796	32795	32711	33345	32474	32429	33299	33982	
2050	0	32903	32667	32819	33285	32949	32679	32220	33949	
2051	0	32799	32695	32850	33138	32949	32409	33855	33205	
2052	0	32818	32793	32622	32941	33639	32592	33996	33010	
2053	0	33117	32942	32661	32706	32879	32547	32191	33405	
2054	0	33012	32751	32338	32743	34145	31765	32726	33303	
2055	0	32791	32954	32470	32967	34311	31879	31358	33107	
2056	0	32687	32821	32507	32951	32479	32482	31391	32605	
2057	0	32653	32819	32327	33125	32297	31849	31443	31681	
2058	0	32711	33191	32237	33187	33007	32133	31394	31892	
2059	0	32868	33511	32090	33584	34501	34055	32639	31911	
2060	0	33007	34083	32175	33703	35008	34385	33721	32147	
2061	0	32960	33934	32015	33664	34371	34770	35183	31286	
2062	0	33191	33159	32248	33156	30855	32293	33260	33155	
2063	0	33093	32389	32125	32840	27544	30847	31166	36143	
2064	0	33124	31122	31974	32519	27161	30069	31567	37047	
2065	0	33135	31210	32375	31899	27010	31260	33795	35463	
2066	0	32806	32613	32854	31355	29212	30106	35113	34647	
2067	0	32399	33082	33389	31785	32498	29466	31463	34576	
2068	0	32090	32712	33667	32452	37037	30979	29782	34377	
2069	0	32356	32459	32967	32836	37621	33563	32043	31610	
2070	0	32501	32103	32452	32793	36345	36637	34133	29814	
2071	0	32469	32183	32239	32701	35319	36941	35010	28711	
2072	0	32467	32327	32279	32850	34965	36543	34131	28687	
2073	0	32662	32489	32295	32617	34449	34361	33328	30028	
2074	0	32775	33082	32229	32631	32679	32900	33111	31967	
2075	0	32443	33247	32541	32849	32481	31989	33586	32407	
2076	0	32613	33577	32549	33215	32677	31235	33339	32523	
2077	0	32613	33541	32662	33337	32070	31053	32531	32320	
2078	0	32786	33063	32417	33220	32447	31961	31618	33174	
2079	0	33037	32559	32135	32927	32819	32407	31519	34373	
2080	0	33159	32063	32058	32679	32050	32767	31591	35013	
2081	0	33306	32247	32479	32401	32207	32788	31513	35247	
2082	0	33007	31935	32483	32303	32796	32949	31439	35302	
2083	0	32510	32151	33351	32497	32212	32559	30661	35207	
2084	0	32334	33355	33728	32852	32231	32879	31323	35271	
2085	0	32466	33918	33851	33174	32141	31978	32981	35001	
2086	0	32797	33026	33787	33062	32260	32183	33611	32038	
2087	0	32775	32425	33295	33193	31971	33311	33911	31301	
2088	0	32398	31777	33181	33093	31989	34711	33234	29446	
2089	0	32558	31903	32963	32567	32427	35255	31895	29711	
2090	0	32775	31945	32687	32279	32204	32811	32025	30565	
2091	0	32652	32331	32695	32571	32086	29764	32293	31019	
2092	0	32458	32761	32527	32751	32411	28828	32679	32051	
2093	0	32305	32999	33010	32913	33471	29231	33047	32385	
2094	0	32716	33153	32844	32930	33173	30453	32399	32300	
2095	0	32788	33471	32647	32765	32684	32819	31284	33000	
2096	0	32756	33485	32391	32580	33815	37007	31655	32692	
2097	0	32782	33010	32197	32628	34052	40695	32930	31647	
2098	0	32800	32799	31796	32784	31453	39362	33614	29719	
2099	0	32847	32997	31775	32647	29813	36572	31325	29018	
2100	0	33236	33706	31762	32199	29093	34321	29382	31287	
2101	0	33664	33711	32037	32236	27494	33704	29302	32555	
2102	0	33616	33341	32100	31659	27376	30911	28905	33327	
2103	0	33142	33270	32183	31842	30202	28253	29224	35117	
2104	0	32506	31817	32485	32407	34616	28263	29991	36336	
2105	0	32188	31709	32421	32567	36855	30780	31893	35839	
2106	0	32660	31986	32434	32567	37711	31171	35379	33581	
2107	0	33092	32487	32112	32436	37311	33429	37014	32324	
2108	0	33425	33237	32307	32372	35527	34287	39056	32467	
2109	0	33394	33095	32519	32995	35847	34768	39495	33069	
2110	0	32736	32829	32343	33271	35762	33156	39583	32099	
2111	0	32319	32504	32959	33265	33151	31267	37494	32039	
2112	0	32366	32745	33461	33145	31647	29751	34009	33201	
2113	0	32044	33083	33783	32915	32404	30406	32983	34064	
2114	0	32118	32961	33895	32867	32367	31799	32992	34462	
2115	0	32744	33318	33267	32991	32866	33862	32075	35182	
2116	0	33174	33031	32775	33063	32631	33831	32039	34783	
2117	0	33119	32671	32643	33431	32463	34170	32303	33974	
2118	0	32920	32599	32327	33393	31995	33069	32263	32599	
2119	0	33062	32767	32486	33453	30694	34001	31063	32892	
2120	0	33038	32631	32939	33516	29703	32303	31287	32579	
2121	0	33152	32991	32772	33388	29542	30551	31111	30773	
2122	0	33323	32903	32677	33065	31693	30621	30815	30052	
2123	0	33254	31943	32500	32892	32984	32584	31106	30355	
2124	0	33164	31111	32399	32671	32033	33975	31149	30459	
2125	0	33004	30956	32923	32239	33556	33959	31142	30951	
2126	0	32790	30324	32989	31786	37169	33118	30670	31616	
2127	0	32771	31383	33498	32117	36511	32669	31453	32127	
2128	0	32689	32547	33657	32399	34383	33585	34269	32385	
2129	0	32471	32727	33498	32579	33491	33499	34764	32404	
2130	0	32577	32825	33727	32699	31879	33496	34023	32999	
2131	0	32527	32700	33434	32935	31863	32658	34505	33243	
2132	0	32617	33077	33103	32845	31615	32170	33711	33753	
2133	0	32617	33155	32813	32862	31284	32165	32229	33927	
2134	0	32734	32983	32519	32721	30783	32100	31879	33703	
2135	0	32647	33159	32415	32737	32095	32096	31453	33543	
2136	0	32597	33227	32019	32855	32751	32281	31967	33895	
2137	0	32639	33172	31935	32791	33362	32621	32723	33669	
2138	0	32621	32903	31735	32788	34326	32802	33115	33451	
2139	0	32627	32846	31919	32839	35072	32826	31239	33685	
2140	0	32351	32854	32139	32927	35207	32972	32117	33090	
2141	0	32252	32753	32066	32917	33781	33135	33028	32855	
2142	0	32343	33076	32331	33028	31767	31926	33067	32916	
2143	0	32404	32965	32254	32850	31775	32055	33271	32698	
2144	0	32436	32791	32447	32765	32863	32370	32917	32782	
2145	0	32513	32583	32617	32690	32419	32503	33333	32379	
2146	0	32593	32751	32501	32439	32590	32767	34196	31946	
2147	0	32713	32844	32167	32533	32903	33591	32749	32990	
