# OpenSignals Text File Format
# {"00:07:80:64:6D:DA": {"sensor": ["CUSTOM/0.5/1.0/V", "CUSTOM/0.5/1.0/V", "CUSTOM/0.5/1.0/V", "CUSTOM/0.5/1.0/V"], "device name": "Plataforma", "column": ["nSeq", "DI", "CH1", "CH2", "CH3", "CH4"], "sync interval": 2, "time": "15:5:59.996", "comments": "", "device connection": "BTH00:07:80:64:6D:DA", "channels": [1, 2, 3, 4], "date": "2017-6-2", "mode": 0, "digital IO": [0, 1], "firmware version": 772, "device": "biosignalsplux", "position": 0, "sampling rate": 1000, "label": ["CH1", "CH2", "CH3", "CH4"], "resolution": [16, 16, 16, 16], "special": [{}, {}, {}, {}]}, "00:07:80:3B:46:38": {"sensor": ["CUSTOM/0.5/1.0/V", "CUSTOM/0.5/1.0/V", "CUSTOM/0.5/1.0/V", "CUSTOM/0.5/1.0/V", "CUSTOM/0.5/1.0/V", "CUSTOM/0.5/1.0/V", "CUSTOM/0.5/1.0/V", "CUSTOM/0.5/1.0/V"], "device name": "EMGs", "column": ["nSeq", "DI", "RA_L", "RA_R", "OE_L", "OE:R", "IL_L", "IL_R", "MF_L", "MF_R"], "sync interval": 2, "time": "15:5:59.996", "comments": "", "device connection": "BTH00:07:80:3B:46:38", "channels": [1, 2, 3, 4, 5, 6, 7, 8], "date": "2017-6-2", "mode": 0, "digital IO": [0, 1], "firmware version": 772, "device": "biosignalsplux", "position": 1, "sampling rate": 1000, "label": ["RA_L", "RA_R", "OE_L", "OE:R", "IL_L", "IL_R", "MF_L", "MF_R"], "resolution": [16, 16, 16, 16, 16, 16, 16, 16], "special": [{}, {}, {}, {}, {}, {}, {}, {}]}}
# EndOfHeader
0	0	4805	8214	4583	6088	3282	0	32900	33364	33138	33119	32339	32916	33302	32487	
1	0	4814	8238	4534	6040	3283	0	33033	33399	33219	33231	32417	32951	33187	32495	
2	0	4755	8201	4522	6057	3284	0	33127	33543	33309	33281	32454	32859	33271	32464	
3	0	4805	8219	4584	6109	3285	0	33055	33477	33434	33415	32470	32775	33298	32378	
4	0	4776	8200	4510	6061	3286	0	32998	33639	33556	33375	32347	32884	33261	32439	
5	0	4766	8262	4524	6091	3287	0	32993	33415	33411	33166	32293	33139	33343	32447	
6	0	4761	8200	4539	6055	3288	0	33119	33611	33170	32982	32471	33031	33237	32511	
7	0	4778	8258	4575	6040	3289	0	33347	33671	33101	32895	32497	32815	33153	32606	
8	0	4805	8233	4529	6076	3290	0	33505	33819	32975	32903	32605	32773	33058	32663	
9	0	4794	8184	4568	6065	3291	0	33643	33501	32929	32783	32807	32767	32991	32711	
10	0	4769	8157	4563	6044	3292	0	33721	33415	33017	32775	32828	32585	32695	32903	
11	0	4786	8186	4560	6045	3293	0	33755	33631	32903	32751	32871	32455	32612	32890	
12	0	4792	8210	4558	6129	3294	0	33658	33573	32811	32636	32982	32413	32567	33015	
13	0	4783	8214	4552	6046	3295	0	33541	33559	32741	32535	33075	32439	32446	32903	
14	0	4796	8240	4599	6083	3296	0	33521	33490	32815	32647	33061	32465	32390	32860	
15	0	4773	8243	4487	6075	3297	0	33375	33115	32823	32781	33147	32575	32315	32911	
16	0	4821	8194	4595	6062	3298	0	33204	33142	32775	32775	33116	32509	32275	32815	
17	0	4753	8240	4580	6084	3299	0	33157	32975	32751	32791	33029	32445	32351	32804	
18	0	4792	8213	4598	6084	3300	0	33023	32971	32671	32709	32999	32391	32319	32854	
19	0	4796	8223	4582	6096	3301	0	32941	32724	32637	32599	33071	32311	32210	32925	
20	0	4728	8241	4530	6074	3302	0	32908	32684	32639	32556	32903	32381	32340	32903	
21	0	4792	8228	4583	6084	3303	0	32860	32743	32662	32583	32782	32707	32185	32830	
22	0	4779	8215	4570	6069	3304	0	32783	32738	32751	32647	32925	32903	32243	32775	
23	0	4826	8220	4572	6060	3305	0	32751	32837	32733	32679	32967	32690	32355	32739	
24	0	4763	8247	4598	6060	3306	0	32642	32503	32767	32622	32919	32557	32431	32661	
25	0	4761	8194	4546	6060	3307	0	32629	32539	32671	32463	32854	32775	32421	32603	
26	0	4770	8184	4497	6062	3308	0	32532	32507	32631	32366	32815	32839	32559	32607	
27	0	4864	8237	4574	6094	3309	0	32529	32447	32631	32429	32971	32663	32643	32527	
28	0	4777	8258	4577	6049	3310	0	32551	32535	32660	32499	32903	32713	32591	32501	
29	0	4777	8217	4542	6080	3311	0	32556	32367	32710	32575	32757	32845	32599	32535	
30	0	4782	8208	4586	6075	3312	0	32566	32479	32717	32658	32673	32716	32623	32563	
31	0	4760	8222	4579	6094	3313	0	32551	32551	32647	32645	32809	32581	32695	32645	
32	0	4776	8216	4561	6092	3314	0	32498	32592	32703	32695	32727	32563	32599	32631	
33	0	4744	8240	4604	6093	3315	0	32493	32501	32643	32615	32738	32611	32563	32573	
34	0	4811	8210	4600	6098	3316	0	32582	32439	32609	32719	32775	32807	32559	32596	
35	0	4775	8188	4595	6083	3317	0	32601	32655	32619	32749	32647	32943	32603	32572	
36	0	4814	8236	4608	6044	3318	0	32647	32631	32671	32839	32633	32739	32639	32557	
37	0	4762	8208	4592	6115	3319	0	32614	32663	32586	32791	32605	32823	32607	32375	
38	0	4788	8192	4593	6080	3320	0	32707	32383	32556	32709	32631	32767	32689	32413	
39	0	4799	8202	4595	6074	3321	0	32683	32647	32549	32786	32765	32735	32607	32573	
40	0	4789	8166	4562	6116	3322	0	32636	32635	32653	32799	32868	32603	32762	32591	
41	0	4797	8226	4630	6051	3323	0	32706	32615	32647	32647	32751	32594	32735	32667	
42	0	4802	8243	4635	6083	3324	0	32660	32723	32751	32775	32748	32729	32713	32667	
43	0	4787	8180	4557	6054	3325	0	32680	32741	32715	32722	32859	32900	32666	32751	
44	0	4779	8216	4548	6128	3326	0	32598	32754	32767	32735	32847	32833	32687	32655	
45	0	4770	8203	4587	6125	3327	0	32655	32791	32759	32687	32727	32739	32791	32617	
46	0	4766	8225	4609	6096	3328	0	32703	32577	32797	32615	32746	32623	32797	32647	
47	0	4777	8232	4589	6115	3329	0	32709	32741	32831	32505	32806	32605	32595	32683	
48	0	4770	8158	4583	6068	3330	0	32775	32723	32797	32564	32791	32703	32631	32723	
49	0	4817	8216	4591	6084	3331	0	32749	32895	32739	32647	32761	32759	32741	32647	
50	0	4733	8226	4583	6100	3332	0	32661	32527	32729	32676	32685	32735	32679	32669	
51	0	4799	8204	4582	6066	3333	0	32722	32711	32731	32758	32734	32788	32671	32687	
52	0	4767	8189	4592	6113	3334	0	32706	32767	32818	32673	32771	32687	32535	32687	
53	0	4816	8214	4565	6108	3335	0	32719	32850	32815	32715	32775	32783	32622	32645	
54	0	4785	8200	4588	6068	3336	0	32664	32743	32829	32709	32815	32839	32687	32699	
55	0	4792	8238	4627	6081	3337	0	32644	32615	32763	32679	32681	32703	32567	32634	
56	0	4810	8208	4569	6085	3338	0	32687	32545	32743	32815	32765	32711	32635	32564	
57	0	4787	8183	4558	6093	3339	0	32721	32599	32849	32786	32903	32763	32699	32548	
58	0	4754	8213	4587	6078	3340	0	32743	32693	32876	32711	32839	32711	32663	32547	
59	0	4759	8169	4576	6116	3341	0	32675	32535	32811	32791	32851	32681	32739	32583	
60	0	4745	8143	4611	6112	3342	0	32642	32711	32727	32727	32807	32661	32726	32527	
61	0	4801	8226	4604	6101	3343	0	32647	32769	32690	32755	32831	32627	32597	32625	
62	0	4796	8263	4608	6088	3344	0	32684	32927	32678	32852	32783	32693	32631	32547	
63	0	4792	8201	4588	6092	3345	0	32739	32717	32668	32756	32730	32749	32663	32538	
64	0	4771	8184	4593	6095	3346	0	32701	32835	32679	32751	32706	32743	32737	32567	
65	0	4806	8194	4543	6068	3347	0	32831	32847	32743	32599	32727	32679	32691	32531	
66	0	4774	8250	4599	6109	3348	0	32853	32827	32759	32647	32810	32634	32623	32511	
67	0	4756	8240	4596	6148	3349	0	32782	32647	32621	32732	32809	32627	32749	32551	
68	0	4772	8204	4630	6098	3350	0	32758	32775	32724	32692	32813	32678	32775	32559	
69	0	4752	8240	4601	6069	3351	0	32841	32757	32647	32677	32853	32742	32849	32535	
70	0	4770	8197	4628	6112	3352	0	32815	32781	32679	32591	32839	32721	32647	32503	
71	0	4750	8213	4564	6111	3353	0	32748	32583	32709	32543	32783	32807	32603	32622	
72	0	4759	8180	4591	6084	3354	0	32769	32519	32795	32542	32844	32711	32711	32751	
73	0	4769	8206	4598	6098	3355	0	32749	32739	32775	32727	32810	32711	32731	32749	
74	0	4770	8210	4592	6106	3356	0	32839	32767	32685	32741	32823	32771	32732	32756	
75	0	4780	8215	4588	6068	3357	0	32854	32971	32676	32817	32807	32677	32831	32711	
76	0	4804	8212	4595	6042	3358	0	32775	32775	32666	32843	32723	32751	32559	32661	
77	0	4777	8197	4552	6078	3359	0	32770	32671	32679	32850	32715	32839	32671	32719	
78	0	4821	8188	4608	6079	3360	0	32789	32885	32789	32875	32838	32751	32663	32754	
79	0	4766	8169	4593	6078	3361	0	32807	32820	32828	32823	32787	32677	32593	32641	
80	0	4760	8173	4626	6107	3362	0	32807	32815	32798	32903	32839	32742	32711	32548	
81	0	4791	8168	4601	6086	3363	0	32813	32837	32843	32822	32813	32621	32631	32495	
82	0	4769	8240	4615	6099	3364	0	32805	32635	32901	32666	32757	32628	32566	32590	
83	0	4750	8188	4638	6112	3365	0	32771	32620	32767	32629	32815	32644	32638	32629	
84	0	4788	8216	4608	6092	3366	0	32748	32687	32787	32613	32890	32694	32797	32747	
85	0	4772	8225	4564	6112	3367	0	32727	32701	32745	32547	32994	32659	32623	32695	
86	0	4767	8183	4640	6113	3368	0	32781	32723	32767	32677	32757	32669	32647	32695	
87	0	4746	8201	4579	6099	3369	0	32706	32873	32733	32621	32576	32775	32748	32723	
88	0	4786	8188	4624	6074	3370	0	32772	32719	32693	32631	32546	32791	32535	32702	
89	0	4772	8157	4551	6090	3371	0	32789	32695	32659	32594	32556	32751	32519	32691	
90	0	4764	8203	4577	6088	3372	0	32844	32771	32685	32539	32699	32703	32727	32583	
91	0	4770	8156	4548	6116	3373	0	32701	32671	32691	32646	32589	32590	32691	32591	
92	0	4802	8236	4602	6086	3374	0	32758	32727	32631	32751	32935	32751	32703	32614	
93	0	4707	8155	4633	6156	3375	0	32838	32863	32701	32919	32929	32839	32699	32613	
94	0	4741	8220	4614	6064	3376	0	32797	32759	32763	32956	32731	32646	32635	32631	
95	0	4804	8184	4702	6075	3377	0	32791	32685	32821	32919	32863	32557	32503	32791	
96	0	4800	8163	4630	6105	3378	0	32759	32788	32911	32841	32815	32615	32595	32732	
97	0	4790	8204	4597	6093	3379	0	32795	32803	32887	32525	32780	32695	32665	32655	
98	0	4760	8168	4590	6097	3380	0	32711	32728	32933	32487	32743	32743	32704	32710	
99	0	4731	8194	4588	6122	3381	0	32719	32551	32869	32623	32791	32721	32667	32621	
100	0	4772	8210	4660	6097	3382	0	32715	32742	32737	32668	32799	32759	32739	32676	
101	0	4784	8234	4606	6107	3383	0	32729	32823	32767	32871	32763	32479	32727	32710	
102	0	4776	8146	4610	6084	3384	0	32708	32885	32794	32823	32831	32572	32643	32796	
103	0	4740	8211	4609	6074	3385	0	32735	32741	32717	32682	32711	32999	32615	32766	
104	0	4743	8140	4579	6120	3386	0	32762	32627	32613	32647	32662	32999	32727	32554	
105	0	4762	8137	4580	6133	3387	0	32775	32583	32663	32647	32975	32677	32741	32510	
106	0	4755	8217	4619	6062	3388	0	32751	32757	32679	32647	33041	32518	32647	32578	
107	0	4784	8192	4572	6064	3389	0	32839	32762	32821	32751	32750	32519	32711	32511	
108	0	4740	8177	4603	6088	3390	0	32865	32551	32783	32717	32671	32380	32709	32473	
109	0	4770	8148	4628	6128	3391	0	32745	32647	32795	32647	32823	32357	32695	32567	
110	0	4776	8202	4610	6076	3392	0	32749	32735	32755	32679	32855	32811	32703	32575	
111	0	4752	8188	4636	6064	3393	0	32701	32771	32719	32738	32660	32951	32775	32503	
112	0	4731	8171	4624	6082	3394	0	32726	32726	32743	32815	32675	33099	32831	32551	
113	0	4771	8185	4591	6105	3395	0	32743	32855	32793	32831	32858	33215	32490	32517	
114	0	4758	8227	4640	6062	3396	0	32765	32903	32756	32855	32737	33101	32724	32551	
115	0	4802	8192	4616	6110	3397	0	32751	32670	32701	32795	32813	32783	32718	32707	
116	0	4808	8213	4622	6102	3398	0	32702	32698	32769	32765	32783	32692	32551	32535	
117	0	4762	8166	4590	6109	3399	0	32691	32715	32749	32826	32850	32527	32559	32541	
118	0	4780	8180	4640	6093	3400	0	32822	32897	32791	32775	32807	32583	32559	32519	
119	0	4812	8202	4608	6079	3401	0	32773	32716	32775	32782	32749	32484	32631	32571	
120	0	4792	8202	4578	6064	3402	0	32727	32795	32773	32814	32699	32719	32586	32571	
121	0	4757	8168	4614	6118	3403	0	32692	32844	32819	32747	32727	33031	32743	32647	
122	0	4752	8184	4572	6059	3404	0	32695	32951	32870	32734	32806	33183	32677	32679	
123	0	4761	8176	4586	6080	3405	0	32784	32959	32815	32701	32830	32975	32847	32687	
124	0	4767	8218	4574	6087	3406	0	32797	32679	32674	32703	32834	32929	32821	32676	
125	0	4796	8172	4627	6085	3407	0	32791	32801	32719	32636	32728	32807	32695	32645	
126	0	4798	8184	4596	6105	3408	0	32829	32832	32903	32579	32715	32571	32543	32699	
127	0	4760	8190	4548	6119	3409	0	32804	32765	32891	32533	32829	32557	32719	32738	
128	0	4777	8198	4663	6072	3410	0	32837	32829	32803	32501	32818	32548	32678	32773	
129	0	4775	8160	4576	6087	3411	0	32745	32747	32751	32554	32743	32623	32647	32607	
130	0	4752	8169	4577	6094	3412	0	32775	32663	32647	32605	32751	32535	32748	32514	
131	0	4788	8180	4581	6116	3413	0	32793	32586	32711	32663	32769	32628	32659	32645	
132	0	4790	8176	4645	6141	3414	0	32729	32691	32691	32708	32729	32647	32621	32743	
133	0	4765	8181	4628	6141	3415	0	32809	32723	32698	32647	32735	32683	32647	32769	
134	0	4782	8230	4634	6113	3416	0	32809	32838	32647	32594	32709	32708	32645	32737	
135	0	4795	8227	4645	6093	3417	0	32788	32713	32653	32695	32878	32629	32700	32714	
136	0	4749	8200	4622	6073	3418	0	32743	32677	32561	32675	32991	32623	32682	32743	
137	0	4758	8177	4649	6136	3419	0	32706	32615	32692	32863	32851	32596	32806	32735	
138	0	4824	8214	4635	6065	3420	0	32779	32786	32807	32891	32775	32690	32593	32627	
139	0	4785	8216	4611	6078	3421	0	32788	32837	32806	32915	32614	32703	32700	32547	
140	0	4760	8189	4658	6115	3422	0	32773	32844	32766	32925	32723	32743	32743	32559	
141	0	4762	8168	4630	6096	3423	0	32764	32879	32775	33039	32807	32702	32647	32703	
142	0	4762	8208	4643	6120	3424	0	32816	32762	32775	32951	32725	32738	32575	32709	
143	0	4793	8184	4645	6128	3425	0	32815	32825	32811	32806	32771	32719	32647	32719	
144	0	4734	8161	4573	6082	3426	0	32780	32867	32858	32773	32758	32711	32635	32691	
145	0	4769	8209	4622	6114	3427	0	32714	32887	32855	32809	32771	32631	32701	32647	
146	0	4798	8181	4633	6081	3428	0	32660	32559	32831	32615	32783	32631	32719	32711	
147	0	4720	8218	4612	6130	3429	0	32647	32826	32837	32389	32734	32727	32633	32555	
148	0	4799	8162	4632	6131	3430	0	32662	32607	32830	32431	32748	32719	32700	32727	
149	0	4765	8184	4656	6112	3431	0	32738	32739	32733	32455	32786	32642	32477	32775	
150	0	4785	8211	4623	6062	3432	0	32830	32679	32595	32646	32695	32743	32759	32643	
151	0	4756	8162	4691	6110	3433	0	32901	32687	32601	32527	32738	32707	32661	32647	
152	0	4765	8160	4646	6156	3434	0	32861	32751	32663	32599	32823	32750	32666	32679	
153	0	4799	8184	4594	6082	3435	0	32743	32615	32711	32617	32787	32679	32500	32659	
154	0	4792	8186	4641	6107	3436	0	32789	32917	32621	32709	32791	32791	32699	32735	
155	0	4758	8165	4636	6052	3437	0	32803	32864	32706	32823	32759	32735	32670	32719	
156	0	4824	8200	4580	6116	3438	0	32762	32839	32758	32719	32735	32663	32591	32594	
157	0	4834	8196	4600	6082	3439	0	32713	32989	32775	32854	32751	32827	32642	32691	
158	0	4778	8178	4641	6120	3440	0	32748	32852	32871	32869	32825	32711	32609	32706	
159	0	4781	8182	4590	6136	3441	0	32805	32743	32891	32709	32751	32647	32582	32583	
160	0	4748	8199	4612	6094	3442	0	32715	32834	32879	32667	32805	32790	32661	32673	
161	0	4756	8215	4616	6086	3443	0	32720	32635	32923	32671	32657	32746	32671	32667	
162	0	4788	8146	4623	6130	3444	0	32793	32891	32876	32757	32849	32698	32551	32529	
163	0	4781	8148	4632	6093	3445	0	32774	32743	32751	32694	32871	32623	32603	32684	
164	0	4784	8200	4626	6108	3446	0	32773	32595	32711	32685	33039	32637	32677	32677	
165	0	4803	8224	4610	6081	3447	0	32738	32759	32692	32647	32983	32759	32508	32645	
166	0	4748	8160	4629	6072	3448	0	32871	32707	32686	32577	32759	32709	32670	32700	
167	0	4785	8181	4620	6132	3449	0	32859	32678	32871	32719	32749	32811	32689	32473	
168	0	4768	8180	4624	6123	3450	0	32751	32903	32839	32787	32466	32863	32785	32695	
169	0	4804	8209	4643	6129	3451	0	32754	32855	32738	32647	32665	32701	32693	32625	
170	0	4791	8192	4597	6138	3452	0	32797	32711	32739	32725	32835	32679	32681	32743	
171	0	4790	8176	4590	6075	3453	0	32792	32775	32671	32815	32839	32637	32879	32708	
172	0	4764	8198	4629	6109	3454	0	32793	32799	32763	32743	32869	32737	32863	32571	
173	0	4790	8165	4614	6105	3455	0	32677	32769	32743	32775	32813	32685	32633	32709	
174	0	4775	8197	4632	6121	3456	0	32671	32687	32643	32823	32688	32639	32743	32627	
175	0	4785	8206	4600	6136	3457	0	32681	32725	32663	32855	32815	32743	32721	32740	
176	0	4752	8164	4580	6104	3458	0	32691	32531	32647	32783	32799	32818	32642	32623	
177	0	4817	8213	4621	6066	3459	0	32718	32789	32838	32679	32807	32722	32721	32555	
178	0	4773	8182	4645	6072	3460	0	32751	32915	32743	32813	32860	32751	32801	32676	
179	0	4791	8172	4660	6115	3461	0	32751	32935	32771	32823	32743	32771	32647	32635	
180	0	4753	8130	4590	6084	3462	0	32788	32797	32791	32766	32815	32701	32719	32735	
181	0	4772	8164	4604	6118	3463	0	32772	32687	32706	32789	32799	32757	32733	32663	
182	0	4762	8140	4607	6120	3464	0	32713	32498	32753	32751	32775	32799	32525	32540	
183	0	4789	8177	4620	6091	3465	0	32710	32599	32723	32698	32817	32733	32615	32719	
184	0	4765	8186	4652	6109	3466	0	32673	32580	32811	32749	32711	32674	32591	32701	
185	0	4791	8162	4582	6094	3467	0	32727	32503	32711	32751	32845	32709	32455	32639	
186	0	4741	8174	4581	6081	3468	0	32771	32864	32690	32815	32811	32783	32621	32647	
187	0	4734	8179	4612	6092	3469	0	32711	32980	32646	32749	32787	32727	32531	32767	
188	0	4764	8179	4624	6043	3470	0	32736	32879	32647	32647	32797	32655	32702	32707	
189	0	4777	8187	4633	6097	3471	0	32745	32903	32719	32498	32767	32663	32726	32831	
190	0	4754	8161	4609	6078	3472	0	32837	32767	32695	32420	32829	32643	32503	32684	
191	0	4746	8174	4652	6094	3473	0	32838	32775	32711	32409	32773	32807	32595	32791	
192	0	4740	8151	4604	6089	3474	0	32789	32723	32789	32508	32715	32663	32493	32614	
193	0	4735	8191	4544	6083	3475	0	32772	32722	32807	32595	32819	32631	32454	32615	
194	0	4708	8178	4601	6069	3476	0	32749	32551	32756	32590	32895	32607	32493	32549	
195	0	4756	8187	4638	6091	3477	0	32758	32743	32707	32663	32847	32671	32529	32575	
196	0	4704	8183	4544	6062	3478	0	32780	32967	32801	32797	32855	32725	32585	32559	
197	0	4775	8214	4629	6101	3479	0	32775	32791	32751	32859	32841	32695	32579	32563	
198	0	4754	8163	4597	6080	3480	0	32802	32961	32815	32914	32727	32684	32639	32587	
199	0	4721	8192	4578	6088	3481	0	32715	32801	32845	32823	32815	32791	32693	32617	
200	0	4740	8174	4623	6039	3482	0	32665	32726	32727	32743	32775	32601	32599	32677	
201	0	4699	8178	4593	6080	3483	0	32763	32615	32673	32717	32703	32775	32615	32687	
202	0	4761	8131	4582	6140	3484	0	32752	32541	32811	32827	32765	32803	32621	32733	
203	0	4772	8184	4581	6059	3485	0	32751	32739	32727	32831	32749	32807	32655	32711	
204	0	4800	8212	4556	6088	3486	0	32695	32711	32799	32821	32671	32853	32694	32716	
205	0	4769	8159	4518	6132	3487	0	32677	32583	32847	32819	32807	32901	32755	32711	
206	0	4788	8152	4605	6091	3488	0	32688	32673	32825	32807	32915	32771	32763	32692	
207	0	4740	8163	4598	6096	3489	0	32756	32701	32871	32703	32890	32647	32759	32729	
208	0	4760	8148	4547	6116	3490	0	32780	32740	32901	32823	32787	32660	32749	32711	
209	0	4784	8192	4574	6082	3491	0	32810	32548	32835	32871	32631	32694	32718	32694	
210	0	4798	8176	4557	6126	3492	0	32807	32699	32724	32711	32753	32767	32605	32655	
211	0	4756	8148	4649	6112	3493	0	32784	32827	32575	32679	32930	32675	32570	32722	
212	0	4764	8149	4551	6076	3494	0	32801	32639	32555	32687	32810	32711	32543	32694	
213	0	4740	8158	4581	6110	3495	0	32820	32837	32647	32719	32671	32751	32690	32658	
214	0	4727	8191	4573	6100	3496	0	32743	32819	32765	32699	32783	32706	32749	32591	
215	0	4751	8141	4593	6054	3497	0	32742	32757	32788	32647	32695	32749	32668	32619	
216	0	4751	8174	4560	6164	3498	0	32774	32839	32710	32573	32671	32755	32632	32629	
217	0	4718	8165	4595	6117	3499	0	32818	32827	32622	32590	32733	32619	32645	32676	
218	0	4743	8181	4573	6058	3500	0	32806	32948	32687	32696	32729	32621	32699	32737	
219	0	4806	8212	4594	6099	3501	0	32749	32751	32719	32723	32749	32663	32557	32679	
220	0	4749	8145	4608	6090	3502	0	32802	32613	32839	32767	32801	32708	32607	32807	
221	0	4759	8123	4586	6129	3503	0	32781	32615	32787	32754	32825	32732	32722	32764	
222	0	4766	8172	4611	6130	3504	0	32647	32698	32757	32787	32822	32663	32700	32659	
223	0	4776	8120	4626	6130	3505	0	32775	32663	32734	32918	32766	32831	32783	32735	
224	0	4760	8187	4612	6084	3506	0	32762	32559	32791	32749	32653	32689	32775	32771	
225	0	4752	8199	4609	6096	3507	0	32740	32675	32775	32677	32685	32826	32775	32711	
226	0	4780	8165	4602	6116	3508	0	32770	32631	32799	32643	32850	32815	32827	32639	
227	0	4779	8192	4570	6113	3509	0	32793	32847	32679	32790	32818	32850	32623	32583	
228	0	4771	8188	4584	6064	3510	0	32775	32723	32679	32722	32899	32835	32583	32647	
229	0	4734	8188	4558	6082	3511	0	32783	32667	32783	32721	32801	32600	32707	32679	
230	0	4748	8154	4592	6075	3512	0	32783	32807	32839	32722	32823	32570	32725	32633	
231	0	4800	8167	4586	6132	3513	0	32783	32893	32829	32763	32867	32635	32727	32723	
232	0	4726	8169	4564	6078	3514	0	32784	32974	32820	32814	32773	32613	32691	32669	
233	0	4724	8150	4580	6053	3515	0	32849	32943	32723	32732	32775	32831	32676	32660	
234	0	4757	8138	4644	6104	3516	0	32799	32621	32709	32851	32797	32767	32631	32647	
235	0	4732	8169	4626	6102	3517	0	32833	32773	32655	32775	32769	32660	32675	32605	
236	0	4739	8160	4592	6121	3518	0	32724	32802	32655	32673	32731	32703	32743	32695	
237	0	4737	8164	4629	6066	3519	0	32738	32918	32679	32721	32805	32773	32487	32671	
238	0	4770	8218	4602	6100	3520	0	32733	32687	32727	32749	32740	32775	32615	32705	
239	0	4772	8206	4604	6080	3521	0	32775	32581	32643	32763	32769	32710	32683	32623	
240	0	4709	8127	4586	6088	3522	0	32812	32799	32677	32749	32819	32713	32647	32525	
241	0	4774	8187	4591	6075	3523	0	32753	32847	32827	32775	32711	32647	32673	32476	
242	0	4783	8147	4628	6080	3524	0	32764	32879	32861	32782	32719	32677	32775	32523	
243	0	4794	8128	4592	6082	3525	0	32739	32607	32836	32713	32763	32667	32851	32487	
244	0	4738	8130	4625	6104	3526	0	32700	32754	32877	32623	32837	32687	32887	32557	
245	0	4757	8188	4596	6098	3527	0	32703	32794	32847	32599	32837	32771	32679	32532	
246	0	4795	8200	4607	6109	3528	0	32743	32695	32866	32647	32863	32684	32595	32533	
247	0	4812	8208	4629	6100	3529	0	32720	32623	32775	32740	32807	32671	32610	32554	
248	0	4784	8169	4622	6124	3530	0	32793	32731	32799	32695	32775	32717	32681	32484	
249	0	4750	8148	4647	6136	3531	0	32775	32865	32767	32671	32750	32657	32814	32555	
250	0	4773	8176	4598	6124	3532	0	32749	32599	32879	32693	32767	32689	32811	32595	
251	0	4736	8152	4644	6097	3533	0	32749	32823	32943	32583	32831	32621	32775	32571	
252	0	4778	8162	4632	6096	3534	0	32743	32781	32903	32580	32804	32679	32698	32687	
253	0	4784	8170	4590	6083	3535	0	32647	32804	32903	32679	32783	32751	32723	32677	
254	0	4734	8150	4593	6129	3536	0	32721	32685	32663	32775	32735	32727	32575	32727	
255	0	4721	8140	4568	6088	3537	0	32806	32877	32516	32687	32701	32717	32455	32729	
256	0	4771	8153	4601	6113	3538	0	32866	32855	32513	32763	32771	32727	32493	32647	
257	0	4746	8184	4587	6028	3539	0	32893	32830	32435	32705	32804	32735	32473	32557	
258	0	4779	8167	4594	6089	3540	0	32879	32671	32500	32726	32823	32735	32493	32549	
259	0	4781	8154	4610	6072	3541	0	32841	32859	32511	32859	32761	32581	32633	32621	
260	0	4767	8120	4578	6141	3542	0	32836	32853	32549	32879	32732	32647	32655	32551	
261	0	4777	8168	4568	6170	3543	0	32763	32564	32581	32921	32739	32671	32683	32518	
262	0	4735	8150	4580	6083	3544	0	32825	32698	32659	32850	32657	32607	32703	32541	
263	0	4770	8154	4611	6106	3545	0	32779	32755	32711	32831	32745	32757	32622	32569	
264	0	4746	8130	4611	6097	3546	0	32775	32839	32795	32711	32767	32789	32687	32559	
265	0	4719	8152	4605	6100	3547	0	32721	32615	32893	32639	32867	32707	32711	32551	
266	0	4780	8209	4573	6138	3548	0	32726	32725	32868	32679	32847	32749	32711	32595	
267	0	4740	8153	4589	6128	3549	0	32727	32759	32854	32742	32807	32807	32806	32527	
268	0	4766	8133	4595	6126	3550	0	32785	32647	32887	32671	32859	32683	32694	32527	
269	0	4761	8142	4592	6093	3551	0	32800	32673	32789	32642	32773	32671	32727	32513	
270	0	4768	8130	4587	6103	3552	0	32721	32923	32727	32611	32807	32623	32559	32543	
271	0	4803	8172	4669	6154	3553	0	32791	33147	32661	32637	32815	32575	32543	32530	
272	0	4730	8198	4540	6108	3554	0	32839	32827	32679	32593	32875	32647	32553	32529	
273	0	4784	8195	4524	6148	3555	0	32756	32802	32749	32567	32797	32731	32527	32615	
274	0	4826	8171	4570	6142	3556	0	32812	32892	32801	32628	32807	32692	32510	32733	
275	0	4766	8171	4552	6110	3557	0	32815	32823	32895	32623	32857	32769	32555	32722	
276	0	4748	8131	4614	6106	3558	0	32738	32623	32903	32597	32763	32791	32582	32759	
277	0	4815	8120	4624	6153	3559	0	32676	32565	32847	32599	32591	32756	32675	32655	
278	0	4782	8184	4612	6155	3560	0	32741	32710	32903	32703	32621	32694	32685	32647	
279	0	4780	8161	4641	6128	3561	0	32780	32429	32943	32742	32743	32725	32671	32723	
280	0	4803	8172	4602	6178	3562	0	32682	32647	32980	32709	32785	32746	32647	32765	
281	0	4788	8174	4613	6137	3563	0	32692	32967	32927	32735	32758	32693	32572	32750	
282	0	4800	8182	4584	6118	3564	0	32729	32959	32775	32847	32817	32682	32599	32747	
283	0	4814	8160	4589	6118	3565	0	32818	32675	32730	32919	32756	32679	32718	32645	
284	0	4793	8156	4651	6141	3566	0	32759	32767	32775	32867	32765	32726	32759	32553	
285	0	4784	8132	4596	6122	3567	0	32789	32941	32663	32827	32678	32757	32756	32555	
286	0	4818	8136	4609	6141	3568	0	32767	33015	32695	32851	32715	32725	32551	32551	
287	0	4742	8168	4642	6078	3569	0	32817	32647	32717	32718	32919	32791	32677	32527	
288	0	4799	8161	4630	6137	3570	0	32759	32663	32764	32607	32930	32821	32719	32571	
289	0	4775	8156	4610	6107	3571	0	32812	32739	32773	32727	32747	32792	32775	32639	
290	0	4809	8148	4570	6181	3572	0	32791	32525	32819	32670	32789	32647	32722	32703	
291	0	4782	8149	4602	6163	3573	0	32831	32591	32787	32687	32823	32687	32797	32711	
292	0	4766	8177	4592	6100	3574	0	32775	32647	32839	32695	32817	32645	32803	32771	
293	0	4786	8121	4608	6125	3575	0	32736	32611	32743	32691	32851	32775	32707	32735	
294	0	4772	8151	4590	6132	3576	0	32709	32543	32673	32643	32775	32671	32757	32831	
295	0	4766	8131	4602	6139	3577	0	32716	32623	32794	32647	32679	32711	32667	32615	
296	0	4778	8127	4555	6116	3578	0	32729	32811	32775	32751	32799	32722	32731	32551	
297	0	4750	8150	4566	6135	3579	0	32762	32970	32722	32698	32847	32647	32679	32559	
298	0	4804	8177	4642	6164	3580	0	32780	33021	32674	32703	32727	32722	32705	32531	
299	0	4764	8149	4577	6129	3581	0	32819	32673	32722	32703	32799	32669	32551	32647	
300	0	4760	8154	4617	6106	3582	0	32754	32581	32839	32690	32773	32694	32663	32717	
301	0	4797	8146	4602	6137	3583	0	32708	32695	32926	32638	32725	32831	32756	32692	
302	0	4773	8144	4586	6118	3584	0	32703	32797	32847	32543	32813	32759	32677	32709	
303	0	4737	8150	4588	6090	3585	0	32786	32764	32685	32566	32855	32802	32692	32695	
304	0	4790	8109	4607	6121	3586	0	32748	32682	32839	32685	32853	32831	32662	32735	
305	0	4811	8122	4596	6134	3587	0	32729	32708	32970	32751	32831	32605	32641	32701	
306	0	4771	8157	4616	6122	3588	0	32732	32687	32799	32751	32847	32623	32741	32703	
307	0	4781	8150	4558	6133	3589	0	32676	32723	32626	32703	32813	32639	32735	32711	
308	0	4784	8144	4596	6106	3590	0	32743	32927	32591	32715	32775	32695	32763	32699	
309	0	4707	8154	4658	6112	3591	0	32743	32927	32473	32631	32702	32591	32742	32647	
310	0	4787	8169	4568	6124	3592	0	32764	32962	32502	32647	32732	32423	32742	32693	
311	0	4790	8130	4607	6108	3593	0	32820	32741	32559	32719	32831	32669	32514	32631	
312	0	4803	8129	4606	6104	3594	0	32848	32967	32539	32693	32813	32991	32525	32631	
313	0	4772	8192	4588	6098	3595	0	32764	33047	32642	32892	32867	32813	32476	32725	
314	0	4749	8102	4623	6143	3596	0	32831	33055	32671	32807	32887	32911	32543	32748	
315	0	4781	8124	4568	6096	3597	0	32748	32690	32815	32751	32801	32866	32579	32735	
316	0	4789	8164	4532	6113	3598	0	32689	32719	32861	32677	32701	32767	32647	32703	
317	0	4768	8192	4619	6129	3599	0	32750	32767	32951	32725	32767	32647	32751	32734	
318	0	4739	8112	4574	6100	3600	0	32697	32691	32843	32839	32573	32763	32759	32690	
319	0	4778	8094	4609	6142	3601	0	32805	32743	32823	32751	32630	32911	32681	32695	
320	0	4813	8137	4580	6122	3602	0	32772	32698	32867	32812	32724	32829	32691	32732	
321	0	4756	8126	4534	6132	3603	0	32748	32767	32769	32815	32839	32743	32723	32677	
322	0	4777	8117	4625	6114	3604	0	32713	32518	32799	32966	32819	32596	32703	32647	
323	0	4744	8138	4614	6123	3605	0	32800	32732	32725	32951	32717	32627	32797	32711	
324	0	4746	8140	4595	6124	3606	0	32804	32775	32743	32925	32870	32725	32803	32719	
325	0	4775	8076	4617	6137	3607	0	32764	32671	32745	32725	32853	32647	32837	32695	
326	0	4802	8133	4599	6104	3608	0	32761	32515	32807	32725	32767	32659	32537	32678	
327	0	4798	8120	4632	6086	3609	0	32767	32695	32751	32901	32756	32710	32567	32671	
328	0	4768	8132	4600	6142	3610	0	32687	32935	32703	32959	32803	32635	32687	32711	
329	0	4796	8128	4620	6148	3611	0	32698	32747	32677	32767	32807	32699	32666	32668	
330	0	4782	8108	4643	6133	3612	0	32729	32739	32705	32591	32919	32742	32727	32647	
331	0	4797	8096	4554	6110	3613	0	32812	32847	32797	32301	32871	32802	32742	32690	
332	0	4771	8116	4597	6136	3614	0	32782	32935	32871	32279	32748	32803	32799	32631	
333	0	4716	8118	4593	6153	3615	0	32766	32655	32895	32535	32825	32621	32743	32663	
334	0	4766	8122	4618	6138	3616	0	32751	32807	32931	32495	32813	32564	32639	32628	
335	0	4813	8144	4575	6132	3617	0	32710	32725	32853	32615	32858	32535	32659	32661	
336	0	4773	8122	4536	6137	3618	0	32706	32827	32893	32615	32727	32737	32711	32645	
337	0	4752	8117	4599	6138	3619	0	32714	32740	32859	32633	32543	32758	32754	32575	
338	0	4738	8093	4616	6145	3620	0	32724	32661	32699	32767	32539	32655	32759	32687	
339	0	4761	8124	4656	6139	3621	0	32810	32524	32623	32750	32625	32738	32742	32719	
340	0	4776	8121	4592	6082	3622	0	32773	32669	32775	32719	32775	32726	32731	32635	
341	0	4712	8106	4578	6148	3623	0	32735	32751	32671	32599	32839	32628	32679	32711	
342	0	4745	8138	4612	6132	3624	0	32759	32470	32647	32769	33141	32548	32703	32638	
343	0	4772	8110	4602	6152	3625	0	32762	32767	32627	32819	32939	32742	32719	32644	
344	0	4753	8134	4599	6107	3626	0	32727	32950	32675	32797	32775	32756	32655	32679	
345	0	4773	8100	4592	6126	3627	0	32745	32987	32743	32924	32789	32987	32619	32708	
346	0	4788	8100	4610	6157	3628	0	32751	32873	32843	32858	32763	32895	32506	32601	
347	0	4824	8110	4593	6150	3629	0	32751	32762	32775	32775	32871	32869	32549	32623	
348	0	4771	8122	4641	6107	3630	0	32796	32695	32729	32715	32855	32666	32621	32710	
349	0	4793	8166	4542	6145	3631	0	32834	32751	32709	32647	32788	32719	32729	32705	
350	0	4795	8128	4606	6147	3632	0	32862	32709	32671	32551	32775	32615	32663	32678	
351	0	4764	8140	4648	6149	3633	0	32848	32749	32698	32647	32799	32607	32683	32647	
352	0	4766	8142	4610	6139	3634	0	32801	32658	32587	32629	32755	32556	32626	32671	
353	0	4781	8108	4629	6105	3635	0	32765	32549	32663	32708	32991	32503	32679	32678	
354	0	4740	8133	4596	6087	3636	0	32722	32615	32660	32738	32875	32531	32527	32708	
355	0	4831	8120	4627	6120	3637	0	32708	32767	32887	32665	32699	32679	32517	32725	
356	0	4764	8099	4614	6146	3638	0	32698	32855	32949	32647	32612	32751	32606	32812	
357	0	4739	8117	4594	6149	3639	0	32806	32719	32943	32605	32733	32903	32658	32839	
358	0	4721	8150	4586	6172	3640	0	32840	32695	32974	32587	32767	32734	32623	32639	
359	0	4779	8164	4614	6062	3641	0	32807	32871	32845	32647	32703	32713	32695	32583	
360	0	4782	8104	4613	6100	3642	0	32685	32854	32773	32613	32695	32718	32718	32631	
361	0	4750	8160	4607	6105	3643	0	32692	32855	32643	32637	32733	32692	32479	32708	
362	0	4794	8060	4637	6108	3644	0	32718	32758	32557	32743	32719	32718	32558	32739	
363	0	4784	8125	4618	6142	3645	0	32741	32927	32676	32727	32879	32553	32709	32694	
364	0	4760	8113	4618	6142	3646	0	32692	32815	32730	32725	32838	32543	32626	32627	
365	0	4796	8152	4586	6138	3647	0	32709	32817	32775	32740	32861	32535	32636	32669	
366	0	4772	8130	4619	6180	3648	0	32710	32868	32793	32721	32799	32519	32749	32683	
367	0	4764	8080	4561	6142	3649	0	32742	32603	32817	32691	32713	32756	32798	32743	
368	0	4804	8112	4601	6112	3650	0	32738	32774	32775	32595	32647	32791	32757	32692	
369	0	4784	8110	4581	6116	3651	0	32727	32714	32879	32463	32759	32903	32703	32803	
370	0	4762	8097	4591	6140	3652	0	32717	32655	32783	32559	32847	33051	32639	32707	
371	0	4773	8056	4602	6121	3653	0	32733	32671	32739	32669	32763	32843	32661	32669	
372	0	4815	8130	4562	6174	3654	0	32734	32666	32695	32767	32679	32617	32626	32765	
373	0	4778	8149	4572	6153	3655	0	32796	32807	32727	32962	32731	32791	32677	32775	
374	0	4770	8123	4632	6130	3656	0	32829	32634	32599	32972	32757	32867	32723	32787	
375	0	4768	8100	4581	6101	3657	0	32760	32879	32590	32885	32733	32775	32695	32749	
376	0	4777	8104	4621	6132	3658	0	32791	32956	32647	32901	32763	32883	32729	32724	
377	0	4768	8099	4600	6184	3659	0	32775	32691	32703	32859	32775	32775	32743	32615	
378	0	4752	8108	4593	6124	3660	0	32773	32735	32726	32711	32812	32691	32743	32671	
379	0	4762	8129	4644	6176	3661	0	32761	32695	32775	32615	32718	32761	32687	32694	
380	0	4732	8096	4581	6134	3662	0	32756	32427	32687	32767	32719	32799	32576	32676	
381	0	4757	8092	4582	6174	3663	0	32752	32787	32795	32831	32711	32833	32665	32687	
382	0	4803	8088	4612	6150	3664	0	32734	33011	32878	32949	32685	32871	32647	32639	
383	0	4784	8097	4583	6128	3665	0	32762	32780	32807	32804	32858	32738	32692	32645	
384	0	4813	8102	4652	6114	3666	0	32756	32599	32799	32783	32895	32621	32743	32637	
385	0	4797	8092	4622	6122	3667	0	32703	32599	32807	32911	32851	32647	32703	32615	
386	0	4776	8125	4612	6140	3668	0	32804	32700	32775	32927	32845	32740	32628	32547	
387	0	4776	8093	4562	6147	3669	0	32799	32586	32736	32807	32783	32691	32631	32526	
388	0	4804	8072	4604	6141	3670	0	32750	32724	32743	32487	32839	32428	32623	32671	
389	0	4770	8110	4613	6173	3671	0	32771	32743	32825	32452	32863	32428	32591	32812	
390	0	4801	8137	4634	6108	3672	0	32781	32799	32751	32291	32719	32639	32679	32757	
391	0	4771	8132	4632	6119	3673	0	32829	32799	32803	32401	32771	32799	32751	32685	
392	0	4769	8105	4581	6118	3674	0	32797	32811	32859	32412	32735	32722	32647	32724	
393	0	4780	8100	4606	6132	3675	0	32880	32667	32730	32406	32767	32775	32663	32738	
394	0	4782	8112	4610	6160	3676	0	32820	32765	32621	32572	32845	32682	32708	32711	
395	0	4754	8060	4608	6208	3677	0	32856	32851	32631	32639	32903	32607	32719	32687	
396	0	4804	8089	4629	6137	3678	0	32735	32501	32749	32647	32799	32749	32727	32661	
397	0	4769	8128	4632	6146	3679	0	32728	32755	32783	32702	32807	32749	32735	32705	
398	0	4768	8068	4626	6150	3680	0	32731	32836	32751	32799	32775	32831	32741	32723	
399	0	4778	8077	4633	6157	3681	0	32768	32743	32709	32743	32734	32647	32815	32634	
400	0	4792	8108	4618	6104	3682	0	32804	32699	32623	32950	32813	32566	32762	32677	
401	0	4786	8086	4608	6174	3683	0	32834	32911	32603	32971	32836	32572	32527	32735	
402	0	4802	8080	4624	6163	3684	0	32828	32914	32631	32924	32815	32727	32494	32737	
403	0	4768	8105	4609	6120	3685	0	32735	32721	32678	32823	32951	32479	32541	32583	
404	0	4762	8117	4593	6097	3686	0	32677	32634	32722	32831	32823	32431	32551	32575	
405	0	4771	8146	4643	6166	3687	0	32667	32893	32757	32959	32611	32751	32527	32667	
406	0	4792	8063	4599	6161	3688	0	32596	32727	32771	32879	32668	33117	32551	32727	
407	0	4786	8082	4594	6180	3689	0	32731	32831	32723	32753	32375	33098	32567	32695	
408	0	4784	8122	4584	6144	3690	0	32802	32896	32519	32603	32475	32891	32556	32694	
409	0	4761	8117	4640	6133	3691	0	32793	32647	32601	32605	32797	32647	32685	32641	
410	0	4795	8050	4625	6146	3692	0	32809	32719	32716	32671	32873	32769	32647	32663	
411	0	4751	8046	4614	6140	3693	0	32846	32900	32839	32735	32807	32891	32630	32676	
412	0	4781	8069	4656	6165	3694	0	32834	32717	32773	32767	32525	32806	32591	32663	
413	0	4786	8107	4598	6132	3695	0	32842	32903	32807	32807	32583	32697	32589	32705	
414	0	4772	8089	4652	6161	3696	0	32774	32877	32812	32887	32725	32567	32663	32642	
415	0	4737	8117	4610	6171	3697	0	32799	32638	32775	32871	32743	32607	32710	32609	
416	0	4783	8068	4611	6188	3698	0	32745	32767	32851	32791	32717	32533	32637	32507	
417	0	4787	8029	4619	6189	3699	0	32745	32823	32835	32831	32835	32359	32647	32557	
418	0	4754	8130	4642	6194	3700	0	32778	32627	32862	32783	32885	32518	32671	32527	
419	0	4757	8100	4654	6137	3701	0	32790	32741	32873	32748	32765	32655	32495	32562	
420	0	4764	8092	4614	6152	3702	0	32742	32823	32875	32661	32862	33041	32621	32609	
421	0	4783	8086	4622	6189	3703	0	32679	32759	32879	32698	32982	32839	32643	32798	
422	0	4748	8068	4618	6163	3704	0	32678	32735	32851	32749	32991	32871	32623	32763	
423	0	4757	8074	4645	6153	3705	0	32767	32667	32804	32819	32843	33060	32767	32647	
424	0	4744	8077	4594	6184	3706	0	32804	32738	32709	32687	32615	32962	32687	32775	
425	0	4796	8050	4649	6138	3707	0	32772	32690	32775	32533	32621	32901	32711	32815	
426	0	4746	8033	4679	6124	3708	0	32778	32702	32775	32567	32723	32742	32687	32845	
427	0	4734	8051	4605	6128	3709	0	32732	32693	32834	32495	32797	32603	32690	32798	
428	0	4768	8070	4694	6193	3710	0	32734	32709	32785	32555	32764	32694	32685	32788	
429	0	4765	8106	4676	6167	3711	0	32841	32642	32758	32381	32790	32599	32683	32699	
430	0	4737	8033	4612	6142	3712	0	32754	32775	32787	32468	32815	32461	32694	32677	
431	0	4730	8074	4643	6136	3713	0	32751	32739	32775	32647	32765	32540	32703	32708	
432	0	4768	8054	4636	6169	3714	0	32721	32664	32647	32638	32751	32679	32647	32749	
433	0	4736	8088	4645	6166	3715	0	32765	32571	32610	32662	32787	32735	32605	32708	
434	0	4739	8011	4636	6164	3716	0	32727	32827	32668	32627	32845	32802	32635	32711	
435	0	4721	8068	4641	6181	3717	0	32727	32670	32711	32751	32915	32724	32639	32723	
436	0	4753	8065	4643	6154	3718	0	32711	32775	32775	32985	32854	32668	32647	32719	
437	0	4772	8098	4631	6144	3719	0	32769	32823	32735	32973	32877	32823	32647	32677	
438	0	4746	8002	4707	6162	3720	0	32690	32919	32669	32903	32839	32759	32742	32546	
439	0	4754	8038	4623	6185	3721	0	32755	33001	32735	32941	32805	32679	32734	32477	
440	0	4757	8070	4678	6161	3722	0	32742	32847	32813	32743	32838	32635	32885	32581	
441	0	4736	8010	4665	6158	3723	0	32742	32951	32807	32495	32789	32540	32775	32603	
442	0	4768	8086	4648	6138	3724	0	32826	32597	32738	32541	32819	32658	32766	32647	
443	0	4766	8085	4646	6118	3725	0	32795	32799	32751	32591	32739	32923	32775	32709	
444	0	4752	8083	4692	6178	3726	0	32785	32950	32827	32645	32631	32741	32791	32732	
445	0	4785	8079	4637	6137	3727	0	32820	32807	32731	32619	32551	32811	32775	32791	
446	0	4709	8096	4631	6145	3728	0	32809	32903	32692	32583	32647	32830	32775	32758	
447	0	4763	8057	4643	6160	3729	0	32852	32933	32759	32564	32749	32716	32753	32713	
448	0	4800	8034	4669	6182	3730	0	32879	33039	32751	32629	32735	32708	32812	32751	
449	0	4740	8040	4632	6180	3731	0	32763	32661	32694	32786	32827	32623	32839	32783	
450	0	4753	8024	4689	6199	3732	0	32748	32743	32671	32665	32899	32635	32671	32711	
451	0	4740	8015	4695	6171	3733	0	32691	32831	32676	32775	32839	32603	32783	32711	
452	0	4754	8068	4628	6169	3734	0	32702	32621	32837	32823	32756	32615	32723	32740	
453	0	4718	8074	4671	6133	3735	0	32675	32767	32903	32783	32810	32463	32743	32719	
454	0	4798	8059	4707	6228	3736	0	32762	32755	32885	32832	32889	32471	32603	32642	
455	0	4777	8062	4637	6182	3737	0	32828	32802	32787	32719	32791	32515	32543	32655	
456	0	4725	8033	4672	6160	3738	0	32855	32567	32711	32815	32711	32639	32519	32612	
457	0	4748	8104	4677	6176	3739	0	32860	32689	32631	32871	32679	32694	32529	32637	
458	0	4749	8068	4654	6171	3740	0	32937	32757	32550	32877	32724	32615	32607	32677	
459	0	4809	8037	4708	6156	3741	0	32863	32756	32621	32829	32805	32617	32642	32707	
460	0	4762	8021	4658	6180	3742	0	32903	32509	32731	32735	32807	32976	32685	32749	
461	0	4769	8078	4654	6146	3743	0	32791	32689	32767	32580	32815	32895	32641	32837	
462	0	4744	8072	4668	6193	3744	0	32684	32799	32671	32542	32805	32789	32577	32759	
463	0	4736	8065	4675	6152	3745	0	32663	32679	32671	32791	32797	33075	32630	32687	
464	0	4720	8041	4706	6182	3746	0	32720	32869	32807	32835	32751	32971	32695	32721	
465	0	4766	8072	4655	6144	3747	0	32754	32843	32791	32759	32784	32849	32703	32759	
466	0	4814	8041	4672	6155	3748	0	32711	32735	32763	32775	32757	32847	32698	32638	
467	0	4746	8066	4645	6169	3749	0	32783	32772	32790	32707	32806	32876	32782	32687	
468	0	4768	7989	4626	6173	3750	0	32671	32755	32806	32799	32815	32575	32795	32623	
469	0	4802	8044	4736	6195	3751	0	32896	32823	32915	32681	32917	32451	32807	32723	
470	0	4774	8092	4698	6198	3752	0	32826	32605	32967	32695	32782	32413	32845	32730	
471	0	4786	8066	4647	6166	3753	0	32846	32851	32967	32583	32709	32815	32903	32639	
472	0	4778	7985	4696	6177	3754	0	32756	32931	32930	32543	32647	32902	32911	32695	
473	0	4789	8052	4634	6199	3755	0	32806	32598	32876	32631	32647	32799	32711	32765	
474	0	4782	7997	4683	6184	3756	0	32837	32851	32823	32738	32695	32827	32647	32767	
475	0	4796	8020	4703	6165	3757	0	32890	32957	32855	32828	32715	32802	32423	32819	
476	0	4817	8024	4650	6154	3758	0	32935	33055	32799	32775	32773	32734	32364	32761	
477	0	4739	8083	4659	6198	3759	0	32976	32852	32839	32823	32857	32683	32434	32775	
478	0	4758	8008	4684	6205	3760	0	32916	32947	32765	32913	32948	32631	32351	32787	
479	0	4733	8061	4669	6161	3761	0	32895	32874	32755	32715	32943	32583	32325	32870	
480	0	4753	8060	4661	6162	3762	0	32766	32579	32725	32725	32927	32467	32502	32823	
481	0	4784	8025	4683	6224	3763	0	32782	32500	32727	32717	32943	32527	32551	32767	
482	0	4781	8068	4639	6222	3764	0	32831	32586	32691	32667	32988	32672	32455	32741	
483	0	4744	8065	4701	6172	3765	0	32775	32673	32567	32579	32925	32738	32511	32801	
484	0	4784	8036	4665	6213	3766	0	32727	32578	32450	32452	32826	32759	32627	32741	
485	0	4759	8104	4714	6211	3767	0	32673	32663	32426	32575	32720	32763	32647	32711	
486	0	4758	8030	4688	6205	3768	0	32607	32647	32403	32507	32902	32589	32479	32639	
487	0	4786	7986	4669	6221	3769	0	32537	32639	32501	32398	32949	32630	32530	32563	
488	0	4736	8017	4645	6212	3770	0	32543	32273	32617	32373	32923	32775	32453	32514	
489	0	4789	8036	4694	6175	3771	0	32527	32314	32683	32401	32901	32715	32445	32486	
490	0	4756	8036	4707	6202	3772	0	32518	32429	32647	32415	32895	32692	32475	32565	
491	0	4755	8006	4691	6172	3773	0	32463	32342	32613	32505	32887	32715	32489	32647	
492	0	4776	8002	4696	6237	3774	0	32329	32459	32473	32487	32883	32684	32431	32666	
493	0	4754	8011	4698	6135	3775	0	32300	32415	32515	32496	32894	32669	32453	32621	
494	0	4793	8004	4669	6165	3776	0	32188	32039	32449	32413	32925	32711	32391	32603	
495	0	4736	8031	4684	6175	3777	0	32179	31842	32511	32577	32855	32829	32413	32631	
496	0	4738	8028	4693	6209	3778	0	32193	32052	32503	32548	32845	32763	32466	32637	
497	0	4738	8063	4658	6196	3779	0	32175	32212	32575	32683	32735	32791	32509	32611	
498	0	4749	8048	4690	6160	3780	0	32171	32159	32610	32721	32642	32849	32692	32610	
499	0	4735	8038	4694	6207	3781	0	32187	32085	32605	32717	32639	32935	32791	32487	
500	0	4744	8030	4684	6221	3782	0	32142	32057	32667	32683	32594	32903	32827	32442	
501	0	4742	8040	4704	6203	3783	0	32222	32391	32679	32925	32607	32887	32903	32493	
502	0	4710	8010	4733	6174	3784	0	32325	32685	32749	33052	32623	32827	32982	32563	
503	0	4782	8015	4672	6180	3785	0	32563	32726	32813	33053	32599	32785	33095	32541	
504	0	4761	7967	4752	6178	3786	0	32759	33143	32995	33045	32629	32775	33079	32597	
505	0	4764	7996	4703	6177	3787	0	32870	33271	33171	33099	32493	32613	33081	32599	
506	0	4800	8006	4650	6180	3788	0	32967	33412	33234	33187	32324	32662	33254	32519	
507	0	4784	8032	4706	6209	3789	0	33081	33351	33296	33069	32347	32687	33388	32555	
508	0	4770	7975	4679	6175	3790	0	32980	33399	33422	33059	32283	32527	33411	32535	
509	0	4768	7987	4656	6159	3791	0	32864	33453	33549	33031	32229	32871	33439	32463	
510	0	4803	8066	4659	6198	3792	0	32954	33531	33398	33095	32373	33063	33477	32565	
511	0	4765	7998	4654	6211	3793	0	33111	33257	33284	33167	32412	33023	33203	32437	
512	0	4771	8031	4681	6213	3794	0	33275	33561	33197	33071	32492	32713	33031	32477	
513	0	4762	8024	4624	6183	3795	0	33327	33426	33058	32903	32695	32613	33012	32487	
514	0	4830	8052	4665	6197	3796	0	33481	33511	32966	32788	32948	32581	32957	32547	
515	0	4760	7986	4673	6228	3797	0	33668	33391	33103	32717	32925	32427	32658	32625	
516	0	4752	8000	4672	6255	3798	0	33657	33491	33101	32749	32857	32846	32567	32863	
517	0	4770	8040	4663	6210	3799	0	33644	33511	32991	32790	32919	33013	32503	32916	
518	0	4731	8036	4673	6188	3800	0	33460	33637	32755	32839	32999	32562	32441	33075	
519	0	4804	8020	4690	6186	3801	0	33494	33381	32709	32855	33011	32850	32428	33047	
520	0	4776	7996	4674	6208	3802	0	33431	33362	32594	32751	33069	32811	32473	33047	
521	0	4798	8052	4659	6230	3803	0	33375	33166	32541	32644	32980	32692	32291	33145	
522	0	4764	8009	4698	6180	3804	0	33342	33191	32511	32813	32885	32765	32183	33049	
523	0	4752	8022	4676	6200	3805	0	33270	33082	32516	32775	32957	32788	32227	33031	
524	0	4768	8037	4672	6212	3806	0	33126	32735	32539	32669	32997	32723	32255	33045	
525	0	4776	8020	4637	6221	3807	0	33044	32727	32631	32499	32911	32590	32326	32927	
526	0	4744	8002	4662	6212	3808	0	32886	32775	32647	32479	32927	32485	32435	32959	
527	0	4791	8017	4664	6232	3809	0	32764	32647	32693	32501	32924	32578	32527	32926	
528	0	4786	8008	4647	6182	3810	0	32684	32551	32638	32639	33029	32679	32591	32815	
529	0	4773	7990	4722	6272	3811	0	32631	32567	32679	32629	32975	32601	32570	32773	
530	0	4761	8057	4662	6257	3812	0	32679	32715	32647	32647	32867	32603	32546	32724	
531	0	4777	8034	4701	6210	3813	0	32647	32555	32497	32655	32911	32671	32601	32685	
532	0	4760	8002	4661	6210	3814	0	32548	32437	32527	32679	32861	32692	32663	32671	
533	0	4760	8002	4696	6181	3815	0	32418	32578	32589	32678	32890	32767	32717	32677	
534	0	4758	8054	4690	6192	3816	0	32461	32607	32757	32615	32804	32630	32823	32659	
535	0	4740	8021	4669	6190	3817	0	32495	32615	32807	32703	32839	32643	32554	32609	
536	0	4803	8023	4644	6222	3818	0	32524	32607	32885	32646	32838	32703	32573	32626	
537	0	4756	8055	4678	6210	3819	0	32484	32423	32707	32687	32851	32727	32487	32655	
538	0	4754	8069	4640	6182	3820	0	32580	32607	32731	32727	32775	32663	32524	32667	
539	0	4751	8006	4673	6228	3821	0	32551	32584	32751	32589	32751	32701	32455	32663	
540	0	4772	8015	4665	6204	3822	0	32493	32455	32722	32605	32743	32821	32545	32629	
541	0	4811	8056	4688	6208	3823	0	32635	32359	32737	32679	32716	32671	32511	32599	
542	0	4760	7983	4637	6178	3824	0	32582	32543	32716	32727	32812	32629	32554	32735	
543	0	4761	7984	4678	6249	3825	0	32575	32669	32748	32854	32871	32642	32535	32738	
544	0	4792	8016	4652	6225	3826	0	32682	32701	32775	32790	32850	32695	32647	32690	
545	0	4792	8011	4692	6190	3827	0	32732	32589	32711	32647	32829	32710	32583	32647	
546	0	4756	8010	4672	6200	3828	0	32694	32749	32749	32705	32807	32758	32530	32659	
547	0	4779	7995	4672	6236	3829	0	32662	32899	32746	32791	32743	32694	32571	32811	
548	0	4805	8025	4644	6183	3830	0	32746	32851	32799	32647	32749	32667	32667	32705	
549	0	4794	8045	4662	6198	3831	0	32711	32533	32723	32607	32596	32570	32743	32683	
550	0	4798	7976	4666	6208	3832	0	32694	32623	32691	32275	32705	32675	32763	32659	
551	0	4753	8034	4662	6216	3833	0	32709	32719	32669	32423	32765	32775	32715	32686	
552	0	4767	7992	4646	6190	3834	0	32727	32607	32679	32611	32713	32730	32727	32706	
553	0	4778	8004	4629	6177	3835	0	32671	32514	32631	32604	32751	32804	32719	32539	
554	0	4782	8024	4695	6184	3836	0	32702	32745	32662	32643	32890	32757	32743	32551	
555	0	4781	8012	4696	6203	3837	0	32753	32834	32685	32831	32857	32695	32783	32551	
556	0	4759	8005	4639	6210	3838	0	32692	32551	32788	32815	32791	32797	32739	32731	
557	0	4827	7964	4668	6193	3839	0	32703	32765	32963	32879	32693	32975	32695	32812	
558	0	4782	8016	4684	6228	3840	0	32759	32804	32962	32775	32764	32775	32775	32723	
559	0	4766	7964	4644	6198	3841	0	32719	32595	32895	32799	32647	32659	32815	32727	
560	0	4764	7994	4642	6239	3842	0	32715	32695	32749	32662	32735	32541	32732	32711	
561	0	4794	8006	4668	6232	3843	0	32703	32775	32711	32675	32935	32603	32821	32715	
562	0	4786	8026	4657	6206	3844	0	32810	32586	32543	32887	32791	32693	32783	32734	
563	0	4804	7987	4650	6194	3845	0	32805	32775	32439	32869	32742	32953	32617	32759	
564	0	4755	8005	4622	6206	3846	0	32804	32829	32519	32803	32788	32719	32577	32749	
565	0	4797	8064	4671	6234	3847	0	32799	32519	32579	32709	32807	32679	32620	32703	
566	0	4777	8011	4644	6228	3848	0	32772	32710	32659	32807	32751	32559	32615	32831	
567	0	4776	8059	4699	6244	3849	0	32790	32715	32727	32807	32742	32669	32543	32769	
568	0	4795	8022	4650	6198	3850	0	32743	32691	32903	32799	32843	32839	32732	32678	
569	0	4834	8085	4656	6189	3851	0	32775	32795	32893	32630	32845	32711	32663	32673	
570	0	4800	7989	4616	6232	3852	0	32816	32817	32738	32540	32775	32765	32582	32647	
571	0	4741	8043	4611	6210	3853	0	32808	32599	32623	32561	32786	32847	32543	32661	
572	0	4810	8013	4632	6230	3854	0	32768	32694	32688	32479	32775	32775	32519	32661	
573	0	4753	7985	4624	6204	3855	0	32745	32772	32892	32527	32659	32678	32567	32743	
574	0	4794	8046	4708	6195	3856	0	32689	32507	32856	32473	32725	32883	32605	32783	
575	0	4741	8019	4682	6212	3857	0	32727	32759	32831	32604	32791	32775	32679	32751	
576	0	4800	8009	4664	6201	3858	0	32679	32799	32791	32771	32783	32642	32532	32723	
577	0	4761	8026	4691	6191	3859	0	32715	32887	32749	32839	32827	32685	32501	32751	
578	0	4752	8011	4594	6232	3860	0	32728	32717	32758	32855	32819	32885	32511	32717	
579	0	4749	8044	4617	6188	3861	0	32779	32919	32709	32759	32701	32739	32634	32647	
580	0	4802	8000	4658	6200	3862	0	32775	32853	32645	32831	32723	32679	32734	32698	
581	0	4751	8000	4664	6244	3863	0	32692	32783	32775	32797	32811	32655	32739	32707	
582	0	4765	8000	4674	6220	3864	0	32751	32663	32639	32767	32739	32605	32773	32732	
583	0	4782	8010	4586	6222	3865	0	32719	32852	32727	32745	32769	32647	32793	32706	
584	0	4738	7966	4664	6276	3866	0	32685	32961	32783	32723	32797	32692	32789	32633	
585	0	4828	8008	4634	6234	3867	0	32687	32565	32839	32627	32834	32765	32748	32711	
586	0	4828	8040	4640	6231	3868	0	32727	32757	32775	32787	32658	32767	32679	32565	
587	0	4803	8005	4650	6234	3869	0	32647	32731	32831	32681	32655	32786	32599	32603	
588	0	4768	7977	4667	6216	3870	0	32708	32583	32821	32627	32725	32690	32757	32642	
589	0	4797	8005	4642	6208	3871	0	32765	32463	32911	32711	32726	32756	32795	32583	
590	0	4792	8032	4602	6266	3872	0	32726	32586	32823	32643	32885	32678	32868	32548	
591	0	4778	7992	4638	6242	3873	0	32668	32775	32797	32707	32903	32607	32862	32617	
592	0	4769	8004	4618	6244	3874	0	32727	32637	32819	32677	32975	32615	32782	32709	
593	0	4747	7964	4649	6234	3875	0	32826	32805	32751	32821	32917	32565	32732	32725	
594	0	4797	7994	4604	6206	3876	0	32757	32987	32766	32859	32634	32661	32743	32679	
595	0	4768	8009	4624	6243	3877	0	32770	32731	32775	32846	32679	32703	32599	32711	
596	0	4749	8050	4615	6212	3878	0	32827	32885	32799	32971	32729	32756	32524	32741	
597	0	4810	7989	4617	6204	3879	0	32877	32847	32673	33035	32866	32703	32567	32748	
598	0	4787	8045	4674	6211	3880	0	32871	32959	32535	32871	32725	32725	32589	32627	
599	0	4793	8038	4656	6219	3881	0	32893	32717	32515	32557	32798	32698	32714	32635	
600	0	4818	8016	4685	6222	3882	0	32765	32677	32599	32629	32708	32717	32733	32682	
601	0	4850	8012	4620	6232	3883	0	32746	32766	32751	32703	32539	32839	32705	32668	
602	0	4773	7993	4633	6197	3884	0	32748	32762	32785	32823	32644	32759	32657	32725	
603	0	4800	8000	4617	6237	3885	0	32815	32547	32903	32879	32807	32743	32596	32743	
604	0	4804	8031	4610	6227	3886	0	32743	32815	32877	32823	32981	32718	32615	32612	
605	0	4785	8003	4618	6248	3887	0	32742	32806	32865	32711	32871	32671	32643	32605	
606	0	4823	8016	4611	6197	3888	0	32783	32973	32827	32519	32807	32755	32689	32591	
607	0	4776	7997	4622	6219	3889	0	32797	32832	32807	32543	32791	32761	32718	32677	
608	0	4802	8026	4633	6235	3890	0	32709	32861	32775	32553	32871	32646	32687	32619	
609	0	4756	8034	4629	6237	3891	0	32705	32787	32867	32597	32805	32658	32527	32693	
610	0	4806	7964	4671	6208	3892	0	32756	32847	32775	32711	32715	32835	32647	32647	
611	0	4770	7992	4620	6263	3893	0	32826	32734	32692	32659	32647	32739	32719	32661	
612	0	4790	7996	4638	6204	3894	0	32775	32679	32701	32583	32671	32740	32703	32751	
613	0	4803	8000	4669	6240	3895	0	32724	32567	32711	32647	32693	32735	32685	32703	
614	0	4861	7979	4605	6250	3896	0	32681	32487	32683	32655	32762	32754	32709	32655	
615	0	4810	8021	4676	6256	3897	0	32729	32687	32579	32638	32882	32708	32615	32685	
616	0	4786	7998	4610	6280	3898	0	32671	32751	32623	32659	32823	32917	32770	32671	
617	0	4784	7996	4572	6242	3899	0	32717	32671	32814	32607	32899	32724	32759	32738	
618	0	4824	7984	4642	6236	3900	0	32727	32731	32851	32703	32839	32703	32722	32678	
619	0	4778	8010	4618	6242	3901	0	32711	32743	32846	32743	32804	32711	32687	32613	
620	0	4754	7993	4624	6210	3902	0	32733	32583	32835	32597	32687	32797	32622	32671	
621	0	4804	7960	4639	6216	3903	0	32806	32791	32742	32791	32823	32725	32583	32756	
622	0	4821	7989	4645	6215	3904	0	32762	32931	32685	32783	32847	32671	32633	32669	
623	0	4802	8013	4626	6225	3905	0	32797	32663	32609	32830	32894	32645	32719	32631	
624	0	4822	7973	4634	6248	3906	0	32739	32902	32749	32819	32867	32647	32587	32647	
625	0	4827	7963	4620	6251	3907	0	32788	32789	32775	32767	32903	32647	32677	32687	
626	0	4811	8005	4675	6230	3908	0	32773	32935	32620	32815	32795	32775	32793	32687	
627	0	4809	8017	4624	6225	3909	0	32838	32623	32637	32797	32767	32669	32815	32711	
628	0	4815	7982	4589	6262	3910	0	32884	32793	32698	32831	32647	32620	32871	32711	
629	0	4795	7993	4634	6222	3911	0	32869	32871	32810	32607	32702	32614	32915	32731	
630	0	4798	8016	4603	6193	3912	0	32765	32628	32775	32668	32773	32732	32957	32669	
631	0	4773	8000	4532	6226	3913	0	32759	32749	32715	32503	32847	32602	32775	32647	
632	0	4785	7972	4629	6201	3914	0	32775	32775	32767	32514	32862	32671	32679	32647	
633	0	4809	7932	4603	6219	3915	0	32709	32788	32711	32527	32829	32621	32807	32647	
634	0	4813	8042	4615	6170	3916	0	32737	32591	32617	32713	32820	32591	32735	32724	
635	0	4793	7972	4602	6217	3917	0	32745	32790	32629	32751	32709	32599	32675	32719	
636	0	4738	7980	4630	6265	3918	0	32735	32892	32699	32820	32732	32823	32677	32711	
637	0	4800	7950	4649	6225	3919	0	32783	33083	32797	32819	32711	32959	32695	32675	
638	0	4805	7993	4611	6253	3920	0	32709	32743	32740	32767	32863	32953	32435	32708	
639	0	4773	7990	4626	6229	3921	0	32743	32867	32748	32647	32891	33023	32507	32794	
640	0	4806	7967	4657	6228	3922	0	32826	32810	32725	32719	32759	32635	32535	32727	
641	0	4790	7992	4560	6250	3923	0	32774	32718	32797	32695	32809	32425	32501	32775	
642	0	4812	8032	4565	6253	3924	0	32761	32425	32911	32637	32917	32623	32543	32759	
643	0	4794	7988	4624	6226	3925	0	32735	32551	32903	32729	32715	32855	32666	32659	
644	0	4810	8017	4635	6233	3926	0	32719	32735	32927	32733	32647	32916	32669	32643	
645	0	4826	8024	4632	6255	3927	0	32703	32807	32859	32759	32671	32703	32471	32690	
646	0	4814	7960	4613	6230	3928	0	32700	32820	32799	32723	32687	32860	32643	32749	
647	0	4754	8004	4606	6255	3929	0	32735	32919	32753	32676	32711	32583	32708	32731	
648	0	4834	7977	4587	6220	3930	0	32785	32818	32831	32724	32807	32623	32647	32679	
649	0	4822	7954	4629	6216	3931	0	32772	32859	32874	32775	32815	32687	32751	32687	
650	0	4811	7986	4604	6228	3932	0	32810	32543	32791	32619	32782	32754	32588	32631	
651	0	4816	8014	4617	6259	3933	0	32740	32607	32855	32679	32743	32727	32636	32691	
652	0	4795	7980	4603	6189	3934	0	32723	32647	32865	32863	32702	32630	32694	32631	
653	0	4854	7976	4646	6259	3935	0	32821	32721	32731	32839	32628	32654	32639	32598	
654	0	4770	8004	4565	6176	3936	0	32829	32877	32655	32848	32758	32789	32799	32539	
655	0	4843	8021	4667	6240	3937	0	32804	32827	32703	32917	32749	33027	32615	32635	
656	0	4760	7994	4587	6244	3938	0	32783	32751	32789	32735	32807	32861	32789	32568	
657	0	4814	7997	4624	6247	3939	0	32804	32868	32747	32629	32807	32693	32807	32647	
658	0	4772	8003	4628	6258	3940	0	32773	32883	32829	32631	32831	32647	32747	32595	
659	0	4806	8018	4535	6259	3941	0	32792	32959	32839	32775	32748	32580	32773	32647	
660	0	4804	7980	4636	6213	3942	0	32694	32641	32743	32813	32741	32609	32818	32738	
661	0	4824	8024	4601	6227	3943	0	32751	32757	32767	32751	32742	32660	32717	32671	
662	0	4789	7982	4570	6251	3944	0	32724	32743	32668	32775	32751	32551	32594	32683	
663	0	4810	7995	4585	6234	3945	0	32710	32859	32687	32765	33031	32499	32615	32685	
664	0	4782	8004	4643	6232	3946	0	32801	32815	32737	32775	33015	32573	32571	32799	
665	0	4853	7971	4612	6243	3947	0	32782	32615	32839	32569	32852	32871	32705	32799	
666	0	4850	7966	4623	6264	3948	0	32813	32725	32877	32759	32647	32964	32759	32687	
667	0	4776	7954	4640	6249	3949	0	32775	32767	32775	32709	32848	32811	32571	32683	
668	0	4803	7970	4612	6292	3950	0	32791	32789	32701	32727	32868	32694	32587	32749	
669	0	4761	8041	4640	6254	3951	0	32769	32709	32725	32540	32803	32727	32493	32742	
670	0	4820	7951	4627	6260	3952	0	32713	32731	32655	32531	32716	32713	32571	32716	
671	0	4825	7997	4618	6256	3953	0	32726	32813	32573	32578	32771	32788	32685	32690	
672	0	4748	7984	4613	6249	3954	0	32809	32751	32655	32631	32855	32955	32631	32709	
673	0	4789	7988	4621	6253	3955	0	32729	32852	32743	32727	32847	32860	32667	32679	
674	0	4867	7978	4649	6239	3956	0	32782	32837	32695	32839	32757	32807	32639	32707	
675	0	4778	7975	4606	6260	3957	0	32781	32783	32687	32767	32783	32602	32591	32739	
676	0	4804	7972	4634	6232	3958	0	32758	32831	32751	32803	32708	32662	32727	32623	
677	0	4770	8021	4638	6248	3959	0	32759	32571	32829	32703	32815	32709	32705	32572	
678	0	4864	7984	4588	6266	3960	0	32669	32703	32847	32519	32877	32571	32635	32621	
679	0	4755	7993	4664	6283	3961	0	32729	32783	32691	32621	32879	32615	32739	32559	
680	0	4797	7995	4602	6262	3962	0	32781	32966	32744	32647	32807	32547	32575	32614	
681	0	4772	7921	4573	6235	3963	0	32775	32803	32857	32724	32770	32719	32643	32607	
682	0	4820	7995	4593	6237	3964	0	32773	32551	32749	32811	32725	32815	32718	32742	
683	0	4774	7972	4603	6275	3965	0	32749	32726	32679	32733	32748	33004	32711	32754	
684	0	4752	7960	4616	6276	3966	0	32749	32812	32871	32753	32647	32911	32735	32713	
685	0	4784	7997	4612	6240	3967	0	32753	32772	32815	32838	32647	32653	32583	32695	
686	0	4813	7959	4585	6266	3968	0	32783	32763	32707	32899	32723	32580	32597	32599	
687	0	4833	7936	4562	6255	3969	0	32825	32887	32643	32859	32714	32591	32561	32549	
688	0	4808	8016	4562	6262	3970	0	32821	32935	32679	32791	32763	32603	32558	32535	
689	0	4846	7980	4614	6271	3971	0	32751	32591	32685	32517	32812	32627	32638	32570	
690	0	4824	7937	4631	6205	3972	0	32775	32463	32591	32543	32899	32703	32715	32677	
691	0	4832	7931	4593	6244	3973	0	32742	32545	32692	32647	32759	32673	32668	32749	
692	0	4830	7974	4554	6294	3974	0	32714	32679	32849	32700	32807	32639	32727	32727	
693	0	4788	7952	4557	6242	3975	0	32772	32923	32741	32765	32743	32639	32841	32763	
694	0	4800	7979	4624	6245	3976	0	32774	33020	32708	32782	32710	32788	32627	32719	
695	0	4819	7948	4581	6288	3977	0	32714	32783	32691	32797	32679	32705	32596	32723	
696	0	4796	7972	4649	6246	3978	0	32695	32755	32833	32679	32807	32687	32678	32622	
697	0	4836	7968	4560	6288	3979	0	32724	32773	32927	32623	32967	32611	32475	32749	
698	0	4797	7942	4598	6273	3980	0	32765	32583	33051	32707	32790	32655	32466	32687	
699	0	4839	7998	4576	6267	3981	0	32696	32721	33027	32791	32679	32587	32471	32663	
700	0	4830	7946	4583	6264	3982	0	32722	32623	32978	32893	32897	32647	32507	32721	
701	0	4857	7944	4605	6262	3983	0	32805	32644	32785	33005	32749	32729	32582	32687	
702	0	4770	7954	4605	6319	3984	0	32844	32700	32633	33039	32639	32711	32631	32711	
703	0	4797	7941	4568	6255	3985	0	32766	32997	32535	33076	32539	32791	32775	32699	
704	0	4842	7925	4594	6243	3986	0	32804	33076	32599	32890	32647	32379	32708	32681	
705	0	4840	7947	4582	6257	3987	0	32839	33154	32597	32725	32679	32749	32758	32663	
706	0	4792	7950	4610	6252	3988	0	32807	32903	32580	32611	32615	33029	32795	32679	
707	0	4800	7949	4598	6272	3989	0	32765	32679	32695	32653	32615	32895	32836	32773	
708	0	4826	7966	4584	6301	3990	0	32740	32645	32719	32627	33060	32647	32637	32767	
709	0	4801	7981	4568	6262	3991	0	32629	32500	32827	32455	33151	32655	32563	32716	
710	0	4806	7910	4585	6255	3992	0	32653	32639	32801	32430	32959	32687	32461	32743	
711	0	4822	7906	4632	6261	3993	0	32672	32627	32922	32445	32879	32639	32673	32703	
712	0	4813	7956	4561	6299	3994	0	32663	32415	32945	32628	32983	32735	32589	32739	
713	0	4875	7922	4673	6294	3995	0	32717	32549	32902	32733	32703	32775	32613	32749	
714	0	4829	7932	4576	6289	3996	0	32827	32887	32863	32791	32679	32815	32507	32735	
715	0	4814	7914	4605	6263	3997	0	32786	33050	32915	32873	32691	32866	32535	32756	
716	0	4872	7910	4602	6266	3998	0	32767	32915	32852	32878	32675	32839	32595	32867	
717	0	4857	7978	4613	6302	3999	0	32775	32623	32711	32709	32834	32727	32527	32763	
718	0	4788	7926	4556	6288	4000	0	32839	32831	32579	32615	32860	32642	32647	32691	
719	0	4828	7941	4546	6258	4001	0	32814	32771	32575	32526	32883	32638	32615	32703	
720	0	4822	7981	4600	6266	4002	0	32765	32511	32591	32633	32799	32610	32597	32741	
721	0	4828	7940	4583	6274	4003	0	32735	32561	32740	32525	32839	32707	32655	32727	
722	0	4818	7965	4630	6265	4004	0	32737	32719	32853	32575	32727	32735	32759	32684	
723	0	4839	7939	4614	6268	4005	0	32740	32903	32879	32643	32743	32647	32789	32679	
724	0	4810	7969	4572	6244	4006	0	32773	32690	32799	32676	32735	32675	32810	32663	
725	0	4834	7960	4608	6304	4007	0	32780	33031	32850	32799	32759	32815	32759	32679	
726	0	4821	7937	4579	6271	4008	0	32782	32951	32869	32807	32815	32743	32687	32695	
727	0	4838	7911	4530	6301	4009	0	32692	32963	32867	32741	32833	32615	32655	32733	
728	0	4852	7916	4600	6294	4010	0	32726	32551	32951	32639	32807	32647	32631	32761	
729	0	4770	7925	4609	6248	4011	0	32700	32595	32788	32683	32751	32738	32715	32743	
730	0	4811	7906	4528	6307	4012	0	32791	32683	32703	32727	32805	32715	32583	32663	
731	0	4850	7896	4574	6293	4013	0	32822	32847	32583	32791	32671	32751	32524	32607	
732	0	4849	7920	4590	6272	4014	0	32804	32599	32579	32886	32730	32795	32619	32605	
733	0	4820	7930	4595	6280	4015	0	32754	32799	32547	32949	32773	32724	32667	32689	
734	0	4859	7906	4570	6276	4016	0	32787	32875	32515	32863	32795	32647	32711	32765	
735	0	4863	7899	4526	6273	4017	0	32730	32646	32655	32858	32821	32687	32647	32711	
736	0	4865	7928	4588	6274	4018	0	32765	32745	32709	32827	32775	32679	32701	32655	
737	0	4830	7942	4619	6261	4019	0	32785	32845	32767	32861	32827	32735	32764	32668	
738	0	4824	7918	4595	6251	4020	0	32711	32743	32775	32771	32807	32775	32807	32679	
739	0	4848	7892	4636	6268	4021	0	32731	32623	32703	32834	32749	32739	32679	32679	
740	0	4813	7928	4576	6285	4022	0	32717	32775	32803	32795	32743	32674	32663	32711	
741	0	4807	7859	4627	6258	4023	0	32775	32951	32852	32759	32762	32718	32762	32658	
742	0	4806	7933	4586	6304	4024	0	32727	32759	32935	32754	32759	32719	32838	32639	
743	0	4782	7889	4587	6301	4025	0	32758	32803	32853	32583	32772	32749	32646	32647	
744	0	4782	7944	4631	6316	4026	0	32732	32720	32903	32391	32821	32736	32615	32631	
745	0	4807	7938	4596	6282	4027	0	32790	32663	32881	32543	32895	32701	32540	32647	
746	0	4820	7889	4586	6234	4028	0	32711	32755	32877	32631	32843	32551	32501	32661	
747	0	4801	7879	4561	6222	4029	0	32694	32823	32877	32690	32695	32573	32594	32711	
748	0	4787	7868	4614	6276	4030	0	32748	32796	32767	32692	32682	32439	32567	32660	
749	0	4803	7932	4588	6285	4031	0	32735	32615	32667	32655	32854	32575	32590	32727	
750	0	4823	7906	4564	6317	4032	0	32748	32767	32634	32655	32893	32923	32653	32637	
751	0	4822	7925	4576	6274	4033	0	32773	32775	32763	32665	32829	32799	32695	32562	
752	0	4760	7940	4551	6294	4034	0	32775	32668	32820	32660	32927	32805	32639	32588	
753	0	4805	7928	4610	6301	4035	0	32855	32795	32791	32575	32775	32775	32669	32564	
754	0	4810	7906	4634	6307	4036	0	32806	32866	32775	32663	32743	32695	32694	32549	
755	0	4817	7941	4577	6276	4037	0	32812	32823	32705	32695	32791	32695	32690	32563	
756	0	4813	7899	4590	6312	4038	0	32775	32541	32701	32775	32813	32559	32599	32708	
757	0	4792	7876	4587	6285	4039	0	32782	32759	32733	32983	32775	32635	32611	32679	
758	0	4808	7896	4581	6285	4040	0	32813	32731	32665	32841	32839	32583	32615	32693	
759	0	4860	7893	4589	6312	4041	0	32804	32839	32732	32709	32823	32576	32655	32679	
760	0	4834	7910	4626	6270	4042	0	32841	32711	32731	32476	32759	32604	32754	32794	
761	0	4819	7890	4588	6307	4043	0	32775	32787	32679	32470	32613	33039	32743	32764	
762	0	4763	7868	4605	6312	4044	0	32790	32749	32668	32567	32667	33015	32806	32813	
763	0	4860	7893	4541	6243	4045	0	32767	32847	32668	32612	32763	33069	32605	32789	
764	0	4822	7920	4620	6286	4046	0	32754	32639	32687	32691	32791	33159	32554	32770	
765	0	4800	7876	4602	6276	4047	0	32838	32773	32703	32738	32841	32846	32655	32759	
766	0	4778	7898	4583	6282	4048	0	32806	32815	32730	32855	32804	32775	32725	32693	
767	0	4808	7896	4623	6291	4049	0	32822	32852	32759	32807	32791	32812	32647	32751	
768	0	4801	7918	4606	6284	4050	0	32804	32813	32805	32868	32823	32749	32695	32807	
769	0	4788	7914	4643	6250	4051	0	32775	32742	32743	32852	32863	32681	32733	32733	
770	0	4778	7904	4523	6277	4052	0	32775	32883	32807	32847	32688	32671	32583	32701	
771	0	4798	7890	4617	6308	4053	0	32741	32804	32799	32639	32700	32569	32727	32703	
772	0	4843	7925	4608	6324	4054	0	32694	32804	32790	32716	32703	32566	32694	32691	
773	0	4802	7920	4624	6303	4055	0	32694	32595	32825	32801	32839	32583	32759	32719	
774	0	4790	7906	4656	6265	4056	0	32738	32708	32839	32791	32877	32583	32719	32699	
775	0	4825	7872	4561	6285	4057	0	32743	32733	32847	32679	32850	32611	32795	32735	
776	0	4812	7927	4600	6279	4058	0	32725	32525	32791	32665	32837	32597	32766	32705	
777	0	4780	7936	4553	6264	4059	0	32702	32505	32781	32775	32797	32729	32713	32698	
778	0	4821	7898	4601	6270	4060	0	32742	32675	32788	32685	32775	32735	32663	32626	
779	0	4825	7924	4593	6282	4061	0	32731	32727	32796	32747	32751	32715	32695	32599	
780	0	4834	7917	4624	6301	4062	0	32771	32821	32832	32711	32790	32700	32727	32607	
781	0	4832	7929	4622	6262	4063	0	32679	32638	32854	32645	32698	32769	32686	32597	
782	0	4801	7868	4648	6320	4064	0	32673	32879	32730	32815	32758	32763	32733	32541	
783	0	4799	7900	4589	6322	4065	0	32679	33091	32725	33011	32757	32725	32669	32586	
784	0	4804	7921	4603	6275	4066	0	32749	32791	32742	32931	32698	32786	32711	32618	
785	0	4856	7890	4648	6286	4067	0	32809	32866	32763	32759	32595	32788	32732	32631	
786	0	4847	7931	4590	6304	4068	0	32812	32815	32718	32532	32707	32715	32791	32605	
787	0	4802	7939	4610	6286	4069	0	32789	32807	32809	32595	32771	32629	32615	32603	
788	0	4789	7944	4566	6290	4070	0	32701	32615	32887	32631	32769	32675	32627	32605	
789	0	4770	7898	4608	6296	4071	0	32692	32524	32874	32591	32879	32631	32759	32623	
790	0	4776	7866	4606	6288	4072	0	32714	32667	32815	32589	32871	32660	32708	32639	
791	0	4811	7891	4594	6276	4073	0	32750	32709	32775	32647	32721	32765	32636	32661	
792	0	4805	7874	4640	6296	4074	0	32829	32605	32770	32660	32851	32603	32639	32593	
793	0	4817	7926	4598	6301	4075	0	32856	32852	32919	32469	32903	32599	32591	32628	
794	0	4802	7886	4609	6322	4076	0	32873	33047	32703	32681	32715	32671	32615	32551	
795	0	4813	7853	4664	6256	4077	0	32831	32815	32535	32834	32711	32695	32655	32605	
796	0	4835	7934	4580	6328	4078	0	32854	32647	32504	32933	32877	32709	32643	32567	
797	0	4766	7924	4590	6317	4079	0	32786	32867	32561	32863	32773	32718	32714	32495	
798	0	4780	7931	4595	6287	4080	0	32754	32763	32619	32647	32698	32797	32775	32658	
799	0	4799	7877	4598	6301	4081	0	32664	32549	32758	32647	32679	32639	32617	32663	
800	0	4834	7902	4625	6278	4082	0	32731	32567	32713	32663	32733	32675	32751	32690	
801	0	4777	7886	4677	6286	4083	0	32700	32795	32813	32687	32827	32667	32797	32713	
802	0	4815	7875	4562	6262	4084	0	32698	32711	32827	32713	32791	32703	32551	32679	
803	0	4828	7888	4611	6276	4085	0	32785	32740	32691	32823	32723	32806	32629	32647	
804	0	4829	7888	4605	6302	4086	0	32830	32931	32687	32775	32734	32831	32735	32647	
805	0	4785	7902	4641	6294	4087	0	32751	32855	32790	32871	32743	32756	32715	32627	
806	0	4806	7912	4584	6316	4088	0	32806	32879	32851	32845	32711	32716	32749	32641	
807	0	4825	7888	4596	6321	4089	0	32729	32599	32807	32711	32735	32822	32687	32719	
808	0	4792	7860	4637	6344	4090	0	32801	32775	32773	32735	32718	32763	32775	32718	
809	0	4805	7875	4618	6288	4091	0	32783	32607	32791	32575	32775	32700	32609	32669	
810	0	4807	7890	4648	6270	4092	0	32773	32579	32842	32569	32895	32694	32549	32788	
811	0	4774	7924	4618	6284	4093	0	32796	32631	32743	32545	32859	32615	32615	32668	
812	0	4806	7875	4586	6327	4094	0	32737	32581	32631	32663	32765	32619	32645	32591	
813	0	4802	7906	4638	6320	4095	0	32746	32754	32585	32791	32759	32635	32655	32567	
814	0	4756	7935	4588	6326	4096	0	32726	32943	32686	32775	32735	32795	32605	32474	
815	0	4837	7907	4599	6299	4097	0	32734	32865	32775	32565	32843	32724	32558	32485	
816	0	4815	7880	4613	6328	4098	0	32722	33003	32858	32711	32878	32658	32623	32527	
817	0	4809	7931	4596	6308	4099	0	32711	33071	32783	32743	32918	32623	32701	32535	
818	0	4804	7892	4608	6304	4100	0	32758	33011	32738	32685	32671	32887	32563	32629	
819	0	4860	7925	4606	6318	4101	0	32807	32641	32805	32717	32626	32735	32653	32689	
820	0	4838	7926	4602	6324	4102	0	32832	32447	32721	32743	32789	32643	32679	32631	
821	0	4776	7907	4608	6317	4103	0	32773	32615	32679	32589	32903	32758	32718	32615	
822	0	4776	7883	4607	6308	4104	0	32775	32727	32698	32479	32962	32789	32845	32594	
823	0	4797	7938	4557	6322	4105	0	32790	32543	32789	32763	33057	32551	32829	32575	
824	0	4804	7912	4611	6337	4106	0	32836	32791	32869	32819	33043	32635	32770	32639	
825	0	4814	7926	4584	6270	4107	0	32811	32873	32844	32818	33111	32723	32829	32715	
826	0	4824	7872	4598	6313	4108	0	32786	32895	32887	32810	32677	32839	32797	32620	
827	0	4825	7879	4612	6308	4109	0	32793	32729	32807	32812	32327	32687	32594	32743	
828	0	4839	7924	4603	6301	4110	0	32772	32596	32871	32759	32479	32515	32491	32698	
829	0	4797	7895	4605	6299	4111	0	32703	32753	32885	32775	32574	32583	32507	32684	
830	0	4783	7907	4606	6278	4112	0	32695	32924	32893	32763	32479	32918	32564	32647	
831	0	4818	7913	4564	6236	4113	0	32665	32811	32919	32805	32579	32765	32663	32719	
832	0	4792	7936	4613	6300	4114	0	32742	32673	32775	32699	32804	32839	32687	32647	
833	0	4836	7904	4596	6322	4115	0	32783	32791	32699	32679	32814	32711	32621	32735	
834	0	4781	7901	4577	6308	4116	0	32784	32854	32751	32587	32795	32633	32615	32731	
835	0	4812	7888	4574	6318	4117	0	32727	32979	32691	32723	32854	32678	32685	32743	
836	0	4828	7887	4616	6318	4118	0	32747	32739	32587	32823	32917	32742	32655	32730	
837	0	4803	7886	4630	6295	4119	0	32738	32663	32647	32847	32887	32749	32735	32791	
838	0	4768	7908	4614	6301	4120	0	32734	32773	32647	32851	32852	32711	32605	32747	
839	0	4790	7910	4606	6328	4121	0	32757	32855	32647	32739	32798	32749	32498	32722	
840	0	4869	7862	4613	6309	4122	0	32791	32838	32637	32647	32869	32674	32591	32669	
841	0	4778	7910	4615	6310	4123	0	32812	32591	32587	32679	32903	32679	32669	32687	
842	0	4793	7868	4577	6322	4124	0	32764	32391	32675	32699	32839	32612	32698	32757	
843	0	4841	7924	4558	6297	4125	0	32724	32555	32756	32773	32791	32611	32743	32743	
844	0	4782	7888	4634	6297	4126	0	32764	32627	32831	32823	32743	32681	32743	32634	
845	0	4796	7885	4591	6277	4127	0	32812	32503	32807	32747	32813	32583	32775	32532	
846	0	4818	7925	4580	6300	4128	0	32780	32430	32733	32739	32839	32423	32821	32469	
847	0	4808	7934	4604	6341	4129	0	32781	32687	32695	32679	32740	32399	32631	32443	
848	0	4801	7870	4594	6313	4130	0	32797	32795	32738	32749	32674	32659	32599	32641	
849	0	4804	7901	4630	6313	4131	0	32820	33151	32785	32703	32771	32827	32767	32704	
850	0	4816	7940	4612	6323	4132	0	32817	33106	32735	32579	32913	33167	32714	32687	
851	0	4834	7893	4664	6296	4133	0	32820	33178	32687	32623	32887	33099	32733	32743	
852	0	4782	7959	4562	6340	4134	0	32775	32935	32647	32626	32831	33010	32719	32711	
853	0	4797	7922	4615	6314	4135	0	32720	32743	32747	32741	32775	33199	32695	32717	
854	0	4794	7896	4537	6283	4136	0	32740	32538	32911	32719	32691	33111	32643	32743	
855	0	4786	7911	4580	6324	4137	0	32703	32578	32902	32628	32727	32821	32693	32639	
856	0	4772	7876	4602	6292	4138	0	32647	32788	32839	32599	32806	32647	32663	32583	
857	0	4832	7896	4595	6328	4139	0	32692	32745	32813	32703	32771	32617	32727	32553	
858	0	4805	7922	4627	6318	4140	0	32719	32722	32751	32695	32679	32605	32727	32575	
859	0	4819	7941	4602	6290	4141	0	32856	32751	32655	32677	32647	32559	32647	32573	
860	0	4826	7934	4641	6301	4142	0	32806	32915	32705	32623	32733	32543	32617	32647	
861	0	4817	7906	4604	6294	4143	0	32785	32677	32673	32663	32687	32543	32671	32736	
862	0	4779	7964	4635	6279	4144	0	32765	32803	32756	32700	32703	32564	32677	32679	
863	0	4787	7936	4582	6314	4145	0	32763	32845	32775	32855	32721	32644	32647	32729	
864	0	4780	7940	4630	6298	4146	0	32733	32571	32751	32812	32830	32615	32687	32695	
865	0	4867	7947	4592	6305	4147	0	32764	32583	32815	32647	32852	32623	32743	32724	
866	0	4813	7896	4603	6330	4148	0	32771	32925	32799	32563	32826	32655	32571	32761	
867	0	4793	7910	4592	6334	4149	0	32779	32987	32855	32551	32813	32726	32524	32763	
868	0	4759	7912	4593	6305	4150	0	32727	32983	32791	32657	32775	32647	32706	32669	
869	0	4816	7946	4624	6273	4151	0	32713	32495	32756	32655	32837	32643	32733	32759	
870	0	4814	7950	4613	6304	4152	0	32757	32591	32733	32635	32815	32631	32787	32735	
871	0	4790	7920	4589	6309	4153	0	32724	32727	32790	32767	32815	32655	32756	32727	
872	0	4808	7942	4602	6286	4154	0	32839	32619	32789	32855	32763	32751	32701	32711	
873	0	4791	7924	4538	6297	4155	0	32732	32603	32923	32999	32751	32775	32666	32719	
874	0	4778	7918	4637	6282	4156	0	32692	32903	32903	32970	32977	32690	32596	32647	
875	0	4816	7906	4589	6269	4157	0	32677	32957	32951	32923	33053	32519	32631	32727	
876	0	4816	7902	4613	6309	4158	0	32677	32719	32903	32725	32915	32535	32679	32731	
877	0	4790	7942	4572	6301	4159	0	32806	32663	32812	32524	32799	32711	32677	32691	
878	0	4817	7912	4587	6286	4160	0	32832	32757	32839	32314	32615	32743	32661	32695	
879	0	4794	7935	4614	6334	4161	0	32815	32694	32789	32343	32445	32810	32509	32716	
880	0	4803	7918	4632	6355	4162	0	32820	32846	32775	32454	32645	32742	32530	32723	
881	0	4841	7925	4558	6345	4163	0	32785	32783	32711	32601	32705	32762	32615	32731	
882	0	4801	7927	4618	6273	4164	0	32832	32567	32717	32692	32676	32903	32623	32646	
883	0	4778	7920	4608	6289	4165	0	32823	32663	32815	32669	32866	32775	32638	32531	
884	0	4782	7916	4550	6296	4166	0	32715	32581	32767	32783	32815	32711	32775	32493	
885	0	4806	7869	4624	6246	4167	0	32647	32479	32899	32679	32703	32695	32675	32543	
886	0	4823	7907	4630	6276	4168	0	32703	32642	32859	32732	32738	32663	32583	32583	
887	0	4805	7928	4584	6311	4169	0	32743	32668	32751	32695	32895	32852	32561	32672	
888	0	4828	7993	4586	6312	4170	0	32791	32671	32557	32697	32903	32901	32647	32665	
889	0	4799	7925	4617	6245	4171	0	32836	32927	32519	32637	32851	32775	32543	32687	
890	0	4814	7956	4592	6297	4172	0	32812	33077	32599	32738	32895	32575	32656	32735	
891	0	4790	7888	4582	6280	4173	0	32807	32933	32479	32711	32971	32583	32683	32639	
892	0	4770	7904	4638	6342	4174	0	32774	32801	32567	32733	32839	32591	32655	32754	
893	0	4803	7924	4598	6265	4175	0	32785	32966	32639	32835	32767	32641	32735	32708	
894	0	4789	7936	4582	6319	4176	0	32858	32903	32551	32764	32803	32751	32755	32751	
895	0	4805	7907	4633	6275	4177	0	32858	32917	32553	32700	32793	32881	32819	32719	
896	0	4843	7955	4570	6324	4178	0	32860	32696	32580	32625	32775	32711	32549	32719	
897	0	4774	7929	4621	6268	4179	0	32698	32809	32687	32719	32847	32692	32771	32494	
898	0	4767	7936	4616	6300	4180	0	32703	32807	32757	32585	32707	32697	32647	32765	
899	0	4819	7930	4561	6295	4181	0	32746	33135	32695	32777	32799	32575	32687	32766	
900	0	4796	7880	4613	6291	4182	0	32792	32823	32612	32751	32751	32647	32587	32555	
901	0	4833	7940	4576	6342	4183	0	32773	32806	32677	32731	32691	32687	32669	32738	
902	0	4835	7908	4585	6332	4184	0	32759	32710	32720	32838	32807	32797	32679	32775	
903	0	4803	7936	4624	6266	4185	0	32761	32551	32719	32861	32743	32695	32687	32551	
904	0	4784	7881	4594	6240	4186	0	32863	32509	32735	32815	32797	32739	32639	32705	
905	0	4794	7914	4584	6276	4187	0	32807	32541	32831	32815	32758	32691	32719	32759	
906	0	4812	7874	4654	6328	4188	0	32796	32804	32879	32653	32839	32751	32719	32701	
907	0	4816	7910	4586	6276	4189	0	32767	32487	32892	32502	32739	32620	32603	32743	
908	0	4826	7932	4594	6274	4190	0	32647	32597	32935	32535	32830	32707	32839	32599	
909	0	4784	7896	4664	6274	4191	0	32818	32949	32845	32439	32767	32747	32775	32691	
910	0	4756	7934	4610	6286	4192	0	32820	32903	32783	32623	32601	32730	32711	32607	
911	0	4780	7942	4599	6312	4193	0	32765	33010	32829	32703	32775	32775	32647	32742	
912	0	4772	7922	4616	6265	4194	0	32731	32663	32841	32647	32773	32723	32735	32775	
913	0	4839	7956	4607	6328	4195	0	32711	32535	32694	32775	32855	32727	32639	32684	
914	0	4757	7917	4626	6288	4196	0	32704	32719	32781	32903	32787	32831	32591	32667	
915	0	4830	7888	4582	6316	4197	0	32732	32647	32763	32869	32791	32718	32647	32713	
916	0	4807	7922	4590	6269	4198	0	32690	32567	32761	32829	32749	32621	32613	32661	
917	0	4846	7900	4617	6293	4199	0	32756	32721	32701	32775	32775	32727	32644	32678	
918	0	4826	7947	4616	6294	4200	0	32725	32823	32854	32772	32835	32743	32695	32643	
919	0	4813	7929	4632	6266	4201	0	32740	33039	32923	32865	32751	32748	32539	32647	
920	0	4848	7876	4556	6297	4202	0	32683	32853	33019	32805	32775	32623	32501	32687	
921	0	4802	7884	4567	6291	4203	0	32647	32711	33095	32703	32773	32637	32663	32715	
922	0	4809	7922	4634	6300	4204	0	32636	32807	33143	32637	32743	32669	32633	32735	
923	0	4804	7926	4617	6264	4205	0	32676	32823	33087	32673	32713	32711	32703	32723	
924	0	4836	7956	4604	6304	4206	0	32701	32967	32894	32775	32885	32645	32540	32827	
925	0	4810	7920	4567	6281	4207	0	32713	32807	32709	32775	32819	32595	32665	32551	
926	0	4800	7963	4618	6260	4208	0	32710	32530	32661	32941	32788	32585	32687	32573	
927	0	4785	7983	4586	6227	4209	0	32729	32687	32604	32931	32695	32679	32727	32577	
928	0	4820	7943	4642	6302	4210	0	32769	32587	32487	32898	32723	32767	32791	32511	
929	0	4783	7931	4605	6249	4211	0	32758	32773	32451	32769	32721	32719	32879	32531	
930	0	4806	7988	4641	6300	4212	0	32855	32638	32471	32551	32775	32769	32751	32542	
931	0	4766	7949	4644	6272	4213	0	32859	32557	32463	32495	32796	32871	32655	32551	
932	0	4804	7940	4647	6272	4214	0	32840	32748	32565	32613	32775	32879	32655	32503	
933	0	4799	7982	4652	6238	4215	0	32879	32810	32623	32699	32831	32795	32695	32557	
934	0	4793	7961	4606	6262	4216	0	32885	32623	32703	32695	32943	32719	32631	32599	
935	0	4828	7926	4600	6250	4217	0	32745	32775	32719	32671	32773	32794	32583	32557	
936	0	4816	7944	4591	6242	4218	0	32722	32739	32759	32715	32807	32741	32559	32549	
937	0	4833	7903	4590	6253	4219	0	32647	32725	32843	32643	32839	32623	32573	32611	
938	0	4777	7906	4574	6283	4220	0	32710	32569	32861	32519	32852	32690	32685	32631	
939	0	4807	7944	4644	6282	4221	0	32808	32759	32789	32599	32775	32689	32683	32660	
940	0	4774	7948	4628	6306	4222	0	32863	32794	32823	32743	32823	32692	32513	32701	
941	0	4817	8020	4581	6318	4223	0	32775	32695	32861	32771	32835	32775	32572	32613	
942	0	4737	7949	4613	6294	4224	0	32801	32563	32782	32819	32761	32797	32583	32634	
943	0	4798	7974	4576	6280	4225	0	32833	32770	32663	32863	32815	32838	32727	32681	
944	0	4785	7942	4622	6227	4226	0	32886	32877	32567	32871	32671	32877	32871	32731	
945	0	4780	7946	4598	6298	4227	0	32815	32955	32461	32719	32683	32805	32799	32713	
946	0	4817	7928	4579	6294	4228	0	32805	32783	32580	32702	32791	32707	32827	32647	
947	0	4764	7987	4610	6250	4229	0	32828	32854	32719	32703	32655	32751	32878	32570	
948	0	4756	7916	4603	6262	4230	0	32730	33051	32740	32741	32662	32647	32751	32599	
949	0	4806	7955	4592	6264	4231	0	32775	33041	32845	32775	32771	32647	32847	32687	
950	0	4803	7974	4580	6277	4232	0	32745	32818	32871	32815	32785	32655	32775	32791	
951	0	4789	7941	4591	6273	4233	0	32647	32615	32847	32801	32807	32669	32837	32727	
952	0	4790	7976	4645	6292	4234	0	32713	32639	32846	32790	32861	32713	32775	32703	
953	0	4793	7968	4611	6270	4235	0	32716	32477	32807	32621	32765	32679	32551	32714	
954	0	4886	7959	4643	6256	4236	0	32756	32871	32837	32455	32876	32807	32563	32692	
955	0	4772	7973	4593	6262	4237	0	32739	32962	32757	32607	32783	32820	32684	32687	
956	0	4768	7961	4609	6257	4238	0	32725	32927	32815	32703	32694	32759	32605	32681	
957	0	4778	7968	4638	6256	4239	0	32677	32745	32844	32711	32740	32683	32632	32583	
958	0	4773	7945	4582	6303	4240	0	32695	32454	32846	32634	32775	32687	32540	32719	
959	0	4764	7969	4567	6252	4241	0	32689	32359	32815	32881	32767	32717	32775	32637	
960	0	4803	7934	4620	6276	4242	0	32687	32775	32878	32902	32804	32638	32647	32535	
961	0	4812	7913	4620	6306	4243	0	32755	32811	32703	32715	32743	32747	32623	32691	
962	0	4779	7952	4612	6281	4244	0	32750	32647	32711	32825	32749	32722	32591	32551	
963	0	4807	7976	4614	6262	4245	0	32751	32791	32631	32823	32631	32855	32677	32695	
964	0	4813	7990	4543	6272	4246	0	32783	32767	32679	32927	32740	32771	32743	32529	
965	0	4790	7943	4598	6286	4247	0	32750	32673	32695	32775	32837	32615	32547	32679	
966	0	4783	7960	4547	6282	4248	0	32743	33051	32763	32682	32763	32714	32721	32477	
967	0	4837	7994	4638	6270	4249	0	32685	32871	32683	32560	32834	32663	32687	32677	
968	0	4818	7952	4640	6288	4250	0	32714	32686	32743	32715	32740	32559	32541	32587	
969	0	4751	7961	4581	6256	4251	0	32781	32895	32799	32676	32873	32679	32791	32679	
970	0	4757	7908	4651	6269	4252	0	32807	32875	32740	32765	32839	32791	32615	32703	
971	0	4792	7937	4618	6262	4253	0	32815	32679	32845	32655	32807	32645	32625	32749	
972	0	4782	7959	4600	6256	4254	0	32728	32811	32854	32719	32903	32783	32661	32708	
973	0	4840	7994	4589	6246	4255	0	32706	32765	32897	32918	32767	32655	32625	32615	
974	0	4771	7982	4597	6256	4256	0	32660	32587	32813	33007	32925	32397	32595	32770	
975	0	4786	7990	4638	6250	4257	0	32710	32614	32610	32977	32838	32639	32687	32713	
976	0	4817	7981	4646	6292	4258	0	32758	32855	32629	32697	32699	32735	32609	32749	
977	0	4780	7956	4612	6267	4259	0	32747	32582	32631	32541	32775	32759	32687	32715	
978	0	4836	7964	4619	6276	4260	0	32815	32799	32717	32563	32849	32791	32527	32769	
979	0	4800	7960	4638	6281	4261	0	32801	32802	32989	32581	32790	32599	32429	32773	
980	0	4808	7997	4626	6258	4262	0	32773	32830	33222	32519	32743	32599	32577	32727	
981	0	4792	7974	4646	6250	4263	0	32732	32548	33213	32639	32661	32871	32622	32739	
982	0	4800	7949	4666	6277	4264	0	32787	32378	32998	32773	32707	32821	32567	32719	
983	0	4748	7965	4604	6273	4265	0	32789	32461	32827	32797	32799	32810	32461	32826	
984	0	4764	7968	4608	6246	4266	0	32838	32563	32661	32679	32836	32809	32707	32846	
985	0	4817	8002	4593	6280	4267	0	32879	32965	32375	32673	32948	32956	32647	32626	
986	0	4816	7937	4635	6272	4268	0	32852	33206	32325	32647	32809	33067	32775	32581	
987	0	4787	7936	4602	6317	4269	0	32828	33347	32439	32719	32846	32899	32827	32503	
988	0	4758	7970	4616	6229	4270	0	32753	33220	32692	32647	32815	32711	32669	32575	
989	0	4794	8016	4640	6290	4271	0	32749	33054	32815	32607	32725	32684	32729	32707	
990	0	4782	7999	4650	6250	4272	0	32673	32887	32893	32629	32533	32756	32863	32710	
991	0	4780	7948	4640	6283	4273	0	32658	32263	32863	32667	32549	32655	32733	32679	
992	0	4764	7985	4624	6260	4274	0	32727	32463	32903	32705	32675	32647	32636	32727	
993	0	4742	7997	4622	6254	4275	0	32811	32717	32822	32687	32837	32677	32706	32724	
994	0	4824	7949	4628	6252	4276	0	32775	32695	32732	32932	33039	32671	32759	32641	
995	0	4799	8014	4644	6280	4277	0	32839	32879	32583	32881	33027	32721	32739	32575	
996	0	4805	8006	4581	6274	4278	0	32801	33013	32549	32823	32881	32707	32735	32537	
997	0	4780	7996	4652	6279	4279	0	32827	32747	32511	32733	32852	32674	32821	32601	
998	0	4742	7965	4573	6276	4280	0	32872	32935	32515	32795	32935	32639	32515	32594	
999	0	4808	7944	4613	6201	4281	0	32814	32923	32647	32718	33091	32613	32551	32743	
1000	0	4777	7974	4676	6281	4282	0	32783	32642	32852	32621	33027	32557	32507	32719	
1001	0	4820	7976	4643	6212	4283	0	32686	32429	32841	32539	32841	32591	32563	32695	
1002	0	4834	7996	4607	6279	4284	0	32655	32415	32901	32531	32677	32669	32543	32692	
1003	0	4759	7958	4613	6296	4285	0	32647	32583	32861	32788	32669	32703	32679	32647	
1004	0	4767	7984	4660	6255	4286	0	32662	32391	32903	32879	32633	32692	32617	32615	
1005	0	4705	8029	4610	6207	4287	0	32662	32581	32869	32898	32755	32742	32613	32627	
1006	0	4833	7954	4615	6273	4288	0	32735	32787	32743	32829	32891	32751	32551	32639	
1007	0	4811	7948	4621	6259	4289	0	32757	32853	32671	32839	32823	32709	32542	32635	
1008	0	4819	7979	4652	6269	4290	0	32775	32751	32707	32695	32711	32694	32498	32615	
1009	0	4801	7994	4632	6277	4291	0	32775	32983	32818	32617	32891	32679	32543	32637	
1010	0	4772	7988	4668	6255	4292	0	32834	32941	32935	32645	32873	32535	32687	32639	
1011	0	4822	8003	4627	6251	4293	0	32858	32946	32775	32751	32887	32443	32391	32691	
1012	0	4815	8000	4641	6258	4294	0	32743	32756	32765	32823	32982	32498	32563	32647	
1013	0	4778	8020	4576	6278	4295	0	32771	32799	32679	32587	33007	32756	32671	32705	
1014	0	4761	7996	4635	6254	4296	0	32767	32781	32625	32551	32863	32674	32686	32625	
1015	0	4834	7986	4618	6241	4297	0	32732	32607	32583	32583	32876	32343	32671	32613	
1016	0	4789	7992	4596	6285	4298	0	32773	32563	32701	32607	32775	32309	32748	32621	
1017	0	4762	7990	4631	6313	4299	0	32793	32837	32612	32702	32641	32511	32850	32655	
1018	0	4796	7997	4644	6246	4300	0	32831	32831	32691	32789	32593	32819	32687	32612	
1019	0	4789	7992	4672	6278	4301	0	32817	32903	32831	32817	32607	32967	32659	32731	
1020	0	4824	7981	4665	6278	4302	0	32820	32634	32903	32867	32569	32983	32647	32855	
1021	0	4779	8004	4614	6256	4303	0	32825	32871	32886	32935	32631	33219	32566	32918	
1022	0	4782	8009	4604	6238	4304	0	32842	32991	32790	32903	32663	33247	32621	32751	
1023	0	4771	7952	4616	6262	4305	0	32886	32735	32806	32819	32759	33223	32655	32731	
1024	0	4804	8008	4625	6242	4306	0	32927	33019	32807	32839	32873	33062	32655	32759	
1025	0	4800	7963	4649	6240	4307	0	33003	33175	32814	32706	32911	32727	32668	32799	
1026	0	4785	8009	4646	6219	4308	0	33065	32757	32835	32698	32855	32559	32583	32759	
1027	0	4801	8009	4669	6297	4309	0	33043	32857	32743	32642	32941	32495	32615	32774	
1028	0	4758	7984	4608	6230	4310	0	32980	32833	32775	32643	32943	32562	32732	32730	
1029	0	4760	8026	4637	6226	4311	0	32839	32553	32743	32599	32940	32531	32711	32751	
1030	0	4794	7995	4604	6262	4312	0	32948	32487	32717	32455	32859	32877	32487	32563	
1031	0	4833	7980	4642	6244	4313	0	32790	32692	32543	32457	32813	32804	32667	32540	
1032	0	4790	8009	4575	6242	4314	0	32728	32757	32391	32423	32865	32595	32615	32503	
1033	0	4800	8011	4633	6278	4315	0	32711	32684	32261	32483	32925	32543	32645	32453	
1034	0	4819	7988	4571	6256	4316	0	32690	32481	32219	32548	32893	32554	32646	32434	
1035	0	4836	8008	4659	6244	4317	0	32566	32533	32343	32468	32895	32559	32687	32567	
1036	0	4803	7965	4568	6262	4318	0	32436	32095	32398	32452	32895	32559	32615	32643	
1037	0	4778	8020	4654	6264	4319	0	32401	31477	32679	32423	32956	32639	32628	32574	
1038	0	4758	7969	4629	6273	4320	0	32391	31499	32780	32615	32857	32695	32423	32671	
1039	0	4786	7961	4641	6226	4321	0	32397	31579	32727	32736	32919	32738	32375	32615	
1040	0	4760	8021	4650	6250	4322	0	32388	31823	32623	32708	32839	32703	32461	32624	
1041	0	4775	8001	4633	6278	4323	0	32293	32047	32607	32578	32827	32748	32567	32594	
1042	0	4752	7941	4666	6268	4324	0	32250	32466	32479	32543	32823	32799	32595	32575	
1043	0	4783	8014	4651	6268	4325	0	32263	32543	32380	32585	32839	32787	32580	32583	
1044	0	4781	7989	4631	6193	4326	0	32281	32483	32428	32531	32855	32815	32711	32599	
1045	0	4799	7987	4576	6272	4327	0	32190	32983	32483	32561	32621	32794	32775	32580	
1046	0	4835	7941	4674	6195	4328	0	32214	33239	32558	32491	32671	32802	32709	32545	
1047	0	4780	7994	4626	6242	4329	0	32193	32687	32671	32463	32667	32695	32703	32451	
1048	0	4747	8000	4580	6244	4330	0	32216	32707	32677	32471	32609	32691	32827	32566	
1049	0	4818	7973	4609	6250	4331	0	32315	32845	32839	32628	32613	32771	33011	32535	
1050	0	4748	7988	4600	6226	4332	0	32423	32669	33013	32775	32538	32886	33167	32479	
1051	0	4821	7984	4612	6281	4333	0	32445	32967	33079	32891	32468	32874	33095	32583	
1052	0	4792	7992	4596	6213	4334	0	32546	33036	33287	33063	32439	32835	33201	32570	
1053	0	4787	7996	4604	6250	4335	0	32708	33317	33415	33309	32323	32839	33099	32635	
1054	0	4780	8025	4662	6248	4336	0	32788	33298	33406	33347	32381	32735	33075	32700	
1055	0	4794	8002	4624	6230	4337	0	32869	33175	33349	33303	32514	32799	33257	32558	
1056	0	4802	8009	4598	6243	4338	0	32879	33415	33542	33454	32329	32895	33202	32559	
1057	0	4783	8004	4633	6237	4339	0	32871	33412	33637	33515	32249	32881	33261	32559	
1058	0	4814	7981	4680	6242	4340	0	32921	33507	33501	33501	32327	32873	33003	32547	
1059	0	4762	8000	4657	6250	4341	0	33060	33287	33319	33255	32356	32799	33094	32553	
1060	0	4810	7984	4660	6256	4342	0	33210	33159	33091	33055	32405	32684	32965	32625	
1061	0	4778	7986	4632	6228	4343	0	33319	33325	32945	32847	32487	32690	32775	32653	
1062	0	4808	7999	4653	6241	4344	0	33452	33405	32991	32503	32605	32719	32775	32767	
1063	0	4777	8024	4607	6226	4345	0	33573	33213	32845	32465	32852	32661	32463	32884	
1064	0	4808	8014	4635	6216	4346	0	33592	33087	32671	32540	33191	32556	32493	32882	
1065	0	4770	8038	4660	6254	4347	0	33598	33254	32738	32607	33095	32595	32391	32997	
1066	0	4758	7998	4659	6268	4348	0	33476	33175	32841	32548	33042	32389	32351	33071	
1067	0	4784	7963	4627	6184	4349	0	33358	32847	32903	32503	33095	32412	32371	32951	
1068	0	4795	8016	4629	6244	4350	0	33393	33031	32795	32603	33011	32471	32372	32890	
1069	0	4757	8018	4646	6240	4351	0	33300	33019	32703	32666	32979	32531	32397	32930	
1070	0	4814	8042	4625	6232	4352	0	33207	33111	32636	32596	32893	32613	32254	32943	
1071	0	4802	8010	4568	6222	4353	0	33174	32934	32580	32493	33030	32505	32308	32988	
1072	0	4792	8026	4652	6216	4354	0	33135	33011	32474	32511	33119	32503	32275	33007	
1073	0	4784	7984	4623	6225	4355	0	33082	33001	32487	32635	32938	32532	32262	32903	
1074	0	4768	8006	4624	6196	4356	0	33001	32767	32479	32647	33037	32582	32347	32919	
1075	0	4813	7992	4598	6227	4357	0	32941	32796	32433	32617	33150	32639	32339	32871	
1076	0	4792	8003	4616	6222	4358	0	32825	32718	32506	32511	33063	32639	32439	32901	
1077	0	4777	8008	4584	6227	4359	0	32715	32631	32594	32587	33055	32727	32501	32679	
1078	0	4770	8078	4638	6256	4360	0	32745	32455	32535	32587	32991	32748	32557	32572	
1079	0	4820	8008	4614	6232	4361	0	32613	32612	32669	32663	32871	32804	32658	32531	
1080	0	4831	8006	4599	6215	4362	0	32475	32439	32647	32687	32818	32773	32729	32502	
1081	0	4788	8004	4654	6247	4363	0	32480	32335	32675	32630	32743	32694	32847	32669	
1082	0	4773	8008	4656	6182	4364	0	32559	32543	32719	32735	32709	32740	32855	32679	
1083	0	4774	7998	4621	6234	4365	0	32564	32589	32838	32747	32773	32693	32642	32663	
1084	0	4801	7987	4628	6243	4366	0	32524	32873	32762	32718	32815	32756	32583	32637	
1085	0	4776	7924	4659	6263	4367	0	32587	32733	32694	32749	32787	32775	32641	32638	
1086	0	4795	8011	4653	6245	4368	0	32647	32903	32567	32705	32715	32757	32567	32678	
1087	0	4750	8033	4647	6248	4369	0	32619	32559	32567	32735	32707	32882	32654	32645	
1088	0	4814	8001	4639	6237	4370	0	32647	32575	32589	32754	32681	32925	32659	32626	
1089	0	4773	7990	4630	6221	4371	0	32516	32429	32635	32839	32708	32855	32702	32643	
1090	0	4845	8024	4609	6225	4372	0	32509	32535	32669	32742	32783	32621	32766	32647	
1091	0	4794	7993	4581	6216	4373	0	32534	32323	32711	32645	32807	32643	32725	32671	
1092	0	4748	8025	4629	6220	4374	0	32647	32671	32807	32700	32754	32705	32641	32702	
1093	0	4792	8000	4614	6248	4375	0	32662	32679	32855	32711	32819	32699	32607	32671	
1094	0	4746	8040	4612	6208	4376	0	32706	32773	32676	32570	32866	32670	32595	32599	
1095	0	4779	8006	4645	6240	4377	0	32733	32839	32692	32663	32775	32745	32619	32639	
1096	0	4797	8062	4630	6250	4378	0	32786	32871	32743	32605	32721	32751	32675	32663	
1097	0	4795	7970	4640	6249	4379	0	32826	32775	32895	32631	32713	32761	32660	32647	
1098	0	4801	8028	4640	6182	4380	0	32724	32443	32895	32596	32642	32809	32719	32695	
1099	0	4749	7976	4606	6232	4381	0	32688	32502	32903	32663	32775	32711	32596	32681	
1100	0	4817	7968	4657	6244	4382	0	32717	32482	32927	32878	32783	32669	32623	32675	
1101	0	4781	8018	4595	6211	4383	0	32681	32567	32955	32983	32727	32711	32733	32677	
1102	0	4790	7967	4664	6216	4384	0	32690	32833	32903	32967	32743	32711	32717	32655	
1103	0	4778	7979	4657	6253	4385	0	32725	33045	32853	32903	32748	32746	32754	32679	
1104	0	4763	8003	4642	6224	4386	0	32775	33135	32707	32871	32775	32827	32665	32677	
1105	0	4811	7992	4640	6204	4387	0	32774	32685	32633	32807	32851	32807	32629	32621	
1106	0	4782	7986	4631	6180	4388	0	32677	32647	32612	32735	32781	32631	32731	32743	
1107	0	4806	8000	4585	6200	4389	0	32646	32692	32570	32635	32739	32647	32820	32691	
1108	0	4735	7983	4635	6208	4390	0	32718	32837	32595	32749	32679	32645	32636	32687	
1109	0	4777	7992	4621	6195	4391	0	32717	32558	32647	32751	32679	32725	32643	32709	
1110	0	4780	8044	4658	6240	4392	0	32723	32727	32686	32738	32763	32722	32647	32758	
1111	0	4748	8022	4613	6200	4393	0	32759	32759	32687	32751	32743	32667	32668	32775	
1112	0	4800	8011	4600	6221	4394	0	32781	32667	32633	32767	32715	32643	32647	32815	
1113	0	4803	7980	4596	6208	4395	0	32775	32807	32723	32775	32769	32646	32827	32775	
1114	0	4809	8024	4601	6243	4396	0	32727	32759	32895	32843	32816	32674	32669	32725	
1115	0	4770	7996	4644	6227	4397	0	32783	32876	32962	32742	32885	32733	32567	32647	
1116	0	4742	7997	4643	6224	4398	0	32768	32655	32827	32647	32852	32771	32487	32701	
1117	0	4760	8008	4638	6189	4399	0	32754	32767	32831	32640	32847	32719	32567	32715	
1118	0	4769	8018	4646	6196	4400	0	32708	32740	32789	32683	32863	32707	32553	32637	
1119	0	4768	8032	4632	6226	4401	0	32718	32679	32871	32705	32773	32639	32555	32694	
1120	0	4772	8039	4594	6208	4402	0	32774	32583	32803	32715	32775	32671	32570	32605	
1121	0	4753	8038	4583	6212	4403	0	32796	32837	32745	32830	32812	32742	32563	32506	
1122	0	4799	7988	4614	6196	4404	0	32786	32937	32679	32823	32789	32724	32585	32591	
1123	0	4724	8035	4644	6244	4405	0	32782	32852	32694	32754	32785	32723	32719	32667	
1124	0	4743	8023	4598	6217	4406	0	32720	32596	32723	32685	32667	32787	32655	32719	
1125	0	4780	8049	4606	6195	4407	0	32767	32745	32647	32675	32663	32799	32647	32685	
1126	0	4746	8040	4641	6211	4408	0	32749	32703	32644	32631	32681	32703	32743	32671	
1127	0	4772	8028	4612	6232	4409	0	32741	32765	32685	32647	32623	32735	32733	32767	
1128	0	4770	8027	4670	6200	4410	0	32696	32591	32692	32667	32679	32687	32823	32710	
1129	0	4785	8010	4604	6174	4411	0	32756	32677	32875	32788	32834	32638	32585	32644	
1130	0	4782	8036	4636	6236	4412	0	32752	32659	32722	32756	32863	32669	32579	32719	
1131	0	4791	8025	4587	6215	4413	0	32876	32847	32615	32493	32775	32870	32517	32801	
1132	0	4796	8001	4583	6252	4414	0	32810	32751	32739	32598	32871	32766	32623	32775	
1133	0	4776	8060	4665	6210	4415	0	32796	32887	32775	32579	32751	32732	32738	32711	
1134	0	4764	7988	4656	6215	4416	0	32719	32917	32893	32647	32882	32647	32699	32759	
1135	0	4762	8025	4579	6227	4417	0	32644	32891	32903	32647	33010	32567	32617	32647	
1136	0	4785	8036	4632	6221	4418	0	32644	32717	32957	32596	32815	32541	32620	32637	
1137	0	4797	8037	4619	6209	4419	0	32731	32391	32855	32671	32439	32709	32673	32581	
1138	0	4774	8036	4609	6223	4420	0	32683	32385	32635	32793	32679	32947	32775	32599	
1139	0	4750	8020	4642	6226	4421	0	32764	32626	32694	32790	32783	32985	32843	32621	
1140	0	4792	8008	4646	6230	4422	0	32860	32950	32511	32738	32717	32895	32571	32703	
1141	0	4778	7995	4664	6241	4423	0	32916	32823	32391	32775	32766	32551	32557	32691	
1142	0	4770	8019	4614	6171	4424	0	32858	32707	32479	32839	32842	32277	32629	32705	
1143	0	4742	7976	4672	6200	4425	0	32764	32851	32611	32813	32895	32071	32569	32599	
1144	0	4747	7986	4613	6196	4426	0	32740	32959	32772	32755	32899	32076	32633	32604	
1145	0	4804	8005	4644	6184	4427	0	32709	32854	32831	32751	32911	32455	32647	32701	
1146	0	4779	7994	4594	6237	4428	0	32797	32706	32933	32759	32977	32836	32642	32749	
1147	0	4720	8042	4644	6188	4429	0	32782	32789	32899	32743	32890	33373	32695	32751	
1148	0	4748	8054	4667	6210	4430	0	32780	32903	32767	32799	32711	33570	32707	32743	
1149	0	4772	8029	4640	6260	4431	0	32769	32738	32751	32767	32792	33199	32735	32711	
1150	0	4728	8013	4619	6195	4432	0	32780	32639	32805	32717	32897	32854	32761	32687	
1151	0	4788	7999	4600	6201	4433	0	32775	32753	32726	32587	32901	32669	32627	32692	
1152	0	4753	8052	4658	6213	4434	0	32758	32741	32749	32647	32607	32671	32634	32751	
1153	0	4766	7974	4584	6242	4435	0	32813	32633	32743	32719	32514	32969	32578	32775	
1154	0	4808	8020	4649	6212	4436	0	32751	32623	32860	32656	32605	32919	32599	32691	
1155	0	4764	7998	4645	6208	4437	0	32754	32604	32959	32631	32764	33010	32743	32671	
1156	0	4796	8035	4664	6209	4438	0	32793	32819	32835	32615	32767	32758	32661	32607	
1157	0	4781	8038	4609	6201	4439	0	32772	32809	32807	32663	32765	32725	32615	32645	
1158	0	4721	7996	4639	6210	4440	0	32738	32847	32743	32631	32802	32551	32671	32711	
1159	0	4764	8046	4591	6194	4441	0	32687	32803	32687	32730	32805	32591	32723	32691	
1160	0	4764	8014	4651	6180	4442	0	32673	32999	32692	32759	32749	32591	32759	32735	
1161	0	4710	8045	4674	6199	4443	0	32745	32677	32684	32771	32775	32559	32539	32743	
1162	0	4761	7983	4602	6248	4444	0	32723	32733	32823	32877	32853	32615	32517	32767	
1163	0	4802	8041	4598	6228	4445	0	32743	32705	32679	32871	32819	32642	32599	32685	
1164	0	4769	8048	4620	6206	4446	0	32775	32577	32685	32845	32817	32663	32575	32668	
1165	0	4780	8028	4664	6224	4447	0	32807	32466	32799	32775	32786	32563	32637	32711	
1166	0	4799	7995	4574	6218	4448	0	32799	32639	32843	32834	32805	32615	32553	32717	
1167	0	4789	8021	4626	6208	4449	0	32763	32827	32827	32887	32771	32691	32674	32743	
1168	0	4785	8031	4656	6209	4450	0	32738	32822	32893	32873	32695	32647	32731	32769	
1169	0	4786	8044	4580	6220	4451	0	32835	32903	32853	32849	32723	32717	32749	32735	
1170	0	4771	7998	4606	6210	4452	0	32835	33101	32756	32763	32759	32701	32748	32647	
1171	0	4763	7992	4656	6195	4453	0	32790	33095	32747	32627	32852	32677	32755	32663	
1172	0	4744	8029	4617	6211	4454	0	32767	32826	32759	32639	32807	32642	32725	32754	
1173	0	4761	7995	4620	6221	4455	0	32775	32948	32714	32647	32785	32663	32738	32727	
1174	0	4739	8010	4625	6218	4456	0	32756	32967	32790	32674	32839	32679	32671	32742	
1175	0	4748	8044	4658	6224	4457	0	32754	32895	32802	32682	32782	32703	32583	32709	
1176	0	4758	8058	4641	6173	4458	0	32762	32607	32759	32567	32825	32756	32605	32701	
1177	0	4834	8032	4629	6213	4459	0	32756	32751	32823	32647	32745	32706	32532	32759	
1178	0	4804	8020	4624	6185	4460	0	32775	32733	32797	32733	32726	32667	32615	32619	
1179	0	4738	8040	4661	6182	4461	0	32804	32873	32770	32713	32861	32605	32579	32551	
1180	0	4738	8033	4652	6227	4462	0	32744	32647	32637	32685	32773	32671	32551	32671	
1181	0	4772	8050	4645	6236	4463	0	32718	32582	32666	32749	32732	32677	32527	32623	
1182	0	4785	8072	4693	6210	4464	0	32775	32605	32552	32845	32739	32677	32558	32724	
1183	0	4794	8082	4680	6193	4465	0	32727	32895	32607	32935	32751	32711	32645	32721	
1184	0	4717	8035	4597	6184	4466	0	32740	32831	32511	32855	32683	32791	32687	32669	
1185	0	4747	8048	4664	6242	4467	0	32786	32839	32645	32869	32755	32693	32692	32647	
1186	0	4764	8046	4649	6214	4468	0	32713	32747	32684	32787	32726	32723	32707	32703	
1187	0	4796	8049	4629	6235	4469	0	32745	32877	32639	32748	32895	32756	32749	32709	
1188	0	4802	8031	4698	6190	4470	0	32803	32663	32795	32679	32885	32713	32787	32647	
1189	0	4777	8050	4631	6197	4471	0	32836	32510	32895	32641	32807	32757	32731	32743	
1190	0	4788	8055	4708	6242	4472	0	32769	32715	32925	32671	32851	32802	32598	32759	
1191	0	4784	8052	4632	6222	4473	0	32673	32775	32843	32667	32719	32694	32639	32711	
1192	0	4713	8046	4678	6209	4474	0	32679	32839	32807	32630	32759	32748	32684	32789	
1193	0	4727	8072	4648	6228	4475	0	32775	32525	32743	32604	32775	32719	32757	32658	
1194	0	4780	8040	4671	6200	4476	0	32838	32595	32603	32614	32859	32705	32735	32639	
1195	0	4772	8059	4658	6193	4477	0	32847	32756	32583	32628	32758	32732	32775	32719	
1196	0	4778	8032	4638	6212	4478	0	32749	32847	32570	32621	32647	32707	32743	32686	
1197	0	4803	8070	4640	6226	4479	0	32732	32567	32636	32714	32735	32738	32804	32762	
1198	0	4774	8071	4676	6197	4480	0	32775	32763	32797	32676	32883	32567	32661	32662	
1199	0	4799	8055	4652	6181	4481	0	32751	32820	32931	32655	32847	32615	32586	32611	
1200	0	4766	8079	4672	6201	4482	0	32647	32701	33003	32735	32840	32549	32615	32668	
1201	0	4817	8029	4690	6212	4483	0	32695	32545	32889	32839	32735	32637	32715	32707	
1202	0	4752	8041	4697	6185	4484	0	32628	32738	32891	32739	32799	32708	32647	32741	
1203	0	4744	8056	4677	6205	4485	0	32732	32845	32811	32823	32615	32847	32655	32733	
1204	0	4799	8064	4672	6172	4486	0	32783	32675	32799	32900	32609	32941	32727	32721	
1205	0	4804	8056	4688	6219	4487	0	32797	32797	32799	32887	32641	32675	32829	32718	
1206	0	4794	8080	4676	6189	4488	0	32802	32863	32815	32813	32743	32647	32590	32773	
1207	0	4804	8078	4676	6227	4489	0	32810	32903	32790	32671	32891	32764	32605	32775	
1208	0	4772	8062	4679	6179	4490	0	32742	32853	32695	32639	32845	32881	32807	32567	
1209	0	4804	8024	4559	6210	4491	0	32823	32948	32612	32566	32771	32949	32775	32647	
1210	0	4834	8049	4634	6189	4492	0	32841	32733	32647	32495	32698	33007	32719	32793	
1211	0	4786	8020	4670	6201	4493	0	32870	32634	32676	32509	32767	32859	32708	32687	
1212	0	4779	8062	4689	6240	4494	0	32842	32295	32647	32599	32857	32596	32718	32647	
1213	0	4810	8076	4628	6238	4495	0	32860	32401	32710	32623	32843	32655	32721	32634	
1214	0	4799	8024	4635	6203	4496	0	32750	32543	32727	32684	32755	32699	32705	32759	
1215	0	4792	8035	4678	6185	4497	0	32853	32839	32807	32789	32711	32711	32493	32679	
1216	0	4753	8094	4604	6226	4498	0	32796	32741	32786	32803	32738	32683	32531	32719	
1217	0	4795	8067	4695	6194	4499	0	32736	32877	32731	32679	32743	32591	32726	32773	
1218	0	4748	8066	4717	6189	4500	0	32757	33045	32694	32738	32740	32775	32523	32811	
1219	0	4797	8024	4598	6182	4501	0	32807	32823	32705	32701	32773	32731	32585	32758	
1220	0	4770	8044	4664	6213	4502	0	32810	33191	32735	32839	32677	32671	32571	32692	
1221	0	4774	8028	4608	6202	4503	0	32730	33277	32719	32803	32701	32647	32569	32692	
1222	0	4771	8084	4682	6190	4504	0	32745	32999	32701	32803	32749	32695	32607	32684	
1223	0	4791	8026	4676	6221	4505	0	32646	32647	32839	32775	32666	32775	32727	32630	
1224	0	4807	8056	4637	6144	4506	0	32639	32669	32817	32825	32791	32641	32668	32607	
1225	0	4793	8003	4690	6238	4507	0	32690	32647	32822	32718	32863	32635	32811	32557	
1226	0	4803	8020	4702	6233	4508	0	32671	32445	32765	32687	32775	32679	32797	32579	
1227	0	4770	8028	4690	6210	4509	0	32742	32758	32806	32653	32831	32647	32701	32591	
1228	0	4772	8060	4617	6212	4510	0	32703	32655	32807	32527	32855	32721	32663	32549	
1229	0	4836	8025	4640	6239	4511	0	32756	32871	32845	32487	32871	32687	32687	32573	
1230	0	4764	8023	4627	6228	4512	0	32726	32903	32890	32532	32865	32626	32703	32621	
1231	0	4800	8076	4652	6211	4513	0	32732	33117	32757	32647	32916	32742	32663	32595	
1232	0	4790	8037	4690	6162	4514	0	32748	32925	32679	32647	32845	32715	32493	32657	
1233	0	4768	8048	4678	6209	4515	0	32775	32597	32726	32635	32877	32662	32530	32743	
1234	0	4781	8049	4627	6142	4516	0	32692	32853	32775	32727	32869	32647	32503	32743	
1235	0	4792	7998	4650	6203	4517	0	32679	32948	32694	32703	32808	32731	32595	32716	
1236	0	4765	7994	4616	6214	4518	0	32748	32628	32719	32730	32863	32631	32722	32735	
1237	0	4777	8043	4636	6173	4519	0	32754	32567	32661	32799	32813	32661	32747	32674	
1238	0	4773	8005	4656	6165	4520	0	32775	32675	32789	32869	32868	32679	32686	32675	
1239	0	4800	8024	4594	6209	4521	0	32800	32732	32894	32846	32807	32716	32587	32727	
1240	0	4766	8008	4653	6181	4522	0	32772	32684	32861	32831	32843	32711	32621	32708	
1241	0	4777	8051	4605	6179	4523	0	32749	32735	32807	32830	32763	32765	32667	32726	
1242	0	4789	8061	4627	6138	4524	0	32745	32838	32893	32775	32821	32721	32612	32738	
1243	0	4803	8011	4558	6209	4525	0	32654	32489	32946	32671	32769	32725	32607	32743	
1244	0	4768	8074	4652	6182	4526	0	32640	32551	32901	32516	32717	32731	32741	32767	
1245	0	4768	8061	4669	6208	4527	0	32631	32515	32987	32588	32673	32679	32557	32705	
1246	0	4782	8034	4682	6173	4528	0	32742	32669	32967	32665	32717	32687	32427	32634	
1247	0	4806	8028	4630	6166	4529	0	32829	32807	32669	32765	32775	32715	32475	32667	
1248	0	4740	8002	4627	6141	4530	0	32818	32702	32460	32756	32933	32771	32647	32670	
1249	0	4825	8026	4616	6180	4531	0	32820	32862	32444	32758	32885	32735	32766	32633	
1250	0	4784	8007	4646	6114	4532	0	32844	32903	32327	32629	32707	32719	32731	32743	
1251	0	4806	8013	4602	6151	4533	0	32888	32700	32380	32500	32693	32703	32827	32712	
1252	0	4769	8027	4617	6173	4534	0	32828	32799	32543	32550	32735	32727	32805	32711	
1253	0	4803	8018	4616	6173	4535	0	32730	32795	32751	32727	32803	32745	32786	32692	
1254	0	4820	7992	4597	6163	4536	0	32793	32725	32863	32663	32795	32665	32799	32612	
1255	0	4776	8014	4638	6158	4537	0	32772	32551	32999	32487	32711	32647	32754	32511	
1256	0	4768	8027	4628	6187	4538	0	32732	32919	32938	32564	32706	32455	32721	32507	
1257	0	4786	8068	4606	6170	4539	0	32775	33044	32871	32631	32903	32532	32773	32516	
1258	0	4728	8048	4588	6196	4540	0	32764	32932	32799	32719	32815	32708	32483	32514	
1259	0	4746	8054	4704	6174	4541	0	32820	32667	32799	32807	32709	32957	32469	32555	
1260	0	4772	8000	4629	6196	4542	0	32807	32695	32751	32775	32879	32903	32470	32559	
1261	0	4773	8068	4629	6196	4543	0	32800	32642	32667	32855	32877	32903	32455	32551	
1262	0	4751	8023	4585	6167	4544	0	32756	32445	32665	32813	32812	32855	32477	32529	
1263	0	4784	8000	4634	6135	4545	0	32695	32407	32717	32790	32865	32583	32607	32508	
1264	0	4773	8035	4655	6171	4546	0	32733	32635	32735	32721	32885	32470	32692	32605	
1265	0	4803	8004	4639	6202	4547	0	32748	32793	32759	32731	32810	32353	32679	32647	
1266	0	4760	8035	4627	6193	4548	0	32708	32919	32751	32745	32663	32598	32645	32637	
1267	0	4804	8038	4638	6212	4549	0	32748	32793	32767	32803	32551	33287	32710	32623	
1268	0	4770	8030	4593	6166	4550	0	32803	32959	32803	32775	32759	32999	32871	32655	
1269	0	4775	8026	4625	6173	4551	0	32829	32903	32859	32703	32825	32647	32687	32583	
1270	0	4782	8042	4602	6190	4552	0	32813	32884	32854	32741	32881	32707	32541	32543	
1271	0	4751	8016	4608	6168	4553	0	32822	32823	32942	32789	32935	32419	32719	32631	
1272	0	4800	8052	4657	6138	4554	0	32764	32647	33019	32800	32863	32188	32711	32630	
1273	0	4717	8057	4606	6146	4555	0	32742	32765	32887	32842	32759	32339	32647	32615	
1274	0	4778	8036	4608	6150	4556	0	32695	32839	32737	32834	32820	32559	32597	32621	
1275	0	4762	7998	4592	6184	4557	0	32716	32931	32815	32978	32731	32895	32628	32671	
1276	0	4750	8047	4639	6151	4558	0	32754	32827	32684	32867	32644	33261	32689	32653	
1277	0	4752	8003	4630	6212	4559	0	32829	32642	32519	32828	32679	33445	32535	32735	
1278	0	4725	8054	4662	6175	4560	0	32748	32807	32575	32683	32762	33183	32487	32711	
1279	0	4770	8009	4632	6156	4561	0	32807	32870	32614	32684	32838	32941	32627	32697	
1280	0	4772	8024	4620	6166	4562	0	32797	32871	32775	32635	32849	33007	32671	32583	
1281	0	4756	8040	4573	6160	4563	0	32773	32879	32751	32564	32866	32743	32635	32626	
1282	0	4769	7995	4641	6179	4564	0	32801	32615	32697	32685	32823	32645	32713	32690	
1283	0	4773	8020	4619	6181	4565	0	32706	32557	32738	32692	32743	32537	32805	32703	
1284	0	4754	8034	4665	6140	4566	0	32806	32823	32699	32751	32819	32501	32635	32683	
1285	0	4797	7995	4590	6202	4567	0	32811	32749	32711	32569	32829	32591	32726	32735	
1286	0	4756	8050	4608	6192	4568	0	32756	32686	32771	32525	32699	32787	32711	32775	
1287	0	4828	8043	4638	6173	4569	0	32681	32446	32874	32511	32862	32587	32615	32727	
1288	0	4773	8011	4659	6164	4570	0	32682	32695	32829	32615	32863	32603	32613	32646	
1289	0	4777	8050	4617	6190	4571	0	32805	32727	32797	32607	32743	32647	32615	32671	
1290	0	4812	8048	4624	6144	4572	0	32775	32775	32789	32634	32729	32775	32647	32701	
1291	0	4769	8054	4585	6184	4573	0	32820	32850	32793	32755	32581	32951	32685	32711	
1292	0	4780	8047	4624	6188	4574	0	32813	33181	32783	32902	32615	32963	32726	32763	
1293	0	4787	8020	4639	6199	4575	0	32799	32895	32751	32813	32623	32807	32692	32775	
1294	0	4760	7996	4641	6189	4576	0	32838	32533	32690	32775	32682	32542	32663	32663	
1295	0	4744	8030	4646	6174	4577	0	32775	32530	32690	32799	32783	32547	32586	32643	
1296	0	4780	8038	4646	6168	4578	0	32655	32477	32645	32842	32858	32591	32647	32711	
1297	0	4769	8040	4584	6160	4579	0	32716	32535	32743	32921	32793	32709	32815	32759	
1298	0	4800	8068	4614	6149	4580	0	32697	32703	32735	32903	32847	32611	32647	32717	
1299	0	4783	8009	4587	6204	4581	0	32751	32607	32790	32757	32787	32617	32679	32701	
1300	0	4756	8040	4626	6200	4582	0	32690	32583	32775	32847	32839	32539	32741	32695	
1301	0	4778	8014	4602	6134	4583	0	32733	32807	32875	32823	32847	32541	32719	32684	
1302	0	4777	8039	4558	6188	4584	0	32665	32879	32854	32878	32751	32639	32697	32647	
1303	0	4748	8023	4684	6166	4585	0	32647	32969	32759	32795	32823	32692	32677	32639	
1304	0	4753	8045	4672	6119	4586	0	32683	32783	32731	32706	32847	32703	32701	32647	
1305	0	4806	8018	4628	6192	4587	0	32715	32643	32791	32683	32797	32694	32767	32605	
1306	0	4757	8036	4665	6156	4588	0	32756	32895	32927	32635	32721	32751	32877	32686	
1307	0	4791	8020	4608	6230	4589	0	32845	32911	32943	32631	32847	32644	32767	32695	
1308	0	4779	8012	4618	6179	4590	0	32775	32895	32772	32621	32854	32683	32727	32679	
1309	0	4763	8090	4625	6211	4591	0	32706	32541	32583	32637	32743	32799	32707	32711	
1310	0	4772	8029	4606	6142	4592	0	32771	32509	32531	32567	32775	32793	32807	32671	
1311	0	4784	8024	4647	6225	4593	0	32770	32749	32692	32701	32707	32847	32751	32661	
1312	0	4763	8034	4616	6180	4594	0	32820	32679	32541	32827	32659	32687	32771	32647	
1313	0	4740	8037	4662	6206	4595	0	32799	32855	32583	32946	32783	32666	32735	32647	
1314	0	4762	8084	4648	6168	4596	0	32887	32583	32683	32815	32844	32743	32518	32639	
1315	0	4760	8028	4604	6153	4597	0	32815	32598	32749	32783	32770	32671	32570	32693	
1316	0	4778	8016	4676	6196	4598	0	32725	32783	32749	32711	32757	32727	32675	32743	
1317	0	4761	8022	4632	6177	4599	0	32770	32927	32811	32684	32719	32733	32741	32749	
1318	0	4804	8025	4600	6197	4600	0	32804	32897	32797	32572	32831	32663	32634	32681	
1319	0	4792	8061	4652	6167	4601	0	32758	32807	32894	32581	32701	32621	32683	32719	
1320	0	4772	8030	4608	6179	4602	0	32739	32836	32903	32679	32679	32711	32671	32701	
1321	0	4792	8065	4614	6216	4603	0	32769	32797	32748	32804	32799	32758	32673	32722	
1322	0	4797	8056	4643	6200	4604	0	32775	32802	32739	32775	32830	32726	32591	32693	
1323	0	4784	8033	4648	6208	4605	0	32799	32663	32681	32703	32804	32772	32441	32749	
1324	0	4817	8000	4618	6197	4606	0	32813	32655	32635	32677	32846	32645	32455	32759	
1325	0	4774	8038	4633	6183	4607	0	32727	32767	32662	32642	32730	32687	32643	32707	
1326	0	4778	8062	4611	6242	4608	0	32717	32643	32861	32463	32831	32709	32655	32625	
1327	0	4821	8004	4626	6169	4609	0	32716	32621	32835	32391	32913	32765	32647	32559	
1328	0	4794	8087	4634	6198	4610	0	32678	32716	32815	32471	32949	32737	32639	32631	
1329	0	4776	8048	4636	6195	4611	0	32767	32527	32729	32371	32861	32791	32721	32637	
1330	0	4777	8012	4597	6200	4612	0	32780	32663	32641	32475	32893	32613	32692	32575	
1331	0	4790	8078	4603	6195	4613	0	32791	32819	32719	32723	32935	32641	32583	32567	
1332	0	4852	8027	4631	6153	4614	0	32821	32839	32703	32839	32797	32748	32534	32559	
1333	0	4778	8026	4602	6166	4615	0	32756	32829	32791	32895	32669	32769	32596	32589	
1334	0	4771	8046	4640	6208	4616	0	32764	32759	32807	32954	32749	32773	32647	32631	
1335	0	4753	8012	4644	6189	4617	0	32749	32663	32759	32998	32735	32695	32615	32677	
1336	0	4786	7986	4653	6186	4618	0	32738	32863	32796	32983	32765	32647	32763	32725	
1337	0	4775	8036	4632	6186	4619	0	32846	32871	32700	32919	32717	32708	32539	32751	
1338	0	4795	8025	4659	6180	4620	0	32882	32818	32684	32551	32655	32747	32527	32756	
1339	0	4785	8044	4625	6203	4621	0	32783	32781	32846	32575	32771	32775	32631	32797	
1340	0	4788	8022	4646	6201	4622	0	32683	32737	32811	32527	32832	32695	32743	32736	
1341	0	4765	8034	4626	6154	4623	0	32647	32662	32821	32666	32771	32877	32591	32725	
1342	0	4776	8048	4660	6175	4624	0	32716	32663	32863	32839	32745	32796	32699	32711	
1343	0	4810	8039	4642	6194	4625	0	32770	32823	32787	32805	32795	32805	32692	32715	
1344	0	4812	8035	4654	6188	4626	0	32796	32830	32695	32932	32773	32806	32717	32703	
1345	0	4786	8004	4644	6179	4627	0	32775	32533	32647	32863	32815	32659	32687	32719	
1346	0	4799	8005	4624	6200	4628	0	32791	32519	32671	32727	32775	32615	32788	32729	
1347	0	4745	8044	4656	6212	4629	0	32820	32811	32749	32759	32719	32756	32614	32727	
1348	0	4797	8024	4618	6183	4630	0	32804	32805	32855	32797	32754	32730	32711	32633	
1349	0	4787	8032	4688	6240	4631	0	32822	32919	32851	32639	32730	32703	32811	32545	
1350	0	4804	8032	4638	6200	4632	0	32713	32751	32771	32615	32785	32749	32731	32541	
1351	0	4793	8009	4632	6229	4633	0	32716	32679	32807	32599	32819	32679	32707	32543	
1352	0	4798	8009	4586	6162	4634	0	32754	32639	32863	32611	32759	32789	32775	32567	
1353	0	4834	8016	4640	6158	4635	0	32716	32863	32775	32647	32775	32783	32627	32639	
1354	0	4773	8018	4643	6169	4636	0	32773	32831	32807	32562	32727	32687	32529	32702	
1355	0	4795	7974	4646	6185	4637	0	32733	32639	32804	32559	32775	32711	32545	32679	
1356	0	4810	8029	4608	6230	4638	0	32758	32423	32903	32615	32839	32803	32775	32733	
1357	0	4788	8025	4611	6194	4639	0	32775	32714	32903	32701	32859	32671	32795	32763	
1358	0	4745	8017	4567	6180	4640	0	32775	32871	32785	32743	32801	32647	32693	32679	
1359	0	4844	7996	4595	6212	4641	0	32679	33013	32799	32815	32871	32773	32632	32671	
1360	0	4822	8032	4621	6203	4642	0	32684	32594	32788	32901	32767	32751	32609	32637	
1361	0	4772	7970	4613	6212	4643	0	32751	32711	32607	32863	32775	32704	32609	32691	
1362	0	4778	8033	4624	6243	4644	0	32766	32883	32626	32887	32723	32727	32597	32763	
1363	0	4796	8033	4601	6167	4645	0	32766	32687	32706	32739	32674	32823	32647	32765	
1364	0	4771	7996	4608	6248	4646	0	32772	32748	32821	32573	32705	32861	32745	32725	
1365	0	4789	8028	4587	6213	4647	0	32786	32956	32823	32647	32787	32726	32755	32719	
1366	0	4800	8029	4627	6212	4648	0	32749	32966	32783	32699	32811	32669	32587	32701	
1367	0	4812	8008	4580	6204	4649	0	32764	32518	32782	32733	32797	32747	32655	32687	
1368	0	4786	8032	4600	6195	4650	0	32805	32367	32801	32683	32850	32831	32826	32695	
1369	0	4785	8011	4646	6208	4651	0	32813	32749	32850	32727	32775	32734	32730	32735	
1370	0	4826	7968	4629	6220	4652	0	32742	32851	32759	32750	32783	32706	32756	32735	
1371	0	4797	8016	4597	6188	4653	0	32708	32687	32827	32698	32708	32706	32725	32727	
1372	0	4806	7990	4627	6228	4654	0	32814	32850	32759	32679	32767	32775	32723	32823	
1373	0	4825	8033	4626	6200	4655	0	32809	32927	32661	32735	32783	32647	32807	32753	
1374	0	4756	8021	4604	6222	4656	0	32763	32893	32655	32875	32711	32594	32644	32756	
1375	0	4807	8054	4619	6224	4657	0	32749	32557	32645	32773	32661	32594	32567	32743	
1376	0	4812	7996	4665	6232	4658	0	32788	32611	32611	32679	32687	32659	32573	32725	
1377	0	4809	8014	4635	6260	4659	0	32743	32655	32783	32787	32855	32709	32731	32637	
1378	0	4790	8035	4618	6220	4660	0	32749	32811	32798	32845	32871	32647	32655	32673	
1379	0	4793	7976	4636	6192	4661	0	32669	32871	32701	32797	32815	32609	32698	32726	
1380	0	4763	8028	4641	6209	4662	0	32687	32743	32699	32903	32743	32719	32815	32663	
1381	0	4811	7994	4639	6207	4663	0	32679	32933	32687	33003	32765	32707	32846	32727	
1382	0	4780	8040	4682	6200	4664	0	32815	32775	32637	32686	32817	32679	32725	32679	
1383	0	4829	8004	4636	6189	4665	0	32820	32979	32567	32559	32887	32681	32573	32692	
1384	0	4803	8040	4632	6257	4666	0	32804	32668	32535	32538	32719	32701	32731	32647	
1385	0	4760	7973	4655	6204	4667	0	32761	32539	32637	32623	32742	32647	32677	32570	
1386	0	4782	7989	4641	6186	4668	0	32760	32685	32647	32694	32743	32735	32725	32615	
1387	0	4807	8024	4632	6227	4669	0	32803	32603	32731	32799	32669	32647	32599	32643	
1388	0	4793	8022	4636	6216	4670	0	32804	32773	32741	32821	32661	32723	32783	32735	
1389	0	4794	8048	4628	6208	4671	0	32816	32623	32804	32679	32590	32709	32757	32743	
1390	0	4752	8039	4621	6212	4672	0	32865	32419	32829	32715	32839	32943	32611	32805	
1391	0	4814	7997	4600	6200	4673	0	32775	32679	32935	32604	32846	32839	32707	32809	
1392	0	4796	7960	4576	6232	4674	0	32710	32639	32903	32647	32823	32652	32587	32660	
1393	0	4836	7943	4612	6205	4675	0	32775	32445	32829	32828	32876	32677	32775	32687	
1394	0	4803	8033	4668	6200	4676	0	32725	32811	32807	32796	32767	32673	32671	32543	
1395	0	4789	7993	4592	6228	4677	0	32780	32855	32703	32805	32817	32642	32531	32694	
1396	0	4804	8005	4648	6264	4678	0	32775	32899	32795	32809	32839	32687	32743	32759	
1397	0	4756	7996	4620	6195	4679	0	32767	33067	32735	32765	32819	32867	32687	32601	
1398	0	4780	7954	4633	6193	4680	0	32805	33146	32690	32883	32801	32788	32559	32751	
1399	0	4821	8000	4641	6192	4681	0	32821	33039	32743	32707	32902	32677	32642	32511	
1400	0	4828	7990	4643	6230	4682	0	32784	32991	32885	32655	32822	32769	32655	32703	
1401	0	4792	8013	4662	6201	4683	0	32769	32609	32719	32557	32835	32647	32727	32693	
1402	0	4801	8044	4632	6210	4684	0	32719	32594	32738	32709	32877	32639	32479	32717	
1403	0	4805	8011	4608	6186	4685	0	32720	32599	32806	32743	32895	32677	32668	32743	
1404	0	4837	7988	4668	6206	4686	0	32674	32717	32754	32647	32980	32675	32677	32701	
1405	0	4832	8034	4598	6188	4687	0	32819	32763	32775	32709	32598	32796	32538	32647	
1406	0	4764	8021	4641	6211	4688	0	32807	32829	32679	32596	32513	32885	32695	32591	
1407	0	4818	8030	4642	6184	4689	0	32892	32879	32698	32602	32637	32829	32647	32711	
1408	0	4828	7995	4578	6260	4690	0	32775	32719	32738	32471	32647	32682	32727	32583	
1409	0	4783	7995	4627	6168	4691	0	32808	33051	32726	32574	32757	32775	32622	32710	
1410	0	4809	8018	4624	6189	4692	0	32831	32835	32815	32647	32775	32770	32479	32567	
1411	0	4777	8005	4663	6189	4693	0	32815	32551	32903	32765	32885	32543	32647	32685	
1412	0	4789	8004	4689	6202	4694	0	32739	32720	33031	32820	33007	32634	32611	32663	
1413	0	4822	8008	4605	6224	4695	0	32701	32457	32999	32644	32970	32463	32647	32804	
1414	0	4832	8009	4664	6236	4696	0	32756	32609	32919	32679	32686	32475	32738	32735	
1415	0	4822	8002	4625	6211	4697	0	32786	32685	32887	32893	32642	32662	32643	32719	
1416	0	4817	8026	4602	6240	4698	0	32825	32863	32785	32929	32787	32559	32706	32768	
1417	0	4828	7994	4632	6228	4699	0	32910	32647	32710	32869	32843	32576	32759	32736	
1418	0	4800	8004	4591	6233	4700	0	32791	32831	32566	32743	32695	32879	32815	32660	
1419	0	4819	8032	4613	6217	4701	0	32815	32706	32559	32723	32693	32807	32580	32711	
1420	0	4806	8013	4598	6268	4702	0	32788	32767	32613	32631	32767	32641	32623	32684	
1421	0	4776	8004	4638	6205	4703	0	32750	32557	32647	32757	32807	32957	32710	32631	
1422	0	4862	7976	4638	6161	4704	0	32676	32719	32646	32870	32775	32871	32765	32663	
1423	0	4804	8008	4630	6212	4705	0	32740	32975	32732	32879	32900	32687	32691	32671	
1424	0	4824	8028	4592	6212	4706	0	32727	33145	32755	32883	33090	32679	32629	32743	
1425	0	4752	7970	4610	6230	4707	0	32721	32919	32823	32815	33222	32742	32617	32758	
1426	0	4749	8012	4612	6171	4708	0	32745	32935	32819	32775	32667	33223	32715	32683	
1427	0	4813	8006	4680	6211	4709	0	32716	32835	32775	32759	32507	32964	32739	32663	
1428	0	4779	8003	4671	6235	4710	0	32703	32854	32836	32727	32885	32613	32563	32677	
1429	0	4835	8001	4660	6218	4711	0	32686	32623	32765	32716	32947	32508	32595	32655	
1430	0	4848	7968	4606	6179	4712	0	32701	32543	32643	32713	32804	32644	32599	32668	
1431	0	4784	7989	4636	6213	4713	0	32737	32719	32615	32723	32647	32693	32619	32647	
1432	0	4771	8005	4638	6198	4714	0	32768	32815	32564	32815	32823	32567	32647	32679	
1433	0	4826	8037	4589	6251	4715	0	32877	32615	32636	32719	32822	32491	32733	32615	
1434	0	4834	8013	4603	6214	4716	0	32821	32709	32757	32773	32775	32523	32767	32635	
1435	0	4834	8030	4605	6212	4717	0	32810	32617	32719	32757	32687	32637	32685	32723	
1436	0	4804	8016	4640	6239	4718	0	32780	32757	32647	32805	32663	32789	32646	32735	
1437	0	4806	8030	4627	6211	4719	0	32837	32679	32671	32803	32611	32987	32639	32692	
1438	0	4823	7983	4605	6255	4720	0	32815	32829	32795	32695	32699	32955	32647	32644	
1439	0	4814	7983	4635	6218	4721	0	32703	32871	32877	32643	32837	32749	32591	32691	
1440	0	4818	7971	4658	6233	4722	0	32669	32524	32797	32597	32919	32665	32696	32695	
1441	0	4828	8006	4547	6236	4723	0	32751	32503	32723	32559	32813	32728	32599	32679	
