# OpenSignals Text File Format
# {"00:07:80:3B:46:38": {"sensor": ["CUSTOM/0.5/1.0/V", "CUSTOM/0.5/1.0/V", "CUSTOM/0.5/1.0/V", "CUSTOM/0.5/1.0/V", "CUSTOM/0.5/1.0/V", "CUSTOM/0.5/1.0/V", "CUSTOM/0.5/1.0/V", "CUSTOM/0.5/1.0/V"], "device name": "EMGs", "column": ["nSeq", "DI", "RA_L", "RA_R", "OE_L", "OE:R", "IL_L", "IL_R", "MF_L", "MF_R"], "sync interval": 2, "time": "12:31:29.419", "comments": "", "device connection": "BTH00:07:80:3B:46:38", "channels": [1, 2, 3, 4, 5, 6, 7, 8], "date": "2017-6-2", "mode": 0, "digital IO": [0, 1], "firmware version": 772, "device": "biosignalsplux", "position": 0, "sampling rate": 1000, "label": ["RA_L", "RA_R", "OE_L", "OE:R", "IL_L", "IL_R", "MF_L", "MF_R"], "resolution": [16, 16, 16, 16, 16, 16, 16, 16], "special": [{}, {}, {}, {}, {}, {}, {}, {}]}}
# EndOfHeader
0	0	32794	32698	32531	32743	32715	32637	32631	32733	
1	0	32829	32703	32647	32958	32807	32706	32783	32727	
2	0	32924	32835	32621	33149	33005	32725	33007	32570	
3	0	32837	32709	32596	33197	32871	32900	32647	32734	
4	0	32708	32674	32551	33003	32711	32636	32431	32775	
5	0	32788	32899	32479	33490	32767	32647	32630	32701	
6	0	32847	32871	32655	33677	32791	32703	32551	32623	
7	0	32748	32755	32683	32949	32759	32530	32743	32831	
8	0	32723	32671	32863	32310	32799	32475	32846	32727	
9	0	32574	32589	32863	32515	32783	32767	32647	32599	
10	0	32527	32525	32775	32391	32647	32887	32398	32641	
11	0	32535	32495	32823	31959	32644	32757	32419	32831	
12	0	32639	32687	32679	31875	32706	32789	32571	32876	
13	0	32703	32715	32391	32069	32703	32754	32589	32959	
14	0	32727	32771	32533	32703	32849	32775	32499	32605	
15	0	32676	32630	32477	32702	32762	32805	32437	32621	
16	0	32737	32509	32551	32579	32711	32739	32570	32527	
17	0	32812	32577	32599	32659	33005	32526	33267	32534	
18	0	32818	32799	32685	32727	32963	32550	32989	32631	
19	0	32869	32695	32623	33079	32831	32775	32731	32804	
20	0	32983	32751	32611	33692	32756	32762	33096	32631	
21	0	33028	32847	32535	33887	32887	32865	33212	32495	
22	0	32820	32773	32599	33396	32941	32807	32987	32541	
23	0	32760	32595	32723	33025	32529	32781	32759	32579	
24	0	32716	32770	32668	33247	32513	32879	32493	32736	
25	0	32658	32740	32703	32926	32541	32830	32167	32895	
26	0	32652	32659	32659	32229	32631	32647	32065	33034	
27	0	32619	32727	32735	31911	32871	32535	32388	33004	
28	0	32669	32897	32695	31855	32971	32411	32837	32855	
29	0	32668	32617	32621	32214	32863	32498	32551	32831	
30	0	32839	32803	32565	33047	32689	32835	32445	32493	
31	0	32903	32895	32567	33567	32935	32989	32627	32555	
32	0	32870	32847	32500	33393	32923	32743	32441	32540	
33	0	32810	32703	32677	32839	32747	32739	32418	32775	
34	0	32773	32671	32658	32279	32967	32558	32500	32883	
35	0	32709	32743	32597	32311	32615	32359	32587	33041	
36	0	32615	32679	32799	32343	32742	32487	32739	32978	
37	0	32751	32726	32621	32927	32815	32866	33117	32698	
38	0	32800	32689	32725	33287	32810	33083	32881	32479	
39	0	32854	32791	32669	33483	32887	32989	33055	32532	
40	0	32820	32833	32521	32911	32815	32799	32953	32647	
41	0	32727	32663	32502	32542	32713	32751	32820	32766	
42	0	32757	32671	32526	32108	32775	32698	32913	32703	
43	0	32663	32788	32579	31695	32740	32519	32552	33029	
44	0	32636	32725	32381	31777	32624	32631	32201	32999	
45	0	32711	32767	32621	31683	32839	32657	32430	32982	
46	0	32706	32716	32607	31991	32861	32787	32667	32797	
47	0	32677	32620	32670	32317	32903	32789	32471	32843	
48	0	32670	32694	32509	32647	32894	32727	32951	32713	
49	0	32709	32763	32690	32598	32757	32604	33063	32510	
50	0	32788	32701	32509	32703	32599	32613	33061	32525	
51	0	32711	32709	32611	32745	32593	32565	32767	32557	
52	0	32787	32733	32439	32871	32671	32615	32571	32660	
53	0	32873	32668	32647	32877	32897	32734	32509	32602	
54	0	32843	32734	32665	33110	33007	32813	32626	32551	
55	0	32755	32787	32711	33101	32978	32814	32631	32523	
56	0	32781	32735	32629	33119	32772	32871	32512	32611	
57	0	32860	32757	32797	33007	32703	32967	32647	32541	
58	0	32726	32585	32695	32959	32533	32850	32540	32699	
59	0	32682	32669	32715	33096	32551	32825	32566	32647	
60	0	32775	32659	32687	33030	32591	32823	32575	32755	
61	0	32775	32807	32751	33453	32629	32935	32694	32631	
62	0	32836	32799	32694	33505	32903	32927	33015	32615	
63	0	32830	32775	32553	33475	33120	32839	33053	32545	
64	0	32735	32866	32679	33095	32834	32843	32762	32763	
65	0	32609	32770	32700	32663	32641	32734	32355	32815	
66	0	32553	32767	32583	32071	32455	32551	32562	32973	
67	0	32584	32634	32756	31839	32567	32447	32799	32767	
68	0	32632	32751	32691	32191	33063	32831	32739	32647	
69	0	32674	32690	32807	32455	33359	32902	32757	32590	
70	0	32756	32713	32673	32623	33639	33052	32977	32639	
71	0	32703	32743	32743	32583	33272	32980	32629	32739	
72	0	32694	32735	32607	32833	32731	32748	32604	32687	
73	0	32681	32739	32615	32923	32710	32695	32639	32735	
74	0	32751	32627	32383	32898	32735	32687	32635	32749	
75	0	32757	32711	32533	32999	32501	32663	32623	32711	
76	0	32814	32721	32462	32835	32455	32831	32283	32647	
77	0	32789	32717	32511	32839	32381	32967	32215	32821	
78	0	32869	32819	32467	32887	32347	32839	32359	32901	
79	0	32958	32772	32607	32943	32724	32844	32647	32743	
80	0	32930	32743	32493	32974	32799	32989	32647	32733	
81	0	32921	32790	32593	33127	32759	32965	32607	32667	
82	0	32956	32863	32450	33218	32663	32772	32855	32739	
83	0	32927	32827	32615	33247	32635	32767	32705	32727	
84	0	32870	32714	32622	32947	32915	32854	32695	32719	
85	0	32767	32900	32679	32798	33063	32859	32759	32679	
86	0	32807	32770	32592	32683	33012	32809	32603	32727	
87	0	32756	32599	32615	32734	32845	32829	32879	32684	
88	0	32657	32711	32647	32351	32783	32786	32223	32810	
89	0	32732	32775	32751	32431	32911	32732	32319	32741	
90	0	32743	32700	32557	32863	32963	32683	32738	32598	
91	0	32678	32738	32695	32633	32890	32691	32383	32591	
92	0	32766	32707	32725	32611	32878	32749	33030	32647	
93	0	32810	32765	32751	32369	32919	32637	33341	32679	
94	0	32782	32764	32756	32662	32885	32747	33334	32567	
95	0	32751	32699	32819	32743	32854	32759	33110	32647	
96	0	32753	32799	32633	32570	32699	32818	32705	32615	
97	0	32686	32667	32691	32413	32671	32815	32516	32644	
98	0	32731	32551	32687	32489	32565	32775	32308	32579	
99	0	32711	32599	32615	32338	32699	32694	32421	32699	
100	0	32678	32756	32549	32053	32983	32775	32326	32847	
101	0	32687	32775	32583	32455	32663	32867	32407	32754	
102	0	32671	32916	32547	32805	32567	33019	32557	32695	
103	0	32676	32862	32676	32525	32647	32667	32767	32957	
104	0	32835	32831	32564	32564	32900	32350	33751	32851	
105	0	32804	32933	32671	33023	32937	32746	33229	32583	
106	0	32801	32911	32647	33136	32571	32731	32686	32692	
107	0	32759	32740	32441	33307	32292	32605	32531	32767	
108	0	32687	32765	32647	32967	32446	32599	32380	32678	
109	0	32653	32711	32646	32819	32439	32518	32055	33111	
110	0	32620	32631	32775	32816	32657	32715	32303	33044	
111	0	32701	32769	32743	32795	32754	32807	32461	32679	
112	0	32699	32658	32493	32553	32731	32990	33007	32575	
113	0	32644	32743	32647	32333	32751	32775	32781	32735	
114	0	32714	32745	32763	32685	32693	32858	32415	32711	
115	0	32629	32754	32689	32724	32306	32613	32059	32863	
116	0	32681	32647	32699	32620	32455	32554	32519	32647	
117	0	32783	32663	32599	32631	32935	32875	32995	32468	
118	0	32852	32763	32753	32635	33179	32743	33157	32611	
119	0	32840	32671	32774	32702	33167	32597	32775	32724	
120	0	32876	32723	32711	32887	33078	32631	32647	32709	
121	0	32903	32775	32743	33045	32885	32582	32581	32839	
122	0	32892	32804	32698	32927	32803	32679	32433	32819	
123	0	32944	32773	32629	33065	32775	32471	32354	32922	
124	0	32887	32811	32687	32994	32818	32717	32689	32799	
125	0	32842	32759	32775	32965	32863	32775	32867	32699	
126	0	32758	32805	32626	32700	32957	32756	32815	32751	
127	0	32783	32763	32711	32686	32855	32751	32619	32687	
128	0	32759	32679	32503	32865	32837	32787	32501	32734	
129	0	32793	32775	32647	32921	32783	32767	32263	32690	
130	0	32791	32781	32535	32895	32789	32839	32375	32567	
131	0	32742	32714	32603	32751	32765	32817	32735	32599	
132	0	32729	32786	32557	32804	32799	32871	32799	32639	
133	0	32681	32719	32591	32767	32830	32810	32732	32679	
134	0	32750	32708	32547	32820	32834	32887	32727	32663	
135	0	32706	32733	32695	32563	32863	32791	32675	32647	
136	0	32732	32731	32543	32411	32851	32786	32637	32694	
137	0	32838	32615	32557	32540	32818	32790	32555	32647	
138	0	32801	32749	32516	32596	32827	32886	32655	32759	
139	0	32815	32727	32598	32735	32813	32911	32771	32671	
140	0	32815	32711	32775	33125	32887	32955	32743	32591	
141	0	32806	32769	32741	33308	32971	32991	32719	32599	
142	0	32845	32837	32602	33239	32852	32949	32818	32551	
143	0	32820	32775	32687	32887	32814	32891	32790	32738	
144	0	32806	32719	32646	32609	32727	32671	32867	32775	
145	0	32734	32741	32636	32305	32695	32675	32743	32871	
146	0	32753	32709	32675	32066	32797	32835	32633	32773	
147	0	32711	32679	32615	31948	32659	32621	32543	32886	
148	0	32756	32837	32590	32324	32693	32637	32525	32847	
149	0	32790	32769	32684	32557	32679	32802	32775	32811	
150	0	32805	32715	32724	32837	32765	32891	32831	32647	
151	0	32807	32663	32679	32751	32855	32919	32879	32662	
152	0	32775	32694	32515	33079	32719	32811	32713	32757	
153	0	32794	32677	32605	32955	32646	32759	32701	32731	
154	0	32804	32638	32557	32723	32691	32740	32719	32641	
155	0	32775	32615	32676	33015	32683	32743	32745	32643	
156	0	32781	32679	32671	33235	32645	32751	32723	32722	
157	0	32722	32695	32599	32771	32644	32711	32581	32671	
158	0	32731	32563	32677	32763	32708	32775	32567	32743	
159	0	32698	32735	32583	32869	32773	32599	32595	32759	
160	0	32727	32630	32739	32307	32660	32607	32407	32941	
161	0	32761	32719	32573	32146	32613	32565	32385	32998	
162	0	32849	32774	32551	32345	32735	32643	32439	33015	
163	0	32815	32749	32759	32911	32754	32791	32614	32895	
164	0	32742	32807	32887	32999	32627	32628	32807	32863	
165	0	32729	32727	32775	32879	32589	32581	32749	32690	
166	0	32720	32727	32773	32795	32663	32815	32590	32835	
167	0	32735	32831	32751	32875	32662	32681	32547	33003	
168	0	32735	32790	32743	32617	32903	32846	32889	32864	
169	0	32756	32766	32765	32583	32959	33111	32835	32559	
170	0	32727	32662	32647	32692	32999	33221	32412	32789	
171	0	32750	32692	32716	32639	32899	32947	32399	32851	
172	0	32701	32647	32655	32747	32765	32850	32747	32481	
173	0	32772	32711	32473	32813	32763	32745	32950	32147	
174	0	32783	32801	32548	32855	32868	32967	32927	32007	
175	0	32763	32670	32519	32983	32775	32999	32684	32203	
176	0	32704	32677	32647	32949	32579	32666	32570	32365	
177	0	32874	32727	32527	32949	32821	32731	32937	32274	
178	0	32807	32580	32569	32612	32811	32740	32687	32903	
179	0	32727	32626	32758	32259	32873	32526	32335	33281	
180	0	32819	32765	32603	32499	32983	32694	32621	32819	
181	0	32799	32751	32596	32891	32919	32647	32845	32634	
182	0	32810	32791	32511	32965	32775	32567	32775	32671	
183	0	32740	32695	32351	32989	32613	32623	32829	32628	
184	0	32683	32765	32471	32887	32668	32579	32825	32903	
185	0	32748	32799	32527	32807	32757	32586	32756	33019	
186	0	32666	32775	32669	32634	32823	32578	32639	33159	
187	0	32684	32687	32687	32509	32795	32594	32518	33127	
188	0	32671	32615	32559	32631	32767	32793	32711	32797	
189	0	32685	32697	32583	32852	32814	32887	32687	32815	
190	0	32693	32725	32527	32916	32825	32873	32668	32655	
191	0	32701	32643	32519	32847	32775	32935	32775	32620	
192	0	32710	32555	32455	32895	32679	32816	32663	32743	
193	0	32705	32743	32573	32809	32699	32745	32511	32708	
194	0	32729	32623	32468	32642	32704	32684	32789	32647	
195	0	32775	32763	32647	32691	32727	32669	32669	32733	
196	0	32763	32725	32767	32689	32877	32698	32775	32709	
197	0	32775	32631	32703	32807	32797	32723	32757	32714	
198	0	32793	32743	32621	32886	32722	32641	32791	32647	
199	0	32793	32821	32782	32883	32715	32643	32735	32694	
200	0	32856	32790	32695	32782	32821	32815	32661	32637	
201	0	32879	32675	32803	32791	32850	32799	32749	32787	
202	0	32876	32827	32731	32871	32797	32767	32749	32825	
203	0	32871	32869	32844	32877	32767	32709	32695	32851	
204	0	32850	32679	32611	32817	32819	32738	32773	32850	
205	0	32834	32837	32725	32834	32818	32803	32739	32756	
206	0	32800	32835	32576	32803	32790	32839	32503	32834	
207	0	32780	32615	32645	32800	32839	32855	32659	32819	
208	0	32745	32732	32751	32789	32727	32671	32748	32530	
209	0	32790	32711	32615	32789	32851	32663	32783	32619	
210	0	32860	32797	32668	32811	33075	32973	32639	32647	
211	0	32844	32679	32489	32759	33015	32867	32633	32615	
212	0	32824	32667	32647	32616	32862	32813	32594	32839	
213	0	32754	32749	32673	32775	32783	32742	32569	32735	
214	0	32847	32716	32718	32710	32743	32599	32628	32709	
215	0	32816	32737	32630	32687	32955	32924	32839	32527	
216	0	32858	32711	32468	32853	33203	33321	32903	32535	
217	0	32871	32791	32598	32583	32827	32809	32719	32510	
218	0	32811	32743	32645	32667	32423	32567	32468	32795	
219	0	32784	32675	32695	32535	32402	32693	32445	32662	
220	0	32775	32679	32647	32647	32497	32953	32429	32447	
221	0	32788	32861	32725	32607	32493	32879	32372	32475	
222	0	32706	32759	32589	32811	32441	32647	32564	32687	
223	0	32775	32790	32575	32819	32678	32498	32898	32847	
224	0	32801	32783	32775	33003	33135	32785	33113	32503	
225	0	32792	32883	32700	33063	33159	32742	33001	32791	
226	0	32802	32822	32742	33014	32839	32602	32838	33147	
227	0	32640	32613	32715	32969	32890	32786	32711	32973	
228	0	32647	32690	32799	33037	32959	32951	32821	32607	
229	0	32668	32742	32818	32987	32781	32987	32582	32677	
230	0	32729	32660	32735	32973	32943	33092	32279	32722	
231	0	32628	32735	32601	32739	32358	32756	32081	32605	
232	0	32593	32695	32699	32413	31830	32373	32327	32567	
233	0	32639	32647	32599	32385	32095	32372	32511	32839	
234	0	32672	32726	32577	32436	32628	32359	32871	32981	
235	0	32711	32838	32710	32644	33263	32663	33191	32623	
236	0	32693	32607	32799	32692	33167	32997	33127	32621	
237	0	32754	32711	32734	32567	32960	32903	32675	32599	
238	0	32831	32732	32603	32614	32606	32827	32699	32597	
239	0	32854	32655	32605	32647	32423	32703	32772	32621	
240	0	32789	32705	32623	32627	32583	32719	32844	32806	
241	0	32708	32711	32647	32602	32610	32713	32567	32962	
242	0	32717	32683	32551	32727	32711	32767	32411	32711	
243	0	32820	32940	32515	32950	32767	32715	32402	32808	
244	0	32815	32863	32722	32787	32847	32675	32420	32813	
245	0	32876	32866	32771	32745	32999	32639	32534	32479	
246	0	32846	32766	32891	32639	32978	32699	32749	32463	
247	0	32780	32775	32726	32601	32927	32763	32742	32443	
248	0	32677	32683	32847	32799	32823	32845	32786	32511	
249	0	32695	32751	32755	32719	32991	32954	32639	32611	
250	0	32784	32634	32807	32735	32862	32852	32543	32791	
251	0	32685	32743	32663	32782	33011	33103	32599	32685	
252	0	32787	32642	32695	32676	32901	32799	32706	32831	
253	0	32715	32677	32559	32738	32980	32717	32764	32763	
254	0	32807	32622	32500	32719	32822	32775	32751	32775	
255	0	32747	32694	32621	32597	32747	32699	32661	32775	
256	0	32723	32589	32541	32663	32647	32813	32655	32703	
257	0	32808	32483	32715	32743	32735	32871	32690	32691	
258	0	32784	32516	32571	32723	32810	32839	32675	32823	
259	0	32844	32531	32647	32671	32877	32827	32589	32711	
260	0	32759	32503	32502	32579	32897	32703	32647	32716	
261	0	32798	32625	32581	32609	32687	32595	32767	32578	
262	0	32831	32711	32412	32631	32612	32626	32715	32599	
263	0	32767	32623	32599	32759	32634	32629	32683	32754	
264	0	32739	32839	32510	32711	32702	32615	32841	32715	
265	0	32791	32799	32547	32747	32757	32602	32751	32831	
266	0	32841	32854	32559	32811	32797	32702	32515	32739	
267	0	32795	32815	32735	32943	32771	32727	32629	32540	
268	0	32775	32935	32629	32799	32831	32871	32602	32471	
269	0	32737	32903	32695	32711	33063	32989	32775	32695	
270	0	32703	32841	32613	32789	33023	32855	32797	32817	
271	0	32715	32775	32635	32854	32745	32629	32619	32954	
272	0	32647	32813	32485	32823	32759	32630	32663	33063	
273	0	32607	32807	32497	32775	32762	32759	32708	32887	
274	0	32702	32967	32541	32813	32823	32957	32698	32627	
275	0	32705	32879	32727	32799	32676	32818	32684	32483	
276	0	32773	32870	32750	32793	32711	32871	32685	32301	
277	0	32832	32871	32723	32567	32877	32743	32599	32685	
278	0	32827	32895	32695	32631	32753	32543	32695	32590	
279	0	32823	32807	32687	32707	32790	32411	32619	33005	
280	0	32791	32765	32767	32821	32879	32389	32546	32887	
281	0	32884	32807	32502	32959	32894	32725	32707	32342	
282	0	32846	32747	32609	32871	33197	33007	32983	32293	
283	0	32783	32831	32799	32863	33103	32935	32811	32658	
284	0	32772	32883	32692	32931	32901	32871	32799	32703	
285	0	32747	32731	32669	32839	32756	32759	32708	32663	
286	0	32706	32814	32575	32607	32427	32671	32548	32695	
287	0	32596	32620	32577	32461	32276	32495	32357	33003	
288	0	32753	32557	32435	32527	32401	32515	32541	32791	
289	0	32751	32759	32591	32535	32562	32631	32663	32449	
290	0	32748	32716	32623	32623	32849	32607	32635	32628	
291	0	32775	32685	32661	32675	32903	32621	32801	32937	
292	0	32703	32733	32758	32546	32940	32647	32583	33127	
293	0	32636	32639	32692	32475	32671	32665	32647	32865	
294	0	32731	32671	32815	32730	32669	32813	32631	32847	
295	0	32775	32763	32628	32855	32491	32876	32647	32812	
296	0	32771	32645	32589	32841	32422	32766	32647	32799	
297	0	32811	32721	32535	32795	32635	32694	32775	32713	
298	0	32821	32658	32708	32837	32783	32647	32738	32711	
299	0	32805	32629	32623	32959	32791	32580	32655	32757	
300	0	32783	32749	32669	32807	32799	32591	32475	32711	
301	0	32839	32723	32637	32814	32631	32511	32647	32660	
302	0	32757	32628	32667	32739	32655	32679	32759	32807	
303	0	32622	32731	32527	32803	32942	32719	32807	32815	
304	0	32656	32767	32591	32950	33212	32979	32833	32613	
305	0	32742	32627	32518	32839	32990	32917	32775	32547	
306	0	32796	32707	32751	32679	32887	32822	32655	32403	
307	0	32695	32703	32827	32663	32895	32895	32583	32587	
308	0	32742	32623	32742	32709	32890	32878	32647	32707	
309	0	32769	32763	32847	32767	32845	32869	32695	32627	
310	0	32686	32675	32787	32647	32818	32775	32599	32735	
311	0	32703	32623	32553	32623	32771	32849	32726	32575	
312	0	32769	32565	32637	32707	32854	32887	32567	32796	
313	0	32802	32719	32487	32791	32831	32943	32596	32815	
314	0	32767	32687	32714	32743	32671	32855	32413	32795	
315	0	32781	32607	32519	32738	32751	32803	32583	32757	
316	0	32780	32683	32607	32660	32857	32455	32931	32629	
317	0	32832	32715	32525	32755	32943	32607	32829	32602	
318	0	32819	32740	32615	32695	33028	32836	32759	32557	
319	0	32931	32807	32675	32679	33035	32652	32924	32684	
320	0	32878	32883	32711	32753	32919	32663	32909	32715	
321	0	32842	32759	32537	32819	32758	32581	32823	32851	
322	0	32810	32939	32635	32731	32754	32645	32427	32869	
323	0	32868	32925	32493	32839	32966	32868	32439	32775	
324	0	32767	32815	32740	32831	32835	33111	32827	32687	
325	0	32762	32838	32612	32763	32567	32860	32704	32903	
326	0	32780	32863	32685	32823	32699	32759	32943	33031	
327	0	32893	32773	32701	32877	32911	32516	33295	32783	
328	0	32884	32802	32722	32758	32887	32559	32830	32619	
329	0	32818	32799	32685	32639	32827	32795	32319	32667	
330	0	32871	32719	32661	32599	32847	32885	32449	32679	
331	0	32759	32666	32685	32647	32675	32623	32543	32863	
332	0	32762	32716	32710	32775	32775	32682	32621	32697	
333	0	32775	32620	32500	32749	32764	32731	32635	32685	
334	0	32711	32538	32509	32703	32775	32625	32751	32711	
335	0	32814	32630	32862	32643	33085	32814	32701	32770	
336	0	32727	32623	32829	32739	32559	32839	32263	32765	
337	0	32708	32733	32669	32830	32471	32903	32341	32684	
338	0	32724	32687	32719	32878	32567	32941	32647	32821	
339	0	32749	32644	32533	32873	32583	32831	32727	32903	
340	0	32695	32775	32690	32630	32463	32642	32679	32813	
341	0	32748	32759	32703	32687	32489	32675	32813	32697	
342	0	32765	32738	32853	32783	32821	32843	32815	32354	
343	0	32823	32743	32860	32829	32853	32858	32566	32551	
344	0	32756	32749	32927	32839	32957	32863	32607	32612	
345	0	32791	32663	32811	32679	32855	32613	32892	32655	
346	0	32786	32795	32827	32647	32941	32598	32751	32743	
347	0	32807	32694	32710	32703	32911	32563	32498	32701	
348	0	32854	32771	32711	32699	32899	32749	32615	32839	
349	0	32823	32791	32555	32823	33143	32859	32967	32611	
350	0	32822	32637	32775	32791	33063	32771	32921	32475	
351	0	32819	32692	32743	32751	32751	32764	32757	32577	
352	0	32764	32635	32755	32734	32503	32745	32615	32655	
353	0	32791	32783	32772	32773	32471	32671	33012	32614	
354	0	32789	32709	32580	32638	32426	32703	32687	32847	
355	0	32824	32598	32701	32692	32647	32647	32399	32866	
356	0	32833	32775	32533	32717	32788	32647	32483	32932	
357	0	32860	32734	32655	32771	32955	32541	32767	32706	
358	0	32845	32663	32548	32713	32893	32525	32631	32727	
359	0	32821	32733	32471	32750	32959	32643	32879	32815	
360	0	32807	32775	32455	32817	33039	32684	32863	32723	
361	0	32772	32749	32615	32687	33039	32647	32739	32719	
362	0	32751	32647	32420	32695	32703	32623	32557	32834	
363	0	32783	32751	32519	32716	32547	32685	32620	32884	
364	0	32678	32819	32327	32751	32391	32812	32511	32631	
365	0	32690	32807	32540	32764	32380	32959	32548	32549	
366	0	32660	32887	32615	32748	32619	32903	32487	32671	
367	0	32697	32708	32551	32667	32810	32727	32439	32699	
368	0	32687	32716	32541	32685	32915	32727	32747	32490	
369	0	32725	32783	32447	32674	32903	32667	32668	32623	
370	0	32705	32755	32527	32704	32895	32679	32735	32719	
371	0	32645	32799	32487	32734	32963	32740	32740	32791	
372	0	32671	32756	32502	32637	32852	33062	32847	32690	
373	0	32655	32667	32404	32676	32684	32759	32694	32762	
374	0	32671	32746	32519	32675	32754	32822	32653	32867	
375	0	32697	32677	32452	32749	32727	32935	32677	32775	
376	0	32640	32621	32607	32615	32754	32983	32620	32826	
377	0	32703	32729	32575	32775	32831	32989	32557	32738	
378	0	32795	32707	32551	32815	32919	32911	32461	32635	
379	0	32752	32635	32450	32722	33007	32748	32790	32599	
380	0	32716	32739	32675	32637	32884	32669	32790	32515	
381	0	32694	32685	32625	32719	32613	32627	32767	32682	
382	0	32731	32756	32559	32741	32639	32615	32743	32647	
383	0	32773	32789	32503	32805	32813	32601	32452	32803	
384	0	32783	32879	32679	32855	32861	32553	32382	32811	
385	0	32852	32991	32327	32997	32831	32535	32606	32832	
386	0	32898	32855	32487	32932	32749	32473	32885	32927	
387	0	32831	32951	32589	32841	32575	32347	32799	32967	
388	0	32815	32889	32591	32877	32705	32643	32685	33028	
389	0	32809	32775	32601	32930	32895	32727	32647	32847	
390	0	32951	32995	32703	32899	32675	32439	32892	32595	
391	0	32989	32933	32719	32853	32645	32587	32743	32445	
392	0	33015	32815	32732	32667	32799	32741	32599	32573	
393	0	32924	32773	32821	32644	32839	32807	32591	32749	
394	0	32884	32655	32683	32647	32716	32498	32719	32717	
395	0	32913	32740	32671	32615	32583	32311	32583	32812	
396	0	32978	32748	32532	32660	33111	32585	32751	32822	
397	0	32892	32679	32663	32481	32821	32617	32579	32715	
398	0	32862	32647	32509	32445	32283	32749	32117	32855	
399	0	32813	32524	32617	32495	32207	32595	32041	33031	
400	0	32745	32455	32356	32615	32251	32644	32421	32775	
401	0	32804	32579	32463	32609	32439	32999	32527	32719	
402	0	32783	32556	32687	32757	32708	33042	32471	32791	
403	0	32676	32531	32415	32589	32787	32751	32647	33073	
404	0	32586	32487	32301	32705	32710	32582	32723	33107	
405	0	32687	32628	32495	32764	32711	32847	32738	32647	
406	0	32620	32647	32455	32717	32868	33101	33061	31957	
407	0	32479	32359	32485	32652	33022	33167	33015	32398	
408	0	32370	32311	32347	32766	32951	32941	33007	32483	
409	0	32276	32309	32525	32807	32674	32767	32867	32463	
410	0	32287	32108	32458	32639	32677	32745	32721	32599	
411	0	32157	32151	32630	32629	32799	32799	32711	32715	
412	0	32100	32071	32451	32791	32693	32854	32452	32903	
413	0	32087	32123	32619	32677	32621	32943	32543	32731	
414	0	32087	32135	32655	32727	32749	33019	32855	32527	
415	0	32028	32249	32812	32800	32818	33039	33027	32325	
416	0	31994	32351	32758	32822	33053	32927	33221	32262	
417	0	31997	32307	32603	32749	33101	32847	33176	32287	
418	0	32071	32679	32591	32871	33043	32844	33220	32291	
419	0	32015	32685	32593	32855	32727	32725	32888	32445	
420	0	32089	32647	32706	32899	32715	32669	32933	32543	
421	0	32031	32827	32566	32948	32828	32671	32994	32391	
422	0	32036	32959	32623	33031	32823	32663	33015	32487	
423	0	32206	32967	32639	32871	32967	32682	32919	32454	
424	0	32225	32967	32843	32975	32923	32579	32678	32669	
425	0	32384	33083	32855	32843	32879	32709	32562	32687	
426	0	32647	33121	32871	32796	32775	32662	32561	32853	
427	0	33010	33175	32749	32685	32993	32703	32789	32795	
428	0	33201	33415	32681	32700	32997	32701	32809	32679	
429	0	33283	33439	32719	32839	32943	32685	32689	32767	
430	0	33459	33415	32815	33060	33117	32734	32667	32803	
431	0	33464	33319	32971	33005	32957	32595	32527	32850	
432	0	33596	33375	32807	32879	32879	32707	32423	32775	
433	0	33508	33231	32807	32931	32631	32694	32197	32815	
434	0	33471	33159	32679	32775	32671	32793	32284	32881	
435	0	33415	33055	32695	32707	32709	32743	32575	32793	
436	0	33330	32747	32673	32662	32563	32701	32297	32999	
437	0	33363	32929	32879	32709	32871	32783	32236	32964	
438	0	33439	32859	32855	32669	32715	32673	32181	32878	
439	0	33254	32807	32995	32676	32685	32518	32161	32990	
440	0	33244	32791	32871	32743	32644	32654	32638	32988	
441	0	33324	32866	32924	32807	32717	32613	32966	32903	
442	0	33284	33069	32706	32874	32951	32757	32655	33077	
443	0	33308	33011	32914	32823	32995	32738	32551	32999	
444	0	33295	32911	32586	32759	32886	32644	32582	33031	
445	0	33199	32923	32702	32743	32708	32679	32377	33037	
446	0	33149	32855	32500	32765	32535	32759	32429	32754	
447	0	33057	32835	32635	32602	32583	32718	32423	32559	
448	0	32909	32733	32447	32643	33019	33103	32338	32727	
449	0	32921	32748	32536	32587	32849	32999	32439	32861	
450	0	32908	32614	32531	32583	32589	32685	32406	32775	
451	0	32889	32759	32359	32590	32674	32695	32517	32775	
452	0	32854	32703	32519	32663	32860	32631	33095	32647	
453	0	32794	32587	32707	32665	32639	32569	32887	32682	
454	0	32706	32543	32647	32565	32755	32615	32725	32791	
455	0	32735	32607	32507	32547	32775	32612	32790	32706	
456	0	32647	32571	32410	32621	32711	32535	32775	32803	
457	0	32669	32493	32502	32734	32731	32753	32929	32577	
458	0	32630	32528	32615	32849	32701	32711	32735	32668	
459	0	32647	32439	32569	32799	32667	32761	32575	32683	
460	0	32644	32486	32289	32687	32711	32885	32671	32607	
461	0	32756	32663	32463	32829	32781	32871	32605	32527	
462	0	32655	32567	32381	32815	32772	32751	32582	32601	
463	0	32628	32571	32573	32885	32799	32769	32875	32566	
464	0	32608	32591	32527	32855	32935	32867	32711	32769	
465	0	32663	32603	32508	32903	32879	32612	32847	32877	
466	0	32742	32701	32353	32877	32791	32596	32741	32775	
467	0	32736	32679	32452	32868	32895	32683	32903	32671	
468	0	32607	32559	32379	32819	32861	32602	32763	32671	
469	0	32585	32551	32615	32831	32655	32543	32763	32676	
470	0	32572	32615	32583	32673	32721	32511	32639	32719	
471	0	32589	32647	32748	32727	32775	32636	32515	32703	
472	0	32567	32587	32669	32702	32818	32639	32567	32671	
473	0	32631	32731	32511	32637	32703	32639	32548	32645	
474	0	32706	32677	32644	32615	32710	32749	32604	32636	
475	0	32718	32539	32537	32639	32806	32775	32675	32653	
476	0	32649	32565	32639	32693	32745	32775	32615	32623	
477	0	32661	32583	32471	32811	32695	32796	32693	32647	
478	0	32716	32497	32537	32662	32815	32783	32773	32647	
479	0	32734	32634	32647	32756	32863	32749	32803	32751	
480	0	32751	32733	32599	32697	32895	32764	32751	32797	
481	0	32724	32666	32601	32695	33004	32828	32734	32821	
482	0	32788	32751	32519	32804	32917	32879	32723	32679	
483	0	32758	32751	32724	32751	32875	32954	32761	32509	
484	0	32662	32758	32833	32709	32731	32803	32722	32724	
485	0	32621	32601	33005	32661	32775	32723	32759	32895	
486	0	32681	32631	32829	32718	32701	32683	32647	32831	
487	0	32718	32783	32748	32747	32732	32774	32751	32464	
488	0	32791	32807	32551	32799	32686	32773	32715	32537	
489	0	32810	32846	32612	32790	32638	32681	32363	32719	
490	0	32786	32799	32623	32722	32714	32573	32439	32683	
491	0	32756	32647	32749	32717	32951	32775	32679	32806	
492	0	32771	32727	32681	32739	32871	32775	32634	32775	
493	0	32758	32711	32803	32815	32791	32681	32751	32795	
494	0	32812	32669	32823	32863	32861	32759	32743	32615	
495	0	32801	32663	32530	32853	32829	32863	32754	32639	
496	0	32769	32734	32703	32723	32741	32818	32607	32709	
497	0	32804	32751	32574	32621	32733	32763	32559	32699	
498	0	32831	32743	32613	32711	32715	32803	32553	32727	
499	0	32748	32858	32556	32775	32711	32694	32742	32685	
500	0	32740	32775	32671	32873	32807	32795	32775	32765	
501	0	32788	32698	32565	32943	32823	32935	32784	32676	
502	0	32727	32814	32609	32926	32755	32935	32754	32591	
503	0	32804	32867	32527	32751	32775	32603	32567	32807	
504	0	32746	32925	32515	32679	32615	32500	32713	32807	
505	0	32718	32742	32663	32475	32647	32647	32573	32743	
506	0	32738	32791	32563	32571	32677	32687	32647	32647	
507	0	32900	32947	32423	32583	32725	32743	32734	32551	
508	0	32789	32775	32610	32846	32927	32894	32567	32727	
509	0	32830	32815	32711	32711	33131	32925	32611	32715	
510	0	32663	32791	32747	32793	32963	32817	32667	32841	
511	0	32688	32766	32844	32747	32757	32793	32765	32743	
512	0	32719	32739	32735	32731	32559	32663	32717	32595	
513	0	32646	32703	32715	32834	32660	32734	32613	32687	
514	0	32679	32668	32705	32879	32809	32808	32643	32599	
515	0	32705	32487	32862	32625	32759	32746	32581	32676	
516	0	32727	32610	32789	32678	32577	32591	32557	32755	
517	0	32807	32607	32511	32743	32695	32929	32758	32677	
518	0	32806	32737	32617	32834	32890	33082	32757	32619	
519	0	32930	32755	32655	32859	32815	32766	32519	32951	
520	0	32861	32903	32815	32641	32623	32602	32564	32833	
521	0	32890	32847	32639	32675	32569	32631	32623	32627	
522	0	32796	32671	32749	32861	32647	32826	32665	32671	
523	0	32742	32683	32626	32831	32790	32820	32767	32745	
524	0	32676	32759	32679	32759	32717	32790	32703	32814	
525	0	32663	32733	32643	32749	32679	32823	32697	32751	
526	0	32647	32758	32659	32541	32738	32863	32631	32807	
527	0	32716	32834	32480	32674	32835	32859	32703	32711	
528	0	32730	32827	32455	32819	32844	32717	32620	32806	
529	0	32731	32655	32436	32639	32793	32663	32547	32791	
530	0	32690	32647	32543	32735	32743	32685	32613	32647	
531	0	32695	32663	32525	32863	32794	32763	32647	32663	
532	0	32775	32554	32563	32837	32827	32811	32722	32623	
533	0	32850	32836	32364	32623	32843	32850	32763	32647	
534	0	32818	32787	32229	32687	32789	32758	32711	32615	
535	0	32757	32685	32495	32735	32743	32711	32735	32709	
536	0	32766	32591	32462	32570	32696	32773	32593	32625	
537	0	32852	32734	32676	32623	32751	32743	32695	32645	
538	0	32799	32775	32813	32627	32903	32812	32791	32601	
539	0	32677	32583	33050	32719	32975	32732	32782	32703	
540	0	32694	32659	33052	32823	32941	32612	32701	32623	
541	0	32812	32726	32935	32869	32860	32661	32587	32755	
542	0	32872	32739	32808	32996	32707	32583	32663	32771	
543	0	32732	32807	32775	33007	32759	32459	32751	32872	
544	0	32725	32791	32797	32846	32894	32514	32791	32822	
545	0	32687	32788	32671	32807	32849	32487	32647	32868	
546	0	32631	32722	32809	32593	32823	32743	32579	32734	
547	0	32788	32817	32775	32767	32797	32759	32597	32807	
548	0	32814	32841	32535	32567	32687	32745	32607	32795	
549	0	32684	32687	32623	32511	32647	32812	32486	32749	
550	0	32655	32571	32519	32612	32654	32791	32531	32743	
551	0	32715	32631	32513	32642	32647	32912	32815	32604	
552	0	32711	32607	32248	32647	32581	32837	32679	32759	
553	0	32738	32723	32271	32705	32791	32823	32751	32739	
554	0	32735	32718	32253	32679	33017	32743	32731	32628	
555	0	32815	32611	32549	32785	32979	32677	32996	32575	
556	0	32831	32773	32587	32695	32833	32693	32871	32567	
557	0	32838	32751	32541	32839	32807	32717	32695	32647	
558	0	32903	32819	32583	32879	32825	32795	32595	32548	
559	0	32822	32687	32493	32879	32791	32700	32535	32636	
560	0	32767	32734	32642	32763	32724	32647	32567	32679	
561	0	32719	32751	32707	32695	32767	32641	32755	32823	
562	0	32800	32775	32658	32766	32743	32578	32764	32820	
563	0	32804	32903	32615	32833	32749	32547	32730	32702	
564	0	32822	32870	32698	32867	32735	32503	32695	32809	
565	0	32791	32775	32557	32643	32719	32699	32699	32773	
566	0	32804	32695	32615	32683	32686	32705	32663	32765	
567	0	32711	32735	32743	32638	32697	32767	32631	32695	
568	0	32716	32727	32742	32711	32729	32704	32647	32753	
569	0	32796	32715	32775	32829	32711	32545	32643	32733	
570	0	32788	32598	32658	32919	32705	32662	32523	32799	
571	0	32823	32711	32623	32878	32771	32723	32471	32644	
572	0	32734	32703	32919	32700	32923	32685	32717	32749	
573	0	32748	32686	32919	32862	33026	32719	32789	32638	
574	0	32745	32791	32903	32771	32798	32685	32831	32549	
575	0	32800	32869	32674	32759	32813	32565	32751	32498	
576	0	32780	32796	32518	32495	32834	32527	32668	32707	
577	0	32830	32559	32631	32406	32689	32451	32513	32757	
578	0	32660	32503	32459	32598	32535	32515	32554	32667	
579	0	32727	32579	32580	32666	32491	32687	32587	32134	
580	0	32791	32666	32703	32787	32709	32663	32629	32255	
581	0	32763	32595	32619	32775	32807	32659	32607	32669	
582	0	32769	32734	32466	32725	32745	32631	32535	33025	
583	0	32788	32806	32583	32818	32689	32673	32721	32787	
584	0	32817	32759	32556	32867	32641	32589	32602	32961	
585	0	32726	32759	32815	32771	32703	32461	32694	32983	
586	0	32688	32687	32877	32734	32903	32519	32833	32903	
587	0	32720	32735	32793	32647	32993	32574	32815	32835	
588	0	32761	32731	32521	32565	32983	32647	32687	32713	
589	0	32736	32775	32647	32591	32898	32617	32539	32757	
590	0	32871	32775	32766	32647	32761	32503	32540	32761	
591	0	32823	32851	32759	32739	32735	32658	32575	32733	
592	0	32687	32822	32567	32815	32911	32989	32711	32583	
593	0	32808	32855	32660	32743	32854	33012	32697	32514	
594	0	32696	32743	32611	32679	32692	32927	32660	32549	
595	0	32708	32615	32823	32892	32684	32615	32691	32782	
596	0	32671	32737	32865	32961	32879	32775	32765	32679	
597	0	32590	32663	32889	32822	32943	32875	32647	32722	
598	0	32664	32679	32706	32747	32707	32439	32620	32747	
599	0	32769	32647	32702	32774	32685	32469	32563	32471	
600	0	32783	32854	32489	32751	32807	32845	32742	32355	
601	0	32705	32829	32514	32559	32843	32795	32890	32551	
602	0	32791	32647	32447	32702	32790	32674	32679	32653	
603	0	32797	32735	32326	32733	32803	32473	32543	33047	
604	0	32827	32791	32335	32735	32903	32599	32589	33076	
605	0	32773	32715	32325	32887	32698	32479	32669	32947	
606	0	32721	32663	32459	32659	32466	32175	32682	32775	
607	0	32688	32723	32508	32611	32598	32293	32668	32722	
608	0	32722	32723	32891	32716	32756	32801	32561	32775	
609	0	32748	32655	33023	32761	32740	32712	32434	32863	
610	0	32775	32765	32719	32787	32694	32519	32613	32915	
611	0	32684	32646	32757	32751	32679	32583	32684	32815	
612	0	32710	32799	32579	32837	32791	32810	32763	32723	
613	0	32725	32859	32558	32819	32863	32903	32711	32611	
614	0	32711	32786	32468	32795	32809	32693	32606	32815	
615	0	32730	32811	32628	32831	32895	32471	32831	32689	
616	0	32815	32819	32447	32805	32935	32621	32813	32663	
617	0	32799	32687	32511	32775	32855	32549	32834	32551	
618	0	32780	32670	32349	32694	32715	32402	32819	32493	
619	0	32804	32687	32540	32871	32887	32717	32884	32447	
620	0	32807	32775	32460	32901	33099	33010	32877	32263	
621	0	32743	32761	32641	32813	32891	32788	32774	32694	
622	0	32662	32699	32543	32819	32692	32679	32567	32899	
623	0	32735	32647	32747	32836	32719	32679	32334	33024	
624	0	32723	32772	32631	32775	32751	32633	32263	33053	
625	0	32758	32723	32739	32621	32807	32843	32518	32443	
626	0	32711	32802	32602	32862	32839	33006	32683	32557	
627	0	32711	32746	32643	32748	32766	32775	32819	32695	
628	0	32685	32831	32647	32583	32719	32799	32719	32775	
629	0	32699	32835	32580	32607	32773	32859	32781	32709	
630	0	32678	32619	32647	32581	32807	32895	32647	32869	
631	0	32665	32803	32450	32519	32647	32989	32591	32966	
632	0	32684	32766	32609	32485	32668	32938	32623	32827	
633	0	32743	32811	32646	32693	32799	32903	32791	32599	
634	0	32766	32725	32647	32678	32869	32823	32633	32535	
635	0	32799	32775	32471	32573	32919	32751	32727	32493	
636	0	32716	32623	32485	32587	32751	32719	32679	32605	
637	0	32652	32607	32573	32743	32727	32628	32775	32555	
638	0	32700	32727	32733	32769	32757	32929	32783	32415	
639	0	32718	32719	32835	32795	32839	33023	32647	32471	
640	0	32811	32646	32742	32669	32868	33067	32735	32645	
641	0	32812	32717	32806	32723	32863	33005	32624	32775	
642	0	32713	32711	32711	32893	32743	32773	32487	33063	
643	0	32698	32775	32727	32882	32738	32854	32526	32858	
644	0	32748	32796	32701	32903	32871	32914	32567	32821	
645	0	32685	32835	32755	33007	32839	32899	32701	32753	
646	0	32788	32788	32493	33061	32775	32860	32646	32739	
647	0	32798	32662	32637	32957	32669	32837	32604	32845	
648	0	32735	32710	32655	32932	32647	32833	32507	32899	
649	0	32711	32647	32639	32765	32667	32941	32481	32927	
650	0	32723	32571	32492	32679	32694	33001	32530	32773	
651	0	32775	32679	32735	32746	32661	32628	32859	32545	
652	0	32639	32723	32675	32661	32741	32556	32903	32444	
653	0	32727	32711	32831	32749	33327	32966	32987	32487	
654	0	32760	32863	32711	32827	33188	32916	32916	32385	
655	0	32742	32731	32537	32695	32935	32639	32493	32524	
656	0	32756	32663	32732	32674	32901	32673	32775	32213	
657	0	32781	32836	32479	32695	32783	32894	32695	32221	
658	0	32877	32757	32557	32767	32662	32805	32658	32663	
659	0	32831	32698	32551	32735	32661	32527	32826	32743	
660	0	32855	32839	32609	32583	32851	32719	32735	33095	
661	0	32851	32677	32595	32647	32855	32754	32543	33093	
662	0	32783	32683	32735	32731	32515	32538	32497	33175	
663	0	32800	32647	32796	32759	32630	32628	32516	32991	
664	0	32826	32895	32850	32842	32791	32713	32799	32742	
665	0	32820	32935	32745	33007	32717	32537	33231	32373	
666	0	32816	32767	32623	32911	32647	32435	33014	32946	
667	0	32751	32715	32595	32871	32674	32535	32694	33127	
668	0	32806	32773	32653	32631	32686	32719	32455	32959	
669	0	32751	32667	32475	32735	32527	32767	32454	32924	
670	0	32769	32607	32621	32727	32633	32935	32388	32617	
671	0	32808	32683	32612	32637	32647	32977	32367	32673	
672	0	32732	32735	32543	32630	32405	32813	32591	32647	
673	0	32708	32628	32535	32663	32510	32835	32765	32699	
674	0	32647	32571	32636	32567	32699	32805	32551	32799	
675	0	32690	32621	32667	32431	32756	32738	32547	32741	
676	0	32698	32659	32583	32575	32821	32807	32663	32598	
677	0	32775	32518	32662	32565	32703	32745	32609	32477	
678	0	32783	32742	32671	32591	32681	32621	32583	32741	
679	0	32842	32791	32460	32695	32925	32964	32605	32634	
680	0	32836	32763	32585	32605	33017	32871	32607	32805	
681	0	32741	32643	32826	32687	32985	32715	32943	32758	
682	0	32764	32727	32687	32821	33069	32903	33052	32714	
683	0	32832	32849	32595	32789	32810	32819	33043	32615	
684	0	32750	32796	32631	32775	32751	32646	32973	32635	
685	0	32718	32717	32715	32758	33075	32612	32631	32733	
686	0	32760	32701	32719	32719	32962	32807	32675	32739	
687	0	32795	32815	32527	32773	32703	32813	32595	32674	
688	0	32812	32805	32741	32877	32863	32684	32587	32743	
689	0	32761	32637	32767	32745	32839	32657	32458	32799	
690	0	32747	32734	32818	32790	32838	32754	32687	32671	
691	0	32762	32743	32823	32645	32919	32775	32787	32639	
692	0	32663	32563	32534	32643	32638	32610	32548	32807	
693	0	32659	32514	32631	32598	32569	32357	32564	32821	
694	0	32732	32539	32647	32711	32773	32595	32604	32838	
695	0	32824	32601	32451	32663	32933	32881	32706	32615	
696	0	32889	32723	32621	32871	32887	32855	32821	32707	
697	0	32903	32891	32551	32878	32827	32865	32811	32576	
698	0	32941	32811	32636	32957	32991	32915	32655	32429	
699	0	32943	32731	32575	32735	32991	32893	32583	32693	
700	0	32823	32743	32401	32571	32623	32761	32479	32757	
701	0	32801	32723	32709	32807	32718	32805	32871	32699	
702	0	32758	32615	32839	32943	32655	32717	32967	32775	
703	0	32742	32687	32738	32980	32615	32547	32765	32695	
704	0	32733	32743	32551	32863	32579	32293	32555	32671	
705	0	32706	32669	32647	32919	32615	32455	32605	32692	
706	0	32729	32720	32687	32859	32813	32719	32775	32433	
707	0	32836	32742	32455	32751	33127	33313	32727	32556	
708	0	32743	32602	32519	32775	32959	33063	32643	32554	
709	0	32760	32725	32581	32807	32987	32692	32615	32791	
710	0	32712	32623	32775	32761	32797	32679	32196	33095	
711	0	32696	32747	32683	32807	32679	32606	32471	33253	
712	0	32806	32735	32671	32893	32608	32468	32903	32847	
713	0	32877	32805	32647	32843	32711	32748	32639	32957	
714	0	32736	32787	32603	32899	32811	32873	32585	32717	
715	0	32700	32687	32712	32887	32871	32955	32340	32855	
716	0	32685	32695	32562	32708	32549	32791	32351	32773	
717	0	32641	32675	32749	32795	32335	32602	32583	32345	
718	0	32646	32646	32639	32795	32382	32619	32687	32480	
719	0	32759	32775	32822	32887	32962	32801	33685	32307	
720	0	32767	32852	32743	32819	33035	32887	33714	32447	
721	0	32724	32699	32583	32566	32887	32871	32850	32955	
722	0	32806	32775	32671	32575	32911	32773	32510	32966	
723	0	32855	32901	32671	32836	32855	32663	32647	32759	
724	0	32903	32839	32783	32863	33071	32572	32431	32883	
725	0	32837	32850	32835	32791	32903	32596	32579	32795	
726	0	32785	32855	32855	32855	32711	32517	32646	32914	
727	0	32734	32797	32810	32899	32767	32639	32605	32821	
728	0	32679	32775	32623	32767	32680	32796	32613	32740	
729	0	32706	32701	32628	32815	32669	32771	32563	32689	
730	0	32654	32556	32527	32599	32637	32724	32519	32647	
731	0	32694	32623	32719	32775	33059	32870	32637	32638	
732	0	32727	32759	32654	32775	33147	32791	32543	32738	
733	0	32716	32789	32615	32751	32938	32799	32415	32854	
734	0	32690	32623	32493	32845	32807	32751	32579	32703	
735	0	32739	32837	32507	32813	32903	32703	32669	32577	
736	0	32698	32671	32544	32647	32518	32717	32597	32567	
737	0	32684	32575	32767	32573	32573	32683	32615	32835	
738	0	32766	32723	32764	32631	32803	32732	33110	32564	
739	0	32786	32743	32876	32758	32919	32838	33023	32346	
740	0	32775	32631	32756	32740	33027	32999	32775	32642	
741	0	32700	32783	32876	32693	32903	32827	32638	32846	
742	0	32733	32775	32767	32786	32660	32726	32583	33031	
743	0	32773	32666	32759	32793	32573	32771	32285	33107	
744	0	32742	32847	32551	32871	32601	32607	32567	33123	
745	0	32707	32719	32709	32832	32599	32575	32642	32959	
746	0	32690	32677	32562	32819	32327	32573	32627	32862	
747	0	32752	32775	32603	32795	32321	32543	32543	32658	
748	0	32775	32643	32490	32741	32571	32895	32363	32676	
749	0	32854	32791	32639	32775	32819	32916	32563	32391	
750	0	32786	32775	32478	32749	33027	32925	32631	32446	
751	0	32813	32611	32607	32622	32919	32815	32726	32711	
752	0	32816	32631	32647	32682	32825	32806	32721	32727	
753	0	32833	32590	32530	32683	32887	32852	32807	32743	
754	0	32861	32625	32683	32635	32754	32807	32743	32791	
755	0	32860	32587	32525	32602	32724	32831	32775	32559	
756	0	32893	32679	32615	32769	32607	32771	32959	32023	
757	0	32902	32699	32597	32695	32641	32887	32991	32247	
758	0	32851	32629	32687	32749	32999	33159	33087	32687	
759	0	32814	32815	32673	32525	33111	32975	32671	33047	
760	0	32833	32767	32735	32487	32756	32602	32765	32785	
761	0	32903	32739	32643	32583	32775	32567	33001	32370	
762	0	32839	32851	32676	32700	32932	33047	32801	32263	
763	0	32796	32823	32468	32706	32738	32751	32875	32551	
764	0	32742	32919	32700	32610	32767	32571	32637	32769	
765	0	32716	32927	32581	32707	33127	32757	32759	32845	
766	0	32732	32830	32707	32759	33081	32559	32602	33019	
767	0	32790	32858	32679	32795	32997	32919	32391	33159	
768	0	32778	32783	32683	32902	33053	32928	32911	32771	
769	0	32713	32617	32604	32813	33110	32743	32838	32743	
770	0	32679	32732	32601	32723	32841	32607	32732	32578	
771	0	32679	32723	32503	32795	32647	32588	32674	32371	
772	0	32748	32684	32700	32739	32566	32621	32688	32244	
773	0	32732	32807	32767	32933	32719	32767	32459	32587	
774	0	32704	32799	32543	32833	32549	32595	32207	33036	
775	0	32744	32698	32611	32626	32167	32271	32173	33203	
776	0	32759	32647	32583	32717	32375	32866	32063	33135	
777	0	32812	32791	32686	32804	32540	33078	32303	32940	
778	0	32789	32791	32619	32738	32550	32821	32671	32915	
779	0	32759	32708	32734	32743	32423	32471	32785	32717	
780	0	32728	32757	32647	32725	32285	32519	32596	32775	
781	0	32788	32707	32484	32547	32515	32612	32423	32895	
782	0	32726	32757	32634	32671	32811	32647	32537	33055	
783	0	32759	32643	32550	32684	32935	32695	32534	32967	
784	0	32824	32802	32789	32783	33001	32805	32998	32691	
785	0	32826	32700	32679	32759	33071	33121	33065	32415	
786	0	32834	32831	32662	32884	32863	32887	32868	32543	
787	0	32780	32775	32489	32791	32790	32932	32940	32617	
788	0	32767	32645	32646	32663	32771	32751	33021	32699	
789	0	32682	32717	32684	32637	33045	32647	32913	32604	
790	0	32621	32765	32788	32839	33335	32647	32797	32499	
791	0	32638	32684	32751	32827	33107	32775	32557	32725	
792	0	32756	32766	32714	32667	32717	32519	32506	32669	
793	0	32807	32767	32749	32795	32687	32742	32548	32525	
794	0	32860	32687	32487	33031	32804	33142	32689	32561	
795	0	32716	32599	32575	32771	32655	32763	32599	32850	
796	0	32612	32551	32754	32609	32692	32815	32401	32813	
797	0	32644	32599	32647	32743	32751	33045	32559	32630	
798	0	32724	32738	32527	32674	32647	32997	32687	32277	
799	0	32801	32745	32479	32859	32549	33055	32743	32428	
800	0	32901	32727	32665	32791	32583	32847	32709	32675	
801	0	32798	32756	32631	32701	32626	32759	32645	32948	
802	0	32753	32751	32855	32715	32627	32835	32671	32829	
803	0	32713	32767	32695	32757	32963	32971	32869	32899	
804	0	32788	32775	32428	32797	33029	32919	32791	33007	
805	0	32743	32810	32582	32639	33075	32811	32903	32883	
806	0	32797	32811	32389	32739	32983	32705	32935	32911	
807	0	32788	32655	32647	32647	32835	32799	32839	32631	
808	0	32709	32669	32685	32783	32858	33036	32595	32787	
809	0	32730	32765	32751	32661	32791	32647	32543	32816	
810	0	32725	32787	32630	32703	32646	32571	32587	32901	
811	0	32685	32645	32727	32703	32669	32666	32418	32793	
812	0	32772	32775	32543	32547	32647	32665	32429	32709	
813	0	32809	32810	32365	32721	32679	32710	32581	32415	
814	0	32828	32743	32597	32855	33085	33022	32437	32365	
815	0	32698	32607	32671	32566	32964	32991	32161	32673	
816	0	32673	32607	32837	32551	32628	32719	32285	32610	
817	0	32786	32743	32757	32803	32759	32742	32893	32569	
818	0	32871	32759	32711	32834	33036	32804	33415	32423	
819	0	32796	32669	32835	32802	33005	32860	33252	32663	
820	0	32820	32799	32774	32647	33159	32751	33583	32681	
821	0	32804	32726	32859	32719	32775	32495	33245	32660	
822	0	32799	32805	32632	32731	32519	32543	32935	32575	
823	0	32815	32775	32403	32851	32671	32647	32676	32795	
824	0	32771	32803	32503	32811	32679	32524	32317	33003	
825	0	32765	32811	32503	32698	32899	32510	32462	33075	
826	0	32748	32767	32579	32915	32903	32573	32583	32691	
827	0	32725	32673	32379	32679	32805	32631	32635	32858	
828	0	32679	32679	32543	32594	32871	32599	32519	32855	
829	0	32625	32679	32391	32611	32847	32583	32487	32783	
830	0	32733	32663	32491	32587	32723	32549	32413	32578	
831	0	32769	32775	32342	32598	32753	32566	32475	32631	
832	0	32735	32738	32575	32719	32737	32703	32671	32539	
833	0	32688	32615	32495	32753	32629	32549	32601	32551	
834	0	32695	32715	32673	32659	32515	32615	32421	32711	
835	0	32678	32738	32413	32605	32499	32637	32566	32671	
836	0	32676	32578	32519	32679	32549	32615	32773	32687	
837	0	32739	32724	32583	32732	32340	32735	32775	32694	
838	0	32764	32717	32683	32623	32595	32834	32830	32583	
839	0	32773	32765	32629	32743	32765	32979	32567	32799	
840	0	32775	32706	32643	32822	32786	33023	32311	32763	
841	0	32753	32807	32671	32811	32845	32948	32485	32763	
842	0	32759	32797	32607	32946	33087	32903	32709	32566	
843	0	32793	32775	32727	32910	33132	33045	32797	32689	
844	0	32765	32847	32583	32817	32967	32983	33037	32679	
845	0	32775	32837	32691	32687	32825	32647	33255	32687	
846	0	32751	32711	32615	32599	32964	32539	32947	32775	
847	0	32702	32742	32695	32557	32999	32553	32607	32807	
848	0	32669	32583	32679	32503	32815	32569	32317	32847	
849	0	32799	32692	32615	32655	32675	32581	32715	32767	
850	0	32759	32811	32519	32604	32707	32559	32643	32553	
851	0	32855	32711	32634	32773	32687	32774	32832	32791	
852	0	32838	32726	32569	32823	32447	32629	32725	32739	
853	0	32762	32703	32610	32621	32530	32567	32626	32845	
854	0	32753	32807	32559	32561	32845	32571	32551	32757	
855	0	32785	32726	32711	32565	32827	32876	32549	32706	
856	0	32795	32751	32835	32727	32727	32683	32415	32791	
857	0	32813	32687	32823	32789	32742	32879	32549	32535	
858	0	32783	32675	32725	32841	32887	32847	32709	32559	
859	0	32860	32787	32775	32711	32895	32851	32797	32705	
860	0	32861	32755	32763	32753	32923	32963	32697	32731	
861	0	32822	32789	32705	32799	32911	32979	32758	32901	
862	0	32873	32761	32607	32797	32823	32643	32533	32957	
863	0	32977	32747	32487	32855	32893	32546	32604	32743	
864	0	32816	32883	32706	32855	32775	32563	32687	32751	
865	0	32770	32829	32828	32761	32747	32471	32719	32775	
866	0	32682	32669	32735	32737	32647	32703	32612	32791	
867	0	32703	32699	32603	32630	32590	32757	32342	32818	
868	0	32788	32722	32427	32789	32711	32759	32509	32767	
869	0	32815	32783	32647	32963	32793	32787	32899	32495	
870	0	32837	32811	32501	32887	32793	32831	32860	32445	
871	0	32673	32668	32727	32828	32878	32903	32836	32554	
872	0	32727	32655	32686	32731	32853	32871	32759	32709	
873	0	32698	32715	32761	32715	32831	32841	32739	32711	
874	0	32688	32763	32663	32629	32671	32835	32519	32751	
875	0	32716	32583	32559	32543	32458	32839	32639	32655	
876	0	32740	32725	32722	32647	32687	33047	32790	32566	
877	0	32734	32719	32640	32673	32983	32925	32743	32565	
878	0	32802	32663	32707	32660	32837	32767	32586	32555	
879	0	32708	32614	32634	32788	32794	32735	32567	32659	
880	0	32700	32717	32731	32795	32766	32807	32715	32631	
881	0	32805	32771	32679	32705	32836	32775	32685	32812	
882	0	32797	32727	32537	32738	32899	32839	32629	32831	
883	0	32696	32737	32655	32767	32763	32663	32677	32929	
884	0	32691	32850	32687	32804	32734	32675	32590	32750	
885	0	32735	32809	32719	32851	32751	32805	32635	32706	
886	0	32668	32749	32759	32862	32788	32887	32758	32755	
887	0	32636	32791	32694	32751	32859	32850	32871	32560	
888	0	32721	32759	32747	32603	32870	32879	32799	32631	
889	0	32719	32703	32603	32581	32775	32854	32773	32621	
890	0	32742	32695	32718	32731	32791	32745	32815	32703	
891	0	32791	32765	32693	32610	32865	32788	32833	32742	
892	0	32764	32717	32601	32695	32831	32851	32851	32767	
893	0	32757	32707	32758	32775	32748	32903	32862	32614	
894	0	32743	32662	32675	32719	32646	32858	32711	32716	
895	0	32775	32755	32751	32759	32775	32775	32531	32775	
896	0	32763	32755	32807	32815	32631	32695	32329	32818	
897	0	32829	32735	32589	32740	32605	32815	32263	32730	
898	0	32813	32682	32727	32711	32803	32815	32303	32564	
899	0	32826	32750	32669	32749	32761	32791	32308	32771	
900	0	32896	32803	32721	32663	32865	32755	32871	32708	
901	0	32893	32719	32599	32767	32903	32723	32895	32799	
902	0	32784	32773	32483	32858	32900	32719	32747	32767	
903	0	32759	32791	32527	32886	32903	32940	32671	32759	
904	0	32738	32591	32494	32735	32759	32758	32775	32900	
905	0	32683	32646	32611	32670	32679	32639	32663	32965	
906	0	32661	32699	32559	32639	32635	32519	32494	32919	
907	0	32656	32686	32655	32677	32741	32694	32599	32690	
908	0	32644	32775	32501	32543	32827	32683	32845	32771	
909	0	32761	32739	32559	32565	32783	32727	32802	32807	
910	0	32823	32703	32397	32535	32769	32663	32806	32743	
911	0	32865	32802	32519	32768	32743	32782	32742	32619	
912	0	32851	32815	32411	32927	32834	32871	32797	32413	
913	0	32743	32615	32753	32791	32742	32591	32599	32903	
914	0	32701	32598	32747	32759	32663	32599	32667	32835	
915	0	32687	32623	32807	32655	32787	32831	32556	32703	
916	0	32814	32671	32691	32643	32954	32994	32609	32371	
917	0	32839	32671	32725	32799	32869	32903	32661	32327	
918	0	32808	32783	32743	32687	32927	33010	32691	32481	
919	0	32793	32814	32660	32805	33125	33145	32633	32801	
920	0	32846	32769	32695	32855	32947	32956	32575	32775	
921	0	32834	32726	32671	32743	32900	32751	32781	32834	
922	0	32895	32807	32687	32786	32996	32727	32727	32763	
923	0	32886	32891	32717	32873	32867	32775	32678	32827	
924	0	32866	32854	32719	32871	32707	32543	32566	32903	
925	0	32918	32887	32748	32860	32679	32656	32625	32765	
926	0	32938	32945	32775	32857	32799	32742	32571	32831	
927	0	32927	32821	32734	32852	32707	32639	32285	32845	
928	0	32925	32851	32604	32763	32498	32699	32321	32883	
929	0	32982	32893	32647	32743	32559	32867	32575	32723	
930	0	32969	32899	32527	32882	32663	32791	32819	32721	
931	0	33011	32773	32637	32903	32675	32429	33159	32715	
932	0	32949	32853	32811	32911	32948	32521	33042	32628	
933	0	33003	32811	32699	32871	32865	32810	32798	32773	
934	0	32971	32847	32775	32699	32615	32717	32683	32859	
935	0	32870	32742	32659	32603	32491	32815	32338	32767	
936	0	32790	32491	32791	32614	32489	32791	32263	32865	
937	0	32861	32667	32622	32609	32547	32771	32455	32755	
938	0	32852	32559	32591	32500	32734	32815	32487	32790	
939	0	32815	32411	32539	32554	32831	32884	32546	32637	
940	0	32761	32338	32655	32511	32771	32964	32439	32703	
941	0	32769	32524	32567	32551	32751	32949	32589	32837	
942	0	32660	32571	32417	32727	32807	32876	32676	32839	
943	0	32642	32567	32647	32807	32951	32893	32873	32879	
944	0	32637	32703	32663	32759	33003	32755	33031	32805	
945	0	32662	32583	32797	32591	32943	32751	33149	32799	
946	0	32468	32431	32647	32743	32741	32766	32865	32679	
947	0	32343	32252	32586	32733	32814	32843	32703	32807	
948	0	32287	32317	32615	32634	32823	32903	32765	32634	
949	0	32347	32263	32468	32745	32725	32829	32844	32631	
950	0	32202	32087	32617	32601	32450	32679	32862	32584	
951	0	32100	31983	32479	32425	32643	32859	32925	32575	
952	0	32037	31935	32363	32475	32986	33056	32879	32479	
953	0	32037	32029	32415	32583	32991	32983	32803	32421	
954	0	32027	32143	32349	32723	32839	32950	32994	32461	
955	0	32041	32293	32481	32803	32711	32723	33135	32323	
956	0	32123	32455	32339	32911	32932	32738	32975	32405	
957	0	32195	32446	32535	32911	33083	33004	32802	32353	
958	0	32129	32615	32506	32967	32971	32861	32838	32359	
959	0	32162	32682	32589	32819	32839	32613	33045	32389	
960	0	32135	32663	32447	32911	32553	32684	32990	32411	
961	0	32286	32935	32615	33159	32615	32739	32875	32386	
962	0	32334	33027	32742	33101	32855	32747	32819	32450	
963	0	32371	33012	32925	33005	32931	32807	32857	32607	
964	0	32532	33117	32903	33191	32919	32743	32819	32658	
965	0	32772	33247	32702	33109	32887	32717	32827	32763	
966	0	32951	33311	32839	32999	32927	32631	32669	32742	
967	0	33107	33233	32775	33079	32903	32461	32540	32829	
968	0	33220	33247	32902	33055	32823	32667	32615	32827	
969	0	33281	33229	32839	32874	32681	32731	32601	32903	
970	0	33331	33179	32674	32835	32765	32663	32511	32853	
971	0	33437	33081	32765	32882	32831	32694	32305	32882	
972	0	33423	33255	32771	32684	32845	32642	32162	33106	
973	0	33415	33119	32803	32662	32785	32621	32255	33159	
974	0	33349	32923	32805	32629	32692	32517	32373	33119	
975	0	33395	32949	32851	32679	32731	32671	32410	32749	
976	0	33332	32942	32685	32695	32687	32759	32499	32711	
977	0	33308	32855	32621	32687	32807	33019	32509	32663	
978	0	33353	32871	32749	32743	32820	33261	32462	32474	
979	0	33336	32918	32820	32673	32751	32847	32372	32551	
980	0	33278	32881	32655	32647	32669	32438	32303	32807	
981	0	33215	32941	32587	32671	32917	32668	32565	32736	
982	0	33211	32964	32683	32671	33063	32789	32627	32604	
983	0	33247	32983	32663	32847	33019	32621	32479	32951	
984	0	33211	32819	32721	32790	32706	32391	32623	33110	
985	0	33055	32887	32703	32791	32727	32535	32569	33211	
986	0	32966	32781	32747	32743	32765	32679	32382	33191	
987	0	32973	32854	32719	32660	32647	32677	32647	32807	
988	0	33028	32823	32763	32758	32429	32635	32775	32790	
989	0	32866	32723	32669	32799	32343	32703	32621	32875	
990	0	32810	32700	32667	32789	32431	32647	32631	32855	
991	0	32725	32615	32599	32835	32627	32822	32562	32679	
992	0	32695	32482	32711	32831	32522	32642	32495	32775	
993	0	32687	32677	32647	32644	32527	32353	32519	32820	
994	0	32650	32679	32427	32711	32710	32548	32559	32711	
995	0	32643	32577	32495	32517	32738	32647	32791	32543	
996	0	32608	32402	32428	32477	32751	32674	32795	32591	
997	0	32636	32607	32595	32639	32781	32671	32743	32597	
998	0	32673	32627	32421	32719	32805	32738	32711	32619	
999	0	32626	32565	32615	32695	32831	32839	32841	32693	
1000	0	32540	32658	32572	32647	32759	32863	32663	32591	
1001	0	32527	32585	32695	32647	32617	32771	32601	32727	
1002	0	32582	32671	32569	32825	32729	32799	32684	32797	
1003	0	32623	32726	32828	32957	32917	32826	32833	32739	
1004	0	32638	32788	32823	32683	32932	32787	32847	32797	
1005	0	32582	32659	32767	32655	32863	32762	32795	32711	
1006	0	32607	32763	32679	32637	32893	32903	32815	32710	
1007	0	32597	32607	32495	32675	32783	32775	32691	32706	
1008	0	32657	32579	32327	32767	32847	32707	32605	32751	
1009	0	32639	32683	32599	32775	32935	32819	32804	32751	
1010	0	32680	32615	32678	32684	32889	32871	32775	32699	
1011	0	32771	32854	32813	32673	32839	32655	32724	32711	
1012	0	32680	32677	32679	32701	32775	32697	32593	32623	
1013	0	32719	32731	32727	32659	32677	32922	32564	32603	
1014	0	32670	32647	32571	32621	32687	32861	32685	32643	
1015	0	32681	32493	32719	32699	32804	32803	32876	32507	
1016	0	32715	32517	32695	32647	32922	32767	32927	32553	
1017	0	32757	32727	32692	32629	32935	32859	32775	32531	
1018	0	32794	32639	32585	32710	32911	32863	32633	32555	
1019	0	32743	32722	32679	32749	32827	32818	32559	32629	
1020	0	32743	32775	32719	32742	32759	32706	32611	32734	
1021	0	32753	32679	32819	32703	32802	32783	32823	32671	
1022	0	32771	32711	32470	32647	32873	32839	32855	32759	
1023	0	32732	32717	32382	32831	32719	32767	32715	32921	
1024	0	32740	32879	32435	32852	32687	32549	32447	32807	
1025	0	32742	32783	32525	32788	32793	32551	32838	32835	
1026	0	32724	32658	32687	32847	32837	32589	32669	32846	
1027	0	32756	32740	32535	32852	32869	32761	32663	32743	
1028	0	32845	32732	32666	32929	32877	32823	32750	32714	
1029	0	32885	32665	32551	32775	32726	32835	32723	32615	
1030	0	32690	32647	32586	32647	32667	32737	32598	32667	
1031	0	32473	32559	32551	32471	32685	32703	32739	32772	
1032	0	32495	32615	32695	32511	32679	32733	32687	32604	
1033	0	32656	32711	32547	32662	32694	32775	32594	32711	
1034	0	32647	32691	32583	32590	32839	32863	32491	32795	
1035	0	32677	32790	32492	32356	32671	32863	32338	32647	
1036	0	32647	32668	32577	32535	32538	32765	32239	32727	
1037	0	32697	32679	32365	32717	32647	32724	32621	32564	
1038	0	32825	32683	32423	32877	32771	32739	32979	32583	
1039	0	32859	32838	32351	32919	32815	32804	33039	32637	
1040	0	32786	32852	32551	32708	32751	32719	32743	32773	
1041	0	32767	32697	32559	32791	32739	32842	32463	32797	
1042	0	32679	32807	32757	32903	32891	32806	32647	32823	
1043	0	32716	32775	32656	32889	32935	32823	32621	32765	
1044	0	32704	32733	32835	32765	32930	32885	32822	32748	
1045	0	32693	32775	32742	32591	32951	32743	32978	32718	
1046	0	32729	32807	32758	32711	32949	33009	32861	32807	
1047	0	32725	32687	32615	32685	32797	32822	32770	32805	
1048	0	32759	32799	32742	32631	32790	32663	32843	32832	
1049	0	32830	32807	32557	32590	32839	32554	32775	32719	
1050	0	32839	32647	32612	32803	32838	32557	32730	32447	
1051	0	32815	32719	32594	32733	32844	32903	32511	32579	
1052	0	32658	32727	32729	32756	32742	32803	32415	32743	
1053	0	32711	32670	32773	32815	32773	32855	32695	32708	
1054	0	32736	32743	32775	32703	32917	32635	32805	32841	
1055	0	32836	32791	32683	32703	33025	32807	32811	32399	
1056	0	32924	32727	32775	32789	32924	32903	32829	32317	
1057	0	32788	32725	32567	32839	32716	32499	32598	32756	
1058	0	32790	32675	32647	32740	32759	32375	32431	33129	
1059	0	32797	32564	32534	32711	32733	32588	32631	32612	
1060	0	32734	32663	32647	32783	32654	33083	32829	32007	
1061	0	32769	32775	32443	32902	32719	33271	32636	32363	
1062	0	32773	32669	32543	32769	32513	32893	32482	32870	
1063	0	32743	32775	32425	32677	32271	32519	32676	33046	
1064	0	32756	32799	32715	32725	32315	32587	32679	33183	
1065	0	32738	32731	32535	32903	32508	32663	32573	32999	
1066	0	32770	32775	32543	32804	32615	32674	32628	32991	
1067	0	32740	32639	32491	32783	32513	32575	32578	32797	
1068	0	32857	32685	32519	32716	32499	32516	32487	32921	
1069	0	32846	32775	32634	32823	32591	32643	32731	32871	
1070	0	32856	32785	32671	32815	32535	32831	32722	32323	
1071	0	32814	32823	32755	32795	32802	32941	32771	32319	
1072	0	32775	32831	32639	32669	33031	33007	32541	32732	
1073	0	32802	32823	32767	32643	32978	32978	32621	32879	
1074	0	32719	32733	32735	32547	32963	32875	32631	32870	
1075	0	32684	32660	32711	32604	32903	32831	32789	32583	
1076	0	32733	32575	32605	32733	32940	32795	32727	32513	
1077	0	32783	32711	32663	32818	32951	32663	32703	32679	
1078	0	32782	32631	32495	32647	32923	32581	32711	32726	
1079	0	32743	32677	32597	32701	32871	32575	32603	32796	
1080	0	32810	32807	32547	32819	32871	32810	32690	32791	
1081	0	32729	32807	32663	32679	32833	32748	32617	32715	
1082	0	32785	32743	32663	32756	32890	32716	32811	32807	
1083	0	32849	32846	32654	32989	32975	32702	32767	32794	
1084	0	32754	32847	32607	33005	33009	32713	32699	32945	
1085	0	32811	32733	32507	33018	32898	32701	32658	32817	
1086	0	32793	32775	32607	32931	32814	32775	32759	32786	
1087	0	32775	32605	32763	32687	32785	32877	32530	32759	
1088	0	32767	32710	32723	32687	32839	32935	32615	32637	
1089	0	32737	32791	32918	32668	32925	32935	32693	32738	
1090	0	32695	32606	32914	32811	32877	32832	32773	32607	
1091	0	32683	32667	32706	32837	32743	32799	32695	32559	
1092	0	32783	32731	32614	32642	32765	32557	32689	32612	
1093	0	32747	32607	32662	32716	32724	32527	32699	32687	
1094	0	32714	32695	32563	32578	32791	32812	32541	32603	
1095	0	32807	32791	32710	32679	32847	32837	32621	32706	
1096	0	32783	32733	32566	32732	32797	32727	32743	32815	
1097	0	32724	32759	32484	32769	32755	32743	32699	32865	
1098	0	32769	32775	32293	32839	32795	32735	32631	32870	
1099	0	32858	32683	32551	32911	32763	32499	32559	32759	
1100	0	32642	32687	32595	32791	32796	32391	32693	32679	
1101	0	32719	32596	32751	32747	32948	32818	32815	32503	
1102	0	32937	32855	32413	32929	32943	33422	32722	32251	
1103	0	32892	32775	32481	33057	32950	33257	32781	32455	
1104	0	32844	32638	32453	33031	32950	32858	32615	32789	
1105	0	32845	32789	32596	32895	32834	32609	32438	32830	
1106	0	32788	32717	32548	32841	32751	32583	32668	32847	
1107	0	32812	32613	32562	32861	32515	32474	32623	32918	
1108	0	32716	32711	32615	32763	32611	32634	32757	32783	
1109	0	32681	32711	32695	32749	32615	32559	32773	32565	
1110	0	32667	32673	32587	32628	32797	32791	32639	32595	
1111	0	32804	32839	32613	32524	33037	33007	32470	32767	
1112	0	32850	32757	32477	32473	32647	32759	32771	32799	
1113	0	32782	32735	32611	32477	32567	32743	32525	32822	
1114	0	32759	32775	32527	32565	32559	32668	32580	32863	
1115	0	32780	32843	32702	32703	32595	32555	33089	32879	
1116	0	32724	32630	32762	32711	32647	32594	33023	32722	
1117	0	32832	32742	32867	32667	32668	32691	32799	32646	
1118	0	32765	32677	32607	32815	32327	32539	32775	32647	
1119	0	32749	32647	32503	32687	32297	32541	32583	32613	
1120	0	32852	32742	32637	32775	32709	32679	32497	32487	
1121	0	32878	32758	32508	32935	33088	32761	32659	32583	
1122	0	32813	32813	32709	32911	33082	32718	32842	32599	
1123	0	32743	32647	32673	32854	32947	32590	32827	32861	
1124	0	32747	32817	32507	32839	32879	32457	32919	33095	
1125	0	32919	32918	32764	32685	32941	32471	32867	33167	
1126	0	32870	32879	32719	32655	32919	32627	32599	33085	
1127	0	32791	32764	32459	32647	32647	32745	32437	33023	
1128	0	32751	32765	32517	32627	32702	32925	32419	32931	
1129	0	32759	32699	32494	32645	32887	32927	32783	32743	
1130	0	32767	32691	32685	32529	32745	32747	32951	32487	
1131	0	32713	32687	32647	32559	32591	32623	32959	32391	
1132	0	32693	32793	32527	32711	32843	33013	32843	32439	
1133	0	32753	32835	32647	32767	32856	33363	32707	32366	
1134	0	32647	32631	32591	32567	32903	33114	32453	32647	
1135	0	32676	32773	32731	32587	32919	32518	32383	32829	
1136	0	32789	32813	32575	32769	32738	32449	32223	32595	
1137	0	32749	32740	32647	32775	32671	32708	32045	32599	
1138	0	32751	32749	32537	32682	32590	32701	32545	32459	
1139	0	32734	32723	32839	32775	32699	32627	32669	32581	
1140	0	32681	32724	32960	32719	32806	32617	32621	32727	
1141	0	32709	32802	32927	32587	32707	32711	32639	32930	
1142	0	32711	32766	32743	32677	32742	32679	32718	32877	
1143	0	32831	32843	32583	32835	32865	32734	32975	32735	
1144	0	32798	32775	32581	32767	32914	32793	32871	32711	
1145	0	32708	32605	32467	32633	32839	32615	32461	32831	
1146	0	32647	32636	32445	32813	32775	32599	32315	32975	
1147	0	32617	32571	32276	32854	32687	32708	32391	32786	
1148	0	32741	32620	32495	32857	32839	32775	32735	32391	
1149	0	32772	32803	32571	32698	32954	32767	32861	32485	
1150	0	32745	32807	32625	32439	32839	32954	32745	32549	
1151	0	32749	32687	32583	32497	32829	32903	32820	32789	
1152	0	32794	32789	32551	32771	32807	33036	32791	32742	
1153	0	32829	32809	32415	32887	32884	33234	32617	32823	
1154	0	32843	32610	32375	32903	32887	33307	32467	32955	
1155	0	32755	32707	32690	32971	32645	32717	32481	32855	
1156	0	32678	32605	32647	32787	32413	32493	32469	32719	
1157	0	32741	32607	32823	32582	32443	32628	32725	32717	
1158	0	32672	32583	32941	32449	32679	32626	32677	32717	
1159	0	32626	32567	32998	32519	32823	32533	32757	32791	
1160	0	32676	32743	32801	32708	32861	32573	32843	32763	
1161	0	32729	32809	32851	32835	33031	32890	32878	32604	
1162	0	32774	32671	32597	32863	32858	32727	32703	32711	
1163	0	32892	32799	32626	32919	32775	32643	32925	32678	
1164	0	32807	32738	32495	32895	32845	32429	32811	32887	
1165	0	32635	32517	32719	32599	32847	32527	32794	32775	
1166	0	32683	32637	32515	32471	32850	32514	32751	32760	
1167	0	32769	32711	32683	32603	32827	32501	32686	32823	
1168	0	32614	32723	32692	32583	32795	32553	32595	32737	
1169	0	32647	32813	32731	32685	32887	32666	32471	32807	
1170	0	32785	32911	32757	32751	32842	32695	32588	32887	
1171	0	32815	32796	32719	32607	32875	32832	32519	32759	
1172	0	32769	32747	32629	32527	32700	32879	32565	32497	
1173	0	32772	32727	32567	32623	32701	32743	32903	32498	
1174	0	32740	32551	32662	32821	32807	32719	32663	32773	
1175	0	32729	32706	32519	32769	32827	32834	32468	32815	
1176	0	32829	32693	32674	32843	32767	32769	32530	32697	
1177	0	32740	32599	32713	32831	32645	32595	32684	32609	
1178	0	32743	32679	32799	32863	32842	33051	32643	32519	
1179	0	32791	32722	32711	32855	33027	33383	32741	32547	
1180	0	32820	32670	32735	32702	32935	32775	32993	32428	
1181	0	32818	32699	32642	32679	32923	32475	33147	32315	
1182	0	32748	32751	32417	32903	32959	32817	32967	32455	
1183	0	32676	32613	32677	32843	33005	33091	32823	32436	
1184	0	32718	32725	32679	32821	32932	33069	32953	32480	
1185	0	32779	32671	32747	32812	32775	32997	32823	32429	
1186	0	32819	32751	32535	32727	32511	32933	32757	32262	
1187	0	32762	32783	32605	32739	32597	32876	32725	32477	
1188	0	32767	32743	32604	32789	32607	32771	32623	33059	
1189	0	32748	32599	32773	32519	32559	32365	32709	33427	
1190	0	32759	32661	32711	32619	32767	32271	32730	33149	
1191	0	32770	32843	32697	32775	32924	32833	32742	32635	
1192	0	32775	32705	32594	32823	32797	33027	32854	32535	
1193	0	32636	32711	32663	32868	32775	32831	32586	33057	
1194	0	32626	32647	32631	32645	32687	32598	32359	33271	
1195	0	32703	32644	32489	32459	32527	32707	32309	33023	
1196	0	32757	32662	32627	32747	32631	32847	32207	32929	
1197	0	32753	32823	32499	32783	32643	32757	32334	32836	
1198	0	32746	32821	32709	32863	32749	32711	32559	32887	
1199	0	32720	32711	32631	32796	32643	32727	32597	32797	
1200	0	32761	32743	32583	32739	32795	32671	32511	32863	
1201	0	32894	32715	32455	32731	32890	32805	32351	32971	
1202	0	32897	32853	32523	32871	32903	32850	32539	32845	
1203	0	32955	32834	32429	33011	33106	32727	32937	32647	
1204	0	32953	32775	32679	32911	32962	32699	33406	32423	
1205	0	32924	32751	32546	32919	33015	32878	33183	32283	
1206	0	32732	32725	32703	32707	32885	32871	32967	32311	
1207	0	32634	32628	32773	32684	32863	32711	32855	32431	
1208	0	32626	32626	32718	32759	32580	32607	32634	32695	
1209	0	32612	32743	32836	32598	32388	32629	32523	32775	
1210	0	32647	32725	32746	32559	32423	32611	32367	32989	
1211	0	32630	32757	32797	32331	32563	32735	32199	33079	
1212	0	32671	32655	32775	32453	32511	32822	32293	32951	
1213	0	32743	32743	32579	32604	32519	32799	32599	32646	
1214	0	32818	32828	32691	32562	32679	32815	32683	32615	
1215	0	32815	32743	32551	32551	32783	32771	32671	32566	
1216	0	32812	32802	32775	32793	32669	32799	32617	32471	
1217	0	32827	32775	32491	32748	32563	32759	32739	32654	
1218	0	32976	32821	32495	33063	32716	32879	32722	32495	
1219	0	32957	32727	32647	33221	32927	32986	32721	32487	
1220	0	32809	32717	32599	33197	32958	32977	32767	32550	
1221	0	32713	32671	32671	33207	32775	32919	32495	32669	
1222	0	32676	32615	32671	33083	32731	32775	32647	32625	
1223	0	32659	32679	32812	32831	32733	32696	32580	32829	
1224	0	32679	32695	32719	32844	32799	32647	32677	32767	
1225	0	32723	32847	32707	32749	32983	32783	32771	32642	
1226	0	32791	32751	32867	32821	32996	32775	32787	32667	
1227	0	32751	32854	32673	32579	32825	32831	32811	32582	
1228	0	32692	32749	32525	32535	32765	32834	32781	32583	
1229	0	32781	32791	32533	32741	32935	33005	32639	32721	
1230	0	32876	32715	32455	32706	32855	33010	32574	32935	
1231	0	32792	32811	32679	32658	32503	32483	32639	33075	
1232	0	32816	32795	32614	32743	32703	32703	32683	32989	
1233	0	32838	32759	32363	32698	32839	33051	32465	33011	
1234	0	32811	32623	32529	32711	32797	32772	32525	33071	
1235	0	32679	32679	32647	32733	32847	32971	32518	32604	
1236	0	32631	32693	32807	32543	32862	33009	32471	32466	
1237	0	32634	32551	32655	32637	32771	32943	32423	32461	
1238	0	32785	32668	32571	32687	32813	32991	32725	32443	
1239	0	32764	32713	32551	32819	33007	32722	33397	32374	
1240	0	32855	32689	32621	32761	33215	32647	33181	32491	
1241	0	32812	32813	32743	32641	32887	32727	32399	32599	
1242	0	32759	32815	32755	32583	32759	32517	32956	32557	
1243	0	32871	32919	32591	32559	32903	32389	33057	33035	
1244	0	32728	32838	32647	32603	32703	32338	33007	32967	
1245	0	32712	32832	32484	32679	32787	32860	33215	32591	
1246	0	32750	32923	32477	32786	32835	32707	32607	32726	
1247	0	32756	32855	32388	32791	32885	32583	32477	32735	
1248	0	32644	32630	32523	32775	32830	32487	32429	33172	
1249	0	32660	32771	32558	32879	32786	32421	32503	33230	
1250	0	32769	32925	32658	32867	32707	32554	32581	33189	
1251	0	32834	32732	32551	32689	32699	32559	32406	33159	
1252	0	32859	32756	32461	32775	32701	32658	32471	32833	
1253	0	32695	32691	32881	32711	32611	32739	32646	32681	
1254	0	32623	32619	32948	32831	32657	32711	32791	32455	
1255	0	32751	32565	32757	32901	32676	32825	32637	32449	
1256	0	32667	32695	32700	32852	32711	32839	32543	32455	
1257	0	32732	32707	32686	32946	32884	32838	32751	32541	
1258	0	32805	32671	32752	32842	32849	32666	32841	32667	
1259	0	32846	32711	32412	32667	32755	32799	32749	32445	
1260	0	32787	32715	32679	32582	32731	33140	32647	32727	
1261	0	32732	32820	32721	32679	32887	33263	32227	32859	
1262	0	32815	32815	32706	32715	32747	32985	32277	32775	
1263	0	32797	32748	32679	32807	32669	32643	32576	32781	
1264	0	32807	32789	32582	32827	32543	32379	32831	32723	
1265	0	32736	32771	32687	32738	32505	32407	33030	32694	
1266	0	32743	32607	32607	32503	32503	32436	32639	32765	
1267	0	32775	32711	32477	32524	32838	32487	32843	32663	
1268	0	32767	32719	32676	32740	32980	32449	32676	32709	
1269	0	32770	32692	32686	32726	32871	32518	32466	32715	
1270	0	32731	32804	32811	32927	32741	32638	32692	32795	
1271	0	32700	32738	32783	33055	32788	32605	32727	32735	
1272	0	32747	32645	32669	32847	32916	32785	32761	32851	
1273	0	32711	32742	32641	32823	33011	32884	32647	32727	
1274	0	32686	32695	32487	32817	32887	32935	32583	32642	
1275	0	32775	32613	32599	32743	33042	33007	32672	32686	
1276	0	32759	32677	32526	32845	33029	32991	32707	32693	
1277	0	32695	32647	32679	32798	32743	32711	32798	32561	
1278	0	32755	32503	32519	32730	32647	32791	32722	32551	
1279	0	32814	32679	32587	32709	32668	32604	32679	32679	
1280	0	32842	32791	32719	32588	32807	32757	32647	32678	
1281	0	32829	32647	32759	32571	32823	32833	32738	32733	
1282	0	32736	32717	32671	32519	32662	32867	32623	32479	
1283	0	32701	32775	32635	32559	32583	32615	32565	32543	
1284	0	32775	32669	32527	32535	32668	32647	32799	32717	
1285	0	32804	32835	32451	32646	32791	32788	32660	32681	
1286	0	32764	32903	32541	32699	33095	33046	32711	32623	
1287	0	32615	32591	32714	32617	33039	32898	32717	32613	
1288	0	32573	32635	32676	32705	32855	32850	32815	32429	
1289	0	32631	32645	32815	32869	32866	32683	32671	32423	
1290	0	32798	32621	32655	32887	32820	32517	32551	32807	
1291	0	32819	32735	32785	32963	32961	33092	32543	33091	
1292	0	32786	32820	32640	32786	32700	33151	32263	33488	
1293	0	32884	32820	32647	32899	32551	32745	32214	33814	
1294	0	32715	32762	32529	32911	32543	32562	32444	32655	
1295	0	32679	32591	32605	32925	32135	32613	32719	31191	
1296	0	32823	32631	32605	32999	32477	32759	33239	31429	
1297	0	32921	32839	32791	32809	32789	32886	33227	32471	
1298	0	32933	32813	32693	32754	32882	32699	32891	33149	
1299	0	32842	32751	32646	32751	32754	32703	32427	33179	
1300	0	32812	32735	32670	32731	32621	32699	32299	32899	
1301	0	32772	32740	32563	32773	32667	32678	32719	32665	
1302	0	32742	32719	32735	32740	32623	32503	32796	33113	
1303	0	32726	32831	32623	32809	32939	32587	32903	33191	
1304	0	32768	32818	32580	32766	32927	32643	32846	32945	
1305	0	32724	32703	32657	32719	32756	32669	32663	32635	
1306	0	32679	32743	32551	32677	32831	32503	32571	32827	
1307	0	32598	32695	32610	32751	32615	32379	32447	32598	
1308	0	32658	32629	32613	32747	32597	32661	32477	32559	
1309	0	32742	32635	32559	32823	32972	33236	32663	32535	
1310	0	32815	32559	32573	32885	33239	33133	32754	32493	
1311	0	32726	32607	32525	32817	32986	32751	32471	32739	
1312	0	32790	32571	32527	32701	32647	32583	32191	33351	
1313	0	32867	32635	32435	32629	32658	32726	32339	32965	
1314	0	32843	32763	32535	32735	32881	32831	32493	32879	
1315	0	32877	32706	32199	32687	32795	32677	32775	32703	
1316	0	32818	32775	32455	32767	32955	32804	33445	32427	
1317	0	32831	32738	32617	32785	33303	32973	33479	32439	
1318	0	32760	32535	32987	32595	32999	32881	32819	32561	
1319	0	32674	32578	32773	32455	32479	32559	32609	32667	
1320	0	32686	32530	32795	32495	32210	32391	32719	32735	
1321	0	32764	32701	32639	32575	32463	32603	32763	32828	
1322	0	32820	32647	32572	32647	32775	32879	32503	32811	
1323	0	32844	32815	32837	32811	32767	32922	32303	32927	
1324	0	32839	32773	32659	32769	32727	32797	32487	32839	
1325	0	32822	32725	32783	32715	32845	32821	32533	32806	
1326	0	32815	32789	32687	32674	32943	32877	32662	32639	
1327	0	32767	32711	32591	32839	32775	32883	32685	32543	
1328	0	32719	32589	32669	32802	32661	32873	32735	32451	
1329	0	32736	32719	32441	32811	32703	32643	32615	32434	
1330	0	32812	32743	32588	32745	32827	32573	32636	32553	
1331	0	32814	32679	32635	32721	33086	32605	32658	32507	
1332	0	32804	32711	32667	32674	32991	32916	32701	32423	
1333	0	32617	32599	32622	32706	33027	32933	32557	32877	
1334	0	32711	32532	32783	32727	33107	33159	32468	33143	
1335	0	32671	32630	32633	32742	32835	32730	32503	33365	
1336	0	32775	32787	32700	32791	32594	32376	32499	33405	
1337	0	32869	32735	32478	32927	32493	32483	32647	32855	
1338	0	32887	32836	32532	32839	32391	32634	32843	32515	
1339	0	32847	32831	32589	32902	32575	32999	32887	32263	
1340	0	32865	32861	32709	32883	32742	32842	32754	32471	
1341	0	32854	32851	32681	32996	32798	32609	32715	32730	
1342	0	32839	32837	32687	32943	32833	32647	32698	32670	
1343	0	32756	32861	32595	32883	32887	32825	32799	32367	
1344	0	32683	32757	32804	32646	32876	32749	32639	32703	
1345	0	32743	32833	32711	32563	32919	32692	32533	32889	
1346	0	32699	32775	32775	32639	32604	32529	32242	32883	
1347	0	32729	32765	32581	32669	32729	32759	32468	32870	
1348	0	32767	32775	32591	32635	33095	32834	32903	32877	
1349	0	32785	32843	32815	32617	33254	32519	32815	32775	
1350	0	32748	32868	32717	32663	33069	32717	32921	32727	
1351	0	32613	32707	32660	32533	32799	32751	32927	32487	
1352	0	32722	32659	32511	32617	32875	32955	32895	32313	
1353	0	32802	32799	32559	32603	32671	32691	32790	32519	
1354	0	32709	32719	32449	32645	32671	32663	32447	32830	
1355	0	32647	32631	32709	32749	32772	32887	32617	32571	
1356	0	32725	32787	32437	32759	32591	32986	32858	32391	
1357	0	32855	32895	32398	32775	32569	32887	32847	32489	
1358	0	32876	32833	32409	32631	32734	32899	32887	32735	
1359	0	32997	32901	32553	32711	32827	32847	32551	32839	
1360	0	32820	32756	32350	32763	32631	32940	32546	32858	
1361	0	32734	32599	32479	32731	32604	32839	32527	32877	
1362	0	32686	32563	32503	32839	32631	32794	32592	32783	
1363	0	32669	32630	32871	32735	32791	32713	32439	32924	
1364	0	32695	32647	32873	32743	32845	32605	32342	32935	
1365	0	32713	32751	32897	32795	32852	32601	32601	32881	
1366	0	32746	32835	32647	32948	32553	32498	32743	32855	
1367	0	32783	32727	32711	32810	32295	32355	32757	32771	
1368	0	32681	32818	32629	32887	32275	32423	32787	32637	
1369	0	32672	32731	32875	32831	32887	32647	32615	32593	
1370	0	32694	32629	32775	32809	33159	33206	32443	32455	
1371	0	32700	32679	32631	32621	32759	33119	32537	32391	
1372	0	32698	32671	32655	32663	32567	32754	32615	32834	
1373	0	32690	32599	32853	32679	32895	32811	32805	32925	
1374	0	32711	32751	32647	32711	33124	32943	32799	32807	
1375	0	32772	32743	32493	32775	33074	33030	32766	32578	
1376	0	32820	32767	32333	32567	32763	32819	32613	32818	
1377	0	32756	32739	32497	32481	32737	32607	32647	32879	
1378	0	32686	32691	32875	32724	32743	32623	32749	32851	
1379	0	32756	32749	32859	32873	32957	32850	32765	32589	
1380	0	32775	32807	32767	32895	32919	32775	32711	32379	
1381	0	32818	32860	32474	32944	32839	32580	32847	32523	
1382	0	32799	32703	32471	32765	32759	32817	32697	32578	
1383	0	32701	32781	32591	32741	32740	32726	32887	32271	
1384	0	32722	32850	32485	32775	32859	32791	32631	32291	
1385	0	32745	32845	32546	32698	33003	32743	32812	32623	
1386	0	32742	32775	32698	32716	32997	32903	32739	32751	
1387	0	32647	32642	32870	32647	32874	32725	32797	32807	
1388	0	32527	32602	32775	32581	32694	32583	32590	33194	
1389	0	32553	32671	32911	32570	32595	32598	32495	33151	
1390	0	32647	32607	32875	32491	32685	32631	32487	33341	
1391	0	32711	32679	32771	32647	32647	32633	32474	33287	
1392	0	32749	32743	32687	32716	32671	32692	32729	33012	
1393	0	32814	32895	32676	32879	32714	32615	32747	32623	
1394	0	32903	32851	32491	32853	32702	32655	32743	32421	
1395	0	32817	32671	32415	32695	32551	32587	32783	32409	
1396	0	32773	32677	32455	32743	32613	32848	32711	32463	
1397	0	32799	32763	32343	32795	32687	32699	32567	32583	
1398	0	32861	32671	32588	32615	32573	32597	32708	32467	
1399	0	32863	32812	32546	32591	32725	32661	32708	32515	
1400	0	32924	32854	32605	32854	32881	32953	32629	32615	
1401	0	32858	32786	32519	32863	33043	33027	32799	32564	
1402	0	32759	32850	32627	32775	32943	32829	32799	32659	
1403	0	32765	32775	32525	32631	32825	32715	32601	32757	
1404	0	32768	32935	32516	32607	32823	32543	32579	32775	
1405	0	32703	32767	32882	32764	32937	32561	32818	32723	
1406	0	32749	32775	32796	32884	32939	32572	32871	32866	
1407	0	32711	32685	32951	32886	32836	32495	32726	32939	
1408	0	32704	32759	32799	32988	32789	32591	32747	32887	
1409	0	32690	32615	32565	32927	32952	32718	32679	32815	
1410	0	32729	32641	32229	32858	32893	32973	32460	33019	
1411	0	32796	32683	32450	32895	32755	32869	32273	33037	
1412	0	32789	32879	32501	32684	32571	32631	32436	32604	
1413	0	32764	32673	32427	32767	32455	32500	32517	32207	
1414	0	32788	32799	32631	32871	32567	32724	32683	32627	
1415	0	32901	32821	32663	32917	32463	32403	32714	32493	
1416	0	32790	32633	32855	32755	32527	32639	32791	32647	
1417	0	32770	32661	32797	32647	32751	33071	32687	32679	
1418	0	32780	32727	32759	32769	32922	33254	32663	32587	
1419	0	32759	32623	32859	32684	32903	33103	32623	32830	
1420	0	32823	32743	32935	32796	32822	32927	32615	32607	
1421	0	32903	32841	32727	32887	32818	32845	32773	32671	
1422	0	32903	32820	32763	32727	32927	32738	32887	32827	
1423	0	32823	32813	32797	32589	32963	32633	32863	32661	
1424	0	32844	32789	32842	32686	32887	32674	32872	32559	
1425	0	32812	32843	32734	32583	32791	32685	32775	32519	
1426	0	32717	32727	32493	32467	32655	32677	32615	32750	
1427	0	32814	32727	32631	32569	32666	32791	32461	32875	
1428	0	32828	32722	32509	32695	32615	32775	32455	33025	
1429	0	32772	32687	32635	32702	32607	32721	32495	32766	
1430	0	32679	32751	32670	32871	32719	32543	32679	32765	
1431	0	32821	32775	32549	32903	32943	32530	32757	32863	
1432	0	32823	32775	32615	33005	33095	32669	32655	32743	
1433	0	32775	32717	32502	33025	33021	32645	32707	32903	
1434	0	32824	32662	32681	33061	33106	32771	32620	32690	
1435	0	32871	32710	32727	32943	33002	32898	32668	32478	
1436	0	32799	32595	32903	32901	32983	32919	32711	32419	
1437	0	32683	32527	32854	33010	32751	32846	32639	32619	
1438	0	32646	32551	32847	32957	32574	32791	32511	32679	
1439	0	32745	32679	32695	32814	32623	32989	32551	32679	
1440	0	32815	32735	32759	32626	32503	32879	32459	32775	
1441	0	32765	32613	32604	32789	32485	32559	32562	32755	
1442	0	32791	32748	32447	32709	32683	32655	32759	32754	
1443	0	32868	32775	32527	32773	32747	32723	32847	32687	
1444	0	32944	32898	32435	32765	32751	32647	32827	32815	
1445	0	32889	32795	32605	32577	32719	32646	32822	32719	
1446	0	32804	32775	32575	32615	32726	32623	32791	32871	
1447	0	32804	32679	32423	32719	32837	32623	32565	32869	
1448	0	32796	32743	32716	32743	32923	32925	32444	32727	
1449	0	32701	32643	32708	32642	32775	32918	32581	32700	
1450	0	32704	32724	32679	32731	32557	32767	32567	32743	
1451	0	32709	32662	32535	32683	32583	32815	32646	32734	
1452	0	32685	32613	32797	32671	32883	33092	32673	32679	
1453	0	32638	32626	32749	32711	32775	32957	32563	32645	
1454	0	32688	32707	32573	32671	32709	32884	32479	32711	
1455	0	32704	32607	32758	32731	32509	32979	32487	32227	
1456	0	32681	32749	32659	32663	32605	33028	32679	32293	
1457	0	32749	32729	32591	32445	32871	33140	32767	32247	
1458	0	32729	32679	32375	32599	32951	32927	32803	32337	
1459	0	32727	32775	32549	32543	32903	32718	32822	32647	
1460	0	32890	32686	32463	32622	32726	32740	32775	32999	
1461	0	32873	32703	32559	32581	32557	32417	32547	33467	
1462	0	32806	32882	32599	32595	32593	32263	32535	33394	
1463	0	32708	32782	32823	32663	32894	32631	32734	33031	
1464	0	32756	32791	32627	32702	33051	32738	32814	32850	
1465	0	32671	32887	32559	32759	32849	32615	32703	33015	
1466	0	32753	32931	32383	32943	32718	32679	32589	33283	
1467	0	32884	32903	32583	33223	32711	32735	32727	32939	
1468	0	32814	32755	32719	33059	32715	32682	32594	32535	
1469	0	32807	32666	32763	32979	32900	32927	32615	32421	
1470	0	32813	32653	32711	33005	33045	33023	32711	32247	
1471	0	32866	32810	32775	32873	32961	32839	32811	32351	
1472	0	32903	32930	32791	32943	32995	32828	32815	32413	
1473	0	33007	32923	32759	33053	33085	32903	32871	32114	
1474	0	32930	32879	32725	33007	32895	32735	32775	32435	
1475	0	32953	32935	32583	32797	32759	32575	32571	32495	
1476	0	32957	32711	32742	32749	32511	32359	32183	33075	
1477	0	33040	32751	32566	32679	32222	32421	32130	33281	
1478	0	33008	32799	32315	32507	32365	32469	32135	33367	
1479	0	33063	32875	32471	32716	32629	32413	32578	33103	
1480	0	33049	32695	32497	32721	32845	32503	32979	32866	
1481	0	33007	32804	32607	32962	33325	32997	32943	32687	
1482	0	32825	32647	32531	32810	32803	32679	32647	32943	
1483	0	32764	32539	32455	32467	32481	32571	32295	33246	
1484	0	32695	32466	32639	32515	32527	32767	32647	32927	
1485	0	32663	32607	32567	32451	32663	32599	32903	32771	
1486	0	32655	32607	32527	32466	32631	32585	32839	32807	
1487	0	32514	32475	32474	32463	32547	32675	32922	32595	
1488	0	32625	32399	32415	32359	32427	32735	32942	32347	
1489	0	32647	32436	32471	32412	32413	32715	32576	32647	
1490	0	32628	32475	32423	32468	32565	32634	32482	32659	
1491	0	32553	32338	32751	32415	32647	32535	32550	32863	
1492	0	32496	32468	32763	32375	32707	32661	32673	32628	
1493	0	32384	32342	32751	32208	32667	32843	32665	32445	
1494	0	32236	32253	32739	32239	32821	32790	32879	32331	
1495	0	32087	32020	32844	32430	32885	32919	32791	32413	
1496	0	31910	31983	32567	32557	32767	32797	32802	32659	
1497	0	31959	31869	32663	32701	32787	32787	32829	32467	
1498	0	32058	32127	32471	33047	32971	32978	32858	32359	
1499	0	32061	32285	32551	33027	33084	33065	33086	32444	
1500	0	32110	32223	32671	33046	33018	32893	33159	32227	
1501	0	32174	32403	32677	33131	32953	32815	33095	32228	
1502	0	32284	32623	32481	33100	32985	32867	33031	32340	
1503	0	32196	32743	32350	32999	32989	32727	33007	32623	
1504	0	32166	32615	32663	33211	32831	32495	33031	32573	
1505	0	32113	32877	32793	33135	32850	32374	32973	32583	
1506	0	32169	33047	32962	33129	33023	32914	32639	32391	
1507	0	32301	33039	32917	33131	33367	33435	32742	32365	
1508	0	32414	33122	32969	33086	33302	32991	32866	32627	
1509	0	32752	33227	33003	32925	33187	32727	32855	32668	
1510	0	32841	33270	32831	32871	32895	32671	32823	32813	
1511	0	32943	33188	32903	32809	32487	32711	32108	32995	
1512	0	33122	33139	32855	32708	32530	32679	31975	32807	
1513	0	33231	33159	32717	32551	32391	32621	31961	32885	
1514	0	33254	32999	32765	32503	32321	32839	32091	32951	
1515	0	33396	33117	32615	32583	32861	33012	32851	32575	
1516	0	33426	33185	32727	32671	33335	32927	33198	32517	
1517	0	33479	33101	32727	32814	33415	33103	32799	32661	
1518	0	33487	33193	32886	33039	33074	32639	32966	32767	
1519	0	33454	33103	32764	33159	32667	32259	32959	32945	
1520	0	33436	33012	32804	32916	32486	32213	32475	33175	
1521	0	33420	32983	32731	32823	32692	32499	32071	33065	
1522	0	33420	32935	32613	32919	32933	32595	32309	33095	
1523	0	33337	33011	32759	33023	32668	32263	32964	32918	
1524	0	33344	33127	32685	33039	32647	32095	33159	33022	
1525	0	33271	33055	32527	32775	32738	32245	32727	33158	
1526	0	33174	32991	32687	32676	32615	32287	32135	33159	
1527	0	33257	32901	32534	32731	32609	32459	32205	33021	
1528	0	33263	32859	32683	32711	32573	32847	32087	32867	
1529	0	33241	32915	32471	32526	32445	32863	31949	32999	
1530	0	33125	32910	32571	32568	32559	32930	32134	33016	
1531	0	32997	32671	32686	32645	32742	32791	32423	32919	
1532	0	32839	32735	32799	32581	32745	32871	32631	32819	
1533	0	32814	32574	32751	32635	32779	32919	32715	32622	
1534	0	32881	32527	32631	32639	32785	32979	32775	32615	
1535	0	32822	32643	32715	32595	32789	32806	32771	32639	
1536	0	32665	32593	32626	32690	32861	32903	32658	32631	
1537	0	32578	32605	32767	32609	32759	33020	32558	32597	
1538	0	32534	32549	32751	32398	32676	33159	32502	32585	
1539	0	32619	32711	32592	32546	32743	33127	32531	32588	
1540	0	32653	32719	32531	32647	32845	33099	32532	32613	
1541	0	32655	32615	32483	32551	32875	32896	32748	32663	
1542	0	32597	32583	32571	32633	32855	32837	32757	32563	
1543	0	32601	32719	32412	32791	32835	32978	32746	32667	
1544	0	32645	32839	32455	32726	32703	32747	32763	32695	
1545	0	32634	32671	32487	32855	32706	32671	32691	32783	
1546	0	32570	32629	32747	32975	32790	32659	32839	32662	
1547	0	32447	32583	32903	32807	32717	32711	32787	32767	
1548	0	32480	32535	32811	32826	32572	32641	32293	32819	
1549	0	32535	32615	32557	32863	32523	32583	32253	32742	
1550	0	32603	32619	32531	32775	32715	32583	32479	32755	
1551	0	32631	32556	32579	32711	33031	32623	32757	32735	
1552	0	32679	32655	32551	32647	33327	32999	33077	32679	
1553	0	32628	32607	32370	32695	33113	32919	32861	32773	
1554	0	32574	32658	32399	32615	32976	32868	32886	32747	
1555	0	32721	32613	32293	32659	33012	33235	32647	32583	
1556	0	32741	32525	32533	32715	32956	33082	32863	32415	
1557	0	32781	32581	32695	32831	32577	32991	33121	32327	
1558	0	32809	32629	32599	32793	32323	32975	32801	32535	
1559	0	32640	32531	32847	32915	32391	32797	32955	32515	
1560	0	32564	32701	32999	32826	32759	32775	32883	32627	
1561	0	32658	32791	32715	32822	32755	32540	32743	32583	
1562	0	32758	32783	32703	32741	32669	32365	32910	32719	
1563	0	32703	32851	32590	32823	32969	32311	32731	32915	
1564	0	32647	32745	32742	32745	32997	32455	32695	32767	
1565	0	32694	32623	32638	32817	32795	32545	32591	32780	
1566	0	32684	32787	32621	32908	32747	32391	32478	32967	
1567	0	32735	32876	32743	32877	32919	32587	32492	32931	
1568	0	32762	32743	32775	32815	32978	32679	32277	32939	
1569	0	32718	32765	32627	32765	32903	32437	32487	33046	
1570	0	32762	32715	32695	32703	32950	32643	32715	32966	
1571	0	32813	32759	32703	32733	32955	32665	32875	32783	
1572	0	32825	32755	32503	32738	32791	32741	32709	32644	
1573	0	32775	32708	32583	32783	32390	32699	32681	32667	
1574	0	32622	32613	32581	32823	32423	32559	32691	32523	
1575	0	32664	32661	32751	32895	32277	32631	32544	32647	
1576	0	32716	32623	32551	32855	32135	32766	32462	32580	
1577	0	32729	32530	32631	32771	32245	32993	32311	32575	
1578	0	32735	32751	32663	32631	32447	33077	32455	32515	
1579	0	32815	32847	32671	32646	32623	33055	32647	32614	
1580	0	32858	32811	32548	32713	32678	33055	32647	32643	
1581	0	32751	32823	32487	32769	32963	32919	32791	32747	
1582	0	32772	32741	32686	32775	33034	32858	32831	32759	
1583	0	32842	32817	32563	32461	32985	32843	32822	32711	
1584	0	32948	32797	32609	32467	32943	32753	32773	32751	
1585	0	32833	32883	32547	32647	33063	32871	32659	32725	
1586	0	32773	32668	32735	32739	32903	32915	32783	32725	
1587	0	32677	32647	32460	32671	32809	32775	32707	32698	
1588	0	32636	32659	32580	32702	32859	32637	32767	32654	
1589	0	32701	32703	32519	32595	32810	32569	32598	32790	
1590	0	32727	32703	32657	32647	32753	32663	32631	32711	
1591	0	32741	32631	32608	32771	32975	32886	32795	32575	
1592	0	32817	32759	32633	32605	32757	32819	32655	32613	
1593	0	32773	32844	32615	32727	32699	32723	32642	32638	
1594	0	32722	32748	32699	32775	32855	32663	32864	32716	
1595	0	32711	32767	32487	32711	32859	32759	32751	32722	
1596	0	32755	32735	32626	32859	32799	32823	32623	32613	
1597	0	32834	32619	32495	33039	32791	32715	32487	32703	
1598	0	32843	32702	32482	32971	32855	32890	32695	32663	
1599	0	32923	32671	32367	32815	32822	32847	32604	32690	
1600	0	32860	32689	32495	32711	32747	32757	32675	32695	
1601	0	32786	32579	32623	32727	32818	32823	32510	32698	
1602	0	32856	32769	32598	32775	32861	32717	32619	32711	
1603	0	32975	32791	32647	32854	32879	32725	32671	32683	
1604	0	32844	32914	32698	33059	33027	32821	32593	32797	
1605	0	32775	32811	32807	32983	32827	32881	32351	32746	
1606	0	32719	32835	32695	32807	32827	32903	32475	32647	
1607	0	32668	32611	32739	32611	32899	32887	32587	32694	
1608	0	32673	32654	32711	32647	32671	32773	32773	32791	
1609	0	32788	32751	32603	32673	32617	32654	33139	32775	
1610	0	32687	32641	32527	32553	32513	32519	33075	32885	
1611	0	32749	32769	32503	32541	32794	32690	33063	32835	
1612	0	32829	32861	32527	32713	33035	32883	32949	32605	
1613	0	32795	32751	32391	32703	32955	33127	32728	32603	
1614	0	32844	32722	32501	32604	32866	33095	32775	32655	
1615	0	32758	32703	32546	32631	32658	32886	32799	32549	
1616	0	32798	32719	32747	32703	32691	32662	32994	32567	
1617	0	32793	32759	32717	32684	32775	32543	32857	32575	
1618	0	32727	32749	32724	32659	32615	32590	32529	32846	
1619	0	32720	32683	32599	32655	32751	32601	32623	32879	
1620	0	32721	32743	32607	32817	32955	32586	32543	32832	
1621	0	32802	32775	32708	32871	32693	32514	32515	32986	
1622	0	32828	32749	32775	32843	32775	32207	32621	33121	
1623	0	32831	32759	32687	32902	32823	32629	32706	32743	
1624	0	32783	32845	32701	32943	32673	33018	32679	32148	
1625	0	32769	32689	32626	32821	32581	32979	32669	32135	
1626	0	32678	32806	32725	32719	32647	33078	32662	32301	
1627	0	32764	32748	32623	32719	32897	33100	32914	32506	
1628	0	32753	32607	32733	32742	32871	32948	32703	32701	
1629	0	32674	32732	32694	32759	32657	32703	32491	32695	
1630	0	32738	32668	32573	32703	32687	32831	32487	32725	
1631	0	32742	32709	32687	32775	32823	32941	32527	32747	
1632	0	32681	32690	32642	32743	32647	32747	32380	32767	
1633	0	32703	32709	32805	32577	32551	32887	32339	32775	
1634	0	32748	32743	32715	32699	32514	32743	32495	32797	
1635	0	32718	32599	32583	32663	32707	32828	32515	32844	
1636	0	32732	32679	32667	32624	32861	33099	32491	32675	
1637	0	32812	32753	32702	32746	32759	32903	32514	32727	
1638	0	32822	32676	32783	32751	32758	32561	32557	32679	
1639	0	32836	32677	32659	32735	32786	32407	32759	32771	
1640	0	32748	32727	32756	32694	32647	32401	32659	32839	
1641	0	32738	32644	32607	32639	32754	32595	32699	32739	
1642	0	32759	32709	32653	32775	32979	32647	32703	32863	
1643	0	32781	32726	32492	32807	32890	32758	32579	32991	
1644	0	32775	32595	32639	32743	32839	32765	32667	33090	
1645	0	32836	32839	32613	32775	32891	32813	32982	32855	
1646	0	32862	32770	32773	32775	32898	32793	32645	32877	
1647	0	32631	32644	32819	32717	32919	32763	32647	32898	
1648	0	32725	32761	32818	32725	32939	32903	32604	32375	
1649	0	32818	32813	32615	32822	32917	32790	32708	32334	
1650	0	32773	32675	32811	32703	32837	32647	32839	32757	
1651	0	32647	32658	32839	32811	32903	32671	32736	32950	
1652	0	32669	32615	32647	32689	32831	32607	32700	33013	
1653	0	32724	32559	32590	32742	32755	32658	32786	32623	
1654	0	32707	32609	32503	32884	32795	32670	32733	32692	
1655	0	32692	32739	32535	32749	32535	32555	32621	32455	
1656	0	32726	32655	32591	32855	32407	32634	32535	32455	
1657	0	32740	32674	32723	32751	32658	32819	32790	32447	
1658	0	32837	32587	32423	32859	32847	32901	32775	32547	
1659	0	32898	32783	32253	32898	32791	32772	32783	32500	
1660	0	32819	32775	32298	32692	32957	33223	32575	32850	
1661	0	32771	32575	32221	32564	32843	33196	32565	32923	
1662	0	32825	32709	32311	32567	32631	32867	32748	32731	
1663	0	32809	32699	32253	32727	32713	32671	32836	32935	
1664	0	32870	32941	32453	32807	32999	32819	32677	32834	
1665	0	32878	32914	32633	32863	32963	32621	32919	32775	
1666	0	32769	32802	32551	32827	32803	32599	32855	32867	
1667	0	32658	32731	32469	32621	32724	32587	32270	32847	
1668	0	32647	32702	32615	32599	32639	32402	32389	32853	
1669	0	32686	32574	32583	32695	33041	32743	32550	32615	
1670	0	32775	32743	32676	32721	33207	32885	32351	32585	
1671	0	32775	32623	32676	32695	33093	32795	32751	32693	
1672	0	32771	32817	32829	32806	32861	32679	33275	32631	
1673	0	32785	32705	32867	32771	32903	32734	33431	32459	
1674	0	32743	32639	32708	32580	32823	32835	33031	32626	
1675	0	32644	32687	32828	32727	32701	32871	32546	32647	
1676	0	32756	32679	32739	32793	32548	32935	32466	32764	
1677	0	32829	32627	32727	32795	32540	32943	32833	32623	
1678	0	32903	32743	32719	32743	32278	32660	33069	32443	
1679	0	32933	32827	32811	32829	32083	32637	33274	32367	
1680	0	32758	32679	32994	32749	32453	32687	32903	32351	
1681	0	32692	32751	32933	32679	32543	32767	32354	32435	
1682	0	32584	32725	33099	32674	32495	32921	32229	32775	
1683	0	32653	32793	32999	32660	32551	32703	32551	32877	
1684	0	32666	32877	32817	32504	32903	32631	32621	33025	
1685	0	32711	32711	32711	32535	33251	32667	32679	32919	
1686	0	32841	32859	32759	32591	33249	32711	32884	32960	
1687	0	32813	32852	32533	32587	33235	32775	32690	33027	
1688	0	32787	32759	32635	32713	33019	32872	32470	33077	
1689	0	32862	32811	32519	32831	32513	32631	32172	33097	
1690	0	32832	32869	32487	32988	32570	32465	32071	32902	
1691	0	32830	32767	32367	32999	32698	32451	32132	32837	
1692	0	32839	32701	32543	32903	32707	32639	32405	32759	
1693	0	32706	32636	32423	32802	32789	32623	32756	32663	
1694	0	32738	32663	32485	32865	32823	32795	32873	32559	
1695	0	32794	32694	32383	33047	32882	33151	32732	32449	
1696	0	32710	32703	32487	32935	32823	32875	32523	32567	
1697	0	32622	32559	32331	32783	32659	32563	32775	32467	
1698	0	32694	32687	32415	32742	32747	32878	32716	32559	
1699	0	32738	32668	32317	32722	33001	33239	32835	32524	
1700	0	32754	32764	32431	32734	32932	32710	32621	32671	
1701	0	32774	32700	32476	32694	32842	32467	32733	32855	
1702	0	32786	32822	32321	32763	32839	32727	32679	32751	
1703	0	32769	32854	32469	32799	32918	32736	32674	32679	
1704	0	32782	32747	32455	32783	32847	32775	32685	32613	
1705	0	32775	32811	32601	32743	32863	32895	32687	32743	
1706	0	32750	32671	32559	32703	32663	33001	32647	32795	
1707	0	32817	32839	32479	32762	32543	32804	32743	32975	
1708	0	32783	32864	32683	32702	32669	32639	32758	33013	
1709	0	32772	32775	32642	32677	32714	32518	32519	32903	
1710	0	32745	32817	32806	32511	32756	32494	32723	32738	
1711	0	32784	32751	32762	32501	32927	32692	32762	32708	
1712	0	32751	32684	32919	32703	32897	32771	32914	32519	
1713	0	32729	32751	32647	32707	32605	32503	32968	32483	
1714	0	32707	32738	32711	32691	32695	32700	32716	32551	
1715	0	32675	32681	32673	32844	32903	32903	32510	32515	
1716	0	32657	32705	32897	32754	32903	32647	32581	32591	
1717	0	32559	32615	32887	32581	32839	32727	32717	32359	
1718	0	32727	32551	32855	32786	32799	32813	32846	32439	
1719	0	32696	32693	32661	32687	32482	32662	32641	32637	
1720	0	32775	32701	32598	32822	32419	32663	32384	32935	
1721	0	32864	32607	32685	32933	32693	32863	32746	32933	
1722	0	32875	32743	32687	32895	32775	32899	32571	32927	
1723	0	32912	32851	32535	32683	32869	32767	32621	32962	
1724	0	32899	32767	32647	32655	32973	32806	33095	32669	
1725	0	32830	32815	32551	32655	33111	32827	32746	32647	
1726	0	32759	32772	32623	32709	32981	32727	32630	32659	
1727	0	32711	32711	32519	32791	32834	32693	32602	32687	
1728	0	32658	32767	32767	32764	32882	32727	32415	32541	
1729	0	32698	32702	32885	32669	32897	32795	32807	32355	
1730	0	32775	32783	32705	32599	33135	32711	32850	32465	
1731	0	32751	32711	32823	32647	33012	32615	33157	32388	
1732	0	32722	32730	32799	32765	32903	32635	33100	32771	
1733	0	32608	32647	32823	32799	32935	32711	32523	33106	
1734	0	32631	32470	32599	32919	32810	32967	32684	32852	
1735	0	32687	32588	32707	32855	33071	33101	32575	32883	
1736	0	32725	32548	32925	32863	33050	32883	32421	32749	
1737	0	32761	32748	32775	32877	32767	32766	32281	32375	
1738	0	32833	32834	32867	32847	32591	32811	32949	32463	
1739	0	32886	32775	32582	32964	32684	33047	33375	32407	
1740	0	32796	32775	32681	32767	33107	33107	33201	32693	
1741	0	32726	32647	32615	32715	32947	32827	32988	32927	
1742	0	32667	32711	32711	32638	32405	32529	32559	33188	
1743	0	32824	32839	32723	32713	32125	32324	32723	32612	
1744	0	32830	32775	32487	32788	32263	32631	32407	32579	
1745	0	32786	32823	32629	32863	32601	32993	32599	32761	
1746	0	32753	32786	32583	32807	32658	32955	32415	32799	
1747	0	32839	32731	32700	32845	32637	32855	32259	33124	
1748	0	32791	32775	32615	32847	32459	32487	31869	33535	
1749	0	32662	32721	32747	32735	32299	32279	32197	33315	
1750	0	32655	32695	32699	32614	32767	32663	32455	33091	
1751	0	32594	32679	32775	32566	33051	32839	32532	33015	
1752	0	32537	32695	32635	32711	33082	32805	32279	32867	
1753	0	32548	32647	32655	32748	32964	32847	32457	32655	
1754	0	32663	32683	32453	32687	32955	32903	32647	32399	
1755	0	32738	32681	32477	32719	32822	32802	32667	32455	
1756	0	32762	32679	32439	32703	32751	32755	32691	32492	
1757	0	32820	32762	32691	32690	32740	32764	32839	32263	
1758	0	32831	32667	32809	32799	32775	32503	32895	32127	
1759	0	32815	32775	32597	32822	32919	32428	32868	32391	
1760	0	32769	32759	32831	32783	32876	32552	32787	32564	
1761	0	32769	32709	32885	32647	32887	32715	32775	32727	
1762	0	32796	32804	32866	32767	32878	32623	32643	32929	
1763	0	32858	32863	32751	32742	32802	32647	32695	33019	
1764	0	32823	32766	32807	32703	32627	32535	32833	32951	
1765	0	32749	32759	32767	32859	32483	32583	32835	32731	
1766	0	32721	32763	32775	32836	32647	32655	32811	32701	
1767	0	32723	32662	32716	32876	32865	32612	32807	32615	
1768	0	32767	32845	32753	32663	32950	32580	32503	32959	
1769	0	32740	32815	32587	32694	32790	32545	32573	32679	
1770	0	32756	32629	32525	32503	32741	32621	32727	32431	
1771	0	32793	32742	32669	32631	32946	32756	32799	32683	
1772	0	32808	32723	32647	32673	32971	32775	32703	32495	
1773	0	32859	32707	32705	32687	32748	32596	32647	32756	
1774	0	32901	32903	32439	32911	32758	32847	32710	32789	
1775	0	32835	32769	32583	32993	32741	32943	32501	32646	
1776	0	32806	32727	32591	32809	32786	32951	32455	32773	
1777	0	32729	32663	32799	32834	32739	32845	32342	32647	
1778	0	32788	32709	32598	32925	32775	32731	32817	32339	
1779	0	32716	32675	32614	32885	32897	32711	32893	32383	
1780	0	32743	32671	32457	32691	32921	32852	32775	32657	
1781	0	32798	32902	32602	32951	32999	32740	32854	32669	
1782	0	32791	32855	32583	32788	32891	32559	32739	32858	
1783	0	32816	32775	32595	32839	32929	32807	32962	32823	
1784	0	32737	32769	32676	32679	32891	32839	32695	32749	
1785	0	32667	32799	32796	32583	33074	32599	32740	32903	
1786	0	32729	32599	32583	32521	33012	32388	32701	32903	
1787	0	32700	32715	32567	32591	32898	32455	32622	33004	
1788	0	32761	32755	32484	32647	32533	32319	32391	33023	
1789	0	32687	32637	32715	32679	32436	32543	32478	32963	
1790	0	32632	32685	32700	32811	32583	33172	32573	32647	
1791	0	32706	32647	32621	32876	32691	32742	32722	32503	
1792	0	32713	32707	32801	32803	32695	32307	32813	32444	
1793	0	32633	32583	32663	32819	32511	32111	32555	32715	
1794	0	32690	32724	32665	32927	32569	32867	32645	32406	
1795	0	32721	32679	32450	32781	32676	32996	32647	32247	
1796	0	32765	32647	32754	32743	32643	32692	32823	32527	
1797	0	32723	32681	32663	32629	32667	32982	32791	32576	
1798	0	32817	32629	32609	32682	32759	33191	32799	32605	
1799	0	32851	32689	32715	32725	32791	32847	32987	32763	
1800	0	32845	32754	32538	32583	32859	32821	32708	32940	
1801	0	32914	32811	32665	32690	32892	32775	32470	32863	
1802	0	32932	32831	32703	32644	32817	32501	32567	32899	
1803	0	32789	32647	32797	32607	32617	32484	32521	32997	
1804	0	32734	32759	32703	32629	32613	32439	32822	33015	
1805	0	32831	32894	32551	32807	32884	32711	33204	32775	
1806	0	32805	32793	32655	32863	33300	33076	33167	32462	
1807	0	32705	32775	32713	32783	33275	33174	32835	32462	
1808	0	32738	32717	32599	32743	32827	32943	32583	32567	
1809	0	32690	32807	32697	32727	32708	32839	32334	32723	
1810	0	32668	32727	32578	32791	32557	32711	32135	32974	
1811	0	32699	32597	32673	32676	32330	32645	32035	33014	
1812	0	32719	32717	32667	32679	32361	32519	32258	32833	
1813	0	32791	32775	32647	32743	32351	32503	32749	32766	
1814	0	32859	32717	32671	32871	32786	32623	33295	32774	
1815	0	32916	32891	32675	32923	33071	32891	33383	32540	
1816	0	32743	32727	32462	32807	33055	32959	32703	32598	
1817	0	32679	32475	32611	32743	32767	32775	32431	32743	
1818	0	32728	32679	32406	32675	32657	32589	32479	32733	
1819	0	32844	32735	32462	32836	32775	32761	32612	32479	
1820	0	32897	32719	32361	32863	32599	32818	32647	32481	
1821	0	32840	32749	32671	32845	32759	32730	32734	32493	
1822	0	32775	32791	32791	32786	32795	32692	32287	32567	
1823	0	32815	32751	32666	32587	32834	32662	32297	32783	
1824	0	32751	32742	32615	32663	32799	32775	32625	32967	
1825	0	32742	32663	32581	32735	32807	32882	32485	33197	
1826	0	32796	32701	32628	32692	32807	32943	32503	33082	
1827	0	32839	32826	32516	32631	32791	33021	32903	32631	
1828	0	32823	32809	32391	32673	32786	32942	32937	32495	
1829	0	32771	32623	32623	32711	32681	32647	32615	32678	
1830	0	32749	32755	32804	32756	32609	32479	32583	32607	
1831	0	32700	32723	32749	32823	32575	32625	32644	32821	
1832	0	32775	32813	32723	32771	32683	32735	32609	32899	
1833	0	32715	32795	32537	32751	32975	32605	32713	32894	
1834	0	32647	32527	32677	32695	33031	32607	32647	32957	
1835	0	32788	32631	32487	32711	32871	32680	32459	32692	
1836	0	32702	32667	32530	32737	32700	32692	32598	32595	
1837	0	32706	32559	32468	32630	32718	32887	32708	32715	
1838	0	32807	32751	32579	32759	32723	32815	32783	32635	
1839	0	32919	32823	32391	32863	32667	32861	32823	32389	
1840	0	32916	32722	32558	32735	32687	32702	32742	32407	
1841	0	32836	32818	32452	32711	32795	32893	32613	32479	
1842	0	32836	32775	32627	32735	32764	32723	32615	32642	
1843	0	32725	32635	32703	32716	32769	32711	32708	32899	
1844	0	32703	32762	32732	32647	32863	32630	32772	33117	
1845	0	32677	32639	32626	32598	32790	32412	32702	32999	
1846	0	32669	32555	32559	32716	32818	32335	32775	32739	
1847	0	32726	32783	32675	32711	32814	32525	32895	32751	
1848	0	32809	32773	32502	32775	32831	32470	32691	32815	
1849	0	32753	32699	32625	32791	32791	32458	32549	32817	
1850	0	32710	32772	32836	32757	32803	32519	32647	32751	
1851	0	32722	32637	32734	32549	32791	32717	32699	32711	
1852	0	32742	32557	32725	32511	32813	32839	32647	32663	
1853	0	32736	32754	32573	32637	32833	32991	32727	32351	
1854	0	32642	32677	32740	32877	32807	32972	32694	32433	
1855	0	32681	32551	32796	32845	32821	32927	32495	32620	
1856	0	32789	32719	32830	32863	32711	32903	32359	32751	
1857	0	32845	32763	32647	32967	32665	32743	32773	32772	
1858	0	32859	32775	32668	32909	32613	32731	32734	32671	
1859	0	32772	32775	32655	32769	32735	32758	32658	32691	
1860	0	32832	32742	32711	32687	32955	32750	32875	32543	
1861	0	32767	32715	32765	32879	32727	32647	32901	32639	
1862	0	32756	32805	32811	32807	32807	32620	32745	32633	
1863	0	32727	32867	32796	32951	33035	32695	32831	32723	
1864	0	32839	32839	32647	33053	33031	32663	32727	32725	
1865	0	32832	32961	32531	32806	32673	32519	32690	32734	
1866	0	32861	32823	32403	32727	32663	32694	32706	32818	
1867	0	32756	32854	32467	32695	32635	32775	32507	32871	
1868	0	32692	32725	32367	32663	32669	32823	32557	32751	
1869	0	32684	32635	32575	32707	32815	32818	32477	32791	
1870	0	32870	32839	32535	32695	32927	32982	32596	32787	
1871	0	32821	32791	32743	32707	33058	32775	32949	32557	
1872	0	32720	32925	32758	32647	32959	32695	32709	32660	
1873	0	32708	32797	32811	32623	32887	32713	32527	32733	
1874	0	32661	32627	32535	32613	32867	32717	32479	32879	
1875	0	32571	32663	32492	32495	32775	32723	32367	32743	
1876	0	32647	32615	32343	32579	32684	32670	32647	32531	
1877	0	32721	32575	32559	32513	32505	32631	32503	32509	
1878	0	32889	32815	32466	32599	32517	32921	32494	32562	
1879	0	32986	32879	32571	32839	32803	33217	32895	32679	
1880	0	32909	32699	32569	32583	32851	33063	32951	32639	
1881	0	32679	32559	32722	32535	32519	32623	32810	33005	
1882	0	32715	32647	32751	32671	32509	32767	32793	32871	
1883	0	32874	32743	32876	32881	32556	32795	33079	32467	
1884	0	32916	32901	32727	32817	32532	32687	33091	32599	
1885	0	32804	32837	32631	32803	32727	32622	32773	32514	
1886	0	32846	32823	32643	32982	33001	32759	32415	32759	
1887	0	32784	32782	32587	32903	32955	32647	32311	32713	
1888	0	32706	32791	32751	32917	32751	32487	32373	32895	
1889	0	32626	32719	32660	32687	32685	32291	32543	32815	
1890	0	32769	32725	32647	32677	32867	32316	32723	32729	
1891	0	32751	32806	32591	32687	32710	32391	32676	32391	
1892	0	32754	32707	32621	32817	32807	32686	32903	32445	
1893	0	32788	32775	32666	32863	32932	32899	32918	32553	
1894	0	32723	32695	32639	32675	32955	32951	32933	32615	
1895	0	32676	32708	32557	32605	32679	32919	32663	33010	
1896	0	32695	32677	32657	32671	32677	32873	32575	33079	
1897	0	32706	32571	32607	32711	32705	32933	32559	32887	
1898	0	32723	32655	32850	32745	32775	32967	32563	32967	
1899	0	32708	32775	32657	32815	32823	33015	32391	32831	
1900	0	32647	32661	32795	32755	32717	32903	32497	32759	
1901	0	32783	32626	32655	32615	32775	32878	32611	32647	
1902	0	32808	32679	32783	32660	32830	32951	32723	32755	
1903	0	32724	32617	32587	32846	32951	32892	32703	32751	
1904	0	32736	32615	32711	32797	32915	32873	32633	32615	
1905	0	32724	32639	32647	32903	32765	32599	32599	32837	
1906	0	32742	32659	32807	32892	32885	32525	32623	32853	
1907	0	32647	32577	32870	32790	33046	32619	32575	32925	
1908	0	32674	32711	32947	32775	33110	32655	32635	32749	
1909	0	32702	32643	32807	32786	32887	32577	32630	32674	
1910	0	32613	32590	32623	32594	32813	32571	32583	32694	
1911	0	32642	32543	32806	32769	32807	32786	32748	32812	
1912	0	32700	32689	32603	32786	32730	32733	32571	32738	
1913	0	32739	32713	32591	32807	32795	32724	32687	32911	
1914	0	32847	32617	32498	32787	32743	32545	32699	32859	
1915	0	32741	32711	32715	32659	32723	32587	32615	32501	
1916	0	32688	32647	32647	32595	32687	32574	32711	32631	
1917	0	32727	32562	32707	32738	32765	32640	32799	32491	
1918	0	32773	32548	32695	32710	32769	32547	32783	32512	
1919	0	32871	32703	32695	32695	32755	32489	32647	32527	
1920	0	32847	32655	32703	32611	32556	32434	32647	32633	
1921	0	32823	32619	32663	32567	32558	32591	32742	32631	
1922	0	32819	32756	32711	32391	32635	32533	32531	32791	
1923	0	32974	32703	32412	32343	32743	32735	32687	32999	
1924	0	32929	32879	32467	32614	32982	32919	32683	32809	
1925	0	32912	32806	32539	32615	32879	33003	32687	32790	
1926	0	32859	32841	32613	32858	32868	32903	32603	32925	
1927	0	32836	32679	32582	32903	32828	32679	32620	32889	
1928	0	32880	32807	32521	32877	32947	32632	32566	32685	
1929	0	32860	32759	32503	33015	32943	32845	32758	32670	
1930	0	32786	32605	32342	32989	32879	33007	32630	32497	
1931	0	32734	32687	32613	32900	32775	32938	32727	32549	
1932	0	32641	32759	32526	32883	32864	32847	32629	33070	
1933	0	32584	32783	32639	32903	32925	32789	32685	32964	
1934	0	32643	32679	32583	32810	32903	32916	32903	32727	
1935	0	32695	32735	32466	32749	32858	32897	32607	32485	
1936	0	32743	32646	32467	32775	32759	32839	32678	32319	
1937	0	32647	32807	32660	32770	32655	32655	32579	32535	
1938	0	32756	32854	32611	32805	32541	32487	32735	32390	
1939	0	32740	32829	32647	32887	32623	32626	32846	32062	
1940	0	32655	32877	32671	32819	32647	32487	32713	32391	
1941	0	32727	32961	32607	32701	32767	32689	32599	32383	
1942	0	32732	32805	32631	32787	32773	32719	32751	32621	
1943	0	32749	32900	32582	32799	32763	32647	32802	32831	
1944	0	32735	32935	32647	32775	32857	32617	32745	33004	
1945	0	32646	32867	32613	32685	32831	32586	32647	32987	
1946	0	32607	32968	32685	32685	32839	32727	32572	32965	
1947	0	32660	32933	32599	32594	32668	32749	32374	32943	
1948	0	32759	32755	32448	32606	32767	32807	32567	32939	
1949	0	32765	32915	32662	32629	32918	32887	32710	32708	
1950	0	32844	32851	32563	32698	32955	32757	32845	32751	
1951	0	32820	32789	32602	32763	32871	32755	32805	32743	
1952	0	32814	32813	32527	32727	32931	32867	32562	32929	
1953	0	32836	32799	32591	32647	32839	32567	32591	32875	
1954	0	32903	32695	32599	32676	32723	32548	32564	32733	
1955	0	32829	32756	32657	32619	32811	32783	32603	32677	
1956	0	32903	32749	32590	32681	32837	32831	32743	32476	
1957	0	32902	32615	32677	32759	32829	32818	32759	32623	
1958	0	32895	32810	32715	32951	32885	32815	32759	32700	
1959	0	32866	32723	32881	32895	32749	32855	32666	32663	
1960	0	32729	32610	32854	32702	32532	32826	32545	32693	
1961	0	32768	32509	32661	32676	32674	32658	32747	32757	
1962	0	32799	32594	32640	32771	32731	32743	32660	32847	
1963	0	32785	32571	32407	32687	32722	32797	32343	32950	
1964	0	32816	32727	32302	32823	32788	32815	32463	33095	
1965	0	32769	32700	32518	32677	32641	32514	32348	32903	
1966	0	32718	32667	32752	32613	32333	32317	32604	32479	
1967	0	32801	32732	32767	32630	32663	32671	32791	32439	
1968	0	32861	32723	32834	32695	32879	33287	32549	32421	
1969	0	32726	32706	32789	32767	32991	33202	32627	32627	
1970	0	32718	32839	32802	32826	33117	32775	32803	32769	
1971	0	32783	32754	32615	32751	32967	32687	33135	32514	
1972	0	32727	32759	32655	32575	32859	32759	33259	32385	
1973	0	32782	32699	32491	32795	32935	32903	32935	32756	
1974	0	32759	32535	32644	32903	32839	32943	32687	32813	
1975	0	32815	32703	32559	32727	32722	32663	32646	32859	
1976	0	32887	32735	32643	32783	32676	32604	32567	32891	
1977	0	32852	32710	32629	32809	32717	32503	32658	32939	
1978	0	32787	32745	32797	32631	32700	32554	32607	32851	
1979	0	32709	32790	32879	32749	32810	32797	32565	32687	
1980	0	32801	32765	32871	32763	32895	32694	32582	32773	
1981	0	32782	32667	32775	32753	32647	32553	32726	32742	
1982	0	32731	32743	32839	32815	32707	32577	32695	32747	
1983	0	32756	32740	32599	32855	32791	32625	32722	32775	
1984	0	32751	32751	32764	32791	32839	32639	32867	32783	
1985	0	32681	32846	32623	32699	32824	32831	33110	32759	
1986	0	32709	32711	32721	32682	32595	32839	33035	32587	
1987	0	32754	32692	32589	32591	32621	32749	32788	32542	
1988	0	32782	32763	32599	32711	32741	32798	32751	32499	
1989	0	32821	32775	32487	32813	32834	32901	32435	32887	
1990	0	32738	32659	32661	32873	33230	33071	32487	32799	
1991	0	32692	32795	32590	32734	33203	33027	32665	32519	
1992	0	32643	32695	32597	32805	33023	32933	32784	32475	
1993	0	32587	32613	32580	32804	32895	32851	32453	32679	
1994	0	32692	32673	32667	32860	32647	32677	32281	33058	
1995	0	32660	32675	32637	32691	32559	32631	32225	33127	
1996	0	32709	32631	32642	32725	32630	32570	32047	33026	
1997	0	32700	32679	32503	32807	32698	32692	32430	32917	
1998	0	32825	32791	32690	32679	32901	32867	32831	32513	
1999	0	32826	32655	32628	32755	32791	33053	32725	32508	
2000	0	32839	32698	32711	32848	32595	32724	32831	32621	
2001	0	32787	32698	32617	32764	32647	32675	32959	32427	
2002	0	32716	32541	32773	32737	32590	32687	32759	32611	
2003	0	32617	32706	32684	32695	32445	32587	32797	32858	
2004	0	32742	32743	32631	32919	32359	32535	32727	33119	
2005	0	32770	32775	32677	32763	32413	32375	32507	33167	
2006	0	32829	32773	32567	32739	32575	32334	32311	33030	
2007	0	32702	32839	32731	32694	32870	32453	32503	32773	
2008	0	32693	32757	32671	32667	33053	32623	32577	32637	
2009	0	32716	32815	32530	32719	32774	32867	32455	32413	
2010	0	32690	32615	32439	32583	32609	33023	32365	32607	
2011	0	32694	32719	32383	32522	32623	33114	32382	32543	
2012	0	32706	32687	32495	32743	32911	33118	32437	32615	
2013	0	32730	32671	32463	32643	32919	33115	32612	32635	
2014	0	32787	32683	32599	32703	32839	33109	32703	32631	
2015	0	32715	32775	32735	32676	32799	33055	32807	32359	
2016	0	32672	32719	32995	32594	32763	32863	33167	32196	
2017	0	32723	32593	32839	32679	32801	32723	33359	31878	
2018	0	32854	32771	32804	32911	32881	32789	33046	31975	
2019	0	32733	32655	32738	32727	33031	32581	32635	32854	
2020	0	32747	32639	32759	32771	33169	32585	32487	33157	
2021	0	32728	32773	32626	32767	32975	32635	32423	32813	
2022	0	32813	32749	32642	32807	32851	32619	32439	32999	
2023	0	32848	32903	32439	32865	33015	32684	32903	32871	
2024	0	32829	32924	32607	32871	33079	32639	32761	33206	
2025	0	32822	32735	32447	32775	32791	32603	32446	33269	
2026	0	32788	32775	32541	32563	32571	32303	32443	33234	
2027	0	32775	32743	32387	32775	32667	32292	32607	32892	
2028	0	32819	32693	32655	32847	32751	32452	32887	32634	
2029	0	32825	32759	32847	32895	32834	32645	32815	32375	
2030	0	32840	32851	32755	32775	32727	32644	32519	32715	
2031	0	32843	32747	32595	32775	32631	32635	32445	32751	
2032	0	32840	32847	32743	32791	32607	32575	32619	33013	
2033	0	32816	32845	32773	32855	32754	32703	32511	32999	
2034	0	32895	32935	32582	32951	32899	32892	32605	32866	
2035	0	32843	32919	32717	32747	32853	32725	32633	32857	
2036	0	32916	32762	32708	32735	32898	32773	32615	32761	
2037	0	32933	32718	32812	32839	32954	32811	32647	32731	
2038	0	32880	32875	32775	32719	32817	32677	32788	32647	
2039	0	32967	32819	32687	32835	32775	32775	32684	32491	
2040	0	32976	32863	32626	32806	32743	32755	32692	32707	
2041	0	32963	32802	32619	32702	32695	32733	32623	32815	
2042	0	32967	32963	32507	32759	32749	32833	32749	32710	
2043	0	32950	32895	32629	32775	32879	33015	32917	32745	
2044	0	32954	32750	32775	32794	32927	32862	32706	32734	
2045	0	32915	32725	32643	32738	32801	32634	32550	32807	
2046	0	32854	32575	32642	32627	32711	32615	32745	32647	
2047	0	32809	32637	32423	32527	32631	32658	32679	32791	
2048	0	32698	32551	32532	32541	32599	32607	32626	32791	
2049	0	32705	32399	32429	32623	32563	32843	32727	32583	
2050	0	32642	32519	32503	32628	32600	32863	32583	32461	
2051	0	32617	32391	32455	32626	32695	32863	32571	32527	
2052	0	32545	32534	32626	32647	32763	32914	32807	32583	
2053	0	32583	32555	32775	32823	32805	33015	32821	32537	
2054	0	32581	32406	32679	32799	32695	32964	32739	32605	
2055	0	32436	32463	32495	32549	32683	32863	32699	32663	
2056	0	32320	32391	32492	32581	32775	33012	32702	32567	
2057	0	32381	32273	32353	32611	32855	33189	32854	32563	
2058	0	32310	32244	32563	32597	32789	33051	32716	32543	
2059	0	32156	32191	32615	32609	32667	32866	32719	32647	
2060	0	32121	31999	32635	32452	32807	32965	32863	32599	
2061	0	32096	32205	32599	32589	32914	32855	32891	32493	
2062	0	32058	32303	32509	32639	32874	32854	32949	32495	
2063	0	32025	32310	32647	32671	32823	32699	33039	32567	
2064	0	32100	32430	32662	32737	32870	32626	32995	32607	
2065	0	32186	32613	32795	32706	32935	32683	33122	32487	
2066	0	32135	32747	32752	32921	32997	32819	32966	32431	
2067	0	32183	32805	32735	33012	32839	32683	32846	32251	
2068	0	32263	32887	32527	33095	32901	32804	32890	32383	
2069	0	32273	32764	32681	32861	33033	32787	33031	32511	
2070	0	32348	32955	32684	33031	32967	32658	32819	32570	
2071	0	32500	32983	32790	32967	32991	32839	32615	32578	
2072	0	32585	32999	32626	32857	32993	32919	32647	32681	
2073	0	32818	33179	32807	32895	33077	32893	32633	32883	
2074	0	32931	33071	32811	32989	32485	32709	32439	32823	
2075	0	33014	32941	32890	32862	32279	32519	32605	32879	
2076	0	33139	32983	32749	32891	32462	32475	32642	32783	
2077	0	33440	33229	32853	32975	32755	32679	32849	32579	
2078	0	33471	33131	32687	33053	32754	32621	32646	32941	
2079	0	33524	33107	32463	32900	32926	32996	32402	32983	
2080	0	33545	33191	32757	32903	33075	32975	32505	32987	
2081	0	33518	33131	32791	32838	32647	32557	32315	33087	
2082	0	33501	33020	32718	32833	32405	32165	32621	33300	
2083	0	33466	33086	32669	32879	32591	32261	32887	33122	
2084	0	33385	33025	32615	32707	32838	32484	32665	33093	
2085	0	33256	32895	32709	32692	32945	32612	32502	32935	
2086	0	33200	32858	32548	32687	32802	32691	32203	32827	
2087	0	33287	32947	32691	32591	32715	32765	32235	32726	
2088	0	33281	32916	32647	32687	32775	32605	32231	32742	
2089	0	33246	32927	32795	32722	32639	32573	32093	32903	
2090	0	33175	32775	32635	32815	32595	32621	32119	32695	
2091	0	33045	32837	32594	32767	32578	32586	32219	32725	
2092	0	33025	32815	32647	32759	32786	32629	32255	32899	
2093	0	32995	32731	32514	32727	32721	32554	32278	32839	
2094	0	32987	32718	32711	32575	32623	32427	32319	32895	
2095	0	33015	32775	32551	32773	32699	32431	32351	32797	
2096	0	32933	32717	32763	32659	32685	32404	32567	32871	
2097	0	32873	32552	32647	32738	32591	32373	32503	32771	
2098	0	32786	32679	32711	32716	32471	32723	32470	32711	
2099	0	32788	32691	32681	32615	32750	32919	32957	32579	
2100	0	32796	32679	32763	32583	33010	32963	33283	32391	
2101	0	32708	32613	32799	32677	33055	33169	33037	32403	
2102	0	32631	32599	32607	32745	32891	32871	32871	32688	
2103	0	32595	32534	32687	32604	32635	32623	32622	32863	
2104	0	32670	32655	32505	32711	32735	32748	32509	32791	
2105	0	32592	32707	32713	32691	32903	32769	32815	32658	
2106	0	32590	32555	32713	32719	32999	32747	32748	32711	
2107	0	32589	32674	32711	32815	32903	32727	32604	32837	
2108	0	32566	32711	32684	32791	33031	32941	32743	32667	
2109	0	32612	32619	32743	32743	32887	32935	32695	32783	
2110	0	32582	32709	32711	32783	32543	32671	32743	32759	
2111	0	32609	32647	32469	32587	32617	32667	32783	32737	
2112	0	32695	32711	32597	32647	32963	32903	32717	32615	
2113	0	32641	32671	32447	32727	32942	32990	32635	32663	
2114	0	32595	32684	32719	32713	32903	32879	32531	32711	
2115	0	32607	32566	32673	32703	32793	33019	32626	32557	
2116	0	32687	32630	32726	32743	32887	32983	32801	32479	
2117	0	32647	32689	32611	32533	33012	33021	33031	32595	
2118	0	32722	32633	32553	32711	32999	33022	33031	32461	
2119	0	32738	32559	32671	32731	32890	32903	32895	32455	
2120	0	32672	32674	32635	32775	32799	32926	33085	32423	
2121	0	32644	32717	32663	32816	32694	32844	32791	32807	
2122	0	32615	32622	32541	32709	32462	32695	32387	32875	
2123	0	32673	32775	32581	32739	32287	32423	32263	32835	
2124	0	32759	32694	32431	32695	32339	32236	32128	32799	
2125	0	32639	32813	32591	32690	32215	32353	32123	32803	
2126	0	32592	32711	32535	32733	32407	32555	32437	32546	
2127	0	32637	32660	32663	32700	32611	32699	32699	32567	
2128	0	32716	32775	32647	32733	32571	32693	32559	32659	
2129	0	32865	32847	32548	32799	32729	32727	32812	32866	
2130	0	32796	32734	32493	32751	32767	32725	32751	32871	
2131	0	32774	32695	32481	32709	32832	32743	32515	32973	
2132	0	32806	32647	32703	32605	33103	32871	32927	32895	
2133	0	32753	32765	32869	32661	33012	32827	33191	32702	
2134	0	32690	32759	32743	32775	32935	32815	32743	32699	
2135	0	32671	32636	32735	32738	32895	32847	32662	32715	
2136	0	32647	32715	32743	32708	32985	33215	32735	32713	
2137	0	32696	32695	32689	32796	32877	32827	32871	32527	
2138	0	32713	32647	32783	32775	32911	32831	32853	32471	
2139	0	32712	32763	32647	32855	32839	32807	32798	32543	
2140	0	32720	32703	32646	32580	32711	32679	32767	32815	
2141	0	32746	32607	32625	32619	32564	32791	32367	32837	
2142	0	32742	32757	32615	32775	32663	32811	32214	32645	
2143	0	32766	32698	32644	32791	32811	32638	32429	32771	
2144	0	32702	32711	32698	32837	32884	32599	32549	32767	
2145	0	32715	32775	32697	32775	33046	32619	32491	32681	
2146	0	32698	32610	32639	32775	33063	32687	32450	32535	
2147	0	32723	32699	32671	32639	32703	32597	32738	32463	
