# OpenSignals Text File Format
# {"00:07:80:3B:46:38": {"sensor": ["CUSTOM/0.5/1.0/V", "CUSTOM/0.5/1.0/V", "CUSTOM/0.5/1.0/V", "CUSTOM/0.5/1.0/V", "CUSTOM/0.5/1.0/V", "CUSTOM/0.5/1.0/V", "CUSTOM/0.5/1.0/V", "CUSTOM/0.5/1.0/V"], "device name": "EMGs", "column": ["nSeq", "DI", "RA_L", "RA_R", "OE_L", "OE:R", "IL_L", "IL_R", "MF_L", "MF_R"], "sync interval": 2, "time": "16:19:57.634", "comments": "", "device connection": "BTH00:07:80:3B:46:38", "channels": [1, 2, 3, 4, 5, 6, 7, 8], "date": "2017-6-1", "mode": 0, "digital IO": [0, 1], "firmware version": 772, "device": "biosignalsplux", "position": 0, "sampling rate": 1000, "label": ["RA_L", "RA_R", "OE_L", "OE:R", "IL_L", "IL_R", "MF_L", "MF_R"], "resolution": [16, 16, 16, 16, 16, 16, 16, 16], "special": [{}, {}, {}, {}, {}, {}, {}, {}]}}
# EndOfHeader
0	0	32745	32729	32818	32747	32911	33799	33375	32421	
1	0	32739	32703	32646	32671	32925	32727	33180	31519	
2	0	32668	32549	32803	32631	32812	32519	33543	31378	
3	0	32730	32517	32717	32577	32783	32518	33743	31879	
4	0	32794	32532	32865	32711	32685	32973	32914	30650	
5	0	32851	32582	32807	32895	32871	33247	32123	30761	
6	0	32860	32677	32786	32903	32903	33078	32300	32534	
7	0	32870	32747	32751	32845	32775	32706	32519	33415	
8	0	32815	32727	32823	32861	32610	32996	32822	33479	
9	0	32730	32751	32757	32675	32722	32519	32391	33082	
10	0	32644	32739	32694	32729	32575	32626	31533	33282	
11	0	32792	32769	32824	32684	32517	32365	31508	33403	
12	0	32775	32612	32685	32743	32519	32430	32451	33286	
13	0	32774	32750	32675	32911	32525	32507	31350	33321	
14	0	32718	32765	32647	32978	32429	32151	32334	33333	
15	0	32725	32783	32677	32877	32820	32154	33027	33173	
16	0	32694	32719	32663	32875	32966	32219	33503	32891	
17	0	32726	32687	32631	32633	32123	32839	33480	32695	
18	0	32758	32762	32327	32551	32541	33143	32319	32833	
19	0	32642	32687	32487	32609	33139	33031	32227	32997	
20	0	32685	32583	32621	32807	32831	32671	33159	33159	
21	0	32701	32460	32681	32722	32773	32435	33004	32581	
22	0	32825	32676	32815	32715	33151	32330	33086	32191	
23	0	32703	32711	32639	32825	32860	32537	33261	31702	
24	0	32746	32731	32771	32748	32743	32769	32127	32327	
25	0	32775	32583	32894	32861	32783	32615	31278	32263	
26	0	32820	32727	32934	32790	32887	32427	31365	32887	
27	0	32837	32791	33018	32853	32831	31945	31437	32573	
28	0	32765	32659	32887	32774	32807	31765	32773	32925	
29	0	32839	32628	32946	32790	32535	33235	33178	33476	
30	0	32810	32668	32991	32823	32323	33685	32412	33789	
31	0	32656	32715	32763	32711	32742	33431	33495	33562	
32	0	32725	32750	32863	32843	33103	33031	34061	32095	
33	0	32861	32708	32698	32755	32587	32795	34716	32612	
34	0	32828	32679	32839	32811	33307	32647	34587	31973	
35	0	32879	32767	32663	32740	33139	32877	33149	32513	
36	0	32773	32708	32683	32677	31998	33054	33327	33935	
37	0	32835	32790	32727	32731	32183	32159	33061	34304	
38	0	32775	32683	32758	32807	32978	32913	30829	32958	
39	0	32844	32583	32679	32775	33275	33548	30725	32783	
40	0	32903	32599	32822	32771	32895	33915	31249	32339	
41	0	32828	32554	32791	32735	32855	32837	32342	32379	
42	0	32774	32582	32779	32668	32705	31126	32890	33281	
43	0	32647	32658	32798	32743	32791	31805	32936	33319	
44	0	32647	32658	32739	32731	32775	33234	33798	32519	
45	0	32780	32707	32799	32839	32543	32863	34311	31642	
46	0	32749	32663	32903	32838	32614	32411	34074	31599	
47	0	32816	32725	32665	32775	32971	32571	32447	32108	
48	0	32753	32615	32787	32791	32869	32472	31997	32681	
49	0	32753	32535	32644	32775	32627	32692	32211	32570	
50	0	32769	32603	32804	32819	32460	32359	32207	32064	
51	0	32837	32683	32711	32663	32527	32617	32165	31607	
52	0	32807	32692	32703	32787	32617	33719	32295	32212	
53	0	32757	32707	32711	32735	32638	33535	32498	33125	
54	0	32796	32647	32553	32775	32711	32863	32287	33491	
55	0	32724	32692	32698	32812	32878	32588	32187	32612	
56	0	32758	32775	32663	32766	32685	32615	32263	33026	
57	0	32660	32605	32692	32823	32647	32367	32413	32934	
58	0	32666	32554	32587	32797	32645	32566	32566	33747	
59	0	32868	32787	32791	32823	32607	32695	32455	33116	
60	0	32814	32719	32735	32791	32423	33003	32275	33410	
61	0	32767	32674	32751	32699	32475	32978	32871	33579	
62	0	32744	32758	32630	32596	33001	32415	32682	32849	
63	0	32722	32634	32727	32677	32903	32501	32443	32583	
64	0	32749	32540	32727	32783	32993	32932	32279	32791	
65	0	32805	32595	32751	32773	32963	32711	32263	32717	
66	0	32769	32518	32765	32677	32707	32613	32191	33263	
67	0	32723	32473	32795	32685	32659	32733	32756	32799	
68	0	32816	32593	32767	32623	32615	32673	33299	32381	
69	0	32839	32775	32749	32699	32575	32391	33563	32157	
70	0	32845	32767	32887	32719	32356	32663	33519	32150	
71	0	32885	32727	32746	32719	32587	32571	32775	32263	
72	0	32846	32661	32797	32769	32695	32708	32589	32541	
73	0	32807	32730	32767	32694	32524	32955	33045	32559	
74	0	32790	32631	32851	32708	32557	32925	33023	32452	
75	0	32767	32647	32743	32697	32547	32627	33071	32694	
76	0	32719	32733	32903	32666	32887	32819	33795	32645	
77	0	32773	32783	32767	32775	32742	32983	33302	32795	
78	0	32768	32692	32809	32647	32731	32731	32181	33012	
79	0	32804	32739	32564	32837	32903	32615	31557	32663	
80	0	32748	32671	32731	32855	32495	32941	32030	32795	
81	0	32759	32599	32701	32814	33101	32543	31719	32867	
82	0	32751	32707	32802	32838	33063	32591	31205	32631	
83	0	32754	32773	32767	32774	32647	32524	31551	32699	
84	0	32704	32639	32647	32791	32903	32516	33671	33518	
85	0	32775	32695	32715	32807	33274	32545	33780	33355	
86	0	32690	32631	32737	32743	32915	32412	33940	33015	
87	0	32755	32668	32766	32881	32463	32721	33911	32196	
88	0	32815	32553	32715	32773	32399	33069	33447	32599	
89	0	32810	32668	32755	32773	32519	33543	32706	33153	
90	0	32766	32726	32726	32829	32671	33107	32489	33629	
91	0	32785	32755	32715	32715	32821	32147	32735	32754	
92	0	32901	32787	32687	32822	32631	31803	31789	32039	
93	0	32793	32812	32719	32771	32647	33231	31480	31721	
94	0	32768	32773	32790	32743	32655	32727	32285	31725	
95	0	32751	32743	32794	32634	32591	32775	32692	33325	
96	0	32719	32720	32775	32654	32767	32631	32429	32968	
97	0	32721	32657	32725	32805	33089	32588	32025	30986	
98	0	32739	32619	32813	32815	32771	32154	32374	32022	
99	0	32743	32694	32805	32743	32559	32807	32827	33415	
100	0	32727	32703	32629	32753	32731	33057	33318	34088	
101	0	32775	32591	32809	32719	32856	33295	32847	33715	
102	0	32803	32597	32775	32775	32679	32765	32545	32802	
103	0	32757	32550	32875	32751	32583	32555	32098	32723	
104	0	32746	32586	32743	32788	32385	32727	32359	33263	
105	0	32790	32615	32662	32791	32403	32436	33343	33396	
106	0	32868	32617	32640	32895	32765	32691	33138	32820	
107	0	32791	32677	32727	32791	33153	32541	32493	32766	
108	0	32697	32655	32647	32723	33079	32723	33302	33363	
109	0	32704	32719	32819	32759	32871	32909	32815	33015	
110	0	32719	32759	32833	32731	32751	32927	32063	33227	
111	0	32676	32711	32717	32660	32281	33287	32976	33467	
112	0	32692	32667	32709	32643	33159	33266	32569	33707	
113	0	32753	32690	32791	32742	33374	33077	34107	33057	
114	0	32851	32723	32751	32677	32544	33276	34230	32255	
115	0	32807	32677	32838	32647	32341	33207	32827	32258	
116	0	32807	32654	32839	32599	32716	32990	32547	31565	
117	0	32854	32743	32846	32674	32981	32246	32567	30473	
118	0	32877	32803	32769	32764	32965	31492	32039	30031	
119	0	32810	32775	32637	32671	32823	32103	31964	31171	
120	0	32782	32667	32621	32722	32695	33036	32029	31915	
121	0	32775	32543	32765	32747	32903	32503	31935	32263	
122	0	32711	32487	32719	32835	32634	32023	32255	33191	
123	0	32729	32510	32787	32862	32595	32047	32206	33437	
124	0	32761	32595	32759	32956	32501	31751	32455	33958	
125	0	32674	32511	32743	32903	32623	31330	32484	34063	
126	0	32783	32539	32765	32891	33071	32006	32453	33771	
127	0	32717	32548	32758	32764	32850	32711	32494	33325	
128	0	32754	32567	32813	32791	32607	32523	32262	33287	
129	0	32823	32519	32669	32807	32725	32879	32363	33015	
130	0	32771	32540	32703	32844	32671	33039	32961	33051	
131	0	32717	32543	32711	32755	32623	32775	33111	33348	
132	0	32743	32435	32759	32787	32557	32946	32935	33101	
133	0	32729	32547	32793	32727	32363	33223	32709	32967	
134	0	32703	32527	32767	32726	32703	33145	32583	32679	
135	0	32725	32607	32879	32671	33060	33202	32559	32108	
136	0	32740	32694	32722	32710	33159	33174	32405	31922	
137	0	32822	32713	32590	32659	33201	32903	32637	31789	
138	0	32742	32659	32727	32711	32503	32581	32749	32013	
139	0	32768	32647	32789	32637	32171	32874	33091	33711	
140	0	32822	32756	32805	32679	32457	32883	33318	34238	
141	0	32865	32731	32927	32757	32767	33923	33095	32590	
142	0	32844	32647	32775	32706	33197	33583	32879	32229	
143	0	32757	32718	32703	32756	32915	31751	32895	32204	
144	0	32761	32660	32793	32803	33181	31623	32655	32986	
145	0	32759	32698	32685	32801	32356	32311	32367	32793	
146	0	32721	32527	32789	32865	32167	32631	32818	32455	
147	0	32762	32674	32815	32873	32698	32484	32449	32091	
148	0	32792	32727	32823	32835	32932	32750	31703	31143	
149	0	32775	32732	32679	32729	32791	33087	31095	32455	
150	0	32756	32665	32845	32795	33015	32647	31503	33935	
151	0	32710	32633	32838	32775	32854	32743	31879	33908	
152	0	32738	32830	32694	32711	32740	33151	32135	33827	
153	0	32769	32831	32799	32759	32494	33469	32623	33069	
154	0	32756	32708	32822	32759	32732	32863	33010	33657	
155	0	32758	32543	32827	32849	33057	32468	33199	33523	
156	0	32695	32714	32711	32709	32859	32639	33856	33003	
157	0	32722	32639	32630	32749	32429	32483	33963	32247	
158	0	32749	32681	32659	32711	32655	32527	34244	32077	
159	0	32816	32805	32743	32820	32871	32661	33138	32070	
160	0	32796	32591	32710	32810	32947	32559	32711	32116	
161	0	32771	32837	32786	32829	32591	32851	32271	32447	
162	0	32702	32711	32791	32815	32802	32699	32073	32027	
163	0	32754	32783	32723	32797	32439	32852	32239	32599	
164	0	32763	32548	32800	32807	32631	32521	33283	32927	
165	0	32684	32549	32711	32707	33255	32447	32663	33455	
166	0	32606	32675	32791	32671	32594	32798	32547	33303	
167	0	32636	32590	32595	32735	32503	32789	33180	32935	
168	0	32743	32762	32805	32798	32655	32742	33897	32692	
169	0	32766	32563	32751	32735	32549	32855	33451	32071	
170	0	32727	32565	32765	32743	32887	32502	33099	32471	
171	0	32790	32789	32657	32759	32903	32687	32574	32689	
172	0	32852	32775	32707	32674	32289	32583	32215	32603	
173	0	32815	32763	32815	32733	32588	32251	31849	32339	
174	0	32759	32607	32797	32757	33294	32535	32303	32903	
175	0	32775	32635	32652	32663	32784	32725	32566	32969	
176	0	32838	32771	32727	32631	32619	33020	32541	32378	
177	0	32822	32727	32785	32766	32437	32807	32125	32338	
178	0	32783	32705	32657	32794	32709	32740	32681	32713	
179	0	32798	32757	32754	32660	32757	32887	33407	33287	
180	0	32847	32555	32749	32726	33047	32791	32701	32533	
181	0	32767	32671	32839	32748	32563	32229	32219	32239	
182	0	32738	32646	32662	32791	32365	32279	32162	33108	
183	0	32761	32658	32773	32837	32841	32587	31710	33647	
184	0	32701	32743	32723	32694	32555	32847	31707	33387	
185	0	32856	32607	32807	32751	32685	33277	32350	32919	
186	0	32788	32663	32801	32789	33159	33287	32820	32510	
187	0	32734	32719	32679	32734	32593	33173	32135	32046	
188	0	32745	32713	32634	32759	32867	32541	32308	31815	
189	0	32718	32716	32855	32717	33238	32406	33671	32219	
190	0	32725	32739	32835	32705	32759	32351	33527	32286	
191	0	32726	32679	32817	32802	32437	32693	32662	32191	
192	0	32703	32747	32615	32702	32307	33260	32591	32037	
193	0	32724	32564	32749	32719	32595	32781	32519	32982	
194	0	32717	32739	32735	32847	32675	32591	32311	34304	
195	0	32692	32644	32799	32711	32646	32431	32583	34389	
196	0	32724	32639	32804	32815	32647	32535	32451	32871	
197	0	32775	32791	32667	32775	32543	32263	31951	32639	
198	0	32745	32577	32799	32831	32743	32305	32237	32919	
199	0	32815	32716	32699	32884	32759	33028	31773	32875	
200	0	32833	32805	32743	32786	32429	32842	31391	31947	
201	0	32647	32731	32613	32711	32903	32820	32227	32322	
202	0	32685	32702	32715	32771	33354	33054	33263	32632	
203	0	32751	32637	32786	32788	33031	32879	32323	32199	
204	0	32745	32610	32766	32797	32361	33772	32759	32463	
205	0	32740	32679	32647	32815	32191	33262	34205	33053	
206	0	32798	32775	32685	32761	32276	32559	35740	32723	
207	0	32684	32529	32705	32775	32310	32527	36119	33039	
208	0	32780	32615	32783	32748	33387	31655	34340	33447	
209	0	32892	32838	32770	32773	33367	32284	32958	32615	
210	0	32799	32715	32819	32805	32339	32695	32883	32575	
211	0	32705	32679	32863	32703	32809	32379	31813	33209	
212	0	32775	32502	32961	32617	32989	32615	30683	34207	
213	0	32811	32739	32827	32687	32787	33015	32391	34357	
214	0	32821	32719	32914	32714	32530	32858	32711	32743	
215	0	32859	32718	32725	32758	32474	32567	31751	31970	
216	0	32790	32667	32846	32735	32738	32599	32679	32414	
217	0	32743	32533	32647	32749	32871	32967	32903	32619	
218	0	32801	32767	32827	32854	32841	32912	32549	32359	
219	0	32710	32593	32735	32854	33191	33101	32135	31913	
220	0	32736	32675	32742	32877	32999	32161	31855	31887	
221	0	32764	32574	32591	32751	32749	32067	32087	32159	
222	0	32807	32751	32843	32749	33015	32626	32315	32567	
223	0	32834	32713	32734	32807	32735	32859	32575	32179	
224	0	32775	32686	32723	32722	32509	32837	32759	32391	
225	0	32736	32605	32599	32743	32563	33187	32511	32451	
226	0	32806	32706	32808	32844	32787	33095	32135	33053	
227	0	32831	32710	32747	32718	33286	32717	32039	32829	
228	0	32682	32647	32729	32679	33316	32583	32515	32674	
229	0	32663	32707	32773	32790	32806	32022	32850	32590	
230	0	32754	32647	32647	32765	32643	32471	32519	33020	
231	0	32721	32628	32898	32715	32415	32847	32592	33683	
232	0	32698	32609	32711	32647	32711	33407	33517	34174	
233	0	32796	32749	32827	32667	33119	33415	32866	33535	
234	0	32852	32732	32805	32734	32675	33277	32668	33099	
235	0	32787	32692	32759	32699	32391	32378	32983	32718	
236	0	32799	32797	32710	32687	32455	32311	32647	31877	
237	0	32734	32517	32748	32739	32445	32559	32575	32373	
238	0	32790	32678	32816	32766	32373	32535	32691	32163	
239	0	32756	32690	32775	32751	32747	32391	33159	32327	
240	0	32785	32733	32691	32813	32757	32647	33351	32923	
241	0	32766	32755	32818	32766	33315	32749	32575	32463	
242	0	32880	32623	32775	32807	32831	32647	31974	32819	
243	0	32834	32727	32883	32842	32425	32527	32438	33989	
244	0	32743	32695	32647	32847	32758	32679	31993	34374	
245	0	32730	32644	32647	32694	32981	33171	32359	33330	
246	0	32735	32749	32772	32671	32671	32655	33372	32583	
247	0	32730	32621	32743	32743	32567	32415	33281	32223	
248	0	32668	32731	32573	32694	32683	32413	32391	32319	
249	0	32617	32703	32567	32671	33343	32495	33068	32364	
250	0	32730	32719	32671	32806	32925	32711	34618	33087	
251	0	32790	32818	32788	32899	32591	32495	34951	33261	
252	0	32751	32631	32599	32775	32550	32711	34289	32532	
253	0	32726	32759	32823	32743	32439	32875	32947	31508	
254	0	32828	32818	32806	32852	32943	32470	32187	31783	
255	0	32846	32819	32775	32852	32806	32438	31723	32441	
256	0	32839	32819	32667	32839	32767	32336	31380	32751	
257	0	32892	32891	32819	32951	32573	32867	31178	32463	
258	0	32912	32761	32707	32791	32711	32829	31706	32363	
259	0	32826	32595	32827	32775	32791	32973	32510	32559	
260	0	32911	32750	32665	32767	32607	33092	32383	32767	
261	0	32824	32767	32739	32627	32679	32754	32770	33029	
262	0	32813	32695	32676	32681	32935	32795	33717	33849	
263	0	32908	32797	32883	32727	33238	32551	31827	32541	
264	0	32970	32790	32871	32647	32997	32855	31827	32621	
265	0	32968	32621	32735	32677	32317	33078	31865	32539	
266	0	32926	32555	32926	32613	32287	33172	31917	32803	
267	0	32861	32593	32847	32509	32435	33055	32498	33089	
268	0	32848	32669	32903	32555	32223	32821	33413	32786	
269	0	32775	32671	32985	32500	32269	32941	32233	33272	
270	0	32714	32575	32869	32583	33166	32546	31249	32995	
271	0	32647	32551	32866	32716	33202	32581	31783	32391	
272	0	32644	32615	32871	32743	32967	33102	33639	31842	
273	0	32626	32571	32926	32853	32866	32583	34212	32415	
274	0	32703	32516	32839	32903	32937	32765	34311	32954	
275	0	32704	32671	32981	32801	32749	32095	33287	32598	
276	0	32686	32525	32879	32767	32804	32364	32890	32843	
277	0	32593	32559	32902	32827	32756	32951	32699	33068	
278	0	32558	32490	32803	32819	32982	32646	32476	33178	
279	0	32647	32463	32917	32727	33019	32659	32293	33399	
280	0	32745	32391	33057	32647	32773	32903	33011	33331	
281	0	32728	32375	32945	32563	32957	32647	32647	31879	
282	0	32771	32355	33022	32631	32999	32567	32383	32487	
283	0	32818	32582	33017	32743	33281	32539	32001	32575	
284	0	32918	32647	32884	32631	32983	32668	32223	32699	
285	0	32761	32607	32915	32547	32711	32540	32647	32710	
286	0	32688	32559	32916	32583	33035	32261	32495	32454	
287	0	32583	32470	32767	32668	33279	33693	32367	32075	
288	0	32386	32443	32619	32841	32373	33967	32535	32526	
289	0	32227	32643	32316	32978	31639	33479	32685	32838	
290	0	32195	32575	32386	33058	32203	32945	32879	32262	
291	0	32196	32711	32345	33091	32459	32803	33147	32541	
292	0	32158	32759	32251	33159	32836	32343	31847	32599	
293	0	32220	32878	32119	33047	32903	32255	31815	32612	
294	0	32185	32852	32105	32995	32500	31919	31593	32165	
295	0	32248	32636	32177	33092	32451	32102	31509	32279	
296	0	32383	32765	32203	33025	32195	32629	31871	32038	
297	0	32421	32785	32237	33071	32359	32915	32015	32485	
298	0	32391	32757	32334	32903	32188	32639	32457	32763	
299	0	32541	32759	32287	32774	32135	32533	32286	32891	
300	0	32670	32743	32487	32815	32775	32431	32471	33017	
301	0	32756	32590	32511	32887	32045	32119	32962	32375	
302	0	32703	32631	32535	32790	32509	32594	32417	32302	
303	0	32832	32775	32556	32817	32737	32750	32923	32179	
304	0	32968	32759	32623	32753	32591	32566	33798	32879	
305	0	32968	32735	32695	32758	32759	32415	33223	33315	
306	0	32959	32565	32860	32839	33093	32167	34423	33455	
307	0	32962	32511	32751	32666	33071	32094	33505	33477	
308	0	32838	32643	32831	32691	32990	32601	32431	33395	
309	0	32775	32766	32974	32807	33065	33567	32607	33785	
310	0	32678	32762	32839	32703	32682	33380	33362	33537	
311	0	32751	32684	32868	32751	32647	32123	32247	32389	
312	0	32758	32683	32751	32813	32723	32279	32196	32609	
313	0	32817	32599	32772	32919	32715	32730	32501	32199	
314	0	32846	32596	32859	32858	32866	33151	32471	32575	
315	0	32874	32797	32812	32763	32599	33401	33275	32957	
316	0	32992	32863	32887	32929	32892	33220	33670	33454	
317	0	33107	32771	32953	32773	32799	32965	33505	33138	
318	0	33186	32835	32847	32786	32723	32190	33135	32493	
319	0	33209	32863	33026	32660	32775	31983	31947	32051	
320	0	33118	32753	32911	32589	32893	32121	31659	32386	
321	0	33150	32598	32967	32598	32851	32918	32695	33331	
322	0	33055	32751	32799	32503	32718	33079	32783	33679	
323	0	33141	32655	32902	32483	32541	33287	32671	33531	
324	0	33108	32795	32885	32557	32459	33132	32963	33013	
325	0	33204	32669	32935	32491	32773	32335	32795	32450	
326	0	33135	32759	32885	32391	32757	32565	32917	33061	
327	0	33104	32759	32837	32485	32508	32830	33255	33333	
328	0	33132	32879	32975	32591	32532	33159	32635	32859	
329	0	33087	32783	32815	32543	32847	33601	32334	32263	
330	0	33094	32742	32925	32541	32718	32786	32621	32383	
331	0	33036	32895	32860	32709	33005	31969	32555	32567	
332	0	32974	32871	32894	32626	32939	32841	32563	32527	
333	0	33043	32807	32823	32715	32775	32847	33131	32303	
334	0	32882	32743	32706	32717	33181	32342	32834	33077	
335	0	32879	32767	32790	32807	33187	32923	32464	33495	
336	0	32789	32695	32647	32717	32831	33147	32775	33175	
337	0	32806	32635	32797	32647	32722	32879	33447	32967	
338	0	32695	32850	32682	32577	32374	33488	33407	33283	
339	0	32743	32757	32831	32662	32405	33117	33250	33051	
340	0	32710	32743	32775	32655	32603	31947	33645	32831	
341	0	32676	32750	32743	32703	32806	32570	32359	32647	
342	0	32796	32711	32679	32767	32975	32350	32217	32823	
343	0	32748	32623	32766	32759	33263	32487	32747	32707	
344	0	32679	32803	32803	32833	32925	32735	32619	32374	
345	0	32674	32643	32700	32863	32869	32715	32607	32041	
346	0	32675	32701	32828	32847	32895	32559	32317	32927	
347	0	32654	32519	32811	32903	32793	32279	32135	32718	
348	0	32642	32695	32828	32927	32717	32385	32859	32585	
349	0	32659	32660	32799	32847	32583	32477	32663	32466	
350	0	32678	32659	32739	32751	32522	32307	32130	32187	
351	0	32662	32723	32719	32857	32629	32655	32989	32577	
352	0	32734	32595	32621	32877	32681	32929	32926	33199	
353	0	32623	32485	32663	32810	32743	32730	32551	32715	
354	0	32615	32549	32706	32851	32761	32805	31879	32620	
355	0	32666	32617	32717	32839	32691	32431	32153	32133	
356	0	32663	32551	32522	32751	32603	32959	33060	32239	
357	0	32624	32663	32759	32827	32663	32805	33065	32413	
358	0	32690	32607	32743	32747	32719	32726	32559	33647	
359	0	32715	32519	32724	32787	32703	32663	32579	33415	
360	0	32679	32532	32647	32823	32797	32331	32352	32695	
361	0	32686	32643	32739	32769	32638	32506	32605	32387	
362	0	32661	32567	32772	32794	32359	32887	32787	32483	
363	0	32775	32722	32687	32854	32429	32927	32415	32647	
364	0	32790	32578	32807	32813	32709	32935	31917	33285	
365	0	32701	32535	32671	32756	32825	33058	32467	33372	
366	0	32640	32479	32775	32758	33063	32723	32559	33311	
367	0	32703	32703	32647	32699	32775	32929	32329	33071	
368	0	32638	32727	32707	32743	32631	33139	32604	33185	
369	0	32687	32701	32739	32722	32743	33303	32572	33221	
370	0	32728	32734	32831	32769	32978	32771	31834	32499	
371	0	32759	32642	32815	32811	33330	32500	31269	31942	
372	0	32758	32586	32709	32737	32623	32389	32548	32793	
373	0	32741	32686	32759	32773	32549	32338	32775	32612	
374	0	32739	32661	32658	32775	32511	32943	33085	32551	
375	0	32739	32805	32749	32615	32599	32679	33279	32247	
376	0	32728	32729	32663	32790	32974	32260	32877	31983	
377	0	32762	32716	32783	32667	33015	32547	34213	32513	
378	0	32850	32595	32725	32735	32911	32749	34291	32599	
379	0	32832	32607	32753	32815	32839	32644	32870	32253	
380	0	32729	32732	32807	32844	32518	32723	33245	32465	
381	0	32676	32677	32711	32731	32509	32695	32692	32388	
382	0	32713	32660	32788	32799	32615	32803	32483	32735	
383	0	32703	32679	32647	32769	32645	33121	31659	32535	
384	0	32753	32586	32723	32805	32597	33191	31347	32203	
385	0	32716	32572	32751	32743	32431	32821	31751	32627	
386	0	32677	32681	32729	32647	32511	32773	32287	32847	
387	0	32745	32729	32647	32775	33010	32207	32607	32643	
388	0	32854	32767	32836	32868	32980	32180	34383	32603	
389	0	32822	32587	32735	32797	32837	32523	35599	33206	
390	0	32754	32671	32854	32687	32923	32466	34257	33223	
391	0	32769	32658	32847	32734	32931	32519	32441	32615	
392	0	32806	32677	32885	32749	32873	32853	32708	32457	
393	0	32858	32725	32903	32739	33107	33095	33047	32573	
394	0	32809	32601	32702	32677	32530	32621	32559	32455	
395	0	32705	32757	32691	32516	32207	32841	32471	32713	
396	0	32694	32628	32753	32731	32619	33049	31403	32823	
397	0	32736	32679	32575	32773	32534	32575	31723	32739	
398	0	32689	32591	32788	32867	32622	32615	32309	32791	
399	0	32713	32626	32799	32813	32759	32589	32030	32587	
400	0	32810	32646	32701	32847	32895	32758	31955	33591	
401	0	32914	32715	32647	32757	32878	32707	30974	32914	
402	0	32832	32767	32759	32790	33031	32562	31051	32466	
403	0	32761	32564	32735	32882	32911	32757	32535	33085	
404	0	32766	32790	32667	32839	32793	32733	33010	32741	
405	0	32739	32725	32775	32743	32750	32690	32813	33616	
406	0	32740	32530	32807	32771	32516	32630	32455	33615	
407	0	32743	32653	32615	32705	32508	32646	32642	33245	
408	0	32638	32674	32617	32713	32611	32375	33055	33071	
409	0	32710	32716	32771	32766	32557	33101	32815	32196	
410	0	32769	32759	32683	32734	32743	33191	33243	32213	
411	0	32799	32851	32733	32823	32617	32133	32575	32147	
412	0	32822	32740	32743	32864	32919	32767	32959	33005	
413	0	32684	32491	32801	32639	32979	32915	32762	33415	
414	0	32758	32623	32762	32791	32826	32699	32886	32455	
415	0	32743	32715	32782	32727	32751	32235	32903	32052	
416	0	32758	32773	32837	32780	32627	32611	32735	32943	
417	0	32689	32727	32690	32807	32549	33294	32731	33117	
418	0	32685	32495	32826	32775	32751	32743	32621	32963	
419	0	32811	32644	32830	32802	33143	32974	32223	32237	
420	0	32765	32775	32745	32832	32551	32557	32190	32172	
421	0	32809	32738	32695	32727	32554	32679	32377	32247	
422	0	32791	32695	32765	32724	32607	32847	32627	32727	
423	0	32775	32615	32743	32669	32671	32742	32444	32518	
424	0	32743	32583	32839	32653	32887	32679	32359	32613	
425	0	32860	32675	32846	32735	32879	32707	31767	32722	
426	0	32827	32751	32719	32804	32719	32749	32295	32484	
427	0	32767	32675	32775	32647	32795	32815	33623	32708	
428	0	32792	32679	32692	32738	32895	32563	32879	32789	
429	0	32740	32703	32738	32676	32975	32455	32443	32834	
430	0	32703	32679	32701	32731	32351	32738	32498	33045	
431	0	32718	32738	32660	32694	32359	32771	33734	32514	
432	0	32728	32637	32825	32794	32775	32813	33635	32295	
433	0	32690	32782	32786	32782	33014	32465	33951	32670	
434	0	32726	32562	32695	32732	32733	31947	34671	33259	
435	0	32809	32595	32763	32751	32460	32727	33562	32663	
436	0	32930	32690	32647	32722	32163	33245	32173	32122	
437	0	32772	32591	32717	32702	32252	33571	32287	33607	
438	0	32735	32727	32718	32709	32485	32692	31502	32647	
439	0	32738	32658	32834	32767	32685	32434	31783	32338	
440	0	32771	32683	32662	32807	32647	32871	31815	32965	
441	0	32858	32791	32827	32789	32731	32947	32435	32967	
442	0	32735	32579	32823	32773	32591	32895	32850	33127	
443	0	32721	32487	32819	32762	32885	32685	32827	33610	
444	0	32705	32615	32676	32671	32709	32687	32639	33044	
445	0	32772	32743	32836	32691	32617	32817	32043	32143	
446	0	32818	32715	32735	32727	32660	32736	31363	31661	
447	0	32759	32727	32679	32629	32867	32378	31641	32235	
448	0	32742	32530	32735	32711	33231	32391	32603	32561	
449	0	32772	32614	32731	32699	33079	32583	32841	32255	
450	0	32731	32674	32806	32646	32807	32683	33476	32982	
451	0	32841	32708	32717	32751	32717	32927	33017	34079	
452	0	32770	32643	32655	32741	32989	32445	33238	33613	
453	0	32796	32679	32775	32743	32896	32211	32783	33151	
454	0	32767	32746	32719	32863	32630	32471	32717	32791	
455	0	32666	32628	32754	32775	32455	33281	33611	33287	
456	0	32715	32487	32642	32766	32575	33303	33989	32263	
457	0	32782	32723	32819	32807	32663	33023	33557	32276	
458	0	32749	32743	32749	32707	32691	32799	33303	32213	
459	0	32728	32695	32711	32799	32495	32635	32891	32743	
460	0	32743	32693	32690	32833	32507	32154	32407	32915	
461	0	32754	32734	32791	32751	32727	31807	32107	32858	
462	0	32873	32599	32763	32769	32823	32146	32215	32179	
463	0	32799	32543	32857	32643	32830	33091	32043	32423	
464	0	32775	32751	32709	32725	32911	32861	31907	32850	
465	0	32844	32695	32819	32759	32903	32551	32213	32807	
466	0	32840	32717	32775	32667	32711	32247	32835	32463	
467	0	32847	32527	32647	32659	32732	32628	33024	32503	
468	0	32828	32673	32755	32679	32601	32706	32991	32583	
469	0	32662	32647	32759	32694	32740	32829	32725	32501	
470	0	32739	32676	32679	32798	33031	33358	32127	32343	
471	0	32722	32556	32662	32845	32658	33342	31779	32365	
472	0	32732	32562	32857	32695	32703	32583	32167	32957	
473	0	32735	32539	32731	32704	33023	32353	32563	33031	
474	0	32727	32587	32732	32695	32527	33030	32671	32967	
475	0	32677	32575	32751	32813	32391	32351	32803	32534	
476	0	32647	32775	32597	32819	32590	32629	32645	32231	
477	0	32743	32783	32791	32873	32513	32858	32319	33207	
478	0	32760	32675	32755	32933	32156	32991	32708	32903	
479	0	32760	32804	32765	32815	32767	32773	32235	32967	
480	0	32799	32582	32775	32871	33187	32497	33123	33361	
481	0	32818	32730	32773	32838	32885	32707	32959	32610	
482	0	32712	32587	32730	32743	32785	32644	32387	32498	
483	0	32726	32668	32659	32689	32663	32486	32535	32567	
484	0	32775	32603	32759	32687	32435	32626	32223	32743	
485	0	32830	32575	32677	32687	32518	32663	32783	33275	
486	0	32852	32692	32647	32643	32549	32745	33339	33122	
487	0	32885	32717	32775	32719	32851	32534	33229	33287	
488	0	32858	32811	32775	32751	32803	32693	32338	32575	
489	0	32829	32583	32793	32734	33029	32487	32342	32463	
490	0	32743	32631	32723	32743	33015	33113	32239	32379	
491	0	32784	32789	32827	32786	32701	33565	32033	32559	
492	0	32751	32749	32682	32807	32489	33469	32605	32993	
493	0	32793	32814	32775	32739	32507	32926	33271	33222	
494	0	32783	32771	32668	32722	32620	32511	31879	32484	
495	0	32837	32767	32687	32795	32412	32769	31379	32405	
496	0	32756	32783	32743	32667	32983	32015	31539	32295	
497	0	32742	32692	32736	32757	33436	32135	32827	32427	
498	0	32764	32727	32832	32731	32758	32967	32870	32133	
499	0	32831	32775	32701	32759	32198	33019	34231	33302	
500	0	32786	32566	32833	32711	32179	32935	35079	33806	
501	0	32756	32579	32811	32751	32130	33031	34156	32571	
502	0	32791	32610	32854	32765	32735	32547	33703	32015	
503	0	32799	32647	32759	32739	33263	32629	33415	32578	
504	0	32783	32817	32655	32827	32844	32811	34407	32825	
505	0	32737	32756	32574	32786	32471	32607	32999	32251	
506	0	32753	32823	32727	32861	32823	32739	31847	32419	
507	0	32805	32630	32597	32673	33853	31797	32314	33098	
508	0	32756	32535	32789	32683	33261	32202	31407	33055	
509	0	32713	32755	32775	32635	32754	32438	30667	32669	
510	0	32704	32663	32679	32642	32471	32385	31463	32733	
511	0	32673	32666	32807	32679	32485	32867	31643	32837	
512	0	32756	32723	32694	32669	32527	33071	32258	32447	
513	0	32711	32469	32619	32627	32484	32735	34149	32623	
514	0	32714	32775	32819	32797	32533	32935	35228	32700	
515	0	32738	32738	32731	32759	32722	32683	33682	32839	
516	0	32783	32662	32746	32807	32827	32949	31925	32879	
517	0	32805	32583	32570	32775	32877	32786	30983	32463	
518	0	32729	32551	32646	32709	32824	32662	31552	32459	
519	0	32679	32789	32674	32710	32831	32855	31879	32351	
520	0	32713	32719	32671	32727	32867	32753	32135	32903	
521	0	32745	32715	32743	32859	32742	33037	32423	32692	
522	0	32724	32527	32827	32845	32635	32819	32311	32967	
523	0	32718	32629	32839	32863	32589	32675	32679	33485	
524	0	32842	32615	32759	32911	32715	32678	33135	32646	
525	0	32775	32724	32845	32812	32683	32595	33261	33250	
526	0	32796	32775	32635	32775	32679	32490	33159	32968	
527	0	32804	32611	32797	32805	32595	32683	32919	32903	
528	0	32870	32558	32727	32647	32751	33089	32501	32431	
529	0	32767	32615	32813	32695	33078	32556	32374	32513	
530	0	32764	32796	32847	32723	33051	32631	32245	32246	
531	0	32741	32751	32685	32727	32486	32962	32147	32436	
532	0	32721	32627	32795	32739	32683	32786	32041	32645	
533	0	32692	32658	32775	32687	32590	32662	32471	32814	
534	0	32734	32771	32819	32725	32621	32167	32913	33188	
535	0	32751	32591	32734	32749	32631	32599	32646	33181	
536	0	32818	32571	32763	32725	32724	32887	33201	32889	
537	0	32748	32684	32655	32711	32511	32839	33546	32439	
538	0	32723	32612	32790	32749	32554	32231	32841	32798	
539	0	32804	32758	32630	32773	32434	32698	33167	33153	
540	0	32746	32775	32795	32763	32620	32943	33330	33231	
541	0	32869	32667	32767	32834	32699	32539	33442	32333	
542	0	32836	32643	32855	32821	32903	32447	33434	32471	
543	0	32805	32769	32623	32774	32700	33049	32879	33287	
544	0	32743	32677	32723	32754	32559	32887	33258	33503	
545	0	32735	32677	32846	32891	32659	33041	31910	32505	
546	0	32694	32719	32751	32866	32615	33251	31786	33350	
547	0	32785	32717	32775	33006	32731	32545	32357	33159	
548	0	32783	32681	32759	32938	33055	32255	32403	32703	
549	0	32716	32583	32641	32868	33063	32295	31903	32093	
550	0	32676	32627	32775	32916	32694	32726	32100	31923	
551	0	32684	32625	32711	32784	32535	32683	32295	31661	
552	0	32685	32641	32769	32710	32513	32631	32479	33175	
553	0	32736	32774	32671	32709	32587	32886	32789	33119	
554	0	32792	32775	32725	32614	32647	32823	32967	32079	
555	0	32791	32631	32729	32619	32693	32343	32807	32057	
556	0	32748	32575	32718	32611	32775	32383	31797	32807	
557	0	32745	32735	32662	32641	32935	32814	31667	33411	
558	0	32764	32809	32737	32729	33063	32493	32125	33257	
559	0	32807	32775	32775	32759	32647	32347	32231	32523	
560	0	32684	32613	32791	32766	32467	32915	33121	32524	
561	0	32727	32711	32794	32891	33045	32767	32890	32446	
562	0	32791	32552	32716	32813	33527	33010	31979	32371	
563	0	32743	32570	32775	32807	33413	32425	32455	32481	
564	0	32732	32681	32719	32791	32835	32550	33851	32422	
565	0	32692	32646	32752	32691	31775	32686	35839	33139	
566	0	32791	32703	32615	32830	31771	32606	33239	33179	
567	0	32890	32763	32749	32811	31913	32860	31643	32589	
568	0	32743	32629	32671	32741	32763	32999	33347	33014	
569	0	32682	32525	32765	32799	33338	32775	32175	33013	
570	0	32703	32703	32715	32789	33511	32869	32227	33391	
571	0	32781	32655	32735	32735	33130	32751	32546	33701	
572	0	32824	32662	32813	32831	32555	32676	33762	33069	
573	0	32736	32711	32683	32690	32303	33007	33895	32263	
574	0	32762	32775	32788	32725	32630	32583	32762	31869	
575	0	32755	32540	32641	32765	32430	32763	32509	31091	
576	0	32730	32627	32711	32749	32500	32852	32422	31873	
577	0	32721	32757	32614	32767	32391	32571	33278	32327	
578	0	32775	32647	32795	32735	32707	32410	32356	33155	
579	0	32751	32719	32679	32747	32851	32164	31559	33460	
580	0	32711	32743	32645	32839	33263	32271	31031	33607	
581	0	32782	32594	32787	32775	33014	33470	31661	32718	
582	0	32692	32559	32686	32719	32919	32976	33147	33031	
583	0	32754	32667	32874	32742	32791	32669	33564	33178	
584	0	32765	32657	32639	32684	32479	32901	33295	33381	
585	0	32769	32594	32763	32628	32497	32342	33076	33247	
586	0	32740	32622	32885	32610	32695	32355	32529	33173	
587	0	32804	32647	32879	32815	33617	32582	32088	33414	
588	0	32791	32759	32803	32759	33267	32953	32516	32987	
589	0	32846	32641	32773	32767	32595	32343	32524	31995	
590	0	32751	32571	32615	32767	32639	32478	32340	31879	
591	0	32836	32819	32823	32767	32821	32671	32415	31641	
592	0	32813	32769	32791	32755	32770	33467	32258	32041	
593	0	32754	32679	32824	32763	32863	33284	32487	32895	
594	0	32677	32707	32635	32726	32947	32837	32685	33039	
595	0	32838	32551	32814	32793	32351	32997	33915	32979	
596	0	32836	32660	32830	32799	32615	32797	33662	32703	
597	0	32797	32731	32821	32887	32613	32948	32623	32308	
598	0	32689	32751	32815	32862	32351	32765	32532	32759	
599	0	32702	32668	32683	32727	32863	31915	32661	32489	
600	0	32753	32617	32731	32601	32943	32101	32519	32477	
601	0	32769	32540	32799	32621	32742	31887	32291	32039	
602	0	32807	32725	32739	32647	32589	32355	32534	32491	
603	0	32807	32731	32798	32681	32559	32625	32671	32179	
604	0	32869	32711	32671	32723	32591	32655	32516	32535	
605	0	32788	32749	32755	32751	32629	32813	32459	32743	
606	0	32785	32507	32713	32698	32671	32877	32468	33039	
607	0	32718	32647	32638	32737	32701	32986	32598	33063	
608	0	32790	32615	32775	32817	32759	33055	32677	33062	
609	0	32676	32727	32758	32790	32687	32931	32717	33379	
610	0	32707	32695	32788	32821	32603	32786	32438	33159	
611	0	32742	32775	32719	32711	32655	32828	32519	32869	
612	0	32764	32564	32669	32741	32629	33111	32467	32773	
613	0	32790	32603	32845	32713	32703	32997	32639	32694	
614	0	32733	32535	32731	32694	32723	32647	32647	32713	
615	0	32788	32660	32831	32719	32823	32442	32711	32314	
616	0	32748	32787	32677	32662	32935	32387	32446	32591	
617	0	32816	32759	32822	32703	32647	32404	32324	32679	
618	0	32696	32731	32775	32702	32627	32439	32683	33055	
619	0	32679	32687	32773	32758	32841	33179	32534	32759	
620	0	32743	32619	32646	32806	32775	33428	32295	32827	
621	0	32686	32413	32703	32909	32815	32687	31979	32684	
622	0	32768	32562	32715	32871	32407	32367	32247	32519	
623	0	32742	32605	32709	32805	32775	32757	32771	33075	
624	0	32749	32758	32626	32829	33541	32663	32974	33607	
625	0	32722	32663	32847	32703	33094	32715	31947	33063	
626	0	32678	32803	32821	32767	32517	32922	32127	32589	
627	0	32668	32738	32786	32717	32251	32564	32333	31867	
628	0	32747	32743	32627	32727	32447	32423	32727	32331	
629	0	32794	32557	32806	32805	32534	32775	33077	32134	
630	0	32769	32757	32790	32754	32683	32829	33950	32980	
631	0	32877	32663	32590	32711	32865	32379	33078	33047	
632	0	32871	32741	32791	32772	32990	32593	33053	32911	
633	0	32869	32797	32729	32799	32719	32709	33699	32827	
634	0	32814	32694	32815	32883	32541	32879	33102	32902	
635	0	32790	32578	32727	32805	32719	32763	33855	33431	
636	0	32783	32599	32762	32723	33055	32798	32831	33495	
637	0	32743	32766	32786	32699	32747	32941	33005	32359	
638	0	32755	32756	32795	32647	32694	32943	33671	32655	
639	0	32749	32693	32735	32775	32529	32647	33287	32846	
640	0	32754	32775	32775	32775	32621	32605	32830	33340	
641	0	32720	32611	32699	32647	32919	32443	32530	32991	
642	0	32760	32682	32611	32646	32711	32555	32541	33175	
643	0	32837	32741	32807	32732	32687	33044	32237	33191	
644	0	32812	32697	32749	32715	32661	32461	32658	32553	
645	0	32790	32647	32607	32759	32646	32231	32378	32463	
646	0	32828	32534	32813	32821	32647	32731	32237	32389	
647	0	32834	32809	32786	32801	32671	32631	32119	32211	
648	0	32759	32701	32695	32775	32743	32647	32058	32187	
649	0	32741	32663	32857	32769	32711	32501	32151	31759	
650	0	32809	32666	32820	32775	32647	33206	32453	32548	
651	0	32738	32695	32707	32773	32687	33250	32591	33383	
652	0	32732	32711	32647	32775	32575	33270	32253	32870	
653	0	32705	32605	32807	32775	32621	32828	32277	32261	
654	0	32823	32729	32791	32775	32742	32743	31839	31818	
655	0	32767	32587	32789	32797	32903	32391	31559	32538	
656	0	32703	32615	32807	32685	32870	32151	31734	32717	
657	0	32670	32691	32807	32743	32575	32588	32135	32463	
658	0	32694	32679	32634	32787	32567	32383	32159	32709	
659	0	32724	32745	32655	32775	32546	32790	32557	32823	
660	0	32775	32615	32731	32662	32603	32996	32799	33295	
661	0	32712	32466	32697	32661	32889	32762	33111	34230	
662	0	32748	32578	32590	32668	32391	32544	33676	34183	
663	0	32691	32655	32722	32725	32982	32167	34739	32883	
664	0	32802	32738	32775	32818	33287	32930	34783	31867	
665	0	32816	32775	32787	32819	32883	33078	33921	32149	
666	0	32835	32703	32711	32795	32516	32775	33671	32711	
667	0	32807	32708	32635	32711	32486	32775	32753	32435	
668	0	32742	32671	32703	32775	32871	32225	32503	32847	
669	0	32762	32557	32727	32870	32897	32234	32722	33053	
670	0	32674	32530	32785	32705	32870	32775	32471	33015	
671	0	32747	32550	32815	32740	32859	32964	32238	32467	
672	0	32793	32639	32855	32660	32941	32591	31615	32495	
673	0	32735	32691	32698	32647	32881	32590	31614	32571	
674	0	32780	32710	32743	32647	32798	32871	32050	32731	
675	0	32750	32699	32783	32765	32591	32879	32621	32723	
676	0	32742	32671	32775	32759	32663	32837	32493	32919	
677	0	32807	32673	32764	32748	32631	32715	33567	32811	
678	0	32740	32711	32599	32827	32575	32629	33003	32987	
679	0	32703	32566	32727	32859	32687	32711	32479	32706	
680	0	32694	32548	32735	32775	32815	32754	32388	32818	
681	0	32676	32587	32773	32850	32747	32692	32463	32461	
682	0	32673	32674	32606	32749	32719	32583	32199	32487	
683	0	32804	32758	32691	32747	32694	32804	32446	32331	
684	0	32775	32711	32663	32719	32609	32707	32317	32629	
685	0	32756	32703	32749	32823	32679	32727	32274	32575	
686	0	32807	32698	32711	32669	32775	32903	32348	32681	
687	0	32811	32681	32818	32690	32575	32775	32479	32775	
688	0	32799	32711	32839	32701	32543	32719	32183	32830	
689	0	32774	32749	32735	32623	32615	32813	32502	32855	
690	0	32799	32663	32948	32694	33100	32683	32125	32463	
691	0	32766	32647	32839	32663	32943	32626	32319	32925	
692	0	32720	32707	32845	32681	32559	32882	33077	33395	
693	0	32703	32647	32676	32818	32986	33019	33650	33133	
694	0	32758	32797	32757	32722	32731	32933	33605	32999	
695	0	32773	32621	32755	32738	32359	32455	32599	32723	
696	0	32839	32716	32635	32803	32808	32351	32631	32758	
697	0	32748	32721	32790	32903	32802	33092	34259	32716	
698	0	32706	32645	32747	32831	32743	33439	34020	32617	
699	0	32735	32751	32717	32841	32484	32285	32943	32263	
700	0	32742	32613	32741	32759	32623	32466	32320	32263	
701	0	32767	32551	32617	32802	32774	32773	32903	32810	
702	0	32770	32775	32677	32798	32935	32627	32991	32735	
703	0	32695	32737	32715	32719	32535	32284	33157	32593	
704	0	32830	32673	32804	32751	32497	32095	31985	32839	
705	0	32786	32757	32659	32809	32887	32447	31422	32679	
706	0	32780	32647	32759	32751	32442	33364	31794	32827	
707	0	32797	32466	32802	32722	32669	32771	33087	33257	
708	0	32750	32583	32801	32807	32922	32098	32479	32857	
709	0	32844	32775	32839	32759	32845	32524	32287	32775	
710	0	32751	32771	32677	32831	32811	32726	33121	32615	
711	0	32666	32674	32767	32703	32843	32783	33001	32709	
712	0	32694	32775	32745	32807	32941	32657	32122	32682	
713	0	32733	32519	32735	32791	32765	32821	32323	33031	
714	0	32738	32601	32669	32765	32723	32647	32407	32590	
715	0	32830	32691	32771	32732	32852	32639	32599	32573	
716	0	32792	32727	32754	32807	32547	32883	32666	32791	
717	0	32773	32599	32845	32756	32575	32743	32383	32599	
718	0	32751	32589	32663	32647	32647	32764	32623	33167	
719	0	32804	32727	32819	32662	32743	32692	32391	32655	
720	0	32735	32727	32763	32703	32533	32827	32605	32854	
721	0	32722	32671	32775	32587	32727	32851	32327	32167	
722	0	32724	32773	32647	32623	32668	32671	32687	32471	
723	0	32676	32531	32791	32703	32695	32775	32698	32465	
724	0	32764	32671	32799	32719	32678	32899	32479	32580	
725	0	32806	32751	32639	32721	32694	32883	32727	32459	
726	0	32716	32769	32820	32873	32743	32646	32827	33013	
727	0	32732	32795	32738	32809	32867	32674	32799	33133	
728	0	32781	32676	32847	32871	32455	32903	32782	33250	
729	0	32735	32549	32628	32903	32327	32950	32635	32817	
730	0	32784	32695	32711	32894	32695	32791	32399	32290	
731	0	32775	32647	32666	32771	32805	32601	32695	32827	
732	0	32795	32574	32759	32802	32571	32349	33303	33391	
733	0	32811	32715	32775	32743	32721	32287	33321	33039	
734	0	32775	32675	32671	32749	32954	32555	33319	32903	
735	0	32638	32452	32855	32735	32455	33031	33019	32594	
736	0	32738	32423	32715	32598	32452	33214	32871	32903	
737	0	32815	32543	32765	32695	32711	33634	32731	32421	
738	0	32813	32797	32854	32647	32863	32771	31936	31863	
739	0	32790	32717	32709	32679	32727	32245	31751	31411	
740	0	32786	32773	32819	32765	32625	31779	32052	31669	
741	0	32765	32549	32775	32823	32787	31831	32606	32135	
742	0	32783	32487	32799	32825	32825	32135	32325	31457	
743	0	32760	32519	32647	32775	32715	33188	32242	32371	
744	0	32795	32751	32734	32797	32695	33431	32759	35013	
745	0	32796	32775	32685	32759	32527	32922	32462	35075	
746	0	32733	32751	32745	32799	32479	32877	32365	33970	
747	0	32751	32543	32589	32753	32453	32791	32894	33167	
748	0	32730	32586	32679	32679	32637	32781	33491	32847	
749	0	32717	32647	32823	32711	32706	32643	33395	32775	
750	0	32790	32631	32767	32726	32594	32827	33511	32762	
751	0	32769	32738	32755	32759	32675	32853	33189	32527	
752	0	32749	32703	32775	32663	32903	32575	32655	31998	
753	0	32712	32690	32647	32590	32959	32183	32387	32231	
754	0	32742	32565	32815	32675	32749	32491	32935	32346	
755	0	32786	32511	32743	32743	32647	32679	33031	32663	
756	0	32765	32709	32763	32703	32599	32997	32647	32699	
757	0	32804	32706	32705	32775	32537	33142	32006	32615	
758	0	32751	32629	32734	32667	32594	32819	31875	32591	
759	0	32775	32699	32838	32738	32691	32769	31960	32643	
760	0	32728	32707	32691	32877	32607	32637	32371	32815	
761	0	32694	32519	32711	32775	32671	32566	32343	32671	
762	0	32780	32655	32679	32775	32975	32587	32628	32743	
763	0	32755	32671	32855	32869	32566	32635	32191	32619	
764	0	32735	32583	32723	32794	32403	32669	32434	32935	
765	0	32727	32694	32767	32846	32708	32633	32679	32957	
766	0	32753	32710	32589	32860	32883	32623	32831	32927	
767	0	32859	32500	32783	32887	32827	32837	32834	32692	
768	0	32729	32591	32765	32823	32948	32802	32225	32865	
769	0	32748	32749	32723	32742	32983	32509	31981	32611	
770	0	32828	32749	32623	32694	32967	32459	32507	32847	
771	0	32754	32767	32782	32709	32686	32887	32323	32717	
772	0	32729	32583	32710	32775	32761	32806	32726	32767	
773	0	32784	32781	32863	32727	32853	33031	33607	32607	
774	0	32758	32748	32791	32775	32855	32631	33641	32695	
775	0	32740	32803	32633	32563	32479	32583	33538	32530	
776	0	32793	32693	32865	32615	32701	32391	34023	32711	
777	0	32806	32831	32823	32685	32595	32461	32677	32489	
778	0	32869	32727	32799	32759	32645	32595	32630	32971	
779	0	32852	32679	32775	32805	32685	32645	32639	32769	
780	0	32874	32818	32837	32799	32752	32933	32333	32947	
781	0	32784	32775	32871	32667	32740	32773	32871	32772	
782	0	32814	32782	32695	32701	32679	32865	33333	32935	
783	0	32751	32509	32847	32796	32775	32815	33259	32701	
784	0	32727	32679	32754	32699	32679	32739	32761	32529	
785	0	32696	32768	32811	32710	32644	32628	32251	32503	
786	0	32712	32655	32645	32708	32679	32453	32159	32329	
787	0	32704	32679	32775	32743	32647	32655	32327	32689	
788	0	32733	32703	32767	32807	32663	32939	32763	32743	
789	0	32767	32596	32773	32723	32914	32719	32669	32686	
790	0	32747	32511	32767	32795	32773	32545	32172	32713	
791	0	32775	32695	32589	32747	32682	32903	32390	32667	
792	0	32807	32647	32702	32854	32099	32975	32727	32975	
793	0	32765	32691	32631	32911	32329	32775	32915	32903	
794	0	32775	32703	32767	32791	32599	32619	32433	33259	
795	0	32716	32759	32815	32767	32663	32431	31985	33229	
796	0	32743	32711	32819	32773	33159	32233	31695	32607	
797	0	32806	32791	32769	32823	33558	32483	32123	32595	
798	0	32813	32735	32773	32815	32775	33370	32739	32919	
799	0	32787	32773	32615	32767	32503	33439	33110	32831	
800	0	32767	32783	32742	32791	32679	33060	32903	32534	
801	0	32744	32615	32679	32854	32751	32451	32071	32775	
802	0	32706	32479	32671	32694	32749	32397	31959	33247	
803	0	32635	32487	32658	32684	32557	32679	31926	33191	
804	0	32680	32695	32567	32742	32763	32637	32094	32798	
805	0	32686	32647	32731	32732	32570	32743	32383	32583	
806	0	32749	32643	32725	32730	32340	32647	32243	32475	
807	0	32708	32769	32763	32718	32509	32963	32403	32636	
808	0	32685	32772	32655	32764	32781	33251	33498	32357	
809	0	32779	32607	32806	32774	32975	33015	33915	32359	
810	0	32860	32598	32660	32701	33355	32442	33351	32247	
811	0	32820	32708	32674	32685	33179	31709	33069	31985	
812	0	32799	32748	32705	32713	32644	32223	34399	32565	
813	0	32784	32751	32713	32739	32371	32701	34521	32510	
814	0	32775	32543	32799	32793	32454	32519	33395	32845	
815	0	32784	32644	32669	32807	32681	32882	33195	32749	
816	0	32765	32732	32839	32759	32735	32331	32771	32823	
817	0	32783	32727	32775	32767	32806	32621	32306	32941	
818	0	32836	32687	32837	32769	32703	32799	32066	33193	
819	0	32770	32539	32775	32735	32553	32679	31917	33461	
820	0	32791	32711	32742	32749	32529	32811	31741	33199	
821	0	32703	32679	32767	32733	32775	32812	31798	33087	
822	0	32717	32707	32659	32775	32903	32725	31823	32935	
823	0	32744	32535	32822	32723	32814	32775	31677	32647	
824	0	32702	32739	32775	32661	32711	32727	31693	32287	
825	0	32734	32735	32775	32723	32737	32703	31717	32479	
826	0	32806	32738	32659	32727	32588	32595	31933	32466	
827	0	32746	32690	32751	32724	32583	32797	32440	32747	
828	0	32703	32743	32757	32726	32868	32879	32503	32775	
829	0	32807	32619	32834	32719	32972	32775	32759	32793	
830	0	32758	32450	32804	32773	32679	32547	33121	32555	
831	0	32799	32583	32710	32733	32759	32871	33607	32457	
832	0	32758	32693	32691	32809	32459	33029	33430	32595	
833	0	32758	32684	32847	32795	32407	32898	33927	32703	
834	0	32736	32667	32734	32837	32323	32873	34075	33171	
835	0	32775	32695	32818	32842	32586	32564	33590	33191	
836	0	32760	32791	32867	32765	32827	32817	33187	33380	
837	0	32761	32534	32692	32839	32854	33119	32646	32823	
838	0	32743	32685	32845	32803	32931	32939	32485	32722	
839	0	32759	32822	32740	32775	32821	32636	32623	32819	
840	0	32787	32710	32839	32717	32899	32293	32579	32727	
841	0	32754	32803	32667	32711	32919	31911	32203	31909	
842	0	32721	32541	32739	32679	32755	32283	32243	32631	
843	0	32764	32763	32772	32721	32739	32727	32475	32175	
844	0	32703	32670	32786	32687	32735	32570	32405	32517	
845	0	32718	32639	32599	32683	32723	32959	32471	32855	
846	0	32745	32715	32621	32687	32775	33115	32485	32767	
847	0	32727	32771	32719	32791	32703	32639	32316	32975	
848	0	32723	32654	32647	32737	32724	32391	32875	33269	
849	0	32729	32477	32733	32743	32685	32453	32817	32775	
850	0	32775	32523	32767	32723	32807	32450	32127	32188	
851	0	32851	32551	32834	32679	32903	32597	32062	32487	
852	0	32775	32774	32703	32830	32211	32967	32719	32555	
853	0	32810	32703	32727	32759	32551	32949	32724	32961	
854	0	32809	32748	32845	32730	32642	33095	32831	32597	
855	0	32850	32559	32814	32799	32627	32887	31687	32556	
856	0	32809	32621	32634	32815	32769	32709	31339	32738	
857	0	32796	32724	32742	32786	32673	32713	32306	32827	
858	0	32716	32703	32772	32827	32709	32467	33235	32723	
859	0	32750	32627	32555	32830	32953	32605	33111	32705	
860	0	32734	32463	32757	32818	32870	32895	32749	32855	
861	0	32727	32679	32671	32820	32879	32825	33601	33007	
862	0	32751	32701	32807	32819	32742	32847	34093	32833	
863	0	32743	32764	32711	32795	32909	32791	33429	32783	
864	0	32821	32641	32867	32823	32769	32876	32471	32947	
865	0	32677	32640	32703	32871	32741	32367	32751	32911	
866	0	32711	32731	32743	32747	32853	32461	32726	32899	
867	0	32759	32771	32769	32807	32717	32656	32821	32710	
868	0	32759	32695	32671	32743	32774	32561	32663	32764	
869	0	32768	32527	32699	32775	32631	32799	32665	32679	
870	0	32739	32728	32751	32775	32483	32703	32509	32681	
871	0	32692	32719	32655	32835	32762	32687	32327	32673	
872	0	32708	32723	32663	32727	32820	32656	32411	32919	
873	0	32702	32529	32731	32674	32699	32519	32570	32796	
874	0	32745	32577	32665	32773	32805	32581	32756	33159	
875	0	32697	32743	32775	32695	32507	32751	32615	32516	
876	0	32783	32757	32719	32742	32487	32795	32587	32589	
877	0	32799	32647	32829	32734	32639	32932	32715	32439	
878	0	32743	32627	32715	32703	32679	32855	32571	32850	
879	0	32769	32742	32719	32711	32701	32653	32515	32765	
880	0	32720	32731	32575	32791	32806	32011	32227	32879	
881	0	32735	32597	32723	32815	32723	32327	32301	32719	
882	0	32786	32599	32671	32734	32705	33093	32183	32311	
883	0	32794	32722	32771	32727	32551	33343	32283	32215	
884	0	32767	32732	32633	32751	32699	33167	32509	32231	
885	0	32764	32519	32852	32717	32767	32699	32629	32239	
886	0	32762	32708	32743	32700	32659	32971	32869	32223	
887	0	32772	32723	32838	32763	32703	32385	33023	32642	
888	0	32700	32615	32647	32689	32454	32806	33090	33167	
889	0	32696	32667	32647	32748	32350	32775	33187	32940	
890	0	32789	32715	32802	32677	32679	32335	32692	32839	
891	0	32847	32588	32790	32759	32505	32676	31895	33065	
892	0	32858	32630	32740	32793	33557	32941	31557	33283	
893	0	32809	32515	32823	32735	33097	32427	32239	32775	
894	0	32761	32719	32794	32749	32694	32482	31938	32591	
895	0	32743	32748	32627	32784	32739	32426	31959	32499	
896	0	32745	32735	32643	32858	32513	33106	33893	32818	
897	0	32686	32702	32773	32726	32764	32877	33427	32638	
898	0	32783	32791	32743	32804	32988	32519	33142	32863	
899	0	32791	32791	32807	32733	32923	32463	33695	33103	
900	0	32764	32631	32813	32831	32391	32772	33283	32642	
901	0	32759	32695	32599	32855	32695	32661	32466	32635	
902	0	32769	32749	32809	32715	32655	32311	32671	33039	
903	0	32751	32715	32791	32758	32493	32674	33279	33375	
904	0	32843	32686	32734	32743	32685	33105	33243	33151	
905	0	32799	32671	32807	32675	32745	32773	32890	32873	
906	0	32784	32748	32839	32661	32747	32999	32463	32415	
907	0	32827	32722	32671	32761	32763	32993	32327	32263	
908	0	32846	32567	32807	32739	32762	32474	32376	33183	
909	0	32816	32647	32879	32753	32720	32129	32403	32406	
910	0	32782	32725	32738	32692	32665	32567	32559	32095	
911	0	32815	32755	32847	32742	32674	33047	32667	32662	
912	0	32806	32719	32730	32790	32775	32838	32919	33415	
913	0	32767	32559	32807	32761	32671	32391	33045	33229	
914	0	32756	32493	32683	32791	32805	32519	33061	33222	
915	0	32703	32694	32815	32675	32690	33455	32758	32553	
916	0	32714	32679	32738	32748	32709	33863	32543	31924	
917	0	32806	32658	32595	32798	32914	32599	32367	31490	
918	0	32774	32639	32783	32791	32976	32286	32343	31975	
919	0	32683	32493	32665	32815	32818	32898	31975	32756	
920	0	32715	32609	32709	32763	32711	32799	32260	32879	
921	0	32701	32705	32598	32701	32662	32719	32813	33191	
922	0	32743	32629	32700	32754	32751	32503	33471	33274	
923	0	32695	32671	32672	32759	32717	32320	33031	33319	
924	0	32775	32733	32782	32718	32734	32579	32306	32726	
925	0	32755	32613	32711	32741	32687	32763	32327	32347	
926	0	32695	32554	32595	32691	32717	32508	32564	32631	
927	0	32677	32647	32738	32763	32684	32404	32548	33205	
928	0	32729	32775	32687	32823	32958	32163	32390	33390	
929	0	32772	32751	32759	32835	33031	32669	32373	32999	
930	0	32769	32630	32875	32751	32612	33295	32591	33357	
931	0	32759	32580	32733	32819	32659	33127	32263	33381	
932	0	32788	32565	32847	32753	32738	32883	32563	32654	
933	0	32760	32715	32659	32711	32461	32711	32566	32581	
934	0	32841	32743	32810	32715	32615	32626	32247	32423	
935	0	32756	32743	32822	32740	33318	32607	31799	32628	
936	0	32814	32663	32773	32634	33004	32615	32284	32431	
937	0	32775	32551	32679	32739	32247	32871	33490	32596	
938	0	32834	32756	32722	32814	32647	32631	33276	32469	
939	0	32861	32677	32743	32759	32802	32755	33814	32611	
940	0	32756	32666	32775	32775	32415	32923	34522	32887	
941	0	32786	32743	32671	32751	32525	32847	33231	32988	
942	0	32868	32559	32810	32755	32657	32927	32028	32715	
943	0	32755	32797	32823	32757	32551	32775	31943	32813	
944	0	32740	32671	32807	32807	32852	32594	32542	32732	
945	0	32704	32679	32671	32818	33071	32203	32437	32447	
946	0	32775	32733	32789	32756	33059	32168	31823	32355	
947	0	32735	32553	32773	32738	32983	32435	31959	32762	
948	0	32690	32655	32615	32783	32868	32589	32431	32599	
949	0	32703	32758	32763	32735	32839	32671	32775	32942	
950	0	32736	32695	32739	32791	32814	32645	33132	32757	
951	0	32711	32698	32742	32765	32752	32743	32855	32996	
952	0	32764	32773	32767	32751	32723	32746	32967	32935	
953	0	32753	32794	32702	32743	32756	32755	32694	33159	
954	0	32775	32594	32775	32727	32586	32891	33231	33279	
955	0	32767	32669	32615	32735	32612	32923	33007	33575	
956	0	32837	32815	32806	32831	32647	32759	32890	32788	
957	0	32871	32858	32663	32854	32620	33023	32831	32407	
958	0	32858	32863	32721	32827	32581	32641	32479	32487	
959	0	32773	32647	32627	32839	32726	32586	31967	32981	
960	0	32786	32587	32695	32701	32925	32218	32043	32885	
961	0	32852	32741	32727	32699	32781	32389	32033	32475	
962	0	32843	32814	32594	32722	32541	32798	32286	32162	
963	0	32814	32775	32783	32695	32519	33059	32541	32094	
964	0	32850	32755	32735	32811	32854	32535	32796	32695	
965	0	32830	32730	32738	32735	32933	32903	33323	33007	
966	0	32925	32710	32855	32717	32983	32735	33157	33034	
967	0	32974	32759	32787	32715	32867	32704	32495	32407	
968	0	32933	32701	32791	32662	32661	32795	32736	32463	
969	0	32908	32711	32916	32695	32739	32947	33019	32367	
970	0	32941	32701	32830	32621	32791	32754	32775	32705	
971	0	32813	32501	32933	32668	32685	32659	32573	33764	
972	0	32727	32407	32899	32570	32969	32647	32391	33846	
973	0	32713	32539	32839	32647	33010	32717	31997	33190	
974	0	32735	32551	32815	32685	32891	32684	33135	32987	
975	0	32692	32613	32897	32668	32725	32887	33655	33045	
976	0	32724	32658	32931	32673	32487	33253	32685	32479	
977	0	32697	32575	32845	32687	32495	33378	32487	32694	
978	0	32727	32533	32950	32684	32513	33175	32374	32292	
979	0	32678	32530	32929	32674	32917	31689	32694	31847	
980	0	32623	32574	32782	32694	32876	32575	32694	32021	
981	0	32677	32557	32847	32669	32997	32583	32591	31845	
982	0	32687	32447	33023	32699	32977	32698	32415	32351	
983	0	32742	32466	33003	32661	32973	32766	33015	32935	
984	0	32724	32495	33011	32727	32893	32903	33301	32945	
985	0	32736	32437	32935	32647	33275	32876	32847	32731	
986	0	32796	32535	32845	32617	32963	32991	32443	32991	
987	0	32755	32527	32878	32581	32791	32791	32970	33257	
988	0	32660	32580	32927	32597	32663	33007	33088	32931	
989	0	32642	32549	32775	32773	32567	32833	33003	32599	
990	0	32555	32551	32706	32762	32743	32287	31983	32339	
991	0	32356	32647	32453	32914	32613	32323	31791	32643	
992	0	32236	32567	32341	32975	32483	32525	31965	32759	
993	0	32237	32539	32413	33079	32399	32629	32190	32372	
994	0	32186	32647	32254	33215	32423	32423	32045	32530	
995	0	32250	32707	32263	33102	32415	32532	31942	32495	
996	0	32317	32807	32230	33187	32391	32486	32087	32583	
997	0	32331	32775	32186	33002	32438	32462	32315	32479	
998	0	32377	32786	32199	33018	32489	32502	32338	32348	
999	0	32443	32709	32231	33006	32471	32594	32364	32439	
1000	0	32450	32658	32308	32925	32504	32451	32116	32407	
1001	0	32558	32657	32251	32847	32575	32686	32543	32787	
1002	0	32614	32891	32456	32883	32481	32793	32711	32631	
1003	0	32654	32630	32503	32785	32343	32703	32750	32786	
1004	0	32719	32679	32530	32813	32438	32735	32775	32718	
1005	0	32772	32679	32647	32699	32549	32803	32473	32887	
1006	0	32813	32690	32611	32790	32685	32590	32087	32839	
1007	0	32797	32735	32671	32785	32748	32541	32419	33343	
1008	0	32859	32681	32901	32735	32963	32775	32445	33425	
1009	0	32967	32564	32816	32827	33047	32711	31877	32786	
1010	0	32903	32676	32935	32812	32733	32645	32211	32799	
1011	0	32871	32724	32861	32860	32560	32332	33607	32822	
1012	0	32774	32769	32759	32801	32694	32527	33159	32887	
1013	0	32669	32667	32933	32775	32871	32675	33123	32605	
1014	0	32713	32703	32859	32808	33138	32895	32950	32412	
1015	0	32734	32740	32919	32701	32810	32959	32623	31955	
1016	0	32823	32667	32735	32775	32546	32681	32895	32656	
1017	0	32912	32716	32839	32819	32548	32810	32935	32690	
1018	0	32976	32831	32943	32742	32590	32743	33011	33006	
1019	0	33078	32911	32871	32739	32563	32803	33287	32971	
1020	0	33159	32791	32940	32615	32727	32767	33948	32885	
1021	0	33164	32807	32903	32595	32780	32579	33151	33047	
1022	0	33176	32605	32943	32606	32553	32758	33503	32991	
1023	0	33117	32567	32997	32557	32527	32679	33751	33199	
1024	0	33195	32731	32964	32609	32900	32471	32541	33011	
1025	0	33250	32734	32921	32495	33173	32690	31983	32935	
1026	0	33219	32734	32797	32451	32879	32977	32085	32989	
1027	0	33129	32675	32903	32571	32675	33087	32711	33007	
1028	0	33079	32642	32934	32518	32662	33127	32893	32983	
1029	0	33010	32711	32775	32594	32771	32806	33309	33205	
1030	0	33062	32828	32742	32697	32710	32858	33415	32695	
1031	0	33039	32791	32892	32615	32653	32829	32879	32803	
1032	0	33017	32846	32823	32631	32745	32605	32700	32833	
1033	0	33037	32706	32951	32693	32677	32859	32738	32902	
1034	0	33043	32835	32731	32598	32627	32839	33223	32751	
1035	0	33026	32843	32819	32641	32677	32687	33153	32975	
1036	0	33006	32859	32775	32701	32655	32731	33015	32683	
1037	0	32897	32871	32817	32659	32510	32837	32945	32788	
1038	0	32882	32709	32815	32698	32594	32954	33111	32601	
1039	0	32844	32599	32685	32740	32791	32914	32895	32834	
1040	0	32794	32771	32743	32759	33087	32581	32189	32530	
1041	0	32726	32789	32711	32815	32823	32427	32503	32759	
1042	0	32688	32751	32763	32753	32841	32367	32719	32726	
1043	0	32686	32679	32786	32831	32756	32717	32564	32582	
1044	0	32650	32679	32817	32772	32484	32620	32111	32758	
1045	0	32654	32775	32641	32810	32655	32723	31599	32455	
1046	0	32672	32590	32795	32917	32756	32959	32068	32733	
1047	0	32621	32519	32761	32789	33167	32770	32311	32748	
1048	0	32633	32637	32735	32823	32698	32763	32742	32985	
1049	0	32686	32631	32590	32887	32358	32718	32949	32437	
1050	0	32643	32679	32773	32803	32611	32775	32815	32801	
1051	0	32678	32553	32709	32765	32755	32450	32351	32227	
1052	0	32660	32534	32755	32854	32679	32823	32695	32541	
1053	0	32570	32694	32571	32693	32835	32807	32683	32278	
1054	0	32598	32727	32763	32775	33099	32983	32391	32615	
1055	0	32655	32638	32806	32759	32310	33079	32183	32423	
1056	0	32644	32767	32694	32803	32658	32399	32133	32903	
1057	0	32690	32589	32808	32727	32967	32501	32314	33022	
1058	0	32687	32655	32811	32638	32934	33127	32574	32646	
1059	0	32732	32569	32708	32773	32891	32055	33431	32571	
1060	0	32756	32511	32669	32863	32804	31517	33532	32869	
1061	0	32706	32500	32721	32731	32682	32205	33385	32854	
1062	0	32726	32739	32655	32765	32679	32877	32585	32421	
1063	0	32716	32663	32831	32733	32703	33133	32135	32487	
1064	0	32762	32666	32763	32711	32663	33258	32412	32690	
1065	0	32696	32605	32647	32727	32623	32957	32878	32845	
1066	0	32698	32427	32791	32719	32647	32646	32923	33019	
1067	0	32617	32557	32771	32771	32591	32775	32703	33325	
1068	0	32679	32612	32670	32806	32593	32805	32611	33159	
1069	0	32732	32683	32799	32845	32685	32570	32507	33065	
1070	0	32790	32629	32719	32829	32639	32500	32323	32573	
1071	0	32790	32663	32747	32786	32683	32811	32487	32602	
1072	0	32662	32725	32662	32823	32802	32679	32401	32565	
1073	0	32642	32655	32798	32854	32734	32647	32151	32373	
1074	0	32607	32734	32751	32829	32655	32647	32254	32457	
1075	0	32721	32519	32566	32835	32611	32750	32275	32455	
1076	0	32703	32634	32693	32798	32762	32734	32459	32661	
1077	0	32748	32743	32767	32724	33107	32631	32343	32528	
1078	0	32715	32669	32737	32755	32885	32646	32807	32589	
1079	0	32698	32727	32612	32790	32671	32731	32836	32707	
1080	0	32727	32637	32727	32787	32870	32607	32486	32770	
1081	0	32782	32579	32723	32745	32692	32799	32602	32647	
1082	0	32730	32743	32759	32791	32279	32933	32895	32858	
1083	0	32772	32675	32663	32763	32391	32869	32911	32950	
1084	0	32771	32719	32815	32695	32661	32679	32807	32999	
1085	0	32775	32630	32791	32719	32743	32765	33023	32871	
1086	0	32805	32745	32793	32764	32716	32775	33159	32882	
1087	0	32802	32748	32629	32703	32711	32679	33083	32951	
1088	0	32745	32711	32775	32635	32789	32687	32694	32662	
1089	0	32730	32623	32743	32659	32553	32628	32480	32811	
1090	0	32662	32535	32631	32751	32625	32735	32123	32545	
1091	0	32757	32811	32855	32725	32835	32529	32151	32798	
1092	0	32767	32679	32763	32762	32735	32838	32090	32639	
1093	0	32762	32647	32634	32757	32711	32709	31866	32359	
1094	0	32747	32623	32751	32854	32811	32765	32279	32511	
1095	0	32703	32703	32722	32743	33007	32767	33084	33063	
1096	0	32709	32658	32767	32775	32959	32559	33391	33125	
1097	0	32759	32757	32775	32775	32599	32647	33189	32962	
1098	0	32734	32741	32738	32847	32681	32644	33165	32838	
1099	0	32844	32691	32668	32819	32573	32903	33222	32711	
1100	0	32724	32711	32732	32813	32538	32587	33276	32957	
1101	0	32739	32587	32743	32809	32555	32641	32971	32551	
1102	0	32804	32587	32663	32727	32732	32659	32463	32527	
1103	0	32840	32763	32805	32719	32615	32951	32560	32551	
1104	0	32772	32735	32842	32825	32751	32783	32863	32759	
1105	0	32772	32647	32639	32791	32743	32471	32324	32677	
1106	0	32774	32475	32847	32719	32798	32335	32150	32479	
1107	0	32786	32619	32807	32751	32809	32426	32635	32637	
1108	0	32747	32703	32733	32827	33063	32647	32212	32516	
1109	0	32794	32791	32769	32751	32833	33110	31903	32797	
1110	0	32756	32693	32797	32903	32949	32701	32575	32932	
1111	0	32800	32687	32637	32766	32736	32675	32955	32790	
1112	0	32708	32693	32698	32833	32367	32706	32823	32899	
1113	0	32695	32714	32775	32774	32530	32529	32606	32583	
1114	0	32742	32707	32718	32710	32723	32892	32647	33060	
1115	0	32764	32715	32775	32767	32799	32851	32663	32710	
1116	0	32738	32507	32607	32679	32727	32790	32811	32879	
1117	0	32813	32615	32799	32730	32960	32815	32407	32479	
1118	0	32761	32773	32703	32726	33123	32807	32187	32738	
1119	0	32783	32759	32765	32731	32927	32454	32773	32679	
1120	0	32786	32647	32655	32719	32834	32503	33463	33170	
1121	0	32866	32695	32799	32789	32839	32579	33034	32460	
1122	0	32836	32591	32719	32711	32637	32579	32087	32575	
1123	0	32802	32647	32827	32731	32612	32975	32579	32877	
1124	0	32816	32729	32658	32811	32370	33428	33077	32606	
1125	0	32755	32653	32717	32751	32467	32993	32481	32415	
1126	0	32737	32717	32767	32701	32783	32311	32466	32750	
1127	0	32727	32775	32751	32702	33357	32305	32485	32631	
1128	0	32763	32647	32815	32709	32843	32538	32317	32759	
1129	0	32775	32575	32644	32765	32747	33018	31661	32391	
1130	0	32732	32647	32755	32599	32699	32719	32419	32599	
1131	0	32733	32743	32739	32647	32727	32482	33055	32730	
1132	0	32743	32597	32773	32809	32972	32900	34387	33053	
1133	0	32749	32775	32611	32706	33029	32967	34081	33351	
1134	0	32709	32607	32795	32796	32407	33095	34229	33090	
1135	0	32756	32551	32678	32815	32191	32341	33479	32887	
1136	0	32792	32707	32831	32775	32863	31979	32293	33046	
1137	0	32730	32691	32640	32756	32935	32566	31397	32709	
1138	0	32709	32711	32871	32759	32750	32571	31842	32695	
1139	0	32718	32615	32831	32799	32691	32573	32869	33089	
1140	0	32778	32749	32675	32771	32775	32530	32991	33585	
1141	0	32836	32691	32751	32706	32690	32487	32895	33195	
1142	0	32843	32675	32815	32775	32733	32869	32333	32435	
1143	0	32890	32599	32668	32815	32663	33191	32420	32635	
1144	0	32798	32677	32729	32719	32643	32956	31991	32413	
1145	0	32773	32647	32669	32807	32861	32719	31687	32318	
1146	0	32819	32747	32751	32854	32831	32827	31937	31957	
1147	0	32806	32742	32663	32733	32799	32605	32977	32103	
1148	0	32817	32647	32615	32839	32763	32373	33399	32609	
1149	0	32816	32601	32661	32731	32751	32615	32916	32775	
1150	0	32647	32599	32807	32748	32769	32783	32849	32967	
1151	0	32708	32729	32738	32733	32775	32814	32796	32847	
1152	0	32726	32647	32769	32743	32839	32783	32587	32937	
1153	0	32738	32747	32615	32832	32775	32903	32699	32866	
1154	0	32735	32531	32715	32767	32642	32765	33004	32867	
1155	0	32719	32733	32731	32727	32676	32863	32711	32983	
1156	0	32716	32699	32799	32767	32718	32540	32278	33017	
1157	0	32795	32647	32821	32761	32737	32665	32324	32511	
1158	0	32708	32535	32743	32694	32703	32739	32534	32605	
1159	0	32719	32738	32812	32711	32595	32787	32227	32436	
1160	0	32774	32668	32642	32740	32487	32823	32485	32692	
1161	0	32736	32673	32828	32711	32859	32681	32605	32551	
1162	0	32826	32591	32765	32647	32954	32723	32767	32691	
1163	0	32775	32735	32871	32711	32859	32847	32871	32549	
1164	0	32780	32695	32764	32735	32771	32887	32805	32733	
1165	0	32795	32583	32749	32703	32647	32527	32775	32719	
1166	0	32794	32637	32857	32815	32679	32703	32775	32865	
1167	0	32708	32641	32773	32836	32707	32603	32675	33007	
1168	0	32728	32719	32817	32842	32733	32615	32911	32791	
1169	0	32751	32647	32775	32851	32830	32663	32479	32999	
1170	0	32769	32579	32834	32871	32863	32583	32287	32796	
1171	0	32743	32765	32663	32879	32727	32630	32559	32775	
1172	0	32797	32775	32805	32801	32767	32739	32623	32870	
1173	0	32754	32695	32811	32841	32749	32639	32599	32861	
1174	0	32775	32799	32828	32775	32727	32823	33127	32710	
1175	0	32692	32595	32628	32795	32619	32614	33049	32607	
1176	0	32775	32549	32591	32761	32547	32644	33179	32827	
1177	0	32829	32700	32799	32716	32578	32687	33275	32751	
1178	0	32807	32725	32775	32711	32767	32671	32854	32747	
1179	0	32800	32667	32805	32775	32861	32717	32551	32543	
1180	0	32726	32687	32813	32763	32661	32751	32350	32879	
1181	0	32730	32775	32663	32637	32763	32698	32429	32629	
1182	0	32806	32636	32769	32694	32915	32630	32299	32775	
1183	0	32799	32599	32693	32695	32818	32738	32519	32676	
1184	0	32743	32663	32775	32669	32699	32799	32599	32695	
1185	0	32750	32789	32775	32701	32622	32735	32642	32735	
1186	0	32759	32659	32598	32821	32601	32727	32735	32619	
1187	0	32718	32703	32738	32838	32623	32675	32583	32780	
1188	0	32722	32516	32822	32775	32615	32775	32546	32551	
1189	0	32700	32647	32666	32796	32755	32743	32643	32765	
1190	0	32765	32711	32626	32674	32830	32645	32602	32587	
1191	0	32755	32681	32815	32707	32811	32775	32681	32885	
1192	0	32766	32662	32622	32813	32642	32729	32627	32766	
1193	0	32790	32742	32719	32784	32644	32615	32595	32584	
1194	0	32791	32751	32767	32858	32749	32711	32692	32747	
1195	0	32756	32587	32669	32711	32642	32754	32647	32690	
1196	0	32783	32823	32751	32713	32797	32623	32221	32766	
1197	0	32773	32738	32647	32791	32935	32773	32445	32564	
1198	0	32723	32716	32797	32679	32665	32757	32775	32791	
1199	0	32782	32731	32685	32695	32706	32597	32663	32429	
1200	0	32759	32695	32711	32738	32721	32647	32470	32645	
1201	0	32786	32543	32837	32758	32518	33014	33060	32940	
1202	0	32782	32551	32745	32749	32755	32559	32929	32900	
1203	0	32813	32731	32890	32671	32719	32621	32331	32555	
1204	0	32829	32719	32851	32683	33047	32774	32415	32623	
1205	0	32783	32679	32663	32610	32935	32769	32898	33223	
1206	0	32834	32727	32839	32666	32591	32802	32485	32695	
1207	0	32839	32771	32827	32615	32296	32581	32494	32866	
1208	0	32816	32647	32759	32681	32351	32903	32813	32804	
1209	0	32764	32587	32751	32717	32583	32893	32677	32775	
1210	0	32682	32575	32732	32711	32991	32659	32381	32875	
1211	0	32732	32695	32647	32743	32915	32533	32513	32629	
1212	0	32775	32751	32699	32773	32567	32790	32805	32807	
1213	0	32775	32691	32903	32819	32599	32858	32757	32477	
1214	0	32726	32647	32770	32799	32732	32903	33083	32647	
1215	0	32747	32679	32727	32737	32943	32683	33175	32939	
1216	0	32710	32723	32807	32839	33059	32580	32959	32607	
1217	0	32766	32609	32647	32750	32951	32570	32614	32687	
1218	0	32751	32525	32679	32823	32631	32535	32637	32323	
1219	0	32775	32703	32639	32804	32709	32508	33020	32627	
1220	0	32749	32738	32703	32760	32705	32647	32927	32839	
1221	0	32839	32711	32739	32868	32859	32595	32562	32901	
1222	0	32782	32679	32583	32735	32713	32611	31832	32579	
1223	0	32838	32759	32827	32717	32303	32945	31900	32626	
1224	0	32766	32571	32767	32775	32386	32950	32743	32891	
1225	0	32740	32580	32775	32741	32543	32756	32662	32971	
1226	0	32757	32719	32668	32706	32403	32868	32759	33063	
1227	0	32719	32687	32727	32713	32535	33063	32743	33445	
1228	0	32692	32599	32838	32727	32708	32877	32607	33141	
1229	0	32679	32623	32663	32695	33127	32633	32365	32983	
1230	0	32743	32739	32811	32741	33239	32623	31911	32466	
1231	0	32727	32647	32802	32775	32980	32531	32363	32626	
1232	0	32761	32727	32681	32759	32391	32716	33733	32412	
1233	0	32853	32644	32815	32704	32685	32466	33747	32157	
1234	0	32864	32790	32787	32724	32901	32662	32285	31756	
1235	0	32790	32711	32759	32706	32809	32519	32042	32387	
1236	0	32799	32756	32723	32711	32599	32443	32471	32975	
1237	0	32775	32660	32699	32815	32583	32391	33067	32965	
1238	0	32735	32582	32751	32711	32613	32727	33458	33087	
1239	0	32763	32683	32621	32815	32765	32883	33411	33543	
1240	0	32713	32662	32783	32848	32801	32810	32587	32947	
1241	0	32785	32751	32735	32805	32707	32623	32678	33091	
1242	0	32747	32750	32753	32703	32725	32875	32863	32972	
1243	0	32813	32537	32789	32839	32662	32889	33018	33030	
1244	0	32783	32585	32767	32791	32695	32583	32660	32555	
1245	0	32683	32719	32788	32790	32739	32663	32250	32635	
1246	0	32751	32697	32742	32713	32818	32694	32431	32638	
1247	0	32690	32615	32727	32843	32628	32763	32415	32809	
1248	0	32702	32577	32623	32734	32727	32639	32631	32791	
1249	0	32698	32762	32743	32769	32711	32741	32809	32463	
1250	0	32748	32689	32759	32727	32879	32743	32055	32537	
1251	0	32711	32561	32536	32795	32669	32896	32363	32583	
1252	0	32721	32711	32708	32791	32491	32677	33131	32543	
1253	0	32739	32647	32743	32774	32671	32823	32875	32738	
1254	0	32721	32719	32603	32791	32735	32754	32511	32647	
1255	0	32749	32503	32757	32851	32868	32581	32325	32634	
1256	0	32718	32663	32690	32748	32455	32575	32295	32516	
1257	0	32751	32617	32741	32775	32351	32812	32378	32809	
1258	0	32747	32743	32684	32749	32694	32638	32608	32759	
1259	0	32815	32629	32695	32804	32591	32794	32484	32889	
1260	0	32791	32695	32844	32719	32766	32719	32575	32846	
1261	0	32757	32763	32679	32718	33122	32522	32177	32687	
1262	0	32691	32625	32724	32685	33060	32519	31969	32735	
1263	0	32704	32809	32773	32739	32647	32463	33191	32660	
1264	0	32713	32698	32666	32719	32562	32647	34159	32833	
1265	0	32772	32771	32783	32742	32647	32655	33730	32743	
1266	0	32784	32667	32831	32806	32530	32647	32571	32677	
1267	0	32775	32710	32827	32787	32629	32727	32575	32587	
1268	0	32709	32745	32647	32767	32629	32714	32581	32715	
1269	0	32694	32675	32791	32847	32815	32765	32527	32837	
1270	0	32673	32775	32687	32799	32831	32815	32723	32903	
1271	0	32654	32615	32722	32794	32750	32667	32875	32903	
1272	0	32726	32690	32637	32845	32639	32695	32355	32921	
1273	0	32756	32714	32747	32871	32767	32687	32463	32903	
1274	0	32831	32735	32751	32761	32991	32671	32721	32943	
1275	0	32789	32623	32714	32839	32769	32667	32711	32862	
1276	0	32791	32658	32805	32811	32507	32879	32597	32983	
1277	0	32790	32708	32834	32756	32647	32761	32237	32847	
1278	0	32758	32647	32812	32685	32682	32775	32439	32875	
1279	0	32723	32743	32603	32727	32715	32720	32667	32734	
1280	0	32762	32647	32858	32730	32580	32949	32427	32615	
1281	0	32793	32527	32806	32749	32795	32820	32191	32706	
1282	0	32736	32698	32818	32782	32836	32731	32243	33063	
1283	0	32713	32662	32822	32735	32843	32591	32518	32851	
1284	0	32735	32710	32771	32749	32871	32622	32859	32771	
1285	0	32810	32621	32869	32818	32540	33007	33077	32891	
1286	0	32794	32603	32773	32723	32427	32846	32754	32731	
1287	0	32708	32729	32703	32679	32361	32455	32673	32765	
1288	0	32717	32602	32815	32701	32504	32471	32827	32515	
1289	0	32757	32705	32771	32741	32605	32613	33039	32702	
1290	0	32724	32719	32743	32783	32607	32626	33076	32573	
1291	0	32766	32553	32574	32577	32843	32783	32829	32699	
1292	0	32775	32507	32738	32641	32867	32711	32566	32539	
1293	0	32786	32692	32633	32739	32807	32799	32015	32565	
1294	0	32812	32879	32634	32735	32982	32671	31914	32549	
1295	0	32799	32731	32639	32767	33115	32594	31559	32437	
1296	0	32734	32751	32610	32748	32854	32754	31327	32661	
1297	0	32687	32735	32727	32751	32551	32898	32135	32765	
1298	0	32801	32588	32756	32854	32483	32739	32566	32551	
1299	0	32708	32591	32785	32735	32698	32678	33110	32695	
1300	0	32796	32732	32612	32729	32787	32681	33927	32807	
1301	0	32775	32695	32751	32775	32829	32623	33687	32807	
1302	0	32836	32833	32831	32702	33021	32763	33135	32727	
1303	0	32819	32691	32839	32708	32871	32759	33371	32923	
1304	0	32800	32535	32575	32775	32807	32679	34258	32927	
1305	0	32801	32735	32775	32765	32759	32621	33603	32773	
1306	0	32739	32731	32715	32773	32759	32582	33153	32879	
1307	0	32772	32691	32732	32727	32807	32699	32951	32775	
1308	0	32799	32660	32702	32772	32689	32731	32529	32887	
1309	0	32751	32594	32805	32807	32815	32767	31877	33050	
1310	0	32795	32815	32831	32762	32687	32839	32147	32935	
1311	0	32830	32757	32754	32756	32774	32607	32027	32775	
1312	0	32818	32821	32727	32807	32788	32683	32028	32687	
1313	0	32775	32487	32679	32801	32663	32734	32293	33023	
1314	0	32708	32607	32815	32747	32604	32790	33255	33183	
1315	0	32796	32703	32679	32735	32763	32788	33213	33159	
1316	0	32784	32711	32815	32711	32635	32819	32999	32450	
1317	0	32775	32707	32828	32775	32827	33021	32815	32605	
1318	0	32717	32639	32775	32751	32799	32707	32775	32529	
1319	0	32727	32631	32807	32811	32463	32485	32094	32367	
1320	0	32753	32625	32855	32751	32859	32519	31580	32494	
1321	0	32844	32741	32726	32703	33135	32599	31566	32385	
1322	0	32845	32565	32759	32709	32999	32791	32383	33103	
1323	0	32762	32574	32697	32642	32413	32518	32615	32733	
1324	0	32724	32501	32771	32700	32463	32698	32430	32935	
1325	0	32764	32556	32783	32666	32812	32923	32771	32758	
1326	0	32807	32657	32635	32775	32859	32875	33511	32578	
1327	0	32819	32771	32837	32727	32515	32685	32783	32588	
1328	0	32791	32671	32735	32687	32527	32628	31827	32381	
1329	0	32772	32703	32787	32687	32764	32971	31539	32617	
1330	0	32858	32667	32701	32639	32877	32773	32491	32365	
1331	0	32794	32529	32843	32743	33021	31906	33197	32575	
1332	0	32699	32729	32854	32671	32598	32543	33159	32483	
1333	0	32715	32644	32863	32735	32263	33453	33247	32964	
1334	0	32783	32769	32847	32799	32711	33069	33375	32789	
1335	0	32781	32658	32799	32749	32698	32653	33874	33158	
1336	0	32737	32508	32769	32725	32615	32596	33475	33399	
1337	0	32698	32603	32727	32807	32711	32039	32924	33127	
1338	0	32753	32695	32594	32799	32791	32533	31853	32543	
1339	0	32833	32755	32795	32848	33062	33167	31351	32293	
1340	0	32789	32663	32727	32757	32822	33275	31802	32903	
1341	0	32811	32635	32830	32775	32629	32999	31841	32855	
1342	0	32727	32674	32699	32610	32617	32815	32031	32739	
1343	0	32698	32655	32723	32671	32641	32124	32215	32108	
1344	0	32753	32641	32719	32807	32604	32327	32223	32210	
1345	0	32821	32633	32705	32769	33287	32797	32251	32452	
1346	0	32870	32639	32748	32841	32749	32831	32415	32641	
1347	0	32727	32681	32642	32786	32583	32481	33076	32891	
1348	0	32734	32711	32700	32798	32839	32263	32929	33063	
1349	0	32735	32647	32690	32883	32919	32289	32511	32475	
1350	0	32727	32718	32743	32807	32669	32891	33039	32631	
1351	0	32804	32786	32695	32809	32719	32609	33895	32635	
1352	0	32743	32595	32751	32795	32847	32719	33628	33117	
1353	0	32698	32531	32727	32823	32717	32885	33247	33194	
1354	0	32721	32525	32757	32815	32567	32731	33380	33115	
1355	0	32700	32675	32571	32747	32439	32831	33567	32941	
1356	0	32738	32676	32751	32758	32775	33017	33381	32527	
1357	0	32753	32679	32766	32763	32891	32804	32263	32330	
1358	0	32823	32619	32869	32709	32694	32757	31607	32387	
1359	0	32783	32583	32729	32647	32599	32727	32379	32327	
1360	0	32859	32767	32767	32759	32607	32759	33412	32516	
1361	0	32754	32626	32887	32867	32729	32709	33343	32295	
1362	0	32734	32743	32708	32862	32734	32634	32939	32903	
1363	0	32836	32623	32855	32843	32759	32775	32551	33199	
1364	0	32801	32743	32900	32783	32735	32663	32639	33639	
1365	0	32807	32751	32715	32738	32687	32871	32553	33470	
1366	0	32721	32711	32847	32718	32726	32743	32567	33585	
1367	0	32741	32635	32866	32799	32720	32711	32602	33436	
1368	0	32726	32543	32917	32647	32862	32700	32415	33631	
1369	0	32722	32743	32715	32666	32839	32553	32549	32851	
1370	0	32724	32687	32820	32813	32775	32943	32583	32775	
1371	0	32794	32751	32831	32751	32754	32959	32579	32755	
1372	0	32748	32509	32686	32773	32815	32959	32523	32580	
1373	0	32684	32679	32708	32819	32775	32807	32495	32559	
1374	0	32766	32791	32679	32767	32695	32502	32647	32207	
1375	0	32831	32759	32743	32687	32505	32722	32629	32481	
1376	0	32789	32751	32617	32740	32646	32484	32375	32251	
1377	0	32799	32673	32676	32647	32655	32236	32421	32317	
1378	0	32751	32607	32647	32689	32771	32751	32479	32524	
1379	0	32751	32742	32609	32723	32752	32797	32361	32855	
1380	0	32732	32718	32725	32745	32935	32866	32359	32549	
1381	0	32814	32679	32692	32730	32967	32807	32255	32607	
1382	0	32783	32636	32703	32799	32740	32853	32274	32535	
1383	0	32704	32727	32611	32755	32699	32858	32423	32850	
1384	0	32743	32694	32673	32755	32773	32755	32359	32438	
1385	0	32711	32693	32771	32867	32698	32498	32794	32739	
1386	0	32748	32743	32775	32770	32567	32647	32935	32699	
1387	0	32713	32669	32767	32807	32835	32667	33043	32725	
1388	0	32738	32647	32747	32830	32699	32639	32751	32727	
1389	0	32768	32694	32711	32791	32587	32695	32836	32943	
1390	0	32805	32762	32745	32799	32764	32609	32869	32681	
1391	0	32762	32621	32751	32754	32775	32726	33009	32806	
1392	0	32836	32587	32687	32820	32683	32628	33139	32567	
1393	0	32783	32675	32730	32695	32767	32708	32677	32903	
1394	0	32722	32627	32679	32727	32823	32803	32455	32679	
1395	0	32692	32708	32718	32790	32594	32612	32599	32674	
1396	0	32679	32534	32775	32734	32500	32700	32951	32463	
1397	0	32722	32543	32707	32767	32693	32540	32711	32775	
1398	0	32745	32743	32807	32799	32717	32663	32738	32391	
1399	0	32761	32639	32751	32743	32874	32605	32658	32759	
1400	0	32725	32687	32803	32673	33074	32611	32110	32679	
1401	0	32841	32799	32819	32781	32725	32811	32119	32878	
1402	0	32775	32799	32726	32725	32947	32711	32316	32867	
1403	0	32746	32539	32847	32696	32705	32668	32420	33038	
1404	0	32695	32731	32769	32743	32485	32775	32575	32796	
1405	0	32756	32707	32803	32739	32997	32739	33127	32828	
1406	0	32767	32759	32754	32727	32659	33108	33267	33101	
1407	0	32775	32507	32821	32686	32514	33021	32536	33082	
1408	0	32793	32719	32815	32735	32511	33063	32550	32711	
1409	0	32775	32726	32625	32745	32659	32700	32578	32229	
1410	0	32745	32646	32727	32733	32805	32459	33039	32083	
1411	0	32730	32599	32690	32757	32735	32353	32647	32156	
1412	0	32773	32669	32679	32717	32823	32199	32191	32239	
1413	0	32745	32735	32564	32711	32801	32461	32553	32236	
1414	0	32756	32658	32617	32679	32765	32493	32703	32511	
1415	0	32711	32642	32783	32759	32525	32855	32691	32813	
1416	0	32773	32575	32799	32684	32805	32725	32483	33025	
1417	0	32710	32533	32607	32757	32803	32621	32756	32756	
1418	0	32714	32695	32739	32865	32547	32959	32126	32927	
1419	0	32753	32647	32741	32741	32503	33127	32382	33215	
1420	0	32767	32647	32839	32735	32510	33212	32351	33701	
1421	0	32767	32701	32677	32822	32627	33077	32615	32879	
1422	0	32775	32551	32836	32703	32714	32843	32668	33099	
1423	0	32903	32722	32853	32767	32795	32610	32169	32303	
1424	0	32876	32861	32919	32847	32724	32157	32647	31325	
1425	0	32878	32775	32879	32734	32562	32583	33472	32151	
1426	0	32766	32771	32671	32655	32559	32692	33764	33605	
1427	0	32728	32518	32693	32566	32796	32612	33561	33472	
1428	0	32769	32701	32713	32613	32919	31943	33028	33053	
1429	0	32720	32711	32786	32707	32903	32223	33269	33366	
1430	0	32791	32743	32647	32855	32929	32850	33258	33375	
1431	0	32736	32629	32727	32815	32985	32647	33471	33453	
1432	0	32719	32575	32671	32731	32611	32935	33093	32797	
1433	0	32751	32599	32637	32831	32378	32919	32727	32902	
1434	0	32736	32767	32687	32903	32607	32757	32453	32879	
1435	0	32744	32655	32679	32854	32639	32970	32775	32864	
1436	0	32701	32684	32759	32854	32411	32943	32743	32564	
1437	0	32828	32574	32815	32867	32407	32963	32001	32639	
1438	0	32820	32607	32859	32821	32543	32423	31751	32146	
1439	0	32881	32773	32647	32831	33431	32123	31543	32207	
1440	0	32786	32681	32787	32688	33671	32793	32453	32423	
1441	0	32806	32740	32663	32743	33383	33095	32421	32406	
1442	0	32717	32606	32741	32795	32810	32853	32857	32054	
1443	0	32630	32611	32659	32711	32302	32558	33327	32807	
1444	0	32639	32695	32719	32726	32242	32563	33407	33071	
1445	0	32671	32628	32747	32845	32439	33027	32703	33409	
1446	0	32684	32733	32834	32759	32607	33261	31805	33077	
1447	0	32640	32628	32810	32791	32970	32543	31924	32877	
1448	0	32760	32755	32691	32814	32916	32718	32655	32662	
1449	0	32795	32695	32658	32747	32754	32707	32583	32767	
1450	0	32871	32791	32753	32691	32749	32379	31873	32363	
1451	0	32865	32597	32759	32615	32546	32095	31593	32531	
1452	0	32817	32702	32769	32626	32620	32199	32222	32553	
1453	0	32710	32725	32719	32591	32605	32611	32932	32861	
1454	0	32792	32735	32831	32615	32775	33095	33286	32806	
1455	0	32823	32834	32731	32684	33007	33042	33851	33150	
1456	0	32823	32525	32739	32703	32844	33011	33821	32925	
1457	0	32805	32691	32863	32789	32775	32787	32738	32615	
1458	0	32669	32663	32647	32860	32751	32775	32390	32073	
1459	0	32716	32694	32726	32786	32828	32685	32053	31959	
1460	0	32694	32739	32641	32882	32525	32899	32231	32135	
1461	0	32734	32559	32775	32826	32261	32854	32314	32551	
1462	0	32711	32547	32816	32749	32598	33047	32130	32411	
1463	0	32685	32610	32691	32787	32925	32895	32204	32855	
1464	0	32687	32725	32799	32747	32886	32412	32311	32803	
1465	0	32694	32685	32962	32686	32763	32535	32819	33063	
1466	0	32820	32687	32991	32638	32733	32755	33127	33182	
1467	0	32852	32763	32831	32716	32581	32871	33071	33142	
1468	0	32903	32551	32918	32733	32591	32870	33634	32881	
1469	0	32841	32725	32821	32762	32771	32895	33415	32690	
1470	0	32767	32685	32797	32583	33142	32263	33133	32514	
1471	0	32736	32698	32679	32702	32819	32156	33584	32831	
1472	0	32775	32621	32668	32775	32703	32691	33535	32506	
1473	0	32791	32567	32671	32738	32775	32647	32991	33082	
1474	0	32694	32610	32605	32737	32611	32670	31772	33038	
1475	0	32791	32711	32477	32847	32612	32839	31879	32671	
1476	0	32847	32703	32569	32760	32602	32822	32694	33030	
1477	0	32783	32743	32441	32803	32794	32193	32789	33223	
1478	0	32684	32679	32534	32847	32635	32603	32807	33199	
1479	0	32677	32589	32475	32790	32637	32898	32767	32895	
1480	0	32742	32705	32747	32839	32838	32516	32517	32334	
1481	0	32736	32769	32796	32842	32799	32363	32571	32462	
1482	0	32745	32699	32943	32807	32825	32567	32271	32789	
1483	0	32754	32613	32849	32879	32935	32703	32159	32975	
1484	0	32769	32555	32815	32879	32787	32815	32343	33039	
1485	0	32791	32685	32775	32798	32387	33223	32607	33131	
1486	0	32767	32743	32638	32787	32391	32991	32750	32874	
1487	0	32775	32509	32633	32692	32510	32759	32633	32709	
1488	0	32761	32630	32718	32559	32823	32623	32554	32221	
1489	0	32758	32783	32727	32594	32957	32757	32571	32162	
1490	0	32722	32711	32676	32594	32817	32743	32323	32335	
1491	0	32719	32791	32735	32551	32738	32719	32615	32439	
1492	0	32703	32617	32771	32639	32619	32797	32693	32094	
1493	0	32708	32647	32567	32694	32509	32756	32671	32487	
1494	0	32603	32660	32743	32647	32567	32742	32461	31987	
1495	0	32661	32725	32711	32838	32751	32461	32093	31479	
1496	0	32809	32567	32771	32871	33087	32301	31975	31724	
1497	0	32815	32641	32660	32425	32893	33132	32307	32535	
1498	0	32830	32717	32841	32295	32521	33638	32183	32335	
1499	0	32885	32703	32877	32319	32589	32846	32531	32251	
1500	0	32869	32695	32918	32183	32831	31797	31878	31797	
1501	0	32887	32562	32859	32154	32914	31590	32220	33563	
1502	0	32804	32709	33061	32325	32613	32811	32717	35495	
1503	0	32856	32743	32975	32253	33151	32524	32869	36261	
1504	0	32877	32727	33182	32306	32771	32482	33623	35394	
1505	0	32912	32775	32927	32527	32691	32969	33716	34195	
1506	0	32898	32854	33003	32839	32563	33001	34243	33260	
1507	0	32874	32663	32974	33189	32555	33055	33839	32367	
1508	0	32675	32563	32926	33269	32603	32935	33095	32071	
1509	0	32641	32684	32647	33563	32487	33086	32587	32415	
1510	0	32663	32706	32703	33719	32719	33175	32119	32735	
1511	0	32751	32681	32567	33551	32775	32999	32071	32669	
1512	0	32749	32543	32620	33497	32647	33082	33090	32407	
1513	0	32756	32647	32350	33681	32775	32869	33917	32210	
1514	0	32708	32823	32470	33387	32933	32921	33279	31899	
1515	0	32586	32676	32448	33127	32714	32979	32630	31864	
1516	0	32574	32703	32493	32918	32767	32603	32347	31965	
1517	0	32599	32519	32763	32647	32687	32402	32359	31973	
1518	0	32722	32692	32847	32667	32810	31998	32359	32079	
1519	0	32698	32675	32681	32775	32851	31940	32443	31980	
1520	0	32818	32795	32839	32869	32613	32103	32295	32292	
1521	0	32820	32662	32774	32815	32631	32276	32181	32378	
1522	0	32715	32541	32730	32775	32695	32582	33015	33167	
1523	0	32657	32727	32775	32819	32903	32579	33679	32925	
1524	0	32678	32789	32714	32855	32647	32924	32771	32694	
1525	0	32685	32735	32751	32867	32655	32758	31687	32539	
1526	0	32702	32596	32885	32694	33196	32342	31415	32727	
1527	0	32844	32727	32897	32589	33095	32407	32467	33159	
1528	0	32908	32853	32903	32631	32877	32727	33103	33690	
1529	0	32961	32769	32731	32551	32726	33587	32633	33748	
1530	0	32903	32709	32751	32468	32711	33181	32461	33279	
1531	0	32939	32578	32762	32526	32495	33059	33407	32983	
1532	0	32825	32670	32596	32601	32735	33091	33527	33287	
1533	0	32764	32663	32699	32515	32759	32515	33415	33079	
1534	0	32756	32703	32745	32647	32793	32615	33363	33319	
1535	0	32801	32631	32807	32654	32933	32623	32850	33206	
1536	0	32861	32631	32607	32716	32970	32467	32735	33124	
1537	0	32837	32639	32710	32687	32843	32460	32540	32903	
1538	0	32743	32619	32663	32635	32543	32545	32327	32577	
1539	0	32786	32775	32775	32557	32263	32589	32255	32263	
1540	0	32730	32655	32609	32567	32263	32415	32335	32350	
1541	0	32734	32647	32647	32531	32335	32407	32135	32391	
1542	0	32706	32740	32626	32647	32663	32895	32376	32956	
1543	0	32714	32653	32681	32668	33478	32835	31917	32861	
1544	0	32711	32727	32627	32663	32758	32781	31746	32749	
1545	0	32758	32647	32589	32791	32087	33191	31637	32591	
1546	0	32769	32595	32675	32749	32639	33223	31791	32214	
1547	0	32754	32571	32733	32775	32841	32834	32077	32423	
1548	0	32722	32543	32791	32717	32815	32762	32460	32183	
1549	0	32692	32623	32839	32683	32701	32829	33099	32528	
1550	0	32674	32699	32736	32627	32870	32667	33265	32587	
1551	0	32679	32703	32747	32584	32999	32718	33783	32703	
1552	0	32688	32508	32842	32605	32763	32621	34219	32659	
1553	0	32671	32471	32694	32641	32836	32596	33855	32383	
1554	0	32703	32673	32863	32643	32879	32519	34636	32437	
1555	0	32751	32681	32931	32619	32933	32831	33410	32903	
1556	0	32816	32797	32847	32793	32987	32877	32179	32847	
1557	0	32850	32727	32855	32679	33322	32647	31389	32357	
1558	0	32774	32743	32711	32679	32871	32764	31702	32518	
1559	0	32791	32743	32799	32679	32455	32543	31787	32571	
1560	0	32796	32675	32623	32674	32541	32505	32879	32971	
1561	0	32854	32639	32677	32767	32535	32455	32419	32735	
1562	0	32822	32605	32487	32747	32487	32545	32257	33010	
1563	0	32857	32587	32647	32829	32557	32792	32327	32895	
1564	0	32818	32628	32751	32775	32754	32925	32130	32773	
1565	0	32723	32743	32760	32719	32831	32707	32231	32947	
1566	0	32686	32615	32628	32759	32629	32454	31923	32743	
1567	0	32718	32711	32711	32820	32355	32940	32135	32626	
1568	0	32728	32710	32829	32758	32415	33223	32375	32633	
1569	0	32713	32609	32679	32855	32487	32677	33630	33227	
1570	0	32771	32487	32811	32808	32669	32515	34061	33295	
1571	0	32820	32567	32711	32775	32847	32590	33309	33159	
1572	0	32774	32535	32694	32797	32911	32635	33093	32687	
1573	0	32772	32723	32859	32767	32801	32726	32975	32450	
1574	0	32771	32699	32786	32807	32882	32995	32461	32413	
1575	0	32799	32727	32775	32799	33063	32850	32143	32415	
1576	0	32834	32623	32867	32821	32987	32755	32383	32362	
1577	0	32767	32576	32883	32738	32653	32829	32713	32383	
1578	0	32792	32749	32854	32761	32637	32807	32605	32997	
1579	0	32692	32735	32898	32703	32711	32804	32934	32903	
1580	0	32647	32601	32637	32727	32803	32647	32871	33239	
1581	0	32686	32611	32623	32671	32357	32884	32815	33159	
1582	0	32615	32647	32775	32644	32367	33355	33011	33435	
1583	0	32688	32715	32694	32734	32631	33071	32567	32919	
1584	0	32759	32569	32714	32732	32903	31922	32263	32511	
1585	0	32712	32647	32492	32773	32726	31079	32399	32175	
1586	0	32775	32757	32548	32883	33045	32031	31763	32428	
1587	0	32775	32743	32553	32903	32879	32742	31587	32505	
1588	0	32738	32725	32455	32927	32569	32913	32507	32738	
1589	0	32720	32789	32635	32871	32607	32890	33331	32563	
1590	0	32783	32645	32569	32813	32693	32975	33631	32647	
1591	0	32871	32753	32719	32839	32788	32719	33315	32425	
1592	0	32919	32839	32867	32788	32837	33015	32302	32771	
1593	0	32812	32695	32816	32771	32748	33131	32687	33134	
1594	0	32820	32763	32775	32773	32825	32351	32627	33619	
1595	0	32804	32615	33011	32775	32391	32531	32545	33351	
1596	0	32764	32603	32898	32839	32441	32543	32737	32951	
1597	0	32775	32687	32839	32804	32516	32966	33099	33097	
1598	0	32773	32660	32747	32847	32695	32957	32763	33405	
1599	0	32783	32695	32756	32871	32903	32895	32159	32530	
1600	0	32738	32745	32711	32838	32809	32399	32516	32023	
1601	0	32707	32621	32817	32663	32762	32307	33706	32339	
1602	0	32707	32612	32695	32661	33147	32519	33357	32293	
1603	0	32743	32687	32673	32756	33053	32455	33149	32327	
1604	0	32783	32782	32675	32718	32399	32820	33407	32358	
1605	0	32738	32676	32659	32755	32541	33021	33463	32836	
1606	0	32708	32671	32561	32719	32723	33143	33387	32613	
1607	0	32705	32684	32711	32655	32897	33311	32311	32792	
1608	0	32761	32587	32562	32714	32671	33002	31847	32773	
1609	0	32817	32673	32831	32693	32813	32659	31390	32403	
1610	0	32831	32801	32737	32797	33023	32671	31651	32156	
1611	0	32728	32755	32752	32788	32738	32742	32130	33039	
1612	0	32786	32662	32749	32730	32633	32239	32061	32717	
1613	0	32717	32755	32668	32751	32167	32519	32105	32914	
1614	0	32772	32631	32719	32763	32247	32623	32246	33518	
1615	0	32784	32527	32733	32705	32757	32595	32543	34085	
1616	0	32750	32669	32795	32729	33028	32759	32516	33285	
1617	0	32722	32733	32591	32903	32614	33015	32391	33140	
1618	0	32671	32627	32807	32855	32339	33063	32430	32747	
1619	0	32647	32623	32795	32775	32783	32299	32519	32775	
1620	0	32775	32543	32623	32833	32982	32446	32455	32303	
1621	0	32756	32589	32733	32797	32797	32684	32631	32471	
1622	0	32864	32745	32859	32743	32524	32695	32903	32345	
1623	0	32802	32775	32790	32711	32669	32738	32917	32444	
1624	0	32739	32628	32845	32612	33079	33134	32527	32157	
1625	0	32742	32692	32775	32670	32825	33083	32639	32271	
1626	0	32738	32655	32636	32711	32679	32287	32471	32027	
1627	0	32640	32428	32675	32687	32653	32297	32621	32487	
1628	0	32669	32545	32705	32687	32847	32802	33007	32583	
1629	0	32734	32663	32753	32741	32947	32647	33159	32707	
1630	0	32759	32773	32643	32707	32900	32863	32221	32195	
1631	0	32753	32707	32750	32630	32615	33255	32287	32935	
1632	0	32770	32791	32743	32647	32100	33075	32299	32887	
1633	0	32796	32603	32900	32691	32468	32074	33327	33053	
1634	0	32805	32774	32709	32605	32831	32405	33943	33119	
1635	0	32871	32773	32775	32647	32994	32629	34487	33047	
1636	0	32802	32700	32895	32606	32505	32484	34271	32549	
1637	0	32834	32698	32758	32615	33071	32343	33991	32487	
1638	0	32846	32751	32813	32716	32868	32406	33825	32498	
1639	0	32837	32583	32679	32748	32571	32626	33299	32535	
1640	0	32901	32549	32845	32809	32671	32884	32359	32159	
1641	0	32811	32717	32819	32843	33027	32897	32018	32527	
1642	0	32775	32711	32855	32903	32982	32935	32103	32842	
1643	0	32745	32691	32715	32959	33039	32436	31973	32789	
1644	0	32775	32758	32644	33015	32634	32603	32079	33575	
1645	0	32811	32811	32898	32847	32669	32818	31965	34666	
1646	0	32834	32589	32839	32851	32743	32947	32307	34695	
1647	0	32797	32623	32854	32877	32764	32887	32315	33463	
1648	0	32820	32729	32663	32749	32681	32891	32285	33344	
1649	0	32791	32750	32663	32775	32543	32863	32320	32786	
1650	0	32751	32620	32743	32749	32641	32775	32146	32679	
1651	0	32666	32655	32748	32703	32822	32687	32331	32903	
1652	0	32687	32647	32706	32767	32724	32708	32439	32898	
1653	0	32710	32677	32739	32637	32605	32801	32399	32148	
1654	0	32724	32700	32579	32754	32655	32756	32277	31698	
1655	0	32676	32591	32647	32685	32817	32546	32551	31802	
1656	0	32642	32543	32698	32723	32917	32731	32423	31981	
1657	0	32705	32628	32761	32863	32687	32581	32503	32211	
1658	0	32733	32677	32759	32711	32658	32467	32129	32115	
1659	0	32688	32735	32611	32679	32679	32615	32433	32327	
1660	0	32701	32644	32703	32699	32705	32559	32489	32199	
1661	0	32684	32757	32583	32669	32397	32903	32420	32239	
1662	0	32680	32633	32790	32737	32231	32971	32569	32358	
1663	0	32766	32544	32647	32633	32557	32783	32295	32899	
1664	0	32801	32700	32675	32683	32282	32951	32083	33434	
1665	0	32811	32775	32645	32738	32461	32921	32454	32887	
1666	0	32820	32749	32787	32775	33074	32850	32471	32831	
1667	0	32889	32783	32617	32883	33197	32679	33037	33279	
1668	0	32827	32843	32726	33015	32951	32518	33183	33407	
1669	0	32876	32773	32836	32931	32711	32239	33423	32611	
1670	0	32861	32631	32854	32883	32667	32162	34399	32859	
1671	0	32839	32806	32683	32887	32425	32495	34509	33516	
1672	0	32935	32751	32755	32809	32726	32571	33455	33783	
1673	0	32887	32748	32679	32783	32647	32683	32364	33307	
1674	0	32902	32721	32806	32879	32743	32707	32783	33318	
1675	0	32882	32671	32555	32899	32898	32471	32493	32850	
1676	0	32858	32903	32717	32802	33023	32253	32319	32596	
1677	0	32895	32839	32742	32798	32688	32759	33095	32407	
1678	0	32898	32807	32791	32675	32549	32690	32553	32487	
1679	0	32855	32783	32667	32679	32548	32937	32999	32533	
1680	0	32917	32793	32858	32684	32663	32797	33405	32543	
1681	0	32955	32585	32871	32533	32831	32869	32903	32357	
1682	0	32921	32757	32982	32519	32449	32876	32479	32501	
1683	0	32877	32671	32831	32623	32497	32903	32413	32348	
1684	0	32887	32726	33060	32503	32745	32799	32822	32525	
1685	0	32872	32738	32999	32530	32764	32607	33027	32647	
1686	0	32753	32617	33065	32617	32630	32500	32607	32503	
1687	0	32740	32398	32973	32647	33071	32615	32375	31999	
1688	0	32690	32365	32804	32815	32854	32903	32233	32227	
1689	0	32734	32621	32987	32749	32815	33199	32112	32311	
1690	0	32683	32655	32887	32771	32903	33041	32318	32543	
1691	0	32617	32594	32956	32760	32835	33036	32527	32562	
1692	0	32548	32575	32971	32647	32673	33010	32679	33061	
1693	0	32634	32555	32903	32685	32756	32631	32671	33762	
1694	0	32642	32609	33124	32663	33063	32363	32178	33255	
1695	0	32599	32583	32971	32733	33099	32263	32299	33396	
1696	0	32548	32543	32851	32669	32855	32511	32615	33117	
1697	0	32644	32451	32967	32639	32829	32749	32635	33143	
1698	0	32759	32405	32797	32599	32839	32879	32854	33110	
1699	0	32806	32503	32934	32700	32900	33159	32555	32827	
1700	0	32714	32559	32931	32549	32915	32871	32523	32594	
1701	0	32770	32403	32726	32535	32791	32895	32415	32515	
1702	0	32738	32391	32813	32615	32783	33043	32182	32300	
1703	0	32681	32583	32731	32603	32578	33079	32162	32511	
1704	0	32605	32684	32793	32679	32655	32703	31963	32130	
1705	0	32482	32607	32647	32775	32899	32718	32425	32413	
1706	0	32276	32581	32455	32887	32758	32297	32391	32293	
1707	0	32240	32530	32434	32981	32655	32287	31836	32066	
1708	0	32233	32567	32316	33106	32295	32775	32195	32338	
1709	0	32282	32807	32279	33043	32107	32427	32166	32367	
1710	0	32231	32839	32202	33174	32575	32407	32231	32194	
1711	0	32298	32767	32055	33102	32755	32423	33250	32173	
1712	0	32261	32783	32215	33111	32373	32730	32683	32167	
1713	0	32336	32865	32215	33047	31967	32749	32202	32455	
1714	0	32374	32749	32162	33067	31951	32684	32164	32861	
1715	0	32455	32599	32245	33159	32039	32445	32207	32927	
1716	0	32519	32673	32359	33078	32775	32517	32317	32591	
1717	0	32603	32637	32435	33051	33287	32799	32702	32839	
1718	0	32696	32817	32429	32999	33115	31999	32075	32172	
1719	0	32781	32695	32495	32823	32775	31997	31991	32186	
1720	0	32908	32711	32615	32837	32434	32669	32387	32693	
1721	0	32885	32783	32647	32764	32391	32933	33351	33231	
1722	0	32869	32609	32647	32717	32690	32710	33939	33190	
1723	0	32990	32628	32836	32771	32555	32444	33387	33223	
1724	0	32909	32775	33061	32693	32613	32159	33116	33078	
1725	0	32784	32743	32997	32619	32963	32319	33091	33415	
1726	0	32787	32711	32993	32670	32813	32999	32436	33513	
1727	0	32780	32711	33159	32759	32947	33414	32710	33207	
1728	0	32746	32755	33137	32723	32991	32623	33404	33187	
1729	0	32719	32775	33007	32703	32895	32627	33709	32890	
1730	0	32694	32577	32989	32727	32527	32898	33486	33099	
1731	0	32676	32519	32757	32687	32415	33047	33371	32797	
1732	0	32814	32749	32727	32686	32327	32903	33071	32619	
1733	0	32932	32799	32903	32786	32635	32839	32967	32557	
1734	0	33022	32843	32879	32683	32659	32673	32543	33013	
1735	0	33187	32877	32967	32639	32877	32429	31975	32034	
1736	0	33131	32751	32863	32575	32967	32929	32481	32263	
1737	0	33092	32613	33101	32469	32935	32933	32719	31991	
1738	0	33102	32521	32983	32407	32901	33127	33015	32455	
1739	0	33104	32538	33015	32335	32878	33300	32999	32407	
1740	0	33245	32796	32898	32500	32689	33029	32898	32507	
1741	0	33316	32838	32879	32629	32343	32379	33074	33036	
1742	0	33262	32811	32915	32503	32535	31327	33175	33558	
1743	0	33186	32763	32877	32493	32828	32297	32961	33011	
1744	0	33265	32831	32751	32382	32647	33257	32507	33878	
1745	0	33218	32847	32805	32297	32979	33430	32667	33883	
1746	0	33191	32903	32694	32307	33287	33188	32662	33131	
1747	0	33113	32690	32809	32118	32963	33095	32974	32495	
1748	0	33134	32706	32711	32107	32823	33415	33215	32615	
1749	0	33090	32698	32757	32095	32807	33156	32527	33223	
1750	0	33028	32803	32837	32319	32667	31969	32871	33974	
1751	0	33028	32871	32853	32735	32647	32399	32391	32851	
1752	0	32916	32775	32694	32903	32569	32851	32420	32855	
1753	0	32784	32735	32487	33031	32666	32436	32481	33407	
1754	0	32731	32751	32487	33159	33118	32029	32225	33077	
1755	0	32747	32742	32527	33426	32815	32748	32135	32755	
1756	0	32695	32821	32516	33427	32749	32835	31735	32467	
1757	0	32640	32738	32638	33639	32669	32871	32767	32695	
1758	0	32639	32732	32763	33415	32467	32773	32647	32587	
1759	0	32631	32659	32749	33515	32391	32829	32325	32732	
1760	0	32672	32645	32573	33398	32837	32479	32423	32246	
1761	0	32682	32775	32615	33267	33251	32283	32614	32314	
1762	0	32510	32771	32554	33285	33055	32513	33223	32173	
1763	0	32617	32701	32641	33133	32785	32831	34036	32159	
1764	0	32605	32671	32645	33055	32686	32439	34139	32245	
1765	0	32587	32715	32662	32804	32855	32439	33641	32592	
1766	0	32536	32707	32799	32804	32615	32578	33435	32612	
1767	0	32647	32721	32815	32743	32572	32943	32839	32683	
1768	0	32630	32455	32775	32573	32551	32927	31602	32359	
1769	0	32623	32498	32686	32539	32582	32735	32478	32795	
1770	0	32623	32615	32662	32558	32723	32685	32237	32535	
1771	0	32604	32687	32787	32562	32743	32705	31751	32671	
1772	0	32578	32551	32775	32489	32602	32791	31650	32455	
1773	0	32703	32669	32819	32514	32551	32753	32742	32845	
1774	0	32658	32550	32735	32418	32575	32890	33183	32797	
1775	0	32718	32557	32865	32550	32807	32839	32887	32754	
1776	0	32782	32615	32895	32510	32855	32590	31855	32543	
1777	0	32687	32543	32775	32505	32495	32734	31597	32710	
1778	0	32733	32531	32767	32566	32543	32588	32199	32658	
1779	0	32669	32629	32773	32546	32939	32635	32327	32437	
1780	0	32677	32691	32743	32645	33209	32615	32447	32293	
1781	0	32749	32725	32595	32605	32754	32371	32868	32275	
1782	0	32760	32702	32775	32727	32359	32518	32820	32661	
1783	0	32764	32756	32692	32803	32406	33086	32803	32495	
1784	0	32736	32511	32799	32711	32711	33191	32721	32413	
1785	0	32804	32531	32793	32655	32755	32832	33575	32727	
1786	0	32775	32543	32766	32621	32804	32851	32957	33415	
1787	0	32813	32559	32703	32740	32943	32527	32663	33269	
1788	0	32841	32647	32690	32751	32897	32359	33023	32964	
1789	0	32808	32715	32976	32761	32837	32695	32509	32895	
1790	0	32843	32786	32839	32748	32825	32731	32727	33423	
1791	0	32791	32613	32811	32679	32837	32583	32746	33287	
1792	0	32797	32615	32815	32691	32799	32562	32855	33199	
1793	0	32660	32637	32801	32663	32689	32807	32767	32823	
1794	0	32662	32605	32663	32659	32715	32809	32412	32319	
1795	0	32722	32647	32727	32684	32850	32663	32127	32171	
1796	0	32660	32583	32743	32647	32747	33063	32287	32735	
1797	0	32656	32463	32749	32759	32639	32993	32423	32855	
1798	0	32662	32595	32795	32775	32602	32859	32723	32784	
1799	0	32647	32724	32582	32897	32615	32576	32619	32795	
1800	0	32692	32759	32551	32933	32831	32317	32387	32479	
1801	0	32721	32677	32663	32855	32647	32498	32391	32641	
1802	0	32629	32703	32609	32839	32439	32641	32367	32230	
1803	0	32677	32607	32709	32759	32983	32721	32556	32637	
1804	0	32745	32533	32591	32687	33107	32819	32237	33019	
1805	0	32715	32527	32620	32703	32827	32730	32109	33101	
1806	0	32757	32775	32790	32571	32534	33253	32198	32773	
1807	0	32878	32679	32735	32711	32716	33267	31687	32279	
1808	0	32855	32757	32773	32724	32999	32822	32369	32642	
1809	0	32724	32755	32772	32719	32487	32759	33233	32935	
1810	0	32767	32694	32692	32829	32631	31911	33276	32559	
1811	0	32836	32679	32591	32719	32659	32023	32991	32515	
1812	0	32725	32613	32619	32839	32135	32685	33556	32863	
1813	0	32685	32563	32827	32775	32551	32867	33513	32572	
1814	0	32726	32791	32799	32822	32703	32607	33287	32471	
1815	0	32698	32727	32864	32754	32556	32468	33333	32869	
1816	0	32653	32615	32647	32710	32671	32371	32783	33546	
1817	0	32823	32751	32903	32836	32775	32805	32079	32811	
1818	0	32886	32711	32839	32901	33039	33359	32580	32577	
1819	0	32801	32563	32939	32807	33119	33239	32655	32519	
1820	0	32746	32579	32797	32855	32823	32962	32738	33107	
1821	0	32686	32733	32643	32895	32845	32732	32909	32898	
1822	0	32742	32663	32831	32868	32851	32263	32695	32623	
1823	0	32755	32639	32775	32876	32645	31730	33351	32309	
1824	0	32836	32678	32766	32700	32533	32535	34014	32463	
1825	0	32739	32647	32843	32655	32706	32975	33471	31929	
1826	0	32758	32591	32671	32621	32818	32647	32247	32660	
1827	0	32749	32559	32655	32679	32775	32703	31567	32518	
1828	0	32825	32613	32711	32699	32679	32827	31702	32548	
1829	0	32854	32671	32699	32669	32799	33007	32107	33494	
1830	0	32791	32669	32725	32443	32725	32583	32414	33742	
1831	0	32738	32695	32750	32151	32615	32390	32223	33177	
1832	0	32703	32607	32681	32143	32583	32639	32327	33535	
1833	0	32688	32711	32787	32131	32631	33055	32469	33650	
1834	0	32762	32589	32785	32041	32647	32992	32595	33159	
1835	0	32836	32635	32797	32231	32756	32466	32271	32402	
1836	0	32775	32719	32815	32399	32621	32748	32463	31773	
1837	0	32743	32734	32671	32180	32626	32532	32839	31982	
1838	0	32759	32661	32838	32385	32615	32510	32573	32895	
1839	0	32759	32735	32749	32580	32526	33159	32863	34085	
1840	0	32742	32583	32845	32855	32710	33123	32806	33527	
1841	0	32740	32539	32614	33001	32838	32861	33043	34415	
1842	0	32732	32677	32671	33182	32575	32759	32893	33900	
1843	0	32855	32715	32745	33087	32561	32703	32895	32820	
1844	0	32740	32685	32676	33270	32527	32679	32727	31332	
1845	0	32656	32635	32662	33321	32567	33082	32799	31599	
1846	0	32713	32612	32621	33563	32791	32834	32786	33019	
1847	0	32692	32770	32713	33735	32845	32605	32775	32323	
1848	0	32852	32855	32815	34015	32751	32000	32485	31927	
1849	0	32807	32913	32647	33979	32829	32147	32689	32207	
1850	0	32887	32703	32735	34023	32751	32895	32678	32625	
1851	0	32836	32837	32677	33863	32727	32647	32557	32685	
1852	0	32841	32735	32707	33927	32691	32623	32431	32919	
1853	0	32879	32815	32663	33679	32895	32631	32421	32310	
1854	0	32790	32835	32519	33527	32802	32567	32336	32381	
1855	0	32775	32661	32706	33245	32518	32710	32571	32263	
1856	0	32653	32571	32589	32992	32625	32584	32491	32197	
1857	0	32669	32716	32679	32834	32852	32481	32263	32698	
1858	0	32662	32607	32567	32519	32855	32639	32263	32804	
1859	0	32721	32667	32639	32429	33063	32695	32107	32519	
1860	0	32674	32711	32765	32409	33077	32711	32022	32434	
1861	0	32692	32542	32805	32327	32555	32849	32799	32775	
1862	0	32731	32551	32807	32283	32335	32887	33021	32751	
1863	0	32747	32636	32683	32191	32351	32772	32980	32975	
1864	0	32780	32735	32738	32102	32710	32797	32566	33427	
1865	0	32844	32735	32861	32175	33081	32755	32695	33501	
1866	0	32946	32851	32919	32206	32604	32628	33199	33175	
1867	0	32895	32719	32914	32249	32606	32631	33223	32797	
1868	0	32825	32543	32775	32263	32754	32631	33303	32791	
1869	0	32783	32795	32919	32447	32789	32621	33878	33415	
1870	0	32740	32743	32883	32419	32791	32727	33726	32711	
1871	0	32711	32634	32707	32353	32486	32979	33631	32327	
1872	0	32811	32607	32790	32407	32497	32911	32866	32191	
1873	0	32782	32540	32823	32417	32962	32479	32053	32255	
1874	0	32824	32681	32787	32380	32567	32842	32319	32639	
1875	0	32722	32674	32643	32372	32654	32639	32461	32617	
1876	0	32743	32720	32743	32343	33051	32855	32641	33001	
1877	0	32811	32605	32762	32439	33581	32639	32135	32823	
1878	0	32796	32507	32702	32495	32831	32587	32551	32495	
1879	0	32771	32658	32745	32639	32253	33083	33622	32655	
1880	0	32742	32773	32708	32723	32695	32161	33323	32506	
1881	0	32729	32711	32583	32609	32830	32235	32271	32757	
1882	0	32720	32729	32759	32756	32820	32989	31853	32677	
1883	0	32791	32493	32759	32784	32743	33062	32327	33463	
1884	0	32706	32709	32634	32735	32679	32823	32603	33593	
1885	0	32686	32683	32733	32813	32617	32335	32342	33061	
1886	0	32751	32611	32749	32919	32485	32687	32405	32775	
1887	0	32783	32655	32735	32737	32527	32939	32421	32876	
1888	0	32740	32474	32583	32775	32671	32655	32345	32539	
1889	0	32687	32679	32726	32807	32493	33168	32573	32223	
1890	0	32731	32655	32718	32879	32874	32951	32279	32543	
1891	0	32808	32751	32647	32919	32887	32698	32114	32635	
1892	0	32772	32613	32775	32886	33087	32311	32324	32647	
1893	0	32706	32571	32635	32917	32746	32637	32903	32723	
1894	0	32682	32703	32738	32843	32647	33063	32975	32819	
1895	0	32770	32685	32627	32854	32625	33053	32621	32598	
1896	0	32670	32749	32679	32903	32371	32886	32739	32695	
1897	0	32683	32514	32660	32863	32679	32761	32903	32695	
1898	0	32659	32579	32791	32723	32935	32799	32757	32675	
1899	0	32714	32738	32679	32730	32771	32647	31822	32518	
1900	0	32789	32730	32793	32766	32791	32347	31559	32988	
1901	0	32799	32759	32807	32640	33263	32409	31750	32754	
1902	0	32839	32578	32903	32646	33091	32244	32949	32843	
1903	0	32876	32574	32831	32719	32783	32516	34023	32903	
1904	0	32806	32677	32791	32719	32751	32807	34660	33327	
1905	0	32836	32767	32931	32775	32666	33043	34089	33133	
1906	0	32786	32699	32807	32679	32759	32795	33404	32987	
1907	0	32796	32709	32860	32657	32539	32570	32223	32622	
1908	0	32813	32799	32751	32753	32647	32458	32165	32247	
1909	0	32801	32633	32723	32694	32785	32466	32097	31803	
1910	0	32810	32775	32655	32735	33045	32875	31767	31969	
1911	0	32747	32757	32733	32715	32983	33143	32351	31623	
1912	0	32718	32640	32516	32750	33015	32327	32208	32046	
1913	0	32785	32775	32807	32817	32703	32775	32349	32690	
1914	0	32775	32578	32763	32847	32159	32903	32962	33482	
1915	0	32647	32575	32786	32838	32407	32790	33122	32877	
1916	0	32684	32639	32787	32818	32921	32295	33838	33065	
1917	0	32687	32739	32673	32748	33314	32557	32879	33247	
1918	0	32705	32738	32551	32743	32813	32787	31972	33455	
1919	0	32836	32687	32676	32806	32540	32994	31423	33411	
1920	0	32759	32655	32813	32735	32471	32703	31551	32898	
1921	0	32868	32775	32657	32807	32565	32682	32733	32663	
1922	0	32830	32735	32775	32731	32743	32683	34112	32770	
1923	0	32698	32599	32749	32863	32645	32903	33993	32645	
1924	0	32797	32775	32711	32917	32431	32533	32831	32658	
1925	0	32825	32839	32867	32813	32626	32587	32223	33027	
1926	0	32772	32711	32847	32807	32647	32903	32123	33183	
1927	0	32771	32685	32839	32794	32900	32692	32775	33494	
1928	0	32813	32591	32763	32685	32772	32567	32529	33223	
1929	0	32823	32507	32850	32769	32655	32519	32434	32535	
1930	0	32698	32604	32825	32701	32719	32851	32756	32787	
1931	0	32745	32742	32647	32692	32807	32830	33223	32125	
1932	0	32762	32695	32734	32775	32867	32810	32443	32666	
1933	0	32825	32607	32799	32811	32727	33119	32631	32690	
1934	0	32694	32583	32769	32719	32545	33111	33595	33263	
1935	0	32727	32707	32707	32850	32738	32539	33835	33750	
1936	0	32714	32687	32742	32852	32847	32263	33255	33581	
1937	0	32783	32647	32775	32775	32749	32583	32691	32775	
1938	0	32741	32673	32703	32834	32708	32402	32519	31901	
1939	0	32873	32823	32743	32705	32708	32295	32375	31556	
1940	0	32734	32673	32610	32703	32767	32594	32021	31911	
1941	0	32717	32495	32663	32558	32815	32826	32101	32600	
1942	0	32775	32641	32738	32646	32647	32956	32391	32745	
1943	0	32749	32743	32735	32723	32839	32900	32427	32615	
1944	0	32686	32621	32610	32723	32899	32775	32308	32612	
1945	0	32710	32647	32735	32773	32670	32611	32671	32959	
1946	0	32775	32756	32698	32931	32663	32694	32316	32661	
1947	0	32749	32643	32775	32839	32674	32717	32210	32607	
1948	0	32757	32671	32605	32847	32706	32699	32319	32347	
1949	0	32730	32757	32787	32847	32671	32771	32535	32469	
1950	0	32696	32719	32821	32799	32683	32615	32507	32474	
1951	0	32698	32713	32804	32807	32795	32826	32455	32921	
1952	0	32734	32775	32599	32783	32619	32983	32629	32887	
1953	0	32814	32630	32867	32711	32695	32818	32573	32871	
1954	0	32712	32615	32775	32879	32775	32819	32711	33156	
1955	0	32743	32731	32805	32830	32755	32639	32799	32847	
1956	0	32802	32847	32766	32887	32789	32583	32603	32417	
1957	0	32783	32713	32643	32775	32933	32605	32111	32239	
1958	0	32732	32683	32775	32722	32679	32635	32500	32543	
1959	0	32716	32707	32694	32803	32575	32575	33127	32715	
1960	0	32786	32765	32735	32729	32379	32607	33787	32711	
1961	0	32694	32667	32826	32746	32959	32321	32903	32831	
1962	0	32760	32543	32759	32690	33287	32335	31955	32925	
1963	0	32758	32685	32855	32717	32677	32958	32839	32791	
1964	0	32763	32721	32884	32786	32423	33005	33053	32951	
1965	0	32753	32710	32850	32643	32511	33021	33309	33055	
1966	0	32863	32723	32698	32666	32415	33283	33149	33263	
1967	0	32855	32647	32903	32677	32511	32805	32923	32815	
1968	0	32857	32559	32881	32695	32871	32647	32295	32858	
1969	0	32869	32607	32787	32764	32903	32559	32351	33072	
1970	0	32773	32775	32627	32773	32596	32535	32271	32825	
1971	0	32756	32703	32732	32796	32759	32413	32547	33319	
1972	0	32696	32687	32699	32811	32633	32711	32373	33121	
1973	0	32693	32583	32575	32922	32647	32839	32559	33298	
1974	0	32619	32711	32775	32854	32492	32757	32564	32835	
1975	0	32708	32726	32735	32811	32547	32786	32847	31855	
1976	0	32646	32627	32691	32850	32556	32775	33111	32254	
1977	0	32631	32570	32711	32797	32691	32623	32679	32455	
1978	0	32711	32656	32740	32765	33038	31879	31987	32802	
1979	0	32720	32727	32675	32763	33157	32263	31829	32446	
1980	0	32758	32559	32766	32790	32669	32709	32087	32425	
1981	0	32721	32719	32674	32801	32343	33071	32575	32602	
1982	0	32745	32687	32715	32694	32890	32807	32052	32631	
1983	0	32774	32723	32693	32739	33051	32751	31959	32647	
1984	0	32737	32577	32751	32815	32487	32851	32508	32765	
1985	0	32767	32575	32749	32711	32159	32647	32903	32567	
1986	0	32747	32682	32713	32710	32477	32782	33138	32595	
1987	0	32637	32669	32671	32786	32359	32903	33354	32703	
1988	0	32720	32759	32647	32749	32791	32507	33602	32855	
1989	0	32694	32589	32604	32738	33523	32535	33452	32715	
1990	0	32771	32545	32566	32735	33215	32854	32555	32731	
1991	0	32790	32709	32700	32698	32630	32976	34207	32597	
1992	0	32727	32759	32691	32788	32722	32787	33415	32703	
1993	0	32732	32769	32751	32806	32551	32962	32563	32543	
1994	0	32696	32751	32701	32746	32709	32983	31981	32794	
1995	0	32731	32551	32858	32771	32943	32549	32023	32550	
1996	0	32822	32607	32863	32814	32995	32357	32893	32883	
1997	0	32797	32775	32826	32749	32807	32319	32655	33007	
1998	0	32757	32715	32833	32799	32698	32586	32455	33389	
1999	0	32780	32815	32797	32845	32661	32758	32391	32943	
2000	0	32765	32647	32915	32807	32447	32903	32807	32858	
2001	0	32791	32615	32757	32823	32527	32647	33044	32722	
2002	0	32761	32583	32814	32727	32678	32646	32803	32459	
2003	0	32809	32763	32685	32799	32746	32605	32503	32673	
2004	0	32834	32647	32775	32825	32642	32575	32711	32639	
2005	0	32806	32743	32692	32773	32588	32785	32623	32743	
2006	0	32788	32655	32755	32754	32695	32357	32995	32959	
2007	0	32752	32575	32663	32718	32783	32663	32738	32903	
2008	0	32733	32675	32615	32711	32817	32643	32320	32903	
2009	0	32696	32635	32751	32677	32640	32835	32167	32686	
2010	0	32728	32751	32817	32715	32703	32987	32463	32775	
2011	0	32722	32590	32801	32699	32817	32549	32459	32973	
2012	0	32749	32679	32815	32686	32679	32722	32717	32935	
2013	0	32703	32749	32711	32647	32694	32575	32615	32871	
2014	0	32710	32551	32719	32723	32687	32704	32551	32388	
2015	0	32692	32471	32725	32679	32838	32740	32057	32507	
2016	0	32669	32561	32775	32813	32795	32899	32193	31979	
2017	0	32756	32676	32751	32812	32663	32967	32325	32483	
2018	0	32768	32679	32628	32734	32586	32716	31999	32399	
2019	0	32720	32671	32756	32755	32466	32939	32195	32601	
2020	0	32828	32775	32681	32801	32607	32775	32407	32646	
2021	0	32739	32603	32698	32764	32933	32775	32335	32897	
2022	0	32703	32519	32559	32745	33015	32593	32427	32639	
2023	0	32797	32591	32810	32759	32931	32511	32212	32710	
2024	0	32813	32685	32723	32749	32199	32556	33219	32535	
2025	0	32783	32701	32775	32811	32423	32709	33221	32903	
2026	0	32775	32683	32864	32719	32983	32839	32893	32862	
2027	0	32823	32671	32743	32766	33171	32559	32493	32958	
2028	0	32804	32748	32735	32775	33015	32643	33117	32825	
2029	0	32810	32541	32748	32679	32855	32687	33972	32843	
2030	0	32858	32591	32863	32660	32839	32763	34009	32837	
2031	0	32784	32647	32663	32645	32881	32831	33715	32927	
2032	0	32756	32723	32749	32719	32813	32831	33495	33095	
2033	0	32799	32655	32763	32751	32607	32855	33895	33431	
2034	0	32788	32687	32855	32754	32607	32654	33035	33423	
2035	0	32742	32549	32661	32747	32603	32383	32391	33445	
2036	0	32754	32641	32705	32791	32546	32537	32157	32519	
2037	0	32687	32743	32801	32685	32375	32559	31554	32543	
2038	0	32772	32678	32821	32795	32843	32725	31367	32271	
2039	0	32731	32763	32790	32803	33119	33039	31980	32259	
2040	0	32745	32739	32665	32791	32990	32855	32194	31863	
2041	0	32726	32511	32741	32855	32891	32379	31939	31863	
2042	0	32775	32699	32715	32806	32699	32573	32205	32219	
2043	0	32749	32679	32727	32765	32566	32751	32199	32391	
2044	0	32745	32647	32633	32822	32836	32740	32244	32735	
2045	0	32808	32662	32814	32815	32767	32741	32647	33143	
2046	0	32812	32615	32775	32791	32427	33099	32824	33198	
2047	0	32754	32775	32731	32745	32451	33198	32636	33298	
2048	0	32807	32775	32615	32767	32551	32611	32524	32903	
2049	0	32727	32751	32742	32637	32610	32701	32883	33220	
2050	0	32787	32639	32775	32715	32742	32620	33060	32727	
2051	0	32748	32509	32793	32641	32839	32501	33045	32459	
2052	0	32742	32610	32757	32647	32935	32578	32903	32031	
2053	0	32785	32807	32637	32687	32759	32602	32647	32455	
2054	0	32730	32679	32751	32674	32818	32525	33413	33039	
2055	0	32797	32727	32671	32687	32557	32515	33311	32371	
2056	0	32780	32775	32775	32703	32495	32685	32499	32301	
2057	0	32751	32547	32647	32691	32737	32834	32012	32764	
2058	0	32727	32759	32807	32698	32663	32855	32050	33794	
2059	0	32717	32663	32743	32809	32734	32919	32583	34487	
2060	0	32769	32765	32799	32831	32740	32795	32741	33695	
2061	0	32847	32623	32659	32811	32855	32707	32373	32227	
2062	0	32789	32573	32637	32756	32903	32937	32734	32258	
2063	0	32775	32751	32702	32823	32967	32703	33165	32334	
2064	0	32726	32773	32723	32789	32974	32647	32978	32487	
2065	0	32766	32717	32613	32827	32979	32847	33084	32262	
2066	0	32731	32622	32655	32751	32838	32403	33107	32845	
2067	0	32785	32605	32766	32764	32427	32559	32659	33511	
2068	0	32801	32775	32751	32769	32828	32755	32775	33504	
2069	0	32787	32711	32823	32732	32691	32675	32710	32967	
2070	0	32809	32667	32714	32820	32483	32647	33065	32791	
2071	0	32790	32799	32711	32757	32667	32637	33213	32445	
2072	0	32839	32723	32809	32775	33020	32589	33001	32617	
2073	0	32716	32663	32775	32831	32628	32894	32823	32586	
2074	0	32717	32695	32726	32751	32551	32591	32775	32742	
2075	0	32775	32645	32623	32766	32595	32679	33004	32783	
2076	0	32734	32775	32799	32769	32443	32740	32879	32895	
2077	0	32804	32547	32671	32647	32463	32749	32224	32631	
2078	0	32813	32647	32700	32677	32423	32642	32092	32587	
2079	0	32799	32661	32663	32679	32935	32579	31894	32283	
2080	0	32767	32767	32789	32738	32655	32660	32194	32487	
2081	0	32719	32511	32773	32647	32483	32419	32467	32343	
2082	0	32621	32657	32723	32680	32735	32658	32495	32370	
2083	0	32683	32621	32669	32791	32797	33047	32147	32263	
2084	0	32655	32762	32698	32771	32887	32983	32207	32738	
2085	0	32686	32499	32751	32795	32981	32693	32717	32725	
2086	0	32692	32607	32815	32855	32973	32860	32954	32673	
2087	0	32743	32775	32717	32815	32847	32683	33093	32511	
2088	0	32781	32647	32775	32855	32799	32499	32983	32621	
2089	0	32822	32707	32775	32897	32715	32915	32549	32305	
2090	0	32838	32663	32903	32763	32991	32918	32686	32847	
2091	0	32890	32747	32735	32879	33039	33079	32487	33607	
2092	0	32881	32822	32871	32879	32534	33223	32671	34298	
2093	0	32890	32727	32815	32883	32050	32647	32486	33385	
2094	0	32876	32775	32899	32756	32204	32271	32590	33152	
2095	0	32876	32663	32719	32731	32966	32549	32329	32813	
2096	0	32855	32748	32751	32756	32955	32711	32228	32413	
2097	0	32735	32628	32869	32675	32598	32148	32575	32279	
2098	0	32701	32647	32690	32708	32737	32391	32127	32383	
2099	0	32729	32583	32791	32787	33168	32469	31894	32357	
2100	0	32731	32483	32673	32739	32790	32574	32135	32566	
2101	0	32725	32727	32761	32763	32887	32834	32660	32771	
2102	0	32735	32663	32621	32726	32595	32999	33238	32743	
2103	0	32684	32725	32735	32679	32550	32935	32935	32767	
2104	0	32682	32573	32708	32647	32609	32667	33449	32611	
2105	0	32784	32575	32751	32698	32819	32331	33595	32623	
2106	0	32796	32775	32671	32671	32655	32548	34311	32703	
2107	0	32817	32731	32834	32636	32714	32623	33375	32883	
2108	0	32758	32699	32831	32775	32817	32679	32598	32547	
2109	0	32828	32743	32799	32749	32707	32895	32551	32663	
2110	0	32790	32647	32671	32797	32679	32739	32663	32679	
2111	0	32762	32595	32775	32863	32815	32758	32877	32823	
2112	0	32751	32695	32814	32799	32847	32867	32851	32730	
2113	0	32767	32627	32769	32763	32943	32645	32423	32810	
2114	0	32765	32743	32733	32829	32973	32790	32077	32789	
2115	0	32754	32722	32522	32795	32847	32615	32322	32935	
2116	0	32718	32558	32645	32834	32863	32709	32215	32324	
2117	0	32798	32735	32639	32831	32812	32775	31986	32685	
2118	0	32756	32731	32783	32823	32686	33359	31879	32713	
2119	0	32745	32738	32677	32704	32717	32899	32175	32949	
2120	0	32767	32623	32887	32706	32711	32513	31845	32715	
2121	0	32822	32610	32811	32802	32453	32807	32485	32831	
2122	0	32794	32676	32839	32724	32627	32789	32679	33327	
2123	0	32775	32681	32628	32729	32887	32879	31942	32716	
2124	0	32797	32703	32735	32751	32743	32502	32406	33125	
2125	0	32743	32485	32835	32867	32475	32155	32753	33135	
2126	0	32817	32699	32709	32775	32515	32241	32694	33109	
2127	0	32844	32749	32873	32748	32951	32807	33967	33063	
2128	0	32745	32586	32775	32811	33106	32847	34850	32923	
2129	0	32759	32679	32671	32772	32813	32447	33436	32367	
2130	0	32660	32741	32761	32727	32509	32683	34119	32212	
2131	0	32647	32735	32724	32689	32447	32699	34811	32382	
2132	0	32661	32735	32787	32741	32813	32694	33715	32379	
2133	0	32716	32611	32754	32699	32886	32775	33247	32765	
2134	0	32796	32595	32717	32731	32633	32566	32598	32498	
2135	0	32866	32735	32815	32811	32473	32478	31623	32562	
2136	0	32793	32747	32831	32783	32643	32748	31620	32455	
2137	0	32799	32679	32743	32834	33004	32857	31230	32702	
2138	0	32769	32733	32507	32775	32927	32943	31864	33207	
2139	0	32818	32511	32725	32679	32823	32935	31919	33663	
2140	0	32761	32647	32734	32698	32631	33055	31910	32901	
2141	0	32746	32635	32859	32747	32475	33041	32182	32567	
2142	0	32766	32783	32694	32734	32479	32806	32135	32551	
2143	0	32775	32679	32807	32751	32438	32185	32543	32293	
2144	0	32759	32502	32759	32798	32479	32404	33086	32639	
2145	0	32772	32735	32749	32787	32631	32427	32723	32333	
2146	0	32827	32711	32588	32688	32775	32510	32285	31555	
2147	0	32671	32766	32775	32607	33009	32847	31987	31251	
