# OpenSignals Text File Format
# {"00:07:80:3B:46:38": {"sensor": ["CUSTOM/0.5/1.0/V", "CUSTOM/0.5/1.0/V", "CUSTOM/0.5/1.0/V", "CUSTOM/0.5/1.0/V", "CUSTOM/0.5/1.0/V", "CUSTOM/0.5/1.0/V", "CUSTOM/0.5/1.0/V", "CUSTOM/0.5/1.0/V"], "device name": "EMGs", "column": ["nSeq", "DI", "RA_L", "RA_R", "OE_L", "OE:R", "IL_L", "IL_R", "MF_L", "MF_R"], "sync interval": 2, "time": "17:18:42.98", "comments": "", "device connection": "BTH00:07:80:3B:46:38", "channels": [1, 2, 3, 4, 5, 6, 7, 8], "date": "2017-6-1", "mode": 0, "digital IO": [0, 1], "firmware version": 772, "device": "biosignalsplux", "position": 0, "sampling rate": 1000, "label": ["RA_L", "RA_R", "OE_L", "OE:R", "IL_L", "IL_R", "MF_L", "MF_R"], "resolution": [16, 16, 16, 16, 16, 16, 16, 16], "special": [{}, {}, {}, {}, {}, {}, {}, {}]}}
# EndOfHeader
0	0	32286	33082	33415	32929	32471	32615	33090	31721	
1	0	32395	33159	33415	33111	32383	32773	33014	31537	
2	0	32514	33235	33812	33083	32642	32623	32903	31885	
3	0	32657	33303	33769	33053	32591	32391	32833	32175	
4	0	32727	33151	33575	33039	32630	32559	32506	32871	
5	0	32660	33201	33287	33031	32647	32614	32390	33061	
6	0	32636	33182	33143	33003	32766	32763	32245	33333	
7	0	32714	33239	33204	32827	32767	32741	32158	33481	
8	0	32723	32991	33263	32763	32882	32631	32195	33271	
9	0	32681	32949	33261	32863	32949	32631	32179	33219	
10	0	32635	33063	32982	32887	32973	32627	32195	33299	
11	0	32765	33086	32761	32813	32796	32543	32359	33146	
12	0	32796	33115	32631	32677	33010	32679	32417	33057	
13	0	32869	33088	32415	32679	32925	32635	32531	33075	
14	0	32972	32919	32435	32580	33027	32727	32514	33039	
15	0	33190	33103	32255	32535	33121	32787	32367	32990	
16	0	33311	32981	32364	32502	32715	32726	32407	32571	
17	0	33167	32831	32557	32566	32732	32709	32567	32769	
18	0	32996	32807	32482	32574	32818	32647	32585	32991	
19	0	32642	32381	32903	32457	33147	32535	32547	33223	
20	0	32679	32533	32926	32457	32893	32621	32607	32967	
21	0	32833	32679	32784	32595	32898	32676	32663	32919	
22	0	33057	32814	32297	32789	32677	32767	32735	32583	
23	0	32976	32796	32247	32532	32791	32692	32757	32660	
24	0	32774	32495	32466	32493	32847	32914	32703	32494	
25	0	32699	32495	32630	32595	32923	32716	32756	32679	
26	0	32765	32429	32501	32711	33014	32599	32701	32667	
27	0	32925	32623	32331	32803	32789	32676	32668	32783	
28	0	32808	32551	32391	32839	32507	32747	32735	32507	
29	0	32795	32455	32293	33009	32575	33182	32738	32611	
30	0	32765	32541	32347	33051	32551	33247	32871	32774	
31	0	32518	32235	33191	32903	32807	32537	32919	32655	
32	0	32574	32447	33004	33055	33014	32474	32803	32795	
33	0	32857	32511	32573	33191	32957	32647	32815	32597	
34	0	32820	32661	32851	32989	32839	32663	32881	32452	
35	0	32839	32727	32911	32959	32749	32852	32767	32485	
36	0	32761	32617	32923	32815	32525	32943	32814	32710	
37	0	32655	32631	33031	32717	32513	33085	32823	32855	
38	0	32644	32373	33065	32554	32719	32747	32903	32587	
39	0	32775	32375	32550	32391	32715	32598	32959	32740	
40	0	32859	32466	32167	32459	32689	32671	32839	32845	
41	0	32871	32599	32203	32541	32893	32623	32679	32999	
42	0	32841	32603	32127	32633	32867	32557	32610	32721	
43	0	32889	32747	32159	32671	32806	32783	32791	32775	
44	0	32903	32591	32183	32621	32919	32901	32567	32788	
45	0	32960	32711	32277	32603	33106	32694	32591	32831	
46	0	32867	32709	32553	32453	33031	32543	32639	32839	
47	0	32825	32663	32469	32661	32783	32763	32783	32863	
48	0	32804	32667	32455	32743	32357	33087	32930	32365	
49	0	32832	32717	32615	32786	32326	33482	32910	32473	
50	0	32711	32599	32775	32803	32467	33110	32775	32491	
51	0	32667	32615	32727	32845	32731	32727	32709	32519	
52	0	32775	32630	32609	32796	32879	32667	32647	32669	
53	0	32798	32562	32559	32767	32959	32580	32774	32415	
54	0	32713	32391	32511	32745	33029	32314	32775	32471	
55	0	32836	32642	32615	32811	32934	32596	32868	32119	
56	0	32918	32623	32559	32763	32723	32862	32903	32277	
57	0	32899	32783	32591	32743	32831	32663	32803	32466	
58	0	32775	32527	32929	32591	32935	32662	32745	32865	
59	0	32711	32533	32941	32583	32729	32727	32707	32971	
60	0	32751	32759	33047	32751	32489	32901	32775	32391	
61	0	32751	32581	33267	32647	32647	32887	32775	32492	
62	0	32753	32807	33144	32662	32787	32811	32833	32535	
63	0	32733	32773	32901	32575	32925	32674	32731	32687	
64	0	32782	32743	32871	32767	33017	32577	32767	32891	
65	0	32823	32783	32663	32883	32986	32694	32791	32847	
66	0	32807	32647	32635	32925	32686	33031	32791	32747	
67	0	32730	32681	32647	32861	32635	33055	32827	32590	
68	0	32738	32708	32711	32914	32636	32786	32837	32527	
69	0	32647	32556	32829	32935	32822	32535	32775	32813	
70	0	32653	32639	32815	32839	32933	32630	32743	32903	
71	0	32637	32423	32799	32763	32764	32643	32795	32759	
72	0	32699	32701	32676	32799	32775	32609	32694	32917	
73	0	32706	32743	32519	32933	32790	32675	32647	32930	
74	0	32715	32775	32323	32871	32977	32751	32751	32658	
75	0	32665	32471	32351	32623	32974	32675	32743	32845	
76	0	32786	32727	32483	32647	32827	32787	32765	32727	
77	0	32855	32677	32647	32730	32711	32813	32862	32551	
78	0	32910	32515	32579	32692	32821	32789	32795	32455	
79	0	32849	32660	32772	32788	32877	32845	32811	32628	
80	0	32702	32655	32871	32895	32799	32868	32773	32543	
81	0	32710	32839	32915	32999	32727	32867	32859	32493	
82	0	32810	32879	32892	33019	32583	32839	32810	32516	
83	0	32822	32833	32703	32763	32927	32775	32700	32647	
84	0	32818	32695	32598	32911	32975	32711	32683	32879	
85	0	32860	32830	32452	32924	32903	32679	32647	32813	
86	0	32841	32773	32641	32765	32679	32803	32671	32540	
87	0	32726	32620	32810	32565	32612	32839	32796	32495	
88	0	32678	32364	32647	32534	32629	32834	32759	32620	
89	0	32652	32543	32547	32601	32735	32722	32829	32619	
90	0	32762	32551	32623	32640	32913	32763	32839	32694	
91	0	32863	32423	32454	32679	32891	32893	32775	32623	
92	0	32838	32626	32716	32811	32762	32685	32826	32827	
93	0	32729	32767	32815	33014	32839	32554	32742	33014	
94	0	32772	32703	32775	33012	32959	32685	32691	32940	
95	0	32822	32855	32735	32967	32935	32671	32702	32871	
96	0	32845	32751	32551	32940	32834	32594	32733	32789	
97	0	32822	32818	32203	32917	32871	32609	32670	32795	
98	0	32924	32775	32365	32819	32799	32699	32746	32783	
99	0	32853	32660	32511	32738	32751	32698	32775	32578	
100	0	32790	32497	32543	32559	32807	32773	32695	32669	
101	0	32723	32583	32645	32279	32732	32851	32749	32596	
102	0	32790	32666	32563	32211	32763	32850	32803	32583	
103	0	32713	32415	32663	32175	32844	32775	32753	32573	
104	0	32667	32615	32727	32263	33036	32620	32727	32727	
105	0	32733	32806	32603	32291	32959	32836	32775	32660	
106	0	32769	32503	32597	32370	32734	32811	32766	32443	
107	0	32757	32647	32655	32489	32615	32723	32839	32703	
108	0	32695	32665	32705	32692	32647	32591	32783	32631	
109	0	32647	32479	32587	32927	32699	32822	32775	32621	
110	0	32743	32639	32535	33191	32807	32743	32737	32498	
111	0	32727	32644	32676	33239	32767	32739	32729	32542	
112	0	32739	32819	32715	33266	32837	32927	32767	32617	
113	0	32711	32503	32863	33159	32737	32861	32814	32505	
114	0	32663	32583	32775	33106	32749	32751	32847	32732	
115	0	32705	32733	32609	32815	32662	32647	32827	32679	
116	0	32773	32607	32623	32674	32823	32487	32727	32703	
117	0	32794	32693	32516	32695	32975	32508	32621	32576	
118	0	32851	32609	32559	32695	32879	32917	32566	32662	
119	0	32883	32775	32567	32719	32495	33093	32646	32828	
120	0	32701	32623	32548	32569	32639	32775	32751	32811	
121	0	32527	32465	32765	32435	32930	32551	32825	32627	
122	0	32541	32635	32825	32549	32869	32659	32873	32727	
123	0	32613	32597	32711	32485	32877	32595	32804	32694	
124	0	32675	32495	32591	32519	33082	32631	32810	32678	
125	0	32748	32623	32627	32591	33013	32715	32743	32719	
126	0	32753	32807	32629	32671	32892	33071	32697	32610	
127	0	32747	32668	32662	32595	32807	33103	32751	32475	
128	0	32748	32677	32583	32563	32783	32975	32855	32663	
129	0	32647	32553	32870	32638	32703	32863	32772	32511	
130	0	32743	32594	32686	32668	32843	32854	32815	32485	
131	0	32524	32444	32599	32351	32859	32815	32819	32493	
132	0	32391	32413	32731	32343	32815	32613	32727	32711	
133	0	32522	32617	32645	32508	32802	32521	32783	32623	
134	0	32674	32607	32726	32751	32730	32583	32831	32375	
135	0	32694	32701	32623	32799	32659	32835	32796	32557	
136	0	32655	32592	32759	32839	32638	32847	32775	32591	
137	0	32742	32519	32615	32903	32857	32645	32662	32700	
138	0	32771	32723	32452	32999	32889	32583	32707	32644	
139	0	32771	32738	32565	33060	32875	32647	32647	32769	
140	0	32696	32563	32695	33074	32869	32607	32640	32847	
141	0	32772	32711	32671	33053	32615	32822	32807	32757	
142	0	32732	32663	32621	32989	32759	32759	32751	32768	
143	0	32698	32735	32802	32944	32741	32703	32751	32773	
144	0	32716	32647	32807	32643	32709	32637	32727	32756	
145	0	32753	32615	32629	32479	32765	32742	32764	32647	
146	0	32752	32670	32759	32590	32734	32734	32773	32685	
147	0	32791	32551	32685	32647	32807	32719	32759	32694	
148	0	32734	32615	32607	32711	32775	32855	32815	32567	
149	0	32739	32459	32762	32703	32655	33038	32827	32697	
150	0	32748	32599	32734	32845	32617	32875	32765	32623	
151	0	32855	32703	32589	32836	33016	32727	32635	32618	
152	0	32868	32557	32503	32817	33171	32639	32698	32729	
153	0	32799	32639	32783	32823	32706	32705	32918	32551	
154	0	32762	32609	32964	32734	32673	32567	32903	32582	
155	0	32811	32723	32954	32613	32759	32527	32787	32685	
156	0	32790	32709	32653	32749	32737	32690	32751	32563	
157	0	32855	32599	32598	32750	32351	33303	32709	32527	
158	0	32839	32669	32615	32533	32703	33159	32676	32603	
159	0	32821	32551	32797	32514	32850	32783	32749	32551	
160	0	32704	32588	32895	32583	32989	32688	32804	32563	
161	0	32644	32436	32815	32725	32701	32558	32711	32591	
162	0	32655	32565	32903	32715	32706	32495	32850	32609	
163	0	32637	32677	32871	32811	32663	32739	32815	32499	
164	0	32705	32661	32919	32877	32551	32899	32831	32683	
165	0	32827	32743	32725	32911	32775	32847	32729	32820	
166	0	32837	32741	32807	32859	32835	32806	32759	32683	
167	0	32766	32647	32830	32861	32871	32670	32765	32595	
168	0	32705	32471	32759	32590	32976	32580	32734	32637	
169	0	32736	32581	32839	32647	32885	32655	32725	32581	
170	0	32804	32581	32749	32723	32759	32767	32703	32453	
171	0	32847	32775	32628	32817	32685	33063	32627	32583	
172	0	32847	32751	32830	32887	32727	32743	32726	32690	
173	0	32769	32493	32820	32765	32811	32465	32694	32565	
174	0	32756	32509	32679	32743	32935	32815	32823	32503	
175	0	32818	32503	32647	32831	32807	33067	32741	32743	
176	0	32845	32719	32743	32886	32621	32929	32803	32679	
177	0	32903	32866	32775	32983	32887	32867	32783	32759	
178	0	32941	32751	32690	32678	32895	32989	32729	32771	
179	0	32930	32709	32699	32551	32427	32811	32748	32617	
180	0	32921	32727	32575	32455	32591	32511	32715	32642	
181	0	32786	32332	32595	32263	32708	32790	32589	32581	
182	0	32844	32538	32557	32335	32939	32856	32666	32605	
183	0	32968	32691	32631	32493	32833	32591	32692	32663	
184	0	33069	32550	32579	32591	32866	32199	32847	32595	
185	0	33139	32677	32553	32879	32831	32125	32980	32493	
186	0	33024	32666	32567	32763	32775	32499	32871	32895	
187	0	32849	32700	32753	32631	32878	32831	32665	33047	
188	0	32770	32671	32711	32703	32518	33627	32751	33210	
189	0	32739	32462	32562	32590	32223	33697	32805	32755	
190	0	32678	32460	32847	32363	32839	32967	32703	32605	
191	0	32748	32497	32756	32583	32958	32663	32643	32548	
192	0	32775	32679	32703	32695	32628	32541	32747	32255	
193	0	32683	32767	32573	32691	32678	32493	32895	31991	
194	0	32843	32631	32721	32727	32671	32421	32993	32329	
195	0	32956	32755	32711	32811	32868	32580	32799	32310	
196	0	32897	32867	32733	32927	32617	33050	32831	32678	
197	0	32793	32734	32903	33135	32330	33287	32790	32842	
198	0	32721	32665	32807	33175	32711	32903	32719	32615	
199	0	32732	32453	32807	33011	33083	32475	32639	32802	
200	0	32647	32635	32743	32939	33063	32527	32718	32603	
201	0	32687	32615	32647	32903	32763	32685	32871	32607	
202	0	32795	32564	32882	33061	32519	32815	32821	32630	
203	0	32846	32711	32735	33151	32579	32838	32701	32815	
204	0	32836	32695	32391	33119	32639	32831	32647	32731	
205	0	32850	32951	32423	32915	32813	32567	32601	32693	
206	0	32848	32919	32543	32871	32475	32647	32615	32775	
207	0	32852	32757	32627	32654	32239	32707	32563	32807	
208	0	32762	32678	32767	32551	32543	32677	32679	32711	
209	0	32707	32738	32799	32662	32663	32575	32686	32639	
210	0	32608	32518	32885	32535	33239	32382	32759	32510	
211	0	32500	32460	32835	32627	33436	32631	32759	32615	
212	0	32343	32400	32943	32327	33390	33067	32703	32447	
213	0	32410	32431	32893	32461	33223	32743	32846	32665	
214	0	32628	32723	32775	32647	32870	32612	32942	32509	
215	0	32703	32631	32620	32892	32509	33157	33095	32571	
216	0	32766	32663	32730	32843	32801	33015	33231	32769	
217	0	32735	32759	32789	32802	32919	32513	33173	32835	
218	0	32786	32727	32626	32885	32743	32831	32801	32596	
219	0	32685	32775	32638	32735	32619	32844	32629	32551	
220	0	32671	32611	32615	32730	32474	33083	32703	32431	
221	0	32606	32703	32570	32635	32311	32887	32607	32572	
222	0	32615	32626	32605	32729	32585	32852	32663	32745	
223	0	32644	32588	32598	32961	32603	32735	32655	32431	
224	0	32788	32775	32591	32867	32601	32375	32557	32493	
225	0	32876	32838	32487	32807	32820	32167	32535	32448	
226	0	32784	32495	32567	32677	32771	32413	32592	32439	
227	0	32789	32613	32605	32557	32694	33091	32698	32647	
228	0	32860	32755	32727	32658	32357	33581	32808	32815	
229	0	32832	32583	32823	32635	32821	33287	32682	33300	
230	0	32592	32527	32867	32194	33493	32632	32631	33277	
231	0	32599	32582	32795	32373	33436	32271	32885	33039	
232	0	32735	32807	32718	32910	32885	32183	33215	32835	
233	0	32844	32709	32582	33149	32373	32631	33178	32863	
234	0	32774	32735	32695	33103	32756	32791	33059	32810	
235	0	32751	32775	32762	32987	33043	32943	32756	32977	
236	0	32574	32511	32773	32839	32957	32981	32495	32413	
237	0	32576	32591	32903	32721	32615	32745	32475	32199	
238	0	32710	32767	32775	32887	32591	32727	32259	32150	
239	0	32775	32663	32687	32765	32703	33099	32365	32237	
240	0	32639	32551	32593	32524	33321	32739	32381	32749	
241	0	32714	32495	32749	32549	33349	32503	32466	32804	
242	0	32783	32647	32807	32615	32551	32769	32278	32745	
243	0	32748	32702	32771	32603	32871	32933	32874	32871	
244	0	32789	32575	32679	32607	32183	32955	32875	32964	
245	0	32877	32655	32666	32601	31155	33071	32159	32591	
246	0	32991	32677	32621	32647	31632	32924	32399	32067	
247	0	32860	32775	32599	32735	32499	32877	32622	32029	
248	0	32673	32850	32900	32796	32813	32879	32615	32689	
249	0	32428	32575	32812	32775	33350	32675	32823	32818	
250	0	32320	32493	32937	32641	33389	32797	33069	33039	
251	0	32543	32527	32769	33037	33807	32805	33859	32903	
252	0	33032	32847	32487	33355	33487	32342	34644	31956	
253	0	32940	32807	32607	33039	33287	31933	34423	31645	
254	0	32599	32615	32796	32743	33551	31991	33927	32407	
255	0	32615	32615	32695	32738	32315	32631	33441	32809	
256	0	32733	32607	32828	32775	32317	32873	32858	32919	
257	0	32740	32525	32962	32831	32717	32870	32615	32993	
258	0	32737	32715	32812	32791	33317	32705	32551	33039	
259	0	32895	32742	32775	32542	33719	32877	32231	33181	
260	0	32834	32918	32663	32830	33099	33146	31879	33197	
261	0	32735	32721	32581	32724	32853	32932	31723	33409	
262	0	32415	32269	32771	32344	32388	32733	31929	32903	
263	0	32343	32306	32893	32157	32002	32655	32671	32679	
264	0	32700	32477	32639	32659	31475	32855	33110	32411	
265	0	32860	32701	32594	32705	32147	32717	33265	32159	
266	0	32835	32802	32743	32807	32606	32627	32919	32350	
267	0	32743	32570	32756	32549	32764	33115	32407	32511	
268	0	32689	32587	32785	32571	32871	33067	32214	32527	
269	0	32749	32629	32678	32767	32344	32763	32391	32851	
270	0	32836	32550	32735	32839	32044	32527	32487	32980	
271	0	32988	32662	32805	32821	32071	32727	32527	33122	
272	0	32796	32762	33045	32821	33002	32745	32577	33245	
273	0	32681	32641	32943	32749	33156	32723	32937	32931	
274	0	32871	32747	32803	32863	32623	32971	32642	32799	
275	0	32935	32753	32826	32879	32299	33221	32383	32564	
276	0	32807	32829	32866	32646	32371	33223	32314	32858	
277	0	32738	32711	32793	32423	32473	33007	32541	32775	
278	0	32655	32487	32871	32337	33093	32277	32663	32455	
279	0	32599	32534	32901	32263	34055	32231	32945	32671	
280	0	32644	32607	32839	32452	34500	32342	33605	32703	
281	0	32725	32513	32749	32647	34435	32295	34801	32295	
282	0	32598	32557	32623	32873	33927	32519	34097	32759	
283	0	32620	32587	32438	33319	32935	32702	32851	33309	
284	0	32900	32898	32412	33421	32151	32979	32567	33113	
285	0	32920	32833	32492	32875	32115	32619	32415	32699	
286	0	32847	32578	32639	32609	32511	32421	32579	32331	
287	0	32759	32601	32687	32631	32532	32566	32501	32507	
288	0	32758	32690	32738	32677	32757	32723	32119	32783	
289	0	32743	32581	32843	32719	32761	33015	31855	33090	
290	0	32718	32571	32887	32595	32607	33207	31700	33439	
291	0	32726	32685	32815	32567	32281	33321	31687	32971	
292	0	32818	32615	32638	32711	32489	33025	31997	33132	
293	0	32805	32701	32783	32613	33231	32727	32847	33018	
294	0	32849	32732	32804	32690	33071	32757	34311	32431	
295	0	32799	32623	32823	32719	32967	32813	34087	32447	
296	0	32799	32727	32782	32633	33079	32677	33622	32196	
297	0	32864	32702	32623	32711	32725	32847	33455	32242	
298	0	32885	32854	32647	32754	32198	32775	33381	32279	
299	0	32775	32679	32743	32276	32495	32661	33117	32327	
300	0	32880	32687	32767	32173	32875	32666	32757	32575	
301	0	32898	32581	32571	32279	32443	32775	32543	32734	
302	0	32869	32661	32607	32323	32525	32917	32471	32615	
303	0	32742	32551	32747	32359	32466	33077	32533	32482	
304	0	32805	32479	32749	32421	32743	33043	32390	32607	
305	0	32839	32646	32663	32338	32883	32941	32199	32683	
306	0	32852	32695	32820	32647	33027	32803	32193	32823	
307	0	32761	32573	32814	32875	33011	32859	32327	32865	
308	0	32737	32657	32647	32859	32550	32830	32205	32893	
309	0	32685	32558	32719	33043	32725	32525	32365	32803	
310	0	32855	32763	32713	33159	32295	32493	32135	32811	
311	0	32854	32638	32487	33039	32518	32555	32197	32786	
312	0	32801	32775	32381	33045	32690	32455	32545	32679	
313	0	32858	32769	32389	33041	32335	32405	32687	32807	
314	0	32775	32667	32491	32791	32900	32339	32727	32643	
315	0	32783	32647	32439	32695	33046	32473	32967	32693	
316	0	32810	32658	32367	32607	33451	32775	34337	32620	
317	0	32813	32455	32295	32594	33235	32867	34751	32607	
318	0	32786	32415	32475	32570	32694	32870	33535	32679	
319	0	32831	32647	32471	32468	32151	33047	32887	32589	
320	0	32873	32751	32391	32645	32421	33117	32705	32507	
321	0	32740	32707	32671	32679	32663	32941	32903	32499	
322	0	32685	32691	32519	33091	32322	33036	32591	32645	
323	0	32655	32579	32487	32802	32555	32819	32690	32671	
324	0	32588	32438	32454	32118	32836	32628	32701	32477	
325	0	32614	32525	32527	32495	33109	32605	32609	32359	
326	0	32742	32605	32593	32751	32957	32603	32577	32444	
327	0	32736	32719	32575	32863	32903	32391	32683	32439	
328	0	32834	32775	32628	32979	32534	32450	32711	32435	
329	0	32895	32663	32431	32699	32562	32805	32679	32425	
330	0	32874	32583	32612	32759	32807	32775	32695	32687	
331	0	32690	32479	32527	32829	32658	32603	32679	32743	
332	0	32647	32487	32727	32479	32769	32627	32675	32803	
333	0	32647	32398	32591	32722	32438	32739	32311	32982	
334	0	32738	32679	32535	32943	32631	32683	32519	32927	
335	0	32719	32769	32647	32788	33068	32675	32319	33129	
336	0	32743	32641	32589	33027	32871	32727	32387	33087	
337	0	32831	32708	32438	32626	32547	32643	32607	32753	
338	0	32858	32708	32461	32850	33061	32695	32589	32332	
339	0	32896	32758	32511	32845	33023	32839	32831	32391	
340	0	32816	32564	32487	32715	32919	32726	33095	32396	
341	0	32717	32479	32471	32879	32903	32749	32794	32279	
342	0	32614	32706	32535	32598	32679	32935	32467	32470	
343	0	32717	32694	32492	32701	32295	32989	32703	32477	
344	0	32775	32491	32535	32835	32577	32608	32911	32538	
345	0	32775	32647	32431	32486	32620	32413	33151	32484	
346	0	32799	32788	32676	32359	32719	32683	33258	32615	
347	0	32775	32514	32695	32555	33066	32805	33027	32559	
348	0	32767	32607	32791	32687	32911	32851	32802	32663	
349	0	32785	32607	32679	32658	32846	32703	32647	32635	
350	0	32630	32666	32925	32556	33235	32631	32647	32413	
351	0	32633	32533	32934	32895	33206	32562	32658	32228	
352	0	32665	32759	32795	33183	32839	32615	32757	32339	
353	0	32743	32854	32668	33050	32743	32631	32631	32583	
354	0	32846	32655	32775	32972	32775	32691	32583	32501	
355	0	32796	32647	32839	32743	33063	32858	32761	32503	
356	0	32623	32716	32887	32633	33091	32749	32948	32255	
357	0	32596	32629	32835	32676	33031	32775	32965	32278	
358	0	32679	32711	32758	32645	32679	32877	32860	32556	
359	0	32714	32547	32885	32663	32771	32809	32675	32683	
360	0	32795	32751	32853	32559	32767	33065	32631	32724	
361	0	32758	32703	32699	32635	32349	32887	32640	32583	
362	0	32855	32749	32632	32658	32341	32817	32593	32628	
363	0	32896	32575	32775	32621	32669	32701	32339	32693	
364	0	32893	32727	32775	32788	32810	32736	32311	32919	
365	0	32893	32739	32775	32857	32903	32843	32342	32751	
366	0	32822	32673	32767	32917	32939	32967	32223	32797	
367	0	32658	32475	33012	32507	33379	32661	32189	32473	
368	0	32597	32551	32951	32573	33113	32975	32167	32542	
369	0	32643	32641	32927	32739	32902	33095	32786	32263	
370	0	32667	32725	33084	32791	32836	32338	32743	32293	
371	0	32520	32511	33133	32971	33556	32205	32739	32537	
372	0	32423	32647	33263	32916	34287	32159	32580	32527	
373	0	32575	32639	32913	32849	33765	32707	32607	32914	
374	0	32903	32745	32514	32765	31615	32972	33627	32997	
375	0	33012	32786	32433	32615	31795	32834	34004	32647	
376	0	32918	32593	32611	32564	31623	32940	33887	32631	
377	0	32839	32659	32535	32655	31923	32859	33633	32543	
378	0	32802	32775	32483	32663	32247	32821	33487	32387	
379	0	32703	32727	32455	32585	32310	32893	32723	32391	
380	0	32686	32810	32427	32589	31923	33087	32287	32335	
381	0	32765	32549	32471	32606	32518	32799	32927	32202	
382	0	32727	32658	32471	32727	33069	32135	33159	32365	
383	0	32713	32563	32487	32491	33548	32263	33143	32263	
384	0	32838	32839	32535	32473	33036	32798	32887	32673	
385	0	32954	32727	32623	32765	32811	33137	32583	32767	
386	0	32861	32771	32615	32727	32489	33093	32570	33093	
387	0	32756	32535	32734	32735	32707	32757	32501	33375	
388	0	32728	32603	32815	32877	32647	32655	32349	33479	
389	0	32756	32708	32957	32863	32759	32639	32367	33426	
390	0	32700	32515	32999	32919	32585	32578	32434	33187	
391	0	32687	32652	33047	33021	32735	32647	32615	32919	
392	0	32683	32625	33028	33023	32902	32579	32514	32887	
393	0	32768	32852	32967	33039	32635	32798	32543	32717	
394	0	32754	32723	32972	33007	32601	32923	32399	32679	
395	0	32748	32689	32859	32903	32733	32865	32322	32450	
396	0	32709	32559	32785	32689	32807	32751	32759	32407	
397	0	32715	32615	32709	32535	32711	32723	32927	32575	
398	0	32747	32595	32692	32443	32685	32931	32805	32503	
399	0	32647	32495	32833	32223	32785	32893	32671	32373	
400	0	32690	32603	32762	32322	32764	32939	32811	32210	
401	0	32775	32454	32667	32633	32807	32827	32950	32225	
402	0	32781	32583	32582	32995	32927	32751	32839	32585	
403	0	32839	32683	32518	33037	32449	33037	32830	32665	
404	0	32996	32877	32577	32857	32662	32959	32806	32695	
405	0	32783	32578	32701	32863	33119	32723	32695	32775	
406	0	32604	32713	32903	33075	33116	32687	32687	32493	
407	0	32644	32647	33045	33159	32357	32855	32578	32519	
408	0	32541	32423	32801	32807	32023	32895	32551	32589	
409	0	32681	32574	32786	32617	32391	32775	32727	32590	
410	0	32820	32550	32719	32735	32455	32963	32559	32555	
411	0	32806	32391	32709	32727	32451	32947	32218	32718	
412	0	32709	32581	32703	32683	32332	32915	32609	32824	
413	0	32624	32503	32767	32730	32743	32749	32965	32820	
414	0	32687	32695	32739	32927	32735	32871	32549	32935	
415	0	32751	32615	32835	32876	32549	32846	32487	32878	
416	0	32834	32575	32945	32903	32646	32831	32190	33079	
417	0	32740	32647	33053	32965	33327	32709	32447	32929	
418	0	32624	32491	33145	33189	34041	32661	33159	32796	
419	0	32632	32751	33039	33089	33605	32676	33004	32719	
420	0	32756	32687	32835	32876	32577	32826	32685	32791	
421	0	32933	32679	32686	32860	31999	32626	33671	32519	
422	0	32814	32613	32535	32669	31543	32562	34195	32567	
423	0	32964	32771	32523	32931	31571	32923	33770	32575	
424	0	32991	32675	32743	32926	31712	32998	33095	32805	
425	0	32899	32555	32826	32871	32479	32743	33051	32679	
426	0	32863	32575	32883	32759	32543	32695	32847	32507	
427	0	32854	32605	32771	32626	32860	32687	32941	32582	
428	0	32833	32643	32653	32615	32799	33023	32937	32525	
429	0	32807	32455	32647	32587	32903	32939	32735	32455	
430	0	32846	32623	32742	32710	32911	32703	32562	32595	
431	0	32767	32561	32764	32750	32917	32647	32531	32687	
432	0	32804	32669	32695	32685	32719	32741	32471	32791	
433	0	32789	32434	32795	32769	32821	32798	32279	32641	
434	0	32695	32659	32775	32927	32982	32781	32255	32751	
435	0	32706	32770	32752	33053	33043	32751	32363	32951	
436	0	32795	32551	32866	32959	33059	32591	32525	32963	
437	0	32830	32647	32790	32731	32470	32623	32647	32858	
438	0	32740	32719	32727	32591	32837	32711	32629	32903	
439	0	32736	32551	32743	32781	33079	32959	32677	33017	
440	0	32720	32734	32873	32751	32695	32858	32903	32813	
441	0	32804	32751	32949	32924	32183	32911	32875	32731	
442	0	32764	32797	32971	32895	32486	32913	32719	32903	
443	0	32676	32540	32916	32803	32877	32891	32711	32819	
444	0	32663	32537	32925	32820	33583	32621	32615	32799	
445	0	32757	32701	32877	32791	33615	32575	32868	32698	
446	0	32822	32695	32763	32879	32903	32617	32945	32639	
447	0	32816	32807	32694	32852	32518	32583	32687	32804	
448	0	32706	32567	32571	32647	31965	32699	32807	32740	
449	0	32834	32643	32449	32487	31763	32871	33007	32733	
450	0	32864	32691	32551	32487	31997	32962	33590	32415	
451	0	32774	32725	32570	32421	32210	32829	33341	32493	
452	0	32716	32451	32615	32399	32715	32581	32797	32591	
453	0	32719	32623	32681	32335	33039	32559	32607	32535	
454	0	32781	32702	32699	32420	32989	32737	32735	32607	
455	0	32807	32818	32691	32379	32939	32807	32869	32371	
456	0	32726	32610	32599	32457	32954	32799	32743	32293	
457	0	32679	32659	32661	32659	32943	32852	32615	32183	
458	0	32684	32749	32731	32531	32911	32851	32567	32311	
459	0	32684	32559	32722	32274	33157	32767	32771	32367	
460	0	32727	32613	32771	32375	32859	33019	32687	32389	
461	0	32653	32647	32801	32497	32919	33024	32647	32751	
462	0	32703	32707	32813	32509	32749	32950	32551	32957	
463	0	32711	32563	32551	32327	32949	32967	32478	33223	
464	0	32704	32685	32762	32572	32831	32829	32411	33342	
465	0	32612	32503	32821	32717	32767	32775	32167	33317	
466	0	32767	32815	32783	32807	32567	32830	32278	33202	
467	0	32698	32666	32723	32621	32621	32630	32342	32925	
468	0	32633	32583	32599	32903	33427	32023	32284	32903	
469	0	32786	32790	32336	33393	33243	32431	31817	32941	
470	0	32855	32676	32331	33183	33063	32539	31770	32921	
471	0	32858	32756	32402	32811	32914	32551	32479	32701	
472	0	32807	32685	32563	32597	32391	32980	32677	32723	
473	0	32776	32530	32635	32615	32258	32925	33199	32775	
474	0	32903	32647	32423	32703	32495	32647	33671	32615	
475	0	32826	32637	32383	32755	32815	32531	34157	32254	
476	0	32808	32745	32359	32696	33444	32575	34231	32095	
477	0	32797	32807	32365	32815	32895	32631	33875	32289	
478	0	32724	32525	32471	32589	32338	32687	33287	32478	
479	0	32711	32645	32455	32599	32553	32823	32804	32698	
480	0	32689	32631	32551	32481	32647	32851	32455	32661	
481	0	32713	32607	32637	32483	32717	33159	32255	32731	
482	0	32797	32511	32567	32581	33159	32851	32943	32708	
483	0	32850	32679	32487	32694	33123	32940	33223	32647	
484	0	32703	32691	32668	32683	33127	32762	32919	32647	
485	0	32662	32519	32581	32613	32839	32775	32476	32759	
486	0	32715	32503	32557	32615	32514	33047	32594	32486	
487	0	32703	32663	32669	32703	32615	32844	32743	32623	
488	0	32743	32775	32711	32781	32409	32959	32959	32489	
489	0	32794	32615	32706	32827	32671	32891	32925	32465	
490	0	32786	32683	32828	32773	32525	32775	32903	32391	
491	0	32676	32629	32703	32673	32231	32762	32973	32477	
492	0	32615	32423	32655	32709	32643	32743	32693	32566	
493	0	32617	32715	32771	32846	32733	32679	32659	32611	
494	0	32695	32719	32692	32855	32854	32799	32557	32445	
495	0	32738	32566	32719	32967	32407	32799	32407	32527	
496	0	32861	32806	32595	32879	31919	32918	32543	32588	
497	0	32875	32751	32717	32643	32354	32975	32371	32707	
498	0	32797	32660	32615	32549	32039	32839	32437	32774	
499	0	32690	32427	32637	32315	32183	32717	32603	32415	
500	0	32535	32279	32772	32155	32998	32518	32607	32714	
501	0	32664	32439	32633	32687	33409	32475	33245	32805	
502	0	32698	32655	32510	32898	32574	32658	32789	33038	
503	0	32870	32717	32499	32931	32287	32764	32695	33047	
504	0	32780	32468	32469	32959	32279	32787	32885	32839	
505	0	32813	32741	32611	33047	32189	32797	32673	32517	
506	0	32769	32775	32500	33175	32357	32775	32549	32635	
507	0	32871	32647	32581	33142	32309	32863	32903	32647	
508	0	32942	32948	32601	33175	32935	32839	33063	32575	
509	0	32769	32922	32630	33047	33127	32943	32863	32433	
510	0	32686	32479	32705	32844	33490	32757	32534	32629	
511	0	32611	32471	32720	32310	33793	32525	32466	32475	
512	0	32640	32587	32713	32591	33343	32668	32597	32647	
513	0	32815	32509	32559	32802	32933	32775	32965	32743	
514	0	32793	32701	32771	32709	32887	32710	32801	32742	
515	0	32770	32755	32679	32874	32859	32647	32700	32707	
516	0	32865	32607	32733	32988	32506	32773	32587	32765	
517	0	32725	32647	32579	32775	32703	32759	32621	32759	
518	0	32647	32647	32543	32989	32583	32646	32754	32771	
519	0	32701	32615	32523	33202	32637	32679	32739	32689	
520	0	32692	32815	32391	32933	32773	32549	32678	32771	
521	0	32692	32695	32519	32346	32738	32711	32679	32775	
522	0	32759	32411	32487	32251	32671	32790	32598	32687	
523	0	32726	32667	32311	32375	32461	32807	32621	32587	
524	0	32745	32815	32287	32571	32503	32861	32788	32551	
525	0	32751	32507	32661	32594	32676	33039	32975	32319	
526	0	32676	32591	32761	32660	33213	32982	33082	32447	
527	0	32740	32525	32583	32655	33125	32836	32839	32615	
528	0	32825	32647	32723	32540	32847	32711	32903	32647	
529	0	32682	32671	32903	32659	32743	32756	32869	32666	
530	0	32705	32595	32839	32898	32719	32839	32785	32631	
531	0	32782	32663	32764	32835	33001	33127	32647	32565	
532	0	32671	32754	32941	32839	33407	32914	32607	32599	
533	0	32740	32699	32926	32865	33483	32797	32679	32455	
534	0	32759	32793	32935	33183	33614	32828	32615	32583	
535	0	32716	32655	32871	33292	33607	32743	32543	32714	
536	0	32797	32755	32822	33223	32973	32937	32645	32597	
537	0	32812	32813	32767	33071	32245	33111	32783	32541	
538	0	32786	32551	32685	32895	32607	32850	32993	32453	
539	0	32775	32519	32703	32514	32925	32799	33125	32399	
540	0	32852	32647	32767	32571	32717	32939	33135	32321	
541	0	32926	32493	32869	32629	33090	32644	33023	32530	
542	0	32892	32599	32973	32733	33351	32591	32997	32538	
543	0	32842	32679	32999	32719	33260	32757	32903	32782	
544	0	32818	32549	32799	32787	32821	33011	32738	32783	
545	0	32868	32743	32647	32767	32804	32962	32564	32937	
546	0	32809	32655	32612	32663	32871	32809	32623	32799	
547	0	32839	32735	32563	32659	32689	32611	32775	32719	
548	0	32754	32703	32599	32763	32841	32646	32503	32903	
549	0	32687	32542	32775	32879	32673	32670	32391	32814	
550	0	32783	32727	32765	32829	32539	32671	32527	32499	
551	0	32865	32681	32489	32882	31988	32725	32681	32484	
552	0	32907	32716	32643	33095	32335	32573	32809	32580	
553	0	32924	32831	32641	33167	33319	32483	33231	32715	
554	0	32908	32708	32711	32775	32993	32599	33143	32624	
555	0	32812	32455	32799	32628	32927	32759	32742	32731	
556	0	32738	32583	32698	32595	32690	33103	32751	32846	
557	0	32693	32673	32513	32759	32709	33159	32764	32735	
558	0	32708	32535	32599	32831	32721	32841	32655	32775	
559	0	32789	32646	32599	32679	32690	32644	32607	32775	
560	0	32760	32571	32538	32447	33073	32593	32805	32557	
561	0	32786	32743	32503	32461	33046	32684	32902	32769	
562	0	32892	32797	32677	32821	32815	33037	32902	32671	
563	0	32775	32573	32699	32647	32901	32965	32679	32743	
564	0	32597	32533	32733	32311	33047	32574	32528	32751	
565	0	32671	32647	32783	32633	33170	32646	32583	32717	
566	0	32775	32647	32801	33043	33007	32711	32705	32715	
567	0	32767	32674	32919	33115	32879	32826	32598	32615	
568	0	32748	32535	32791	33010	32673	32935	32647	32330	
569	0	32615	32628	32925	32814	32885	32847	32441	32433	
570	0	32588	32570	33127	32663	33009	32527	32183	32390	
571	0	32702	32527	32999	32719	32903	32637	32063	32655	
572	0	32723	32647	32839	32813	33231	32799	32153	32771	
573	0	32700	32647	32873	32685	32743	32807	32468	32643	
574	0	32791	32813	32775	32877	31980	32921	33189	32583	
575	0	32683	32647	32703	32767	32036	32949	33115	32477	
576	0	32751	32767	32715	32755	32227	32815	33055	32447	
577	0	32769	32719	32815	32735	32503	32897	33229	32595	
578	0	32669	32702	32828	32786	32870	32835	33287	32799	
579	0	32566	32367	32595	32623	33114	32717	33349	32941	
580	0	32737	32593	32647	32711	32541	32749	33623	33091	
581	0	32708	32532	32749	32783	32981	32647	33497	33046	
582	0	32647	32572	32655	32647	33611	32433	33315	32837	
583	0	32747	32642	32687	32877	33245	32515	33063	32647	
584	0	32608	32701	32707	33042	32543	32551	32719	32791	
585	0	32623	32663	32817	32812	32727	32658	32361	32795	
586	0	32725	32765	32911	32995	33159	32867	32315	32773	
587	0	32764	32727	32717	33031	33206	32833	32399	32695	
588	0	32702	32487	32639	32663	33127	32405	32221	32564	
589	0	32567	32679	32703	32693	33241	32575	32595	32555	
590	0	32627	32801	32687	33159	32931	32787	33065	32671	
591	0	32865	32647	32775	33095	32823	32671	33071	32708	
592	0	32824	32663	32759	33009	32991	32670	32807	32577	
593	0	32789	32747	32724	32976	32847	32783	32655	32564	
594	0	32740	32647	32940	32885	32631	32775	32631	32655	
595	0	32783	32737	33055	32831	32071	32731	33039	32551	
596	0	32730	32551	32759	32822	32409	32751	32812	32663	
597	0	32788	32757	32902	32901	32543	32989	32492	32615	
598	0	32867	32839	32821	32959	32722	32935	32461	32575	
599	0	32879	32567	32639	32941	32559	32919	32359	32733	
600	0	32799	32599	32532	32671	32647	32903	32548	32575	
601	0	32801	32699	32691	32647	32539	33047	32647	32595	
602	0	32756	32658	32811	32710	32655	32884	32420	32847	
603	0	32804	32679	32545	32580	32787	32727	32920	32647	
604	0	32801	32635	32759	32730	32807	32717	32644	32642	
605	0	32882	32695	32789	32879	32667	32867	32674	32785	
606	0	32820	32783	32816	32826	32719	32733	32563	32813	
607	0	32863	32583	32863	32655	32711	32767	32667	32767	
608	0	32863	32661	32979	32679	32697	32694	32691	32815	
609	0	32855	32575	33039	32673	32547	32751	32583	32867	
610	0	32742	32677	32839	32656	32534	32839	32795	32670	
611	0	32877	32838	32555	32694	32620	32941	33319	32631	
612	0	32824	32775	32511	32571	33121	32687	33372	32675	
613	0	32702	32775	32673	32599	33037	32479	33059	32575	
614	0	32727	32743	32711	32710	32917	32548	32681	32679	
615	0	32837	32771	32727	32662	32845	32647	32575	32822	
616	0	32868	32557	32543	32629	32599	32647	32685	32647	
617	0	32902	32647	32502	32547	32478	32756	32874	32563	
618	0	32842	32721	32668	32647	32429	32850	32711	32695	
619	0	32818	32763	32607	32943	32407	32886	32708	32775	
620	0	32774	32791	32766	33042	32748	32863	32770	32717	
621	0	32791	32669	32763	32854	32746	32807	32739	32679	
622	0	32834	32749	32662	32807	32498	32791	32756	32671	
623	0	32757	32751	32860	32619	32599	32815	32775	32676	
624	0	32672	32553	33046	32647	32559	32647	32869	32783	
625	0	32647	32535	32999	32615	32749	32722	32775	32628	
626	0	32565	32694	32948	32562	32879	32903	32583	32527	
627	0	32615	32639	32999	32450	32875	32954	32667	32345	
628	0	32631	32619	32967	32227	32918	32935	32559	32610	
629	0	32752	32701	32719	32747	32767	32679	32790	32699	
630	0	32830	32903	32769	32911	32471	32729	32927	32754	
631	0	32767	32866	32481	32635	32714	32755	32893	32805	
632	0	32788	32731	32215	32359	32967	32707	32735	32815	
633	0	32723	32639	32533	32509	33049	32597	32698	32667	
634	0	32713	32551	32567	32487	33170	32445	32854	32791	
635	0	32815	32797	32535	32775	32502	32597	32916	32726	
636	0	32903	32806	32447	32927	32327	32979	32647	32751	
637	0	32820	33031	32682	33501	32903	32940	32457	32773	
638	0	32735	32967	32758	33247	32710	32815	32647	32573	
639	0	32713	32791	32658	32803	32172	32754	32755	32726	
640	0	32694	32806	32823	32813	32335	32749	32900	32598	
641	0	32751	32839	32661	32749	32495	32671	33259	32671	
642	0	32711	32546	32727	32607	32415	32742	33083	32519	
643	0	32634	32639	32639	32573	32557	32867	32799	32643	
644	0	32733	32518	32740	32407	32671	32711	32811	32897	
645	0	32847	32711	32707	32408	32742	32662	32847	32838	
646	0	32804	32823	32625	32391	32587	32681	32799	32861	
647	0	32795	32663	32733	32391	32679	32866	32743	32642	
648	0	32799	32677	32653	32399	32677	32764	32830	32607	
649	0	32753	32469	32732	32355	32694	32711	32799	32557	
650	0	32630	32551	32623	32419	32669	32767	32772	32507	
651	0	32679	32629	32783	32561	32615	32834	32804	32627	
652	0	32677	32517	32775	32604	32945	32663	32694	32567	
653	0	32698	32485	32647	32687	32750	32607	32701	32580	
654	0	32713	32507	32559	32783	32679	32809	32727	32747	
655	0	32792	32727	32705	32719	32636	32932	32783	32738	
656	0	32827	32727	32647	32845	32483	32983	32827	32822	
657	0	32695	32467	32646	32647	32707	32647	32873	32679	
658	0	32671	32503	32687	32484	32797	32606	32759	32686	
659	0	32644	32599	32847	32731	33082	32530	32698	32845	
660	0	32711	32443	32871	32679	32969	32518	32690	32695	
661	0	32679	32583	32877	32486	32801	32583	32700	32671	
662	0	32681	32542	32943	32715	32542	32813	32713	32565	
663	0	32619	32675	32983	32727	33137	32503	32759	32530	
664	0	32762	32581	32838	32635	32801	33042	32876	32531	
665	0	32937	32663	32543	32667	32429	33402	32725	32887	
666	0	32884	32658	32676	32685	32677	33227	32615	32902	
667	0	32799	32729	32687	32581	32865	33001	32610	32711	
668	0	32751	32623	32641	32617	33302	32733	32597	32893	
669	0	32812	32715	32324	32766	33295	32405	32493	32823	
670	0	32860	32719	32279	33321	33311	32295	32551	32879	
671	0	32892	32839	32527	33063	33095	32317	32775	32821	
672	0	32949	32719	32591	32743	32471	32791	32621	32617	
673	0	32859	32580	32711	32813	32677	32575	32473	32875	
674	0	32911	32621	32807	32681	32950	32666	32573	32759	
675	0	32967	32679	32727	32698	32803	32903	32647	32479	
676	0	32946	32783	32589	32687	32767	32919	32911	32430	
677	0	33010	32699	32655	32701	32847	32671	32972	32443	
678	0	32989	32643	32617	32635	32903	32508	32951	32388	
679	0	32937	32699	32647	32449	33075	32667	32711	32434	
680	0	32945	32711	32775	32475	32837	32795	32663	32607	
681	0	32916	32594	32775	32615	33123	32714	32619	32803	
682	0	33005	32635	32532	32598	33024	32775	32719	33007	
683	0	32961	32477	32661	32530	32839	32775	32596	32989	
684	0	32966	32635	32799	32559	33110	32735	32623	32852	
685	0	32952	32647	32589	32573	33077	32751	32591	32938	
686	0	32975	32597	32503	32343	32742	32817	32822	32854	
687	0	32903	32542	32351	32359	32999	32879	32775	32810	
688	0	32935	32287	32063	32391	32903	32843	32791	32706	
689	0	32920	32455	32151	32518	32751	32847	32819	32605	
690	0	32983	32421	32109	32455	32685	32842	32647	32673	
691	0	32911	32324	32053	32435	32690	32899	32647	32646	
692	0	32789	32390	32332	32487	33013	32793	32567	32575	
693	0	32804	32402	32421	32615	32923	32807	32799	32647	
694	0	32795	32367	32495	32626	32707	32815	32794	32639	
695	0	32673	32186	32364	32645	32971	32725	32821	32674	
696	0	32412	31935	32483	32534	32970	32703	32635	32481	
697	0	32422	32087	32298	32551	32734	32941	32682	32495	
698	0	32541	32278	32183	32479	32383	32852	33063	32471	
699	0	32544	32077	32447	32735	32571	32798	32989	32415	
700	0	32580	32359	32668	32807	32585	32935	33167	32127	
701	0	32639	32582	32735	33117	32282	33091	33293	32243	
702	0	32586	32405	32865	33133	32479	32921	33275	32338	
703	0	32447	32369	33095	32755	32743	32820	33259	32212	
704	0	32404	32374	33053	32723	32852	32926	33314	32175	
705	0	32420	32398	32974	32972	32683	32859	33373	32081	
706	0	32404	32355	32551	33127	32407	32701	33301	31915	
707	0	32390	32493	32391	33133	32535	32889	33212	32174	
708	0	32308	32535	32607	33158	32423	33015	33189	32331	
709	0	32327	32679	33151	33045	32535	32919	33311	32463	
710	0	32276	32677	33412	33129	32475	33039	33015	32410	
711	0	32135	32749	33597	33397	32561	33043	32893	32339	
712	0	32100	32877	33750	33042	32941	32715	32746	32519	
713	0	32176	32947	33511	32882	32692	32679	32613	32647	
714	0	32423	33047	33159	33414	32831	32607	33131	32582	
715	0	32663	33167	32166	33535	32482	32557	33087	32695	
716	0	32663	33013	32235	33037	32523	32687	32605	32887	
717	0	32615	33207	32927	32911	32218	32839	32023	32949	
718	0	32724	33047	33415	33007	32289	32818	31821	33113	
719	0	32708	33200	33271	32837	32935	32669	31703	33076	
720	0	32713	33073	33324	32623	33750	32579	31591	33474	
721	0	32556	32787	33344	32564	33965	32849	31763	33468	
722	0	32620	32981	33297	32727	33677	32663	32795	33293	
723	0	32662	33124	32959	32855	33229	32502	33595	32935	
724	0	32814	32882	33047	32790	32029	32470	34085	32813	
725	0	32903	33079	32821	32899	32211	32503	33969	32822	
726	0	32977	33059	32655	32871	32231	32686	33158	32773	
727	0	32918	32867	32358	32831	32700	32762	32450	32767	
728	0	32997	32963	32597	32692	32837	32647	32407	32869	
729	0	32959	32971	32500	32543	32813	32703	32455	32711	
730	0	33001	32735	32193	32382	33071	32747	32279	32737	
731	0	32894	32647	32380	32351	32887	32612	32207	32941	
732	0	32938	32731	32561	32667	32644	32967	32359	32823	
733	0	33046	32871	32487	32743	32231	33360	32371	32871	
734	0	32879	32518	32551	32700	33007	32590	32479	32595	
735	0	32764	32303	32647	32503	32839	32524	32575	32702	
736	0	32834	32530	32717	32749	32796	32755	32459	32684	
737	0	32815	32575	32869	32738	32753	32855	32579	32587	
738	0	32783	32739	32975	32923	32973	32711	32557	32743	
739	0	32812	32495	32812	32765	33174	32486	32613	32834	
740	0	32775	32565	32927	33003	33183	32338	32671	32769	
741	0	32861	32623	32854	32962	33115	32605	32610	32726	
742	0	33055	32543	32343	32726	33159	32706	32583	32739	
743	0	33014	32681	32167	32645	32420	32807	32719	32603	
744	0	32967	32591	32391	32837	32347	32903	32726	32523	
745	0	32866	32563	32575	32775	32439	32993	32527	32627	
746	0	32808	32692	32703	32789	32183	32851	32582	32631	
747	0	32751	32579	33113	32676	32719	32711	32605	32610	
748	0	32559	32447	32959	32391	32927	32676	32773	32611	
749	0	32625	32391	32679	32639	32767	32655	32532	32679	
750	0	32748	32570	32391	32979	32594	32647	32537	32692	
751	0	32979	32577	32223	33107	32365	32809	32821	32505	
752	0	32920	32411	32187	32815	32100	33055	32805	32582	
753	0	32782	32507	32359	32509	32807	32885	32468	32646	
754	0	32647	32639	32505	32570	33267	32583	32428	32587	
755	0	32646	32543	32698	32903	33041	32735	32319	32703	
756	0	32780	32605	32661	32918	32773	32891	32359	32817	
757	0	32935	32647	32455	32811	32455	32943	32739	32681	
758	0	32901	32709	32588	32773	32359	33026	32543	32549	
759	0	32871	32735	32791	32503	32371	32957	32647	32919	
760	0	32660	32487	32615	32383	33179	32575	33055	32882	
761	0	32588	32530	32968	32252	33893	32285	33299	32551	
762	0	32615	32615	32807	32297	33831	32548	33932	32350	
763	0	32687	32599	32691	32593	33364	32674	33807	32443	
764	0	32743	32593	32626	32677	32615	32863	33489	32436	
765	0	32824	32671	32671	32733	32223	32999	33598	32415	
766	0	32809	32435	32671	32795	32034	32727	33303	32619	
767	0	32758	32733	32738	32877	32460	32723	33101	32671	
768	0	32848	32815	32511	33022	32831	32759	32959	32655	
769	0	32798	32635	32559	33029	32621	32759	32603	32743	
770	0	32844	32703	32823	32807	32551	32797	32604	32439	
771	0	32849	32823	32963	32882	32807	32735	32564	32661	
772	0	32723	32637	33115	32751	33143	32823	32583	32548	
773	0	32751	32613	32954	32813	33351	32839	32645	32737	
774	0	32686	32578	33159	33068	33383	33076	32516	32781	
775	0	32686	32695	33153	32925	33124	33076	32439	32759	
776	0	32903	32717	32421	32903	32297	33109	32423	32789	
777	0	32747	32670	32398	32583	32745	32775	32275	32583	
778	0	32308	32279	32935	31994	33268	32399	32097	32495	
779	0	32511	32295	32869	32296	31783	32861	32429	32479	
780	0	32784	32645	32711	32513	31518	32931	32830	32463	
781	0	32943	32707	32375	32531	32031	32815	33351	32610	
782	0	32879	32583	32319	32566	32062	32787	33404	32635	
783	0	32769	32629	32673	32846	32119	32681	32788	32687	
784	0	32767	32479	32805	32709	32476	32631	32543	32699	
785	0	32761	32763	32759	32879	32847	32549	32497	32636	
786	0	32865	32827	32627	33007	32911	32747	32502	32945	
787	0	32800	32902	32815	32827	33199	32695	32735	32799	
788	0	32675	32887	32875	33239	33150	32583	32703	32715	
789	0	32647	32911	32700	33485	33137	32551	33055	32687	
790	0	32740	32610	32791	33052	32975	32549	33078	32735	
791	0	32823	32615	32830	32743	32356	32762	32799	32659	
792	0	32754	32710	32959	32535	32343	32895	32490	32545	
793	0	32742	32509	32967	32551	32935	32647	32259	32727	
794	0	32772	32543	32795	32642	33462	32695	32043	32819	
795	0	32745	32783	32603	33007	33261	32950	32231	32734	
796	0	32767	32475	32639	32859	33115	32927	32007	32986	
797	0	32871	32769	32646	32807	33085	33111	32226	32935	
798	0	32935	32815	32647	32839	32775	33049	32927	32743	
799	0	32912	32698	32813	32804	32839	32727	34061	32431	
800	0	32835	32749	32667	32534	33111	32627	34167	32591	
801	0	32892	32577	32255	32643	32159	32845	33423	32757	
802	0	32927	32727	32391	32740	31623	32875	33223	32573	
803	0	32846	32641	32573	32807	32275	32914	33043	32455	
804	0	32574	32653	32783	32487	33029	32583	32807	32391	
805	0	32422	32271	32951	32259	33372	32225	32647	32525	
806	0	32834	32504	32685	32375	32955	32334	32791	32723	
807	0	32902	32527	32655	32747	32895	32534	32743	32581	
808	0	32747	32663	32663	32751	32898	32775	32629	32711	
809	0	32690	32635	32828	32823	33110	32817	32535	32727	
810	0	32761	32821	32875	32819	33147	32707	32575	32707	
811	0	32742	32683	32711	32815	32603	32833	32775	32697	
812	0	32743	32653	32807	32327	32532	32931	32660	32647	
813	0	32713	32525	32615	32317	32499	32981	32662	32591	
814	0	32701	32551	32785	32289	32495	32989	32723	32494	
815	0	32740	32459	33077	32407	32741	32916	32567	32694	
816	0	32817	32706	33013	32991	32919	32887	32602	32747	
817	0	32777	32670	32959	32951	32636	32956	32763	32791	
818	0	32788	32775	32659	32731	32689	32823	32727	32698	
819	0	32807	32725	32417	32999	32873	32559	32575	32663	
820	0	32714	32645	32203	32951	32975	32457	32811	32691	
821	0	32550	32577	32263	33197	33022	32613	32443	32838	
822	0	32673	32931	32951	33697	32775	32489	32525	32783	
823	0	32733	32871	32949	33527	32883	32543	32711	32669	
824	0	32887	32911	32858	33007	32519	32873	32671	32655	
825	0	32751	32717	32807	32982	32583	32842	32733	32675	
826	0	32692	32683	32791	32735	32711	32775	32886	32633	
827	0	32640	32566	32567	32813	32823	32833	32717	32639	
828	0	32740	32639	32543	32621	32698	32868	32764	32681	
829	0	32841	32595	32549	31987	32407	33015	32860	32621	
830	0	32860	32355	32575	31559	32526	33035	32931	32391	
831	0	32876	32367	32571	31535	32515	33141	32894	32663	
832	0	32786	32603	32679	32004	32871	33044	32635	32599	
833	0	32607	32599	32687	33059	33192	32644	32524	32586	
834	0	32617	32965	32971	34271	33350	32207	32551	32645	
835	0	32716	32775	32698	33603	32802	32415	32815	32821	
836	0	32879	32594	32319	32747	32463	32799	32845	32751	
837	0	32861	32703	32443	32799	32509	32896	32839	32681	
838	0	32947	32721	32633	32995	32487	32925	32839	32612	
839	0	32834	32887	32727	33055	32679	32919	32893	32775	
840	0	32782	32647	33066	32989	32629	32820	32879	32679	
841	0	32654	32751	32855	33103	32740	32814	32786	32695	
842	0	32607	32741	33167	33177	32863	32817	32629	32565	
843	0	32750	32535	32946	32631	32766	32735	32710	32719	
844	0	32575	32374	32647	32387	32999	32588	32683	32647	
845	0	32599	32558	32477	32525	32881	32644	32733	32549	
846	0	32676	32574	32511	32423	32806	32612	32709	32679	
847	0	32687	32734	32607	32791	32839	32660	32719	32671	
848	0	32727	32543	32821	33019	32802	32719	32662	32655	
849	0	32791	32645	32871	32837	32737	32807	32751	32611	
850	0	32828	32727	32858	32621	32844	32961	32895	32647	
851	0	32885	32647	32589	32687	32807	32692	32923	32743	
852	0	32861	32741	32647	32858	32759	32699	32797	32665	
853	0	32810	32722	32941	32420	32420	33055	32747	32743	
854	0	32655	32455	33065	32529	32698	32882	32783	32685	
855	0	32645	32671	32949	32791	32690	32745	32810	32815	
856	0	32647	32675	33063	32846	32941	32833	32725	32647	
857	0	32628	32421	33053	33170	32949	32823	32665	32767	
858	0	32747	32717	32694	33245	32955	32758	32815	32679	
859	0	32806	32701	32445	32953	32937	32751	32945	32623	
860	0	32727	32495	32355	32660	32675	32821	32922	32391	
861	0	32823	32731	32279	32435	32829	32691	32647	32663	
862	0	32730	32683	32557	32527	32647	32644	32677	32757	
863	0	32745	32451	32707	32447	32673	32679	32671	32845	
864	0	32820	32611	32567	32439	32487	32626	32759	32578	
865	0	32816	32534	32556	32583	32807	32509	32885	32603	
866	0	32731	32471	32479	32719	32615	32535	32867	32567	
867	0	32796	32751	32623	32989	32443	33089	32834	32623	
868	0	32829	32766	32549	33015	32475	33003	32775	32613	
869	0	32804	32719	32807	32999	32679	32915	32711	32485	
870	0	32683	32843	32975	32951	32875	32823	32654	32754	
871	0	32681	32823	32849	32745	32803	32727	32727	32715	
872	0	32719	32578	32887	32605	32914	32531	32743	32769	
873	0	32638	32567	32775	32391	32963	32603	32786	32679	
874	0	32662	32595	32647	32223	32798	32450	32807	32754	
875	0	32713	32567	32555	32623	32860	32850	32743	32636	
876	0	32804	32759	32555	33063	32739	33010	32826	32583	
877	0	32873	32689	32676	33366	32911	32879	32804	32599	
878	0	32747	32687	32583	33095	32863	32517	32875	32445	
879	0	32754	32823	32631	32977	32839	32503	32783	32668	
880	0	32754	32700	32534	32847	32718	32786	32759	32791	
881	0	32694	32687	32641	32581	32671	33025	32732	32754	
882	0	32689	32623	32427	32296	32667	33095	32717	32589	
883	0	32677	32391	32427	32082	32757	32738	32717	32783	
884	0	32831	32530	32497	32223	32625	32685	32775	32893	
885	0	32843	32687	32763	32372	32473	32855	32889	32731	
886	0	32745	32591	32903	32686	32829	32933	32878	32593	
887	0	32740	32647	33012	32859	33095	32527	32695	32783	
888	0	32679	32719	33012	32594	32863	32743	32564	32684	
889	0	32711	32518	32943	32631	32891	32739	32611	32671	
890	0	32756	32527	32593	32455	32811	32647	32827	32671	
891	0	32850	32663	32685	32455	32621	32932	32811	32786	
892	0	32903	32709	32731	32540	32372	32974	32883	32659	
893	0	32783	32511	32878	32647	32915	32623	32807	32429	
894	0	32679	32655	32655	32843	33087	32641	32719	32691	
895	0	32712	32647	32501	32861	32983	32679	32751	32731	
896	0	32831	32831	32495	32855	32613	32790	32605	32700	
897	0	32916	32695	32322	32923	32429	33153	32514	32827	
898	0	32817	32731	32567	32847	32471	32954	32553	32722	
899	0	32836	32558	32647	32594	32252	32897	32660	32628	
900	0	32636	32606	32743	32435	32815	32539	32939	32771	
901	0	32617	32551	32699	32447	33132	32331	32820	32594	
902	0	32684	32385	32757	32612	32927	32626	32670	32875	
903	0	32679	32603	32575	32474	32818	32989	32391	32766	
904	0	32708	32871	32519	32639	33003	32829	32441	32711	
905	0	32757	32724	32455	32759	33111	32743	33007	32603	
906	0	32695	32658	32455	32807	32887	32663	33037	32519	
907	0	32724	32541	32577	32799	32791	32559	33221	32427	
908	0	32881	32631	32621	32710	32551	32924	33019	32775	
909	0	32825	32799	32635	32647	32426	32999	32871	32737	
910	0	32807	32692	32565	32519	32423	32875	32890	32543	
911	0	32798	32754	32911	32463	32586	32815	32827	32572	
912	0	32841	32759	32805	32749	32767	32861	32591	32843	
913	0	32824	32767	32555	32589	32451	33015	32593	32578	
914	0	32663	32450	32850	32421	32847	32647	32599	33078	
915	0	32610	32619	32788	32459	32941	32667	32756	32863	
916	0	32659	32647	32647	32473	32795	32959	32783	32773	
917	0	32776	32541	32722	32583	32933	32717	32839	32383	
918	0	32715	32707	32854	32765	33124	32711	32775	32463	
919	0	32717	32751	32821	32939	33309	32511	32803	32399	
920	0	32724	32646	32703	33157	32919	32455	32873	32487	
921	0	32775	32813	32637	33283	32399	32759	32756	32571	
922	0	32922	32831	32685	33319	32391	32901	32829	32715	
923	0	32780	32875	32735	33127	32467	32783	32879	32811	
924	0	32750	32559	32647	33087	32469	32785	32870	32815	
925	0	32711	32709	32767	33131	32540	32687	32789	32803	
926	0	32627	32671	32879	33028	33003	32463	32854	32621	
927	0	32644	32422	32754	32959	33278	32762	32623	32775	
928	0	32796	32758	32805	32951	33633	32822	32647	32711	
929	0	32790	32761	32719	32983	33975	32685	32669	32685	
930	0	32709	32469	32852	32775	33577	32621	33025	32570	
931	0	32703	32603	32925	32555	32927	32767	32809	32535	
932	0	32717	32603	32743	32324	32415	32939	32599	32501	
933	0	32706	32413	32629	32443	32535	32935	32285	32756	
934	0	32676	32635	32715	32663	32007	33207	32346	32773	
935	0	32775	32591	32687	32647	31348	33014	32663	32501	
936	0	32934	32821	32354	32621	31139	32863	32997	32557	
937	0	32903	32863	32276	32715	31555	32869	32977	32453	
938	0	32931	32814	32367	32742	32357	32826	32883	32775	
939	0	32762	32591	32513	32846	32887	32967	33027	32765	
940	0	32817	32682	32662	32809	32942	32726	32962	32658	
941	0	32639	32676	32703	32771	33175	32477	32623	32727	
942	0	32674	32411	32617	32694	33484	32391	32642	32751	
943	0	32763	32646	32645	32743	32642	32775	32719	32782	
944	0	32791	32743	32599	32700	32559	32468	32631	32607	
945	0	32752	32603	32844	32577	32839	32423	32585	32278	
946	0	32714	32711	33159	32527	32839	32612	32466	32605	
947	0	32695	32511	33053	32604	32998	32775	32297	32717	
948	0	32596	32723	32935	32747	33575	32471	32759	32683	
949	0	32594	32743	32805	32847	33389	32636	33335	32879	
950	0	32694	32543	32711	33023	32911	32903	33179	32951	
951	0	32823	32727	32757	32898	32871	33093	33095	32773	
952	0	32839	32727	32767	32831	32719	33301	32991	32515	
953	0	32727	32679	32658	32937	33037	33111	32639	32575	
954	0	32673	32421	32775	32785	33223	32900	32407	32928	
955	0	32628	32519	32871	32669	33663	32604	32406	32699	
956	0	32696	32707	32769	32559	32759	32374	32903	32116	
957	0	32757	32503	32645	32617	32127	32967	32579	32687	
958	0	32797	32655	32631	32645	32123	33148	32607	33191	
959	0	32732	32655	32685	32686	32695	32866	33119	32938	
960	0	32775	32465	32647	32715	32833	32647	33215	32501	
961	0	32725	32633	32837	32775	33079	32455	33279	32598	
962	0	32775	32673	32837	32751	33131	32477	33063	32460	
963	0	32787	32617	32726	32797	33279	32795	32703	32810	
964	0	32800	32743	32731	32877	33085	33079	32581	32623	
965	0	32761	32749	32839	32941	32854	32775	32447	32423	
966	0	32799	32970	32751	33085	31919	32923	32511	32255	
967	0	32775	32686	32759	33095	31295	32721	32669	32054	
968	0	32762	32647	32743	32787	32725	32413	32369	32517	
969	0	32693	32523	32991	32591	34055	31973	32547	32467	
970	0	32732	32605	32775	32445	33787	32031	32565	32692	
971	0	32766	32453	32603	32620	32469	32423	32383	32633	
972	0	32877	32790	32319	32703	31527	33279	32189	32460	
973	0	32805	32623	32404	32661	31747	33127	32827	32709	
974	0	32811	32683	32499	32603	32015	32667	33295	32758	
975	0	32820	32775	32713	32516	32147	32663	33131	32873	
976	0	32672	32415	33185	32415	32699	33012	32771	32813	
977	0	32559	32547	33175	32487	32739	33063	32735	32827	
978	0	32700	32676	32695	32719	32685	33309	32820	32839	
979	0	32806	32655	32713	32953	32647	33727	33000	32849	
980	0	32855	32891	32775	33095	33021	33511	32727	33069	
981	0	32688	32687	32911	33001	33651	32485	32698	32951	
982	0	32525	32357	33311	32701	33153	32611	33079	32719	
983	0	32545	32620	33015	32769	33105	32691	32991	32708	
984	0	32666	32607	32742	32839	32967	32388	32845	32495	
985	0	32767	32541	32591	32823	33159	32197	32655	32749	
986	0	32799	32655	32799	32543	33159	32239	32773	32527	
987	0	32774	32647	32701	32249	33215	32583	32588	32700	
988	0	32775	32500	32507	32258	32903	33044	32412	32699	
989	0	32856	32655	32487	32316	32775	32755	32526	32508	
990	0	32933	32826	32517	32527	32927	32535	32571	32566	
991	0	32820	32692	32483	32748	33023	32405	32471	32261	
992	0	32791	32702	32575	32839	32423	32918	32429	32467	
993	0	32799	32715	32681	32807	32349	33235	32702	32123	
994	0	32852	32501	32732	32911	32365	32883	32699	32443	
995	0	32705	32615	32830	32829	32559	32633	32774	32405	
996	0	32596	32599	32911	32772	32627	32661	32941	32835	
997	0	32765	32445	32851	32798	32767	32716	32927	33223	
998	0	32772	32735	32611	32773	33159	32674	32775	33463	
999	0	32831	32811	32647	32747	32983	32647	32890	32775	
1000	0	32827	32615	32679	32875	32157	32848	32847	32668	
1001	0	32807	32823	32527	32984	32147	33389	32663	32597	
1002	0	32850	32855	32498	32846	32823	32962	32804	32323	
1003	0	32932	32733	32450	32935	32893	32757	32892	32935	
1004	0	32861	32719	32401	32919	32739	32815	32927	32564	
1005	0	32703	32563	32775	32711	33094	32635	32677	32595	
1006	0	32647	32437	33171	32582	33159	32308	32951	32583	
1007	0	32592	32439	33307	32607	32962	32071	33022	32385	
1008	0	32755	32631	32815	32903	32702	32620	33041	32319	
1009	0	32804	32771	32586	32932	32365	32823	32700	32767	
1010	0	32793	32623	32587	32811	32604	33101	32743	33236	
1011	0	32753	32659	32759	32783	32851	33147	32871	33015	
1012	0	32903	32767	32557	33012	32521	33047	32869	32569	
1013	0	32925	32748	32621	33019	32477	32847	32797	32558	
1014	0	32804	32383	32567	32871	32571	32738	32690	32592	
1015	0	32802	32615	32551	32725	32815	32735	32623	32855	
1016	0	32848	32695	32421	32647	32687	33014	32631	32439	
1017	0	32754	32555	32621	32567	32558	32713	32757	32433	
1018	0	32724	32647	32582	32534	32463	32682	32855	32551	
1019	0	32727	32668	32663	32621	32647	32791	32983	32623	
1020	0	32669	32486	32821	32550	32721	32709	32831	32731	
1021	0	32759	32583	32605	32367	32541	32716	32954	32834	
1022	0	32740	32555	32553	32391	32415	32791	33029	32804	
1023	0	32667	32623	32655	32487	32549	33042	32839	32878	
1024	0	32735	32759	32679	32471	32343	33381	32615	32647	
1025	0	32761	32707	32463	32401	32327	33316	32487	32655	
1026	0	32783	32637	32518	32361	32895	32509	32430	32407	
1027	0	32811	32641	32523	32489	32571	32655	32361	32423	
1028	0	32716	32686	32567	32567	32812	32503	32291	32687	
1029	0	32591	32519	32827	32692	32514	32535	32390	32569	
1030	0	32590	32466	32793	32855	32343	32605	32535	32915	
1031	0	32625	32535	32799	32999	32214	32930	32767	32663	
1032	0	32769	32719	32701	32826	32199	32852	32917	32479	
1033	0	32868	32647	32415	32615	32409	32791	32957	32647	
1034	0	32824	32647	32553	32507	32487	32666	32948	32691	
1035	0	32743	32621	32751	32273	32725	32519	32959	32713	
1036	0	32679	32477	32655	32263	32590	32543	32783	32487	
1037	0	32647	32519	32580	32475	32284	32791	32812	32679	
1038	0	32631	32570	32519	32491	32214	32741	32841	32795	
1039	0	32699	32583	32588	32389	32221	32570	32787	32675	
1040	0	32793	32765	32605	32575	32359	32638	32775	32695	
1041	0	32850	32603	32687	32693	32327	32815	32723	33079	
1042	0	32903	32701	32647	32685	32131	33031	32866	32540	
1043	0	32805	32780	32855	32751	32331	32863	32823	32676	
1044	0	32763	32743	32917	32735	32579	32783	32805	32807	
1045	0	32775	32551	32481	32845	32646	32687	32807	32647	
1046	0	32671	32539	32534	32836	32815	32287	32725	32863	
1047	0	32752	32582	32519	32927	32730	32511	32740	32340	
1048	0	32743	32612	32251	33023	32534	32707	32615	32472	
1049	0	32813	32783	32447	32741	32673	32599	32771	32676	
1050	0	32665	32541	32867	32491	32706	32633	32751	32775	
1051	0	32637	32647	32894	32660	32607	32933	32607	32757	
1052	0	32669	32761	32969	32775	32263	33159	32765	32583	
1053	0	32865	32595	32771	32671	31996	33569	32839	32679	
1054	0	32891	32749	32127	32571	32190	33585	32660	33054	
1055	0	32900	32647	32058	32629	32574	32939	32677	32637	
1056	0	32825	32499	32543	32717	32995	32837	32599	32819	
1057	0	32700	32485	32579	32835	33227	32895	32538	32797	
1058	0	32782	32555	32183	32722	33445	32890	32567	32685	
1059	0	32968	32583	32022	32935	33130	32775	32644	32535	
1060	0	33001	32755	32263	33223	32759	32759	32735	32553	
1061	0	32962	32795	32647	33199	33079	32551	32599	32495	
1062	0	32871	32903	32687	33113	33315	32462	32687	32543	
1063	0	32745	32707	33177	32891	33611	32609	32655	32619	
1064	0	32543	32637	33577	32659	33439	32419	32615	33145	
1065	0	32595	32595	33415	32580	33447	32435	32927	32642	
1066	0	32714	32431	33127	32466	33644	32467	32935	32327	
1067	0	32729	32655	32847	32630	33586	32639	32895	32517	
1068	0	32701	32627	32695	32437	33457	32935	32755	32987	
1069	0	32705	32619	32541	32566	33445	33133	32667	32982	
1070	0	32754	32595	32591	32647	33503	33342	32707	32815	
1071	0	32711	32626	32763	32692	33569	32937	32831	32415	
1072	0	32822	32764	32759	32855	33237	33351	32757	32279	
1073	0	32814	32927	32585	33037	33343	33245	32599	32713	
1074	0	32737	32583	32935	32971	33767	33058	32737	32887	
1075	0	32424	32514	33350	32775	33670	32342	33061	32605	
1076	0	32439	32539	33447	32890	33721	32039	32914	32883	
1077	0	32710	32434	32954	32759	33702	32093	32756	32749	
1078	0	32765	32644	32855	32463	33884	32447	32596	32527	
1079	0	32734	32562	32807	32498	33817	32731	32661	32483	
1080	0	32658	32540	32643	32709	33549	32858	32671	32684	
1081	0	32761	32487	32587	32903	33591	32932	32763	32903	
1082	0	32734	32637	32757	33066	33383	32671	32983	32795	
1083	0	32750	32705	32695	32835	32951	32879	32918	32719	
1084	0	32927	32733	32198	32791	32943	32703	32954	32554	
1085	0	33031	32751	32086	32599	32941	32790	32975	32529	
1086	0	32951	32739	32311	32263	32845	32615	33033	32575	
1087	0	32902	32475	32199	32287	32759	32615	32920	32739	
1088	0	32789	32581	32601	32613	32637	32773	32758	32613	
1089	0	32685	32553	33175	32748	32967	32759	32775	32751	
1090	0	32789	32662	32773	33007	32631	32875	32775	32511	
1091	0	32903	32711	32175	33082	32533	32852	32715	32491	
1092	0	32820	32655	32679	32925	32731	32731	32685	32508	
1093	0	32456	32450	33437	32605	32929	32199	32879	32567	
1094	0	32465	32279	33129	32615	32903	32773	32821	32564	
1095	0	32665	32603	32590	32629	32591	33039	32705	32831	
1096	0	32757	32735	32647	32702	32722	32959	32635	32967	
1097	0	32751	32563	32643	32575	32722	32607	32698	32887	
1098	0	32709	32607	32678	32503	32773	32399	32752	32293	
1099	0	32840	32818	32595	32580	32567	32991	32743	32526	
1100	0	32928	32903	32571	32647	32396	32903	32761	32559	
1101	0	32915	32647	32567	32661	32471	32851	32855	32607	
1102	0	32851	32647	32740	32639	32342	32797	32685	32764	
1103	0	32909	32533	33103	32677	32415	32761	32863	32612	
1104	0	32690	32665	32820	32839	32615	32730	32757	32647	
1105	0	32846	32775	32636	33030	32545	32919	32755	32559	
1106	0	32847	32727	32699	33133	32431	32719	32765	32513	
1107	0	32799	32751	32539	33075	32631	32732	32637	32647	
1108	0	32663	32703	32687	33047	32551	32781	32715	32564	
1109	0	32726	32751	32765	32997	32209	33143	32635	32676	
1110	0	32786	32679	32469	32955	32702	32735	32647	32621	
1111	0	33020	32679	32259	32764	32861	32447	32677	32847	
1112	0	33006	32719	32468	32603	32833	32543	32860	32812	
1113	0	32897	32723	32574	32633	32543	32647	32870	32861	
1114	0	32745	32495	32807	32858	32339	32854	32767	32811	
1115	0	32790	32677	32787	32844	32255	33039	32765	32543	
1116	0	32943	32743	32635	32814	32355	33083	32821	32493	
1117	0	32822	32602	32642	32582	32891	32695	32639	32740	
1118	0	32634	32633	32966	32611	32865	32605	32743	32806	
1119	0	32454	32493	33415	32619	32551	32629	32759	32769	
1120	0	32647	32463	33151	32711	32644	32930	32820	32543	
1121	0	32764	32757	32871	32483	32485	32829	32775	32461	
1122	0	32704	32799	32987	32489	32415	32771	32711	32560	
1123	0	32754	32515	32946	32662	32647	32692	32715	32615	
1124	0	32728	32671	32823	32854	32751	32745	32717	32839	
1125	0	32681	32726	33159	32943	32513	32873	32791	32795	
1126	0	32727	32631	32732	32884	32551	32914	32717	32663	
1127	0	32759	32687	32412	32879	32690	32823	32675	32787	
1128	0	32748	32605	32423	33007	32503	32443	32914	32703	
1129	0	32893	32846	32373	33178	32821	32495	32835	32523	
1130	0	33028	32885	32219	32941	33174	32287	32743	32429	
1131	0	33001	33022	32279	32814	32857	32715	32761	32593	
1132	0	32915	32851	32397	32863	32431	33159	32579	32703	
1133	0	33061	32859	32757	32708	32479	32977	32615	32611	
1134	0	32903	32589	32969	32477	33090	32331	32703	32596	
1135	0	32633	32496	33439	32411	32787	32379	32957	32903	
1136	0	32548	32391	33439	32307	32719	32611	32723	32807	
1137	0	32624	32563	32735	32311	32543	33007	32621	32978	
1138	0	32366	32343	33204	32202	32831	32985	32717	33095	
1139	0	32204	32100	33831	32281	32854	32967	32967	32895	
1140	0	32634	32687	32748	32903	32135	33550	32867	32887	
1141	0	32868	32827	32475	33063	32707	33399	32807	32675	
1142	0	32982	32791	32161	33061	32258	33259	33039	32143	
1143	0	32921	32759	32534	33113	32080	33223	33044	32195	
1144	0	32726	32834	33079	33115	32196	33017	32997	32281	
1145	0	32571	32757	33287	32989	32245	32973	32903	32367	
1146	0	32658	32677	32903	32845	32559	32757	32940	32347	
1147	0	32746	32647	32530	32602	33453	32285	32725	32635	
1148	0	32699	32607	33019	32673	32995	32490	32597	32790	
1149	0	32663	32471	33347	32527	32703	32659	32611	32941	
1150	0	32766	32615	33135	32457	32615	32935	32321	33047	
1151	0	32672	32583	32869	32390	33437	32617	32399	33159	
1152	0	32785	32532	32551	32434	32983	32818	32586	33143	
1153	0	32816	32671	32550	32461	32462	33087	32547	32869	
1154	0	32724	32518	32702	32451	32585	32434	32699	32343	
1155	0	32610	32463	32806	32386	32372	31910	32815	32075	
1156	0	32764	32487	32421	32343	32513	32511	32702	32413	
1157	0	33055	32677	32175	32523	32775	32803	32647	32293	
1158	0	32998	32683	32447	32623	33031	32823	32723	32669	
1159	0	32829	32701	33006	32457	32803	32378	33174	32868	
1160	0	32720	32499	33095	32549	32875	32106	33199	32552	
1161	0	32623	32483	32727	32700	33220	32119	33159	32601	
1162	0	32757	32615	32827	32863	33139	32423	32935	32701	
1163	0	32850	32578	32706	33059	32391	33431	32684	32639	
1164	0	32948	32903	32623	33159	32071	33663	32509	32951	
1165	0	32916	32887	32895	33125	32583	32769	32530	32742	
1166	0	32783	32575	32871	32885	32495	32647	32789	32283	
1167	0	32568	32673	33095	32847	32987	32567	32935	32659	
1168	0	32586	32605	33151	32891	32999	32933	32998	32540	
1169	0	32683	32613	32865	32923	32519	33427	33142	32255	
1170	0	32860	32597	32257	32919	32351	32950	33127	32582	
1171	0	32827	32679	32347	32807	32471	32917	33102	32959	
1172	0	32823	32751	32473	32795	32701	33029	32943	32577	
1173	0	32734	32698	32775	32761	32903	32679	32642	32596	
1174	0	32398	32308	33613	32813	32935	31911	32850	32423	
1175	0	32603	32615	32903	33031	32949	32007	32787	32511	
1176	0	32777	32647	32491	33071	32757	32263	32734	32398	
1177	0	32823	32755	32217	32891	33260	32001	32551	32562	
1178	0	32898	32591	32175	32903	33174	32335	32325	32895	
1179	0	33040	32919	32255	32942	32451	33660	32300	33075	
1180	0	33018	32811	32342	33007	32391	33762	32610	33347	
1181	0	32903	32804	32590	32789	32628	33332	32527	33154	
1182	0	32731	32639	32691	32482	32349	32974	32505	32817	
1183	0	32700	32487	32315	31973	32594	32404	32581	33117	
1184	0	32871	32351	31791	31999	33247	32621	32170	33959	
1185	0	32796	32612	32013	32027	33099	32719	32759	33510	
1186	0	32751	32483	32457	31970	33079	32852	33067	32869	
1187	0	32738	32709	32538	32167	32875	32827	33019	32612	
1188	0	32804	32409	32403	32413	32899	32792	33213	32379	
1189	0	32916	32595	32473	32850	32866	32733	32927	31678	
1190	0	32991	32698	32482	33125	32967	32443	32837	31593	
1191	0	32839	32859	32807	33299	31811	33007	32844	31535	
1192	0	32820	32807	32553	33415	32017	32970	32613	31774	
1193	0	32645	32455	32557	33203	32598	32343	32629	32071	
1194	0	32347	32351	33093	32959	33279	31653	32225	32741	
1195	0	32293	32491	33114	33079	33767	31187	32453	33014	
1196	0	32580	32692	32511	32978	33255	32111	32714	33031	
1197	0	32628	32751	32443	32999	33328	32881	32758	33829	
1198	0	32818	33031	32291	33415	32420	34246	32967	33669	
1199	0	32835	32741	32287	33336	32551	33441	33095	32701	
1200	0	32817	32783	32580	33130	32695	32973	33078	32601	
1201	0	32915	32735	32455	32999	32474	33067	33099	32887	
1202	0	32900	32598	32326	32758	32155	33607	33353	32357	
1203	0	32847	32805	32535	32647	32358	33501	33346	32299	
1204	0	32950	32875	32647	32742	32374	33555	33245	32535	
1205	0	32873	32686	32899	32471	32462	32943	32919	32378	
1206	0	32676	32711	32892	32357	32815	32125	32435	32663	
1207	0	32458	32647	33031	32487	33195	31623	32347	32695	
1208	0	32542	32638	32694	32687	33413	31987	32305	32669	
1209	0	32849	32771	32375	32687	32941	32405	32411	32585	
1210	0	32917	32721	32511	32462	32197	32663	32935	32326	
1211	0	32789	32493	32588	32299	32527	32475	33062	32634	
1212	0	32689	32542	32629	32255	32642	32319	33522	32342	
1213	0	32647	32599	32531	32391	32578	32563	33492	32711	
1214	0	32645	32441	32735	32635	32487	33133	32983	33412	
1215	0	32659	32633	32642	32692	32533	33396	32373	33037	
1216	0	32684	32501	32465	32765	32247	33567	31239	33244	
1217	0	32756	32559	32627	32705	32565	33134	30687	32371	
1218	0	32608	32411	32831	32530	33634	32197	30742	32430	
1219	0	32682	32629	32743	32493	34119	31521	30925	32775	
1220	0	32706	32807	32743	32684	33627	32730	30646	33271	
1221	0	32863	33071	32692	32832	33046	33079	31318	33415	
1222	0	32701	32559	33022	32684	33254	32358	32430	33191	
1223	0	32552	32435	33020	32463	33447	32319	33047	32996	
1224	0	32634	32599	32643	32535	32879	32982	33730	32845	
1225	0	32871	32615	32557	32755	32276	33463	34541	32820	
1226	0	32850	32679	32623	32903	32471	32875	34695	32418	
1227	0	32711	32663	32565	32919	32786	32453	34646	32102	
1228	0	32766	32590	32647	32703	32659	32447	34371	32027	
1229	0	32767	32719	32644	32799	32446	32221	33823	32367	
1230	0	32700	32823	32561	32953	32927	32263	33353	32679	
1231	0	32810	32910	32711	33344	32355	33206	33285	32813	
1232	0	32957	32827	32726	33259	31780	33377	33105	32447	
1233	0	32958	32861	33174	33108	31853	33372	32462	32727	
1234	0	32887	32607	32581	33031	33159	33023	32308	32735	
1235	0	32738	32531	32389	32801	33625	32759	32174	32709	
1236	0	32812	32735	32545	32793	32903	32751	32310	31951	
1237	0	32685	32406	32687	32789	32067	32748	32493	32087	
1238	0	32678	32571	32482	32851	32358	33255	32477	32483	
1239	0	32890	32807	32575	32823	32319	33490	31943	32761	
1240	0	32611	32338	32804	32485	32647	32813	31935	32851	
1241	0	32565	32444	32787	32391	32821	32123	32135	32463	
1242	0	32711	32439	32590	32391	32839	32093	32532	32054	
1243	0	32769	32665	32341	32595	32999	32373	32847	32589	
1244	0	32919	32519	32495	32710	32895	32714	33243	33119	
1245	0	32633	32685	32644	32819	33300	33159	33613	33261	
1246	0	32577	32699	33127	32847	33913	32845	33591	32759	
1247	0	32727	32884	33052	32981	32807	33024	33484	32615	
1248	0	32775	32564	32903	32871	32327	33399	33356	32365	
1249	0	32759	32655	32575	32719	32911	33039	33083	32797	
1250	0	32756	32706	32477	32548	32773	32555	32775	32695	
1251	0	32798	32499	32455	32459	32724	32287	32415	32671	
1252	0	33046	32883	32258	32789	32207	33053	32212	32799	
1253	0	32914	32709	32391	32877	32679	33207	32353	33243	
1254	0	32751	32687	33042	32865	32581	33549	32871	32687	
1255	0	32417	32351	33115	32628	32301	33107	33492	32071	
1256	0	32391	32419	32989	32588	32118	32823	33639	32208	
1257	0	32564	32657	33721	32714	32463	32445	32807	32576	
1258	0	32594	32687	34071	32759	32751	32589	32005	32543	
1259	0	32641	32909	33639	33106	32842	32623	31252	32085	
1260	0	32872	32789	32987	33146	33242	32011	30957	31507	
1261	0	32854	32751	32591	32695	33228	31683	30447	32534	
1262	0	32866	32508	32334	32447	32970	32305	30364	33213	
1263	0	32663	32588	32339	32375	33369	32327	30251	33818	
1264	0	32458	32323	31989	32258	33330	32941	30969	33685	
1265	0	32427	32510	31814	32279	33234	33364	32255	33535	
1266	0	32677	32618	31847	32327	33513	32751	34343	33447	
1267	0	32779	32711	32068	32463	33339	32639	35151	33111	
1268	0	32782	32463	32219	32621	33329	32574	35463	32887	
1269	0	33090	32903	31995	32775	33313	32929	35479	32743	
1270	0	32998	32939	32007	32882	33711	33075	35703	32607	
1271	0	32672	32694	32199	33036	33359	32935	35097	32511	
1272	0	32669	32678	32535	32964	33159	32903	34091	32549	
1273	0	32768	32899	32967	32895	33380	32851	33543	32322	
1274	0	32670	32570	32956	32769	32726	32930	33091	32295	
1275	0	32443	32549	33109	32418	32633	32692	32894	32323	
1276	0	32559	32661	32997	32575	32143	32631	33159	32399	
1277	0	32926	32663	32691	32861	31719	32733	33567	32482	
1278	0	33029	32870	32548	32979	31350	33057	33177	32407	
1279	0	33001	32933	32620	32967	30983	33353	32862	32411	
1280	0	32985	32733	32427	32861	31894	32962	32694	32423	
1281	0	32989	32791	32420	32619	32052	32871	32519	32454	
1282	0	32541	32423	33222	32028	32922	32356	31759	32506	
1283	0	32489	32335	33239	32020	33142	32594	31287	32608	
1284	0	32810	32663	32775	32412	32937	32903	31671	32537	
1285	0	33050	32719	32483	32823	32783	32727	32097	32726	
1286	0	32977	32756	32695	32997	32799	32430	32077	33063	
1287	0	32769	32789	32658	32895	32789	32584	32247	32807	
1288	0	32663	32666	32887	32767	33271	32607	32359	32700	
1289	0	32601	32658	33025	32725	33773	32594	32251	32771	
1290	0	32775	32583	32961	32543	33599	32547	31993	32811	
1291	0	32807	32629	32773	32661	33107	32729	32365	32563	
1292	0	32759	32543	32567	32564	32415	32694	32455	32507	
1293	0	32742	32703	32783	32658	32367	32924	33091	32463	
1294	0	32796	32791	32689	32643	32451	33053	33669	32563	
1295	0	32854	32853	32933	32657	32607	33045	33485	32573	
1296	0	32773	32515	33030	32802	32923	32935	33189	32588	
1297	0	32831	32759	32913	32899	33303	32853	32876	32791	
1298	0	32961	32839	32646	32979	33791	32894	32782	32823	
1299	0	32634	32525	32839	32927	34072	32711	32003	32717	
1300	0	32468	32415	32918	32647	34234	32931	31465	32809	
1301	0	32541	32677	33069	32763	34127	32806	31218	32767	
1302	0	32509	32517	33090	32515	33439	32559	30487	33147	
1303	0	32666	32491	32967	32431	31079	32731	30540	33136	
1304	0	32873	32871	32775	32847	30188	32892	32281	32843	
1305	0	32740	32862	32775	32695	30495	32853	33361	32549	
1306	0	32759	32789	32759	32699	31055	32823	33461	32382	
1307	0	32527	32295	32735	32040	31775	32579	33006	32263	
1308	0	32596	32423	32631	32190	32399	32469	33083	32371	
1309	0	32914	32727	32135	32703	32555	32482	34167	32351	
1310	0	32863	32674	32322	32680	33530	32503	34663	32415	
1311	0	32830	32687	32423	32615	33234	32703	33708	32567	
1312	0	32765	32527	32493	32711	32863	32355	32937	32555	
1313	0	32740	32427	32585	32614	32937	32500	32743	32733	
1314	0	32899	32771	32633	32814	33319	33055	33351	32855	
1315	0	32964	32886	32519	32901	33665	32945	34343	32715	
1316	0	33037	32807	32527	32983	33677	32825	33767	32747	
1317	0	32982	32691	32671	32927	33127	32815	32807	32901	
1318	0	32765	32387	32621	32754	32791	32743	32571	32847	
1319	0	32690	32583	32695	32591	32631	33207	32580	32615	
1320	0	32716	32665	32541	32775	32051	33781	32261	32563	
1321	0	32721	32431	32623	32715	32351	33158	32252	32694	
1322	0	32834	32655	32485	32855	32727	32756	32621	32644	
1323	0	32775	32687	32509	32875	32775	32538	32487	32631	
1324	0	32658	32429	32697	32818	32718	32790	32263	32675	
1325	0	32831	32743	32687	32823	32391	32837	32391	32507	
1326	0	32866	32791	32861	32647	32447	32803	32455	32539	
1327	0	32706	32449	32874	32207	32735	32727	32471	32530	
1328	0	32631	32373	33207	32123	32571	32813	32538	32255	
1329	0	32621	32369	33028	32526	32855	32743	32490	32372	
1330	0	32847	32455	32927	32701	32899	32797	32498	32620	
1331	0	32820	32663	33052	32743	32868	32763	32287	32487	
1332	0	32606	32636	33151	32749	32997	32575	32357	32795	
1333	0	32704	32755	33110	32703	33356	32605	32135	33035	
1334	0	32918	32751	32837	32883	33220	32685	32491	32971	
1335	0	33023	32823	32851	33007	33079	32711	32359	32983	
1336	0	32944	32631	32973	32979	32758	32551	32535	32887	
1337	0	32787	32615	32599	32839	33045	32626	32631	32811	
1338	0	32871	32683	32285	32871	32215	32999	33197	32681	
1339	0	32858	32554	32175	32903	31575	33079	33267	32615	
1340	0	32811	32775	32274	33011	31700	32831	33614	32623	
1341	0	32802	32804	32055	33069	31434	32867	33695	32554	
1342	0	32748	32545	31879	32775	31623	33063	33694	32546	
1343	0	32720	32639	31855	32641	32187	33117	34164	32477	
1344	0	32706	32625	31895	32587	33143	32883	35146	32542	
1345	0	32407	32461	31979	32644	33555	32378	34295	32455	
1346	0	32476	32751	31855	32821	33175	32647	33375	32423	
1347	0	32641	32765	32191	32886	33111	32534	32811	32679	
1348	0	32838	32507	32590	32613	33106	32358	32263	32676	
1349	0	32745	32515	32799	32635	32727	32765	32154	32677	
1350	0	32591	32511	32692	32381	33125	32805	31703	32666	
1351	0	32615	32327	32935	32343	33499	32207	31583	32791	
1352	0	32835	32645	33061	32639	33711	32159	31885	32980	
1353	0	32816	32835	33055	32921	32787	33375	31766	33089	
1354	0	32674	32927	33287	32827	32534	33524	31583	32854	
1355	0	32686	32772	33330	32743	32391	32755	31915	32783	
1356	0	32839	32775	33323	32609	32755	32481	32287	32887	
1357	0	32871	32607	33797	32627	32583	32671	33142	32775	
1358	0	32868	32749	33773	32615	32195	32926	32889	32817	
1359	0	32896	32807	33343	32921	33047	32655	32775	32838	
1360	0	33043	32725	33053	32957	33713	32505	33219	32775	
1361	0	32863	32885	33159	32707	33671	32551	32542	32679	
1362	0	33015	32910	32683	32452	33643	32807	32727	32557	
1363	0	33136	32743	32391	32531	32732	32995	33223	32511	
1364	0	32995	32863	32263	32695	32930	32788	33197	32597	
1365	0	32936	32999	31871	32753	32475	32871	32791	32786	
1366	0	32950	32699	31711	32653	32069	32747	32421	32765	
1367	0	33043	32655	31799	32655	31879	32677	32680	32687	
1368	0	33213	32621	31747	32607	31074	33076	32167	32735	
1369	0	33197	32810	31962	32647	31367	33219	32789	32577	
1370	0	33549	32985	32154	32873	32295	32943	32806	32868	
1371	0	33337	32730	32602	32775	33260	33204	32358	32853	
1372	0	32819	32289	32897	32391	34244	32902	32087	32727	
1373	0	32751	32071	33022	32215	33831	32615	31847	32622	
1374	0	32748	32135	32566	32415	33839	32423	31050	32887	
1375	0	32977	32325	32180	32415	33923	32463	31049	32919	
1376	0	33042	32307	31910	32135	33159	32668	31052	32954	
1377	0	33204	32402	31694	32231	31943	32989	32407	32791	
1378	0	33349	32391	32045	32759	31278	32756	34752	32512	
1379	0	33380	32435	32147	32527	30905	32783	35015	32238	
1380	0	32887	32231	32348	32318	32073	32710	34183	32435	
1381	0	32322	32100	32703	32207	33333	32541	33383	32555	
1382	0	32225	31850	32719	32303	33391	32903	33074	32609	
1383	0	32209	31910	32323	32335	33954	33119	33415	32295	
1384	0	32038	31951	32199	32257	34023	32687	34133	32066	
1385	0	31845	32199	32647	32425	33287	32595	34182	32033	
1386	0	32038	32251	32599	32821	32340	32948	33494	31989	
1387	0	32075	32429	33028	32802	32118	32833	32838	32100	
1388	0	32434	32572	32951	33235	30587	32871	31991	32018	
1389	0	32662	32627	32801	33799	30059	33371	31492	32133	
1390	0	32679	32722	33086	34083	31493	33620	32319	31996	
1391	0	32256	32639	33447	33885	34275	32899	31458	32207	
1392	0	31950	32487	33503	33524	35263	32740	30864	32263	
1393	0	32013	32623	33302	33167	33543	33076	31010	32311	
1394	0	31940	32578	33084	32919	31970	32951	30796	32807	
1395	0	32274	32831	32809	33502	31463	33359	32279	32967	
1396	0	32651	33373	32911	33619	31907	33008	35180	32595	
1397	0	32770	33719	32927	33799	31183	32421	37063	32145	
1398	0	32156	33069	33319	32829	32455	32412	36042	31903	
1399	0	31473	32326	34013	31446	33415	32283	34177	32129	
1400	0	31985	32710	33858	31878	31805	32481	33209	32858	
1401	0	32629	33174	33573	32885	31154	32861	35395	32894	
1402	0	32791	33287	33364	32757	32971	32363	35666	33494	
1403	0	32851	33327	33065	32581	33437	32327	34215	33829	
1404	0	32595	33050	32989	32353	33627	32327	32787	33844	
1405	0	32303	32917	33091	32143	34495	31789	31869	33742	
1406	0	32501	33185	33237	33031	33777	31807	32057	33827	
1407	0	32714	33121	33191	33695	32852	32103	32418	33603	
1408	0	32633	33190	32828	33461	32710	32679	32055	33207	
1409	0	32543	33052	32711	33003	33757	32606	31985	32836	
1410	0	32567	32949	32729	32627	33817	32423	31849	32411	
1411	0	32967	32929	32365	32719	33111	32533	32023	32583	
1412	0	33285	33255	32239	33081	31962	32759	31967	32518	
1413	0	33415	33025	32135	32879	31939	32703	32031	32599	
1414	0	33428	32993	32135	32719	32066	32771	31758	32743	
1415	0	33277	32823	32375	32423	32167	32893	31802	32599	
1416	0	33061	32463	32268	32429	32902	32829	31997	32474	
1417	0	33020	32653	32647	32383	32983	32911	31423	32647	
1418	0	32934	32698	32689	32363	32724	32941	31632	32711	
1419	0	33054	32535	32433	32669	32039	33421	31725	32443	
1420	0	32992	32782	32722	33005	32301	32999	31076	32535	
1421	0	33088	32850	33015	32991	33079	32489	31071	32658	
1422	0	33100	32647	32731	32807	33769	32862	32033	32820	
1423	0	32925	32729	33047	32751	34758	32990	33051	32846	
1424	0	32663	32547	33323	32615	34943	32757	33118	32807	
1425	0	32505	32251	33190	32423	34165	32512	33429	32668	
1426	0	32477	32287	33372	32415	32791	32613	33835	32871	
1427	0	32735	32578	32987	32350	30711	33173	33365	32495	
1428	0	32849	32615	32318	32490	30316	33212	33431	32118	
1429	0	32903	32723	31508	32637	30559	33106	33607	31900	
1430	0	32933	32636	31451	32839	31661	32903	33245	32013	
1431	0	32969	32615	31637	32854	32343	32822	32995	32383	
1432	0	33017	32551	32295	32724	32687	32815	32647	32763	
1433	0	33115	32581	32615	32751	31902	32589	33423	32977	
1434	0	33060	32548	32391	32439	32821	32127	33173	33207	
1435	0	32843	32329	32705	32354	33051	32243	32753	33522	
1436	0	32639	32423	32911	32678	32375	32679	32679	33605	
1437	0	32663	32759	33124	33051	32158	33387	32587	33447	
1438	0	32541	32375	33153	32775	32322	33615	32391	33455	
1439	0	32678	32455	33005	32655	32815	33271	32583	33725	
1440	0	32927	32791	32495	32783	31263	32847	33061	33718	
1441	0	32891	32732	32583	32543	31691	32629	33107	33254	
1442	0	32750	32559	32711	32428	32644	32667	33055	32775	
1443	0	32801	32487	32820	32333	32013	32644	33095	32171	
1444	0	32733	32595	32738	32471	31956	32235	32925	32051	
1445	0	32775	32541	32743	32535	32054	32391	32925	32165	
1446	0	32759	32647	32623	32639	32276	32562	32893	32543	
1447	0	32820	32647	32619	32775	32807	32527	32935	32540	
1448	0	32694	32453	32711	32775	32933	32135	33021	32511	
1449	0	32764	32591	32758	32847	33347	31610	33037	32646	
1450	0	32768	32451	32615	32773	34327	31484	32827	32258	
1451	0	32857	32735	32582	33083	33762	32789	32518	32155	
1452	0	32866	32660	32435	33287	33531	33831	32369	31927	
1453	0	32871	32751	32962	33159	33559	33683	32402	32338	
1454	0	32751	32645	32919	32859	33617	33379	32455	32420	
1455	0	32609	32399	32964	32633	33845	33007	32519	32503	
1456	0	32551	32501	33039	32559	34151	32933	32467	32420	
1457	0	32581	32553	33103	32527	34128	33223	32382	32571	
1458	0	32583	32319	33335	32505	34195	33206	32483	32517	
1459	0	32492	32407	33470	32627	33823	33087	31931	32631	
1460	0	32748	32490	33325	32615	33695	32783	32221	32461	
1461	0	32635	32557	33239	32601	33847	32763	31929	32663	
1462	0	32457	32324	33107	32438	32686	32867	31326	32919	
1463	0	32530	32591	32639	32466	31585	32743	32283	32731	
1464	0	32677	32741	32387	32743	31291	32919	34269	32487	
1465	0	33063	32753	32263	32847	31914	32927	36167	32205	
1466	0	32985	32731	32271	32641	32489	32695	36525	32012	
1467	0	32797	32500	32503	32341	32775	32541	34743	32095	
1468	0	32979	32743	32386	32503	32715	32659	33619	32405	
1469	0	33019	32628	31971	32562	32759	32592	33911	32327	
1470	0	33055	32839	31841	32611	32659	32431	34164	32463	
1471	0	32897	32687	31903	32775	33131	32662	33303	32447	
1472	0	32724	32701	32443	32839	33351	32681	32471	32628	
1473	0	32900	32471	32682	32958	32787	32815	32375	32751	
1474	0	32866	32815	32928	33055	33762	32515	31796	32877	
1475	0	32687	32775	33053	32759	33874	32543	30931	33191	
1476	0	32553	32703	33102	32575	33519	32742	30967	32647	
1477	0	32615	32637	33199	32775	32803	32807	30903	32927	
1478	0	32806	32702	32735	33046	32382	32743	31111	33510	
1479	0	32836	32927	32561	33459	32924	32409	31367	33607	
1480	0	33085	33093	32763	33465	33055	32514	32391	33815	
1481	0	32701	32958	33099	32967	32351	32900	33221	33476	
1482	0	32306	32455	33307	32615	32870	33227	33513	32903	
1483	0	32191	32491	33259	32183	33103	33302	33149	32315	
1484	0	32479	32571	32788	32751	32900	33381	32937	32463	
1485	0	32709	32767	32679	33479	33947	33063	32748	32981	
1486	0	32829	33027	32647	33295	33580	32991	32959	32903	
1487	0	32655	32775	32635	32425	32919	32630	33049	32639	
1488	0	32721	32535	32607	31954	32591	32387	32663	32319	
1489	0	32724	32610	32631	31959	32877	32582	32141	31979	
1490	0	32595	32463	32550	32043	33071	33116	32148	31822	
1491	0	32546	32575	32343	32771	33283	33018	32231	31991	
1492	0	32742	32575	32190	32599	33299	32588	31431	32450	
1493	0	33061	32762	32327	32575	32935	32505	31227	32647	
1494	0	32926	32789	33087	32945	32223	32733	31247	32831	
1495	0	33127	32955	33539	33185	31379	32511	32373	33086	
1496	0	32924	32692	33692	32845	32355	32610	34333	32525	
1497	0	32645	32638	33881	32183	33119	32694	33999	32519	
1498	0	32444	32863	33794	32719	32803	32597	33375	33076	
1499	0	32359	32543	32815	32831	32732	32415	33671	33177	
1500	0	32998	33085	31985	33031	32493	32295	34080	33230	
1501	0	33682	33299	31467	32895	32047	32164	34351	32917	
1502	0	33703	33279	31353	32607	32764	32859	34467	32715	
1503	0	33581	32815	31559	32263	33695	33474	34475	32252	
1504	0	33000	32129	31829	31593	34455	33206	33323	31799	
1505	0	32999	32439	32039	31911	33958	33115	32683	32039	
1506	0	33026	32583	32001	32371	32175	33683	32698	32007	
1507	0	32692	32661	32179	32503	32620	33474	32805	31839	
1508	0	32808	32895	32295	32502	32553	33561	32743	31959	
1509	0	32966	33125	32331	32815	32236	33479	32563	32260	
1510	0	32445	32614	33111	32591	33223	32599	31903	32575	
1511	0	32060	32503	33616	32343	33490	31827	31501	32131	
1512	0	32427	32643	33223	32640	33637	31945	32375	31911	
1513	0	32966	32767	32887	33226	33334	31738	32596	32071	
1514	0	33079	32943	33103	33626	32551	31911	32412	32423	
1515	0	33164	32927	32987	33743	30599	32817	31647	32996	
1516	0	33284	33121	32738	33756	28969	34097	30975	33191	
1517	0	33020	32903	33348	33127	31561	33206	30301	33799	
1518	0	32496	32375	33444	32567	33437	32535	30423	34087	
1519	0	32598	32457	32852	32705	32660	32390	30415	34332	
1520	0	32924	32699	32635	32987	32742	32241	31820	34191	
1521	0	32993	32855	32642	33239	32423	32631	32498	33911	
1522	0	32976	32761	32615	32933	33671	33031	33343	33671	
1523	0	32453	32065	32995	32035	34772	32972	33627	32391	
1524	0	32372	32173	33059	32247	34310	32847	34447	31934	
1525	0	32435	32322	33185	32684	34457	32933	34627	32181	
1526	0	32709	32463	33235	32892	33281	33055	34603	31839	
1527	0	32847	32591	33101	33329	32681	32609	34963	31603	
1528	0	32726	32707	33145	33279	32814	32270	33250	31919	
1529	0	32758	32607	32775	32967	31290	32580	32619	32346	
1530	0	32502	32247	32553	32035	29471	32679	33039	32231	
1531	0	32821	32533	32169	32180	28266	32669	33569	32351	
1532	0	33133	32477	32021	32590	30505	32567	34659	32503	
1533	0	33007	32727	31852	32612	33223	32509	35246	32461	
1534	0	32950	32607	32054	32439	34150	32356	35372	32487	
1535	0	32775	32575	32557	32271	33975	32530	33710	32881	
1536	0	32705	32647	32588	32615	32746	33330	32063	32759	
1537	0	32879	32659	32548	32743	32439	33092	31551	32383	
1538	0	32663	32367	32495	32860	32647	33083	32407	32388	
1539	0	32588	32348	32647	32579	33191	32823	32369	32631	
1540	0	32647	32669	32783	32387	33958	32883	32253	32607	
1541	0	32800	32663	32719	32449	33609	33261	31577	33017	
1542	0	32924	32687	32835	32463	33513	32847	31123	33375	
1543	0	32734	32359	32841	32364	32261	32825	31075	33172	
1544	0	32518	32263	33399	32291	32117	32969	31511	32791	
1545	0	32430	32308	33134	32524	32628	32867	32095	32801	
1546	0	32747	32813	32719	33031	32599	32941	33040	32444	
1547	0	32903	32865	32483	33071	31689	33045	33524	31976	
1548	0	32997	32852	32613	33086	31999	32988	33687	31230	
1549	0	32980	32763	32670	32923	32581	32455	33049	31467	
1550	0	32899	32811	32482	33026	31597	33159	32403	31604	
1551	0	32721	32439	32644	32783	32239	33351	31687	32169	
1552	0	32756	32694	32715	32989	33637	32324	32367	32482	
1553	0	32679	32683	32759	33223	34242	32327	32422	32596	
1554	0	32509	32855	32960	33367	33461	32663	32207	33371	
1555	0	32557	32655	32647	33460	32227	33149	32493	33756	
1556	0	32470	32713	32783	33303	32219	33087	33063	33709	
1557	0	32491	32615	32751	33071	32562	32890	33653	33452	
1558	0	32615	32809	32803	33083	33136	32660	34303	33350	
1559	0	32735	32695	32913	32903	33395	32435	33725	33385	
1560	0	32708	32628	33029	32808	32839	32602	32551	33709	
1561	0	32447	32497	33063	32681	32951	32031	32135	33415	
1562	0	32379	32364	33247	32293	32763	31789	32251	33127	
1563	0	32519	32452	32972	32423	32359	32039	32403	32389	
1564	0	32740	32853	33007	32687	32922	32493	32362	31879	
1565	0	32817	32887	32934	32711	32965	32837	30935	31903	
1566	0	32695	32551	32548	32607	32879	32943	31335	31623	
1567	0	32887	32759	32385	32771	33329	32823	31884	31935	
1568	0	33027	32827	32371	32823	33349	32647	33199	32429	
1569	0	33015	32919	32279	32763	33973	32493	33556	32675	
1570	0	32969	32583	32181	32821	33965	32298	33255	32927	
1571	0	32631	32339	32037	32455	34356	32455	34079	32775	
1572	0	32522	32242	32167	32306	34311	33033	34255	32575	
1573	0	32446	32623	32324	32950	34114	33094	33983	32717	
1574	0	32300	32612	32361	33211	33887	32636	32860	32911	
1575	0	32316	32685	32546	33186	31549	32511	32358	32706	
1576	0	32350	32391	32607	32980	30012	32741	32774	32535	
1577	0	32411	32541	32815	32883	30341	33127	32647	32379	
1578	0	32660	32711	32663	33063	30511	33287	32231	32439	
1579	0	32671	32797	32613	32966	32091	33102	32877	32059	
1580	0	32672	32439	32375	32787	31519	32719	32755	32041	
1581	0	32535	32531	32498	32627	31575	32483	32623	31789	
1582	0	32734	32775	32439	32723	32423	32499	33355	31699	
1583	0	32898	32802	32573	32847	33050	32359	33316	32183	
1584	0	32786	32805	33023	32783	33300	32534	33007	32696	
1585	0	32712	32570	33167	32716	33810	31935	33181	32640	
1586	0	32655	32611	32947	32687	33935	32186	32503	33593	
1587	0	32489	32417	32787	32717	33431	32919	32221	33893	
1588	0	32538	32607	32630	32903	33013	33645	32530	33926	
1589	0	32647	32707	32903	33189	33125	33466	33143	33909	
1590	0	32690	32565	33261	33298	32807	32718	32962	33785	
1591	0	32527	32695	33186	33211	32927	32555	32447	33710	
1592	0	32361	32551	33447	33148	32878	32743	32342	33759	
1593	0	32407	32724	33399	33148	33136	32517	32111	33196	
1594	0	32690	32567	33333	32982	33998	32671	31271	32807	
1595	0	32829	32749	33181	33007	33343	33007	30961	32005	
1596	0	32885	32903	32982	33189	32945	33178	30459	31638	
1597	0	32917	32895	32690	33207	32820	32698	31503	31597	
1598	0	32989	32835	32647	32884	31475	32495	32317	32083	
1599	0	33047	32670	32064	32688	30832	32527	32571	32481	
1600	0	32950	32572	32255	32367	32544	32879	33687	32783	
1601	0	32594	32535	32237	32404	31837	33955	33485	32765	
1602	0	32199	32547	32535	32612	32262	33303	32601	32541	
1603	0	32112	32391	33047	32898	34166	31651	32604	32407	
1604	0	32225	32460	32866	32725	34156	32412	33503	32534	
1605	0	32605	32636	32183	32863	33379	32795	34581	33476	
1606	0	33077	32630	31975	32842	32919	32422	34675	33455	
1607	0	32996	32547	31983	32594	33719	32321	34550	32952	
1608	0	32710	32293	32319	32437	34175	32511	34914	32457	
1609	0	32700	32380	32671	32199	32829	32803	34535	32335	
1610	0	32903	32534	32430	32444	32982	32751	34631	32143	
1611	0	33014	32725	32364	32767	32502	32707	34667	31271	
1612	0	33045	32604	32449	32703	32527	32783	33758	31399	
1613	0	32980	32767	32802	32763	32639	32775	33462	31410	
1614	0	32984	32719	32899	32903	33095	32863	32671	31687	
1615	0	32725	32657	32975	32629	33595	32711	31943	32206	
1616	0	32464	32423	33350	32515	33151	32883	31517	32855	
1617	0	32838	32838	33176	32884	31491	33204	31130	33135	
1618	0	32775	32791	33027	32990	31814	33287	30965	33199	
1619	0	32694	32507	32871	32933	32990	33063	31469	33767	
1620	0	32718	32587	32901	32790	32597	32895	32005	33817	
1621	0	32735	32743	32903	32743	32811	32795	31799	34226	
1622	0	33030	32983	32923	33101	32140	33014	31999	34247	
1623	0	33121	32831	32621	33026	31639	33167	32305	33543	
1624	0	32959	32579	32681	32569	32291	33031	32713	32527	
1625	0	32923	32620	32933	32343	32943	32159	32692	32089	
1626	0	33206	32827	32763	32603	32235	32699	32244	32298	
1627	0	33028	32455	32727	32279	32667	32988	32961	32595	
1628	0	32844	32446	32973	32583	32720	33597	32986	32739	
1629	0	32347	32387	33380	32481	33522	33566	31733	32783	
1630	0	31993	32364	33467	32301	32563	33623	31051	32199	
1631	0	32255	32359	33121	32277	32058	32658	30693	32823	
1632	0	32563	32855	32893	33285	31751	32063	31593	33666	
1633	0	32936	33077	32843	33152	30583	32324	32943	33205	
1634	0	32929	32663	32972	32860	32013	32193	33479	32514	
1635	0	32887	32773	32895	32803	33391	32305	33787	31875	
1636	0	33039	32786	32799	32820	33867	32357	34217	31447	
1637	0	33048	32914	32724	32804	33967	32255	34783	31948	
1638	0	32953	32583	32431	32863	34052	32185	34130	32629	
1639	0	33092	32787	32000	32775	32684	32687	33938	32335	
1640	0	33065	32717	31877	32519	31860	33149	34063	32253	
1641	0	32910	32807	32362	32391	31087	33476	34631	32021	
1642	0	32765	32621	32785	32551	32807	32942	34391	32007	
1643	0	32689	32677	32629	32707	33052	32871	33798	32179	
1644	0	32646	32707	32555	32623	33154	33231	32841	32837	
1645	0	32815	32477	32647	32454	33391	33175	32519	33287	
1646	0	32698	32556	32615	32687	33687	32733	32177	33167	
1647	0	32715	32609	32661	32981	33573	32535	31975	32883	
1648	0	32669	32597	33037	32957	32836	32727	32089	32763	
1649	0	32818	32708	32998	33015	31646	32951	31943	32784	
1650	0	32932	32810	32614	33051	31433	32911	31826	33029	
1651	0	33221	33007	32325	33215	31681	32707	32095	33127	
1652	0	33049	32895	32479	33129	32063	33010	31835	32999	
1653	0	32637	32543	32927	32655	33633	32794	31678	32791	
1654	0	32431	32271	33191	32569	33315	32845	31713	32370	
1655	0	32406	32435	33082	32509	33283	33095	32157	32509	
1656	0	32391	32471	33099	32717	34677	32263	33619	32307	
1657	0	32520	32767	33159	32949	34325	31997	33479	32477	
1658	0	32676	32439	33015	32580	33028	32623	32359	32429	
1659	0	32885	32605	32606	32471	31557	33236	32191	32457	
1660	0	33140	32717	32311	32523	33409	32960	33090	32464	
1661	0	32934	32675	32263	32813	32700	33060	34111	32287	
1662	0	32916	32711	32315	32719	31986	33107	33343	32422	
1663	0	32743	32647	32425	32629	31687	32895	33375	32421	
1664	0	32692	32755	32517	32556	31636	32855	32300	32522	
1665	0	32814	32555	32647	32199	32421	32716	32167	32863	
1666	0	32789	32599	32479	32247	32642	32722	32775	32663	
1667	0	32751	32502	32503	32118	32455	32877	33058	32631	
1668	0	32806	32447	32559	32064	32803	32933	32949	32567	
1669	0	32956	32732	32519	32251	32612	33011	33311	32310	
1670	0	33222	32877	32403	32647	32935	32881	33010	32634	
1671	0	33223	33129	32315	33078	32447	32925	33187	32554	
1672	0	32939	32755	32591	32919	31905	33397	33111	32489	
1673	0	32793	32533	33003	32697	32263	33101	33039	32515	
1674	0	32658	32516	32871	32476	33505	32724	32711	32663	
1675	0	32468	32283	33013	32503	34114	32791	32466	32436	
1676	0	32397	32451	32903	32845	33636	32559	32946	32602	
1677	0	32355	32391	32791	32951	32806	32535	32755	32991	
1678	0	32534	32667	32484	33407	32018	32598	32471	33232	
1679	0	32722	32759	32340	33207	32303	32467	32455	33355	
1680	0	32698	32628	32871	33031	32322	32495	32655	33423	
1681	0	32772	32863	33015	33133	31581	32531	32871	32927	
1682	0	32982	32775	32694	33127	32335	32482	32567	32367	
1683	0	32986	32858	32439	33079	32789	32489	32035	32495	
1684	0	32925	32732	32407	33005	33089	32345	31967	32898	
1685	0	32863	32876	32449	32807	32721	32415	32383	32935	
1686	0	32671	32719	32690	32495	32903	32610	32443	32853	
1687	0	32525	32538	32877	32565	33191	32701	32543	32419	
1688	0	32672	32823	32771	32588	33261	32671	32621	32455	
1689	0	32737	32583	32756	32505	32347	32912	33086	32621	
1690	0	32701	32644	32815	32359	32551	33017	33177	32943	
1691	0	32785	32677	32745	32434	32978	33145	33029	32995	
1692	0	32841	32445	32745	32558	32991	32935	32694	32935	
1693	0	32927	32698	33149	32671	33303	32815	32596	32926	
1694	0	33103	32711	33223	32590	32807	32838	32739	32598	
1695	0	33035	32676	32938	32639	33119	32871	32659	32531	
1696	0	32734	32439	32827	32711	33293	32695	32635	32434	
1697	0	32807	32631	32855	32679	33067	32733	33013	32482	
1698	0	32850	32617	32549	32511	33025	32799	32995	32570	
1699	0	32932	32757	32437	32519	33372	32817	33103	32517	
1700	0	33080	32571	32194	32450	33166	33220	32711	32355	
1701	0	32684	32647	32441	32549	32783	33106	32699	32263	
1702	0	32571	32647	32633	32675	32823	32884	32903	32311	
1703	0	32705	32708	32505	32773	32879	32703	33121	32307	
1704	0	32788	32673	32482	33105	33222	32647	33391	32062	
1705	0	32903	32922	32391	33327	32611	33117	32866	31983	
1706	0	32848	32775	32413	33167	32719	33271	32510	32159	
1707	0	32740	32713	32722	32843	33378	32562	32367	32295	
1708	0	32775	32507	32914	32630	33011	32547	32085	32421	
1709	0	32674	32527	33333	32407	32967	32443	31871	32429	
1710	0	32332	32415	33444	32287	32927	32519	32071	32485	
1711	0	32398	32514	33231	32628	32739	32879	32127	32949	
1712	0	32743	32919	32903	32983	32839	32863	32541	33495	
1713	0	32862	33007	32535	33212	32189	32956	33203	33402	
1714	0	32811	33015	32157	33287	31781	32813	33305	33175	
1715	0	32491	32479	32291	32839	32559	32841	33695	33059	
1716	0	32428	32419	32735	32818	32766	33003	33405	33287	
1717	0	32690	32591	32621	32868	32595	32975	33023	33111	
1718	0	32516	32540	32431	32787	33381	32713	32951	32835	
1719	0	32788	32519	32716	32562	33935	32223	33243	32826	
1720	0	32996	32715	32431	32732	33535	32012	33767	32351	
1721	0	32927	32773	32347	32603	32495	32258	33734	32199	
1722	0	32927	32497	32645	32580	32945	32353	33233	31939	
1723	0	32893	32599	32583	32671	32631	33055	32698	32195	
1724	0	32820	32727	32499	32751	32383	33338	32214	32721	
1725	0	32711	32591	32487	32803	32953	32655	32471	32911	
1726	0	32482	32507	32807	32842	32962	32678	32962	32574	
1727	0	32516	32467	33004	32599	32530	32832	32503	32331	
1728	0	32813	32519	32663	32743	32203	33539	31492	32399	
1729	0	33132	32939	32599	32876	32198	34103	31487	32457	
1730	0	33042	32883	32368	32647	32530	33939	31530	32173	
1731	0	32775	32769	32671	32335	33180	33047	31223	32231	
1732	0	32551	32525	32619	32379	33703	32357	32114	32199	
1733	0	32436	32457	32773	32459	34031	32135	31900	32819	
1734	0	32528	32639	32951	32703	33439	32199	32465	33559	
1735	0	32512	32557	32811	32762	33618	32218	34020	33749	
1736	0	32474	32532	32738	32613	31951	32499	34469	33862	
1737	0	32799	32695	32669	32786	31187	32716	35167	33776	
1738	0	32700	32731	32679	32882	32375	32612	34722	33623	
1739	0	32566	32703	32715	33075	32642	32555	34104	33487	
1740	0	32741	32835	33239	33115	32399	32731	33583	33274	
1741	0	32927	32657	32688	33031	32349	32655	33087	33015	
1742	0	33093	32980	32189	33059	32453	32873	32871	32349	
1743	0	32935	32807	32427	33082	32503	32903	32679	31838	
1744	0	32738	32827	32609	32915	32323	33068	32683	31666	
1745	0	32515	32525	32789	32841	32435	32743	32687	31773	
1746	0	32412	32708	32756	32727	32286	32753	32631	31765	
1747	0	32447	32605	32571	32707	32754	32772	32751	32041	
1748	0	32656	32707	32765	32831	32775	32661	32671	32289	
1749	0	32909	32501	32743	32852	32845	32676	32342	32483	
1750	0	32953	32755	32773	32903	32487	32845	32175	31975	
1751	0	33005	32691	32402	32959	32445	33051	32060	32063	
1752	0	33085	32790	32535	32975	32782	32922	31683	32347	
1753	0	33012	32543	32707	32895	32799	32775	31467	32423	
1754	0	32850	32623	32682	32719	33439	32662	31310	32679	
1755	0	32582	32325	32521	32175	32593	32684	31263	32677	
1756	0	32572	32479	32511	32165	32300	32735	31821	33106	
1757	0	32926	32850	32687	32887	32402	32214	32235	33542	
1758	0	32919	32661	32607	33103	32332	32683	32987	33374	
1759	0	32895	32775	32663	33045	32901	32726	34423	33475	
1760	0	32733	32609	32788	32799	33279	32647	35019	33283	
1761	0	32523	32509	32854	32655	32947	32633	34695	33061	
1762	0	32565	32679	32935	32823	33243	32274	34155	32687	
1763	0	32653	32578	32738	32586	32805	32451	33717	32355	
1764	0	32754	32660	32669	32597	32641	32694	33159	32407	
1765	0	32558	32519	33127	32615	32730	32709	32885	32471	
1766	0	32692	32695	32922	32609	32597	32798	32727	32466	
1767	0	32713	32668	33039	32474	32356	32916	32599	32421	
1768	0	32628	32547	32887	32533	32581	32743	32404	32389	
1769	0	32761	32775	32827	32797	32755	32721	32514	32958	
1770	0	32677	32631	32667	32948	32739	32783	32679	32903	
1771	0	32580	32571	32694	32903	32850	32788	32621	33063	
1772	0	32484	32671	32675	32802	32663	32789	32853	33045	
1773	0	32639	32647	32740	32791	32767	32815	32767	32923	
1774	0	32702	32775	32833	32931	32890	32765	32524	32860	
1775	0	32784	32757	32743	33267	32775	32807	32556	32481	
1776	0	33115	32919	32387	33139	32743	32811	32495	32453	
1777	0	33318	33087	32166	33263	32375	32935	32238	32751	
1778	0	33245	32751	32118	33279	32398	32935	32391	32667	
1779	0	32966	32568	32279	32839	32959	32599	32557	32647	
1780	0	32596	32314	32590	32531	33191	32511	32479	32773	
1781	0	32525	32428	32591	32263	33074	32453	32775	32827	
1782	0	32628	32388	32831	32145	32654	32677	32961	32797	
1783	0	32740	32463	32873	31879	32775	32785	33099	32524	
1784	0	32827	32561	32535	31995	32730	32845	33109	32610	
1785	0	32870	32503	32607	32162	32838	32770	33232	32413	
1786	0	32787	32590	32679	32441	32571	32703	33239	32459	
1787	0	32679	32319	32575	32503	32711	32564	33259	32317	
1788	0	32553	32407	32621	32343	32628	32591	33255	32500	
1789	0	32564	32534	32759	32518	32727	32525	32959	32631	
1790	0	32734	32479	32799	32927	32735	32631	32687	32595	
1791	0	32619	32511	32985	32957	32707	32805	32515	32621	
1792	0	32460	32755	32939	33319	32626	32921	32530	32390	
1793	0	32607	32947	32915	33661	33021	32927	32282	32879	
1794	0	32815	33029	32817	33388	32629	32952	32759	32789	
1795	0	32802	32559	32690	33027	33129	32876	32831	32871	
1796	0	32782	32623	32609	33151	33374	32850	33203	32600	
1797	0	32453	32487	33014	32767	33911	32711	32531	32887	
1798	0	32442	32709	33077	32767	33831	32823	32367	32838	
1799	0	32554	32505	33007	32899	33490	32698	32386	32817	
1800	0	32647	32708	32943	32903	32679	32539	32815	32818	
1801	0	32720	32687	32605	32749	31943	32601	33090	32864	
1802	0	32544	32550	32909	32611	31687	32603	33399	32763	
1803	0	32647	32869	32609	32791	31285	32825	33603	32487	
1804	0	32782	32863	32291	33013	31605	32989	33102	32647	
1805	0	32731	32899	32223	33131	32237	33057	33047	32495	
1806	0	32598	32695	32402	32787	32505	33133	33101	32359	
1807	0	32388	32615	32577	32470	32607	33081	33185	32207	
1808	0	32564	32518	32766	32430	32825	32625	32933	32655	
1809	0	32671	32421	32883	32471	32857	32717	32728	32707	
1810	0	32844	32543	32911	32563	32914	32525	32646	32806	
1811	0	32742	32637	32855	32607	33027	32428	32647	32799	
1812	0	32732	32551	32631	32711	32886	32463	32799	32775	
1813	0	32856	32673	32735	32449	33019	32614	32635	32695	
1814	0	33033	32399	33063	32249	32839	32679	32467	32553	
1815	0	32877	32577	33076	32475	33077	32913	32207	32475	
1816	0	32982	32607	32909	32820	33047	32797	32452	32615	
1817	0	33119	33010	32719	32919	33231	32739	32507	32815	
1818	0	32934	32775	32463	32391	33094	32977	32614	32806	
1819	0	32926	32638	32659	32353	32867	33106	32725	32679	
1820	0	33065	32583	32775	32341	32553	32703	32870	32751	
1821	0	32885	32367	32799	32119	32861	32365	32995	32811	
1822	0	32481	32245	32749	32339	33397	32583	33086	32549	
1823	0	32497	32795	32643	33009	33309	32783	32490	32594	
1824	0	32658	32833	32349	32993	33031	32679	32795	32468	
1825	0	32924	32747	32351	32854	32879	32766	33149	32580	
1826	0	33095	32565	32588	32703	32674	32965	32831	32540	
1827	0	32954	32263	32766	32791	32989	32717	32855	32695	
1828	0	32734	32626	32865	33125	32695	32838	32995	32732	
1829	0	32768	32629	32599	33415	32439	33011	32851	32927	
1830	0	32615	32612	32967	33237	32647	32914	32533	32879	
1831	0	32679	32719	32950	32891	33119	32191	32443	32765	
1832	0	32816	32879	32989	32835	32755	32445	32451	32612	
1833	0	32884	32975	32837	32869	32927	32939	32751	32551	
1834	0	32887	32751	32735	32743	33189	32951	32855	32446	
1835	0	33022	32866	32567	32823	33897	32831	33167	32573	
1836	0	33020	32843	32618	32892	33527	33245	33175	32477	
1837	0	32775	32527	32953	32629	32496	33015	33191	32503	
1838	0	32477	32295	32986	32435	32492	32949	32855	32530	
1839	0	32441	32237	33199	32455	32647	32787	33631	32237	
1840	0	32715	32479	33151	32471	32535	32869	33671	32365	
1841	0	32698	32355	32886	32276	32699	32598	32887	32740	
1842	0	32764	32567	32613	32548	32550	32687	32434	32942	
1843	0	32485	32543	32919	32706	33143	32527	32450	33067	
1844	0	32535	32427	32899	32765	33049	32594	32675	33003	
1845	0	32738	32671	32695	32711	33019	32559	32706	33095	
1846	0	32893	32643	32578	32826	32975	32615	32695	33083	
1847	0	33055	32821	32659	32964	32718	32575	32865	33031	
1848	0	33047	32599	32711	32955	32487	32923	32703	32890	
1849	0	32873	32695	32781	33460	32995	32711	32447	32903	
1850	0	32862	32734	32677	33607	32951	32819	32167	32725	
1851	0	32848	32599	32735	33213	33101	32775	31655	32831	
1852	0	32630	32679	32831	32575	33602	32692	31319	32599	
1853	0	32559	32561	32929	32163	33241	32647	31787	32500	
1854	0	32439	32297	32715	31655	32191	32591	32151	32389	
1855	0	32629	32263	32277	31515	31949	33142	32135	32446	
1856	0	32748	32069	32284	31380	32005	33184	33175	32374	
1857	0	32710	32164	32543	31807	31399	33127	34563	32019	
1858	0	32876	32621	32428	32486	31964	33078	35117	31903	
1859	0	33014	32843	32670	32878	32631	32837	34759	32151	
1860	0	32770	32773	32975	32927	33371	32707	33607	32527	
1861	0	32636	32895	32903	33132	33439	32437	33215	32683	
1862	0	32453	32647	32821	33063	32775	32623	32846	33095	
1863	0	32677	32897	32717	33174	32303	32834	32726	33101	
1864	0	32865	32866	32342	33159	32361	32887	32527	33190	
1865	0	32956	33061	32359	33051	32538	32931	32609	32941	
1866	0	32968	32871	32429	33063	32583	32711	32540	32959	
1867	0	32962	32793	32543	32647	32839	32591	32559	32743	
1868	0	32968	32789	32563	32493	32663	32387	32647	32699	
1869	0	32698	32590	32574	32457	32455	33055	32759	32346	
1870	0	32633	32825	32635	33009	32735	33265	32583	31967	
1871	0	32784	33067	32662	33109	32590	33199	32559	32403	
1872	0	32815	32935	32571	32785	32247	33386	32612	32359	
1873	0	32636	32557	32709	32510	32314	32993	32919	32587	
1874	0	32581	32631	32970	32671	32989	32239	32735	32511	
1875	0	32617	32671	32871	32814	33383	31917	32758	32672	
1876	0	32571	32518	32759	32559	33363	31853	32587	32687	
1877	0	32743	32615	32719	33095	32998	33036	32503	33001	
1878	0	32835	32763	32688	32854	32998	32823	32549	33259	
1879	0	32783	32919	32891	32647	32770	32407	32799	32894	
1880	0	32632	32593	32845	32185	32795	32855	32783	32596	
1881	0	32596	32623	32965	32097	32927	32607	32615	32555	
1882	0	32760	32605	32867	32750	32749	32596	32663	32687	
1883	0	32788	32946	32998	33204	32455	32597	32775	32763	
1884	0	32943	32851	32827	33012	32319	32708	33175	32631	
1885	0	32848	32891	32799	32719	32343	32748	32959	32628	
1886	0	32623	32535	32791	32754	32570	32767	32823	32503	
1887	0	32441	32658	32766	32871	32567	32851	32862	32479	
1888	0	32599	33027	32319	33285	32346	33071	32898	32231	
1889	0	32729	32875	32525	33255	32583	32959	32493	32425	
1890	0	33030	32989	32466	32773	32548	33025	32595	32421	
1891	0	33354	32774	32283	32213	32566	33043	32903	32357	
1892	0	33487	32587	32125	32059	32519	32963	33074	32303	
1893	0	33367	32713	32186	32146	32519	32903	32851	32355	
1894	0	32954	32631	32301	32278	32487	33038	32647	32610	
1895	0	32741	32575	32719	32599	32571	32999	32796	32767	
1896	0	32524	32639	32799	32751	32986	32947	32631	32790	
1897	0	32491	32691	32749	33129	32786	32747	32743	32943	
1898	0	32521	32505	32603	32933	32885	32607	32657	32988	
1899	0	32574	32635	32711	32903	32811	32639	32767	33381	
1900	0	32645	32639	32647	32849	32707	32607	32671	33426	
1901	0	32655	32579	32583	32867	32711	32591	32702	33439	
1902	0	32623	32643	32515	32947	32863	32601	32715	33085	
1903	0	32660	32647	32564	33047	32687	32693	32749	32897	
1904	0	32493	32767	32708	32887	32759	32719	32961	32755	
1905	0	32525	32495	32861	33042	32647	32561	33047	32589	
1906	0	32615	32751	32751	32927	32727	32751	32998	32389	
1907	0	32654	32775	32749	32595	32828	32586	33159	32335	
1908	0	32646	32495	32743	32527	32941	32679	32850	32647	
1909	0	32626	32685	32489	32663	32859	32746	32647	32543	
1910	0	32676	32671	32591	32495	32572	32919	32630	32621	
1911	0	32841	32555	32483	32295	32237	32999	32898	32502	
1912	0	32609	32391	32669	31862	32737	32823	32993	32167	
1913	0	32463	32452	32755	32199	32871	33021	32893	32309	
1914	0	32629	32735	32807	32703	32619	33255	32885	32319	
1915	0	32834	32586	32551	32999	32577	33027	32550	32343	
1916	0	32940	32725	32647	33021	32245	32978	32743	32117	
1917	0	32842	32775	32647	33223	32447	32873	32998	32295	
1918	0	32773	32591	32746	33111	32701	32601	32980	32554	
1919	0	32692	32647	32690	33003	33207	32351	32711	32755	
1920	0	32738	32852	32813	33196	32988	32327	32815	32807	
1921	0	32592	32628	32961	32965	33108	32295	32863	33119	
1922	0	32497	32671	33167	33055	32898	32327	32951	33195	
1923	0	32591	32481	32903	33003	33103	32349	32903	33437	
1924	0	32764	32735	32606	33029	32763	32613	32903	33328	
1925	0	32767	32700	32627	32829	33559	32549	32835	33015	
1926	0	32584	32605	32854	32567	33692	32535	32647	33319	
1927	0	32861	32477	32518	32661	32999	32886	32727	33147	
1928	0	32961	32793	32301	32863	32943	33172	32827	32593	
1929	0	33016	32759	32455	32804	32962	32942	33110	32178	
1930	0	33060	32758	32661	32946	32111	33215	33223	32223	
1931	0	33094	32895	32671	33059	32069	33119	32803	32295	
1932	0	32612	32647	32725	32502	32443	32891	32597	32423	
1933	0	32133	32103	32955	31565	32919	32463	32227	32596	
1934	0	32486	32433	32788	31885	32485	32647	32284	32534	
1935	0	32815	32575	32607	32622	31469	32852	32587	32766	
1936	0	33026	32795	32615	32863	31663	32575	32877	32807	
1937	0	32957	32609	32677	32584	32614	32407	33245	32663	
1938	0	32756	32687	32671	32527	32922	32661	33159	32581	
1939	0	32658	32638	32647	32470	33076	32721	32818	32583	
1940	0	32591	32479	32774	32555	32903	32669	32854	32559	
1941	0	32819	32647	32764	32783	32823	32740	32903	32737	
1942	0	32985	32811	32667	32963	32647	32983	33015	32679	
1943	0	32894	32627	32614	33063	32495	33110	32947	32658	
1944	0	32914	32794	32743	32725	32715	33027	32753	32663	
1945	0	32925	32839	32567	32477	32874	33159	32894	32492	
1946	0	32863	32483	32655	32271	32703	33327	32869	32367	
1947	0	32971	32819	32625	32623	32423	33415	32982	32341	
1948	0	32743	32690	32675	32694	32673	33027	32935	32323	
1949	0	32347	32365	33031	32133	33235	32543	32748	32413	
1950	0	32217	32150	32980	32129	33487	32276	32700	32291	
1951	0	32667	32671	32933	33007	33027	32463	32740	32791	
1952	0	32847	32901	32847	33749	32655	32626	32583	32903	
1953	0	32806	32799	32803	33614	32699	32445	32564	33127	
1954	0	32703	32727	32765	33383	33184	32291	32431	33415	
1955	0	32728	32775	32858	33349	33077	32181	32570	33259	
1956	0	32807	32591	32815	33099	32973	32189	32677	33507	
1957	0	32838	32875	32621	32887	32734	32461	32749	33426	
1958	0	32941	32846	32741	32853	32621	32849	32958	32983	
1959	0	32737	32582	32922	32567	32558	32943	32999	32701	
1960	0	32500	32438	32867	32375	32734	32827	33036	32407	
1961	0	32452	32542	32915	32191	32996	32373	32811	32403	
1962	0	32772	32475	32885	32420	32751	32543	33031	32445	
1963	0	32615	32603	33009	32451	32573	32785	33091	32359	
1964	0	32575	32497	33323	32733	32618	32834	32819	32283	
1965	0	32999	32631	32983	32531	32623	32922	33151	32307	
1966	0	33125	32751	33319	32477	32871	32951	33071	32359	
1967	0	33119	32610	33241	32533	32643	33119	32871	32372	
1968	0	33077	32605	32875	32519	32655	33053	32790	32567	
1969	0	32784	32541	32211	32583	32836	32871	32732	32572	
1970	0	32844	32740	31959	32823	32737	32903	32783	32468	
1971	0	32987	32903	31999	32903	32935	32867	32837	32613	
1972	0	32935	32647	31900	32911	33059	32931	32839	32771	
1973	0	32791	32734	31821	32646	33117	32886	32541	32799	
1974	0	32836	32751	31975	32703	32823	32839	32461	32980	
1975	0	32675	32623	32151	32802	32803	32831	32539	32751	
1976	0	32673	32759	32377	32677	32807	32797	32525	32647	
1977	0	32756	32789	32466	32642	32868	32735	32598	32489	
1978	0	32843	32603	32178	32475	32989	32724	32831	32639	
1979	0	32827	32615	32587	32663	32831	32793	32839	32612	
1980	0	32748	32615	32851	32843	32769	32783	33005	32477	
1981	0	32711	32831	32891	32895	32583	32866	33139	32445	
1982	0	32775	32743	33003	32769	32669	32913	32995	32471	
1983	0	32711	32757	32925	32833	32674	32789	33039	32461	
1984	0	32739	32527	32767	32839	32691	32737	33044	32694	
1985	0	32587	32627	32903	32698	32723	32735	32889	32799	
1986	0	32528	32563	32999	32745	32715	32767	32771	32835	
1987	0	32558	32759	32973	32699	32708	32824	32763	32775	
1988	0	32870	32847	32725	32756	32799	32816	32812	32645	
1989	0	32924	32757	32638	32775	32775	32831	32687	32527	
1990	0	32751	32855	32665	32835	32775	32711	32731	32492	
1991	0	32730	32802	32615	32951	32660	32647	32735	32379	
1992	0	32519	32569	32971	32660	32995	32801	32901	32276	
1993	0	32314	32295	32965	32685	32957	32838	32947	32367	
1994	0	32362	32453	32835	32949	32799	32903	32895	32250	
1995	0	32335	32611	32959	33031	32727	32887	32957	32285	
1996	0	32612	32589	32871	33159	32644	32799	32903	32813	
1997	0	32754	32741	32623	33091	33015	32735	32603	33245	
1998	0	32865	32775	32950	32807	32903	32815	32489	33445	
1999	0	32815	32749	32917	32811	33090	32677	32361	33505	
2000	0	32852	32631	32702	32922	33015	32821	32225	33603	
2001	0	32914	32702	32519	32609	32899	32767	32291	33783	
2002	0	32866	32477	32607	32493	33060	32474	32454	33692	
2003	0	32892	32537	32614	32657	32959	32434	32543	33435	
2004	0	32993	32674	32447	32475	32850	32599	32565	33479	
2005	0	32933	32661	32399	32404	32867	32523	32631	33007	
2006	0	32863	32775	32427	32173	32875	32471	32871	32429	
2007	0	33060	32763	32686	32543	32735	32749	32957	32343	
2008	0	33103	33113	32822	32679	32583	32855	33095	32259	
2009	0	33016	32991	32751	32481	32461	32759	33186	32113	
2010	0	32984	33087	32659	32698	32556	32799	33223	32143	
2011	0	33007	33189	32641	32655	32531	32870	33151	32071	
2012	0	32802	32683	32795	32407	32551	33013	32991	32071	
2013	0	32885	32694	32615	32244	32941	32827	32815	32246	
2014	0	32980	32351	32476	32319	32967	32791	32775	32379	
2015	0	33089	32330	32410	32524	32813	32851	32495	32653	
2016	0	33102	32212	32327	32517	32775	32973	32361	32557	
2017	0	32912	32015	32388	32293	32813	32855	32447	32835	
2018	0	32677	31842	32574	32244	32955	32734	32429	32859	
2019	0	32747	32095	32461	32439	32823	32839	32669	32843	
2020	0	32898	32399	32519	32537	32694	32631	32827	32694	
2021	0	32933	32327	32527	32619	32438	32731	33146	32513	
2022	0	32865	32661	32611	32692	32479	33131	33201	32569	
2023	0	33029	32834	32349	32901	32251	33223	33215	32539	
2024	0	33088	32787	32351	32914	32543	33115	33015	32343	
2025	0	33031	32309	32575	32743	32931	32891	32541	32439	
2026	0	32869	32255	32569	32380	32775	32923	32211	32631	
2027	0	32827	32135	32607	32709	32845	32996	32431	32463	
2028	0	32764	32093	32583	33140	32719	32638	33029	32425	
2029	0	32761	32231	32666	33428	32543	32519	33356	32303	
2030	0	32579	32448	32782	33671	32635	32594	33223	32171	
2031	0	32289	32573	32831	33618	32713	32836	33807	32391	
2032	0	32089	32461	32943	33531	32805	32923	33855	32247	
2033	0	31943	32543	33052	33159	32822	32903	33827	32231	
2034	0	31903	32359	33062	32845	32719	32734	34058	32103	
2035	0	31871	32319	32743	32509	32647	32605	33893	32129	
2036	0	31972	32221	32807	32293	32623	32591	33664	32455	
2037	0	32039	32535	32805	32549	32391	32854	33519	32527	
2038	0	32452	32694	32795	32691	32541	32794	33223	32571	
2039	0	32676	32773	33003	32748	32543	32791	33083	32310	
2040	0	32837	32807	33187	33100	32391	32903	32844	32503	
2041	0	32839	32932	33159	33322	32179	33057	32999	32551	
2042	0	32628	33275	33197	33119	32071	33095	33013	32685	
2043	0	32468	33271	33183	32892	32499	32902	32722	32671	
2044	0	32421	32859	33373	32662	32823	32745	32226	32509	
2045	0	32338	32900	33275	32647	32935	33156	31986	32723	
2046	0	32471	33031	33110	32543	33003	33026	32036	32911	
2047	0	32431	33085	32885	32702	33021	32815	32038	33123	
2048	0	32728	33319	32839	32775	32999	32369	32174	33275	
2049	0	32800	33279	32855	33031	32884	32448	31899	33330	
2050	0	32713	32959	32555	32749	33189	32405	32164	33241	
2051	0	32298	32647	32795	32375	33254	32507	32155	33146	
2052	0	32317	32852	32917	32403	33235	32491	31209	33121	
2053	0	32472	32822	32683	32287	33126	32230	30807	33191	
2054	0	32683	33010	32498	32505	32715	32305	31567	33359	
2055	0	32805	32956	32589	32795	32711	32591	32767	33020	
2056	0	33144	32927	32743	33189	32799	32721	32595	32732	
2057	0	33274	33203	32711	33133	32893	32847	32751	32908	
2058	0	33407	33175	32813	32790	32527	32775	33271	32799	
2059	0	33287	32871	32847	32291	32647	32955	33797	32871	
2060	0	33098	32978	32563	33023	33359	32887	33895	32553	
2061	0	32814	32884	32694	33285	32916	32814	33357	32607	
2062	0	32743	32893	32823	33255	32725	32836	33759	32482	
2063	0	32679	32951	32861	33069	32627	32775	33983	32533	
2064	0	32722	32471	32945	32707	32379	32967	33571	32407	
2065	0	32932	32699	32935	32766	31541	33543	33399	32423	
2066	0	32909	32567	32627	32697	32399	33027	33625	32295	
2067	0	32896	32620	32615	32695	33535	32215	33975	32391	
2068	0	32942	32635	32517	32794	33102	32415	34285	32695	
2069	0	32847	32701	32383	32807	33253	32295	34387	32683	
2070	0	32748	32423	32340	32711	33695	31888	34259	32827	
2071	0	32757	32503	32047	32533	33607	31628	34045	32951	
2072	0	32941	32527	32190	32551	33629	31995	33799	32927	
2073	0	32879	32585	32362	32668	33131	32909	33775	33387	
2074	0	32887	32604	32398	32900	32362	33519	34279	33375	
2075	0	32802	32451	32814	32739	32135	33647	34471	33135	
2076	0	32737	32518	32559	32375	32149	33687	34599	32929	
2077	0	32743	32599	32309	32447	32118	33287	34791	32573	
2078	0	32803	32450	32581	32325	32411	33014	34375	32566	
2079	0	32799	32433	32623	32243	32477	32964	34351	32603	
2080	0	32715	32411	32443	32237	32500	32855	33868	32519	
2081	0	32715	32255	32823	32274	32487	32807	33644	32434	
2082	0	32748	32463	33495	32273	32253	32885	34078	32085	
2083	0	32661	32498	33520	32491	32570	32866	34037	32391	
2084	0	32705	32671	33167	32639	32391	32973	33755	32495	
2085	0	32703	32462	32782	32644	32787	32677	33775	32607	
2086	0	32632	32407	33011	32500	33415	32359	33139	32476	
2087	0	32567	32367	32979	32759	33415	32391	32887	32615	
2088	0	32936	32759	32415	32937	33298	32367	32135	32831	
2089	0	32909	32719	32039	32911	33099	32543	31965	32794	
2090	0	33026	32829	31911	32647	32943	32611	32559	33031	
2091	0	32967	32555	32235	32647	32643	32663	32270	32874	
2092	0	32703	32613	32453	32765	32641	32755	32229	32677	
2093	0	32721	32539	32631	32666	32583	32761	32253	32263	
2094	0	32791	32482	32783	32855	32709	32756	32327	32420	
2095	0	32950	32493	33039	32942	32508	32871	32439	32422	
2096	0	32947	32619	32798	32903	32579	32914	32247	32499	
2097	0	32852	32823	32509	33031	32679	32791	31231	32439	
2098	0	32839	32819	32439	33111	32714	32827	31575	32301	
2099	0	32843	32679	32295	33237	32799	32947	31472	32538	
2100	0	32639	32481	32399	33495	32797	32882	31847	32747	
2101	0	32709	32611	32484	33369	32743	32749	31879	32739	
2102	0	32791	32711	32655	32911	32581	32831	31610	33061	
2103	0	32676	32858	32379	32765	32819	32903	31450	33287	
2104	0	32788	32767	32358	32839	32839	32987	31639	33132	
2105	0	32687	32372	32596	32658	32737	32951	31399	32751	
2106	0	32765	32467	32620	32794	32545	32927	32135	32546	
2107	0	32943	32797	32635	32937	33033	32559	32692	32373	
2108	0	32889	32812	32821	33079	32678	32591	32982	32175	
2109	0	32854	32597	32948	32820	32451	32557	32631	32578	
2110	0	32745	32575	32917	32421	32543	32827	32219	32833	
2111	0	32695	32548	32963	32135	32503	33061	31983	32695	
2112	0	32575	32631	32982	31965	32775	32827	31549	32915	
2113	0	32556	32495	33087	31951	32901	32655	31021	32999	
2114	0	32353	32683	33117	32170	32759	32737	31043	32983	
2115	0	32440	32839	33285	32613	32669	32667	31919	32903	
2116	0	32874	32667	33370	32389	32375	32799	32719	32769	
2117	0	32956	32807	33317	32034	32519	32879	33093	32597	
2118	0	32772	32707	33343	32165	33089	32687	33503	32391	
2119	0	32836	32562	33021	32263	33393	32427	33671	32277	
2120	0	33087	32532	32502	32420	33343	32411	33647	32179	
2121	0	33227	32242	32459	32675	33063	32819	33183	32020	
2122	0	32963	32226	32305	32935	32895	32919	33110	32087	
2123	0	32844	32237	31863	33383	32551	32879	32964	31983	
2124	0	32585	32711	32087	33831	32675	32871	32858	32030	
2125	0	32223	32839	31930	33948	32811	32772	32787	32149	
2126	0	31966	32484	31802	33515	32959	32626	32575	32470	
2127	0	31908	32790	32143	33270	33053	32695	32167	33029	
2128	0	32083	32847	32431	33399	33107	32739	31829	33230	
2129	0	32797	32546	32355	32818	32699	32745	31303	33278	
2130	0	33331	32577	32191	32532	32631	32555	32023	33078	
2131	0	33722	32515	32564	32382	32527	32357	32100	33279	
2132	0	33926	32681	32687	32366	32631	32543	32098	33700	
2133	0	33656	32751	32753	32621	32700	32557	32295	33709	
2134	0	33243	32941	32719	32991	32567	33039	32471	33429	
2135	0	33002	32991	32895	33135	32057	33301	33180	32481	
2136	0	32967	32971	33008	32994	32283	33173	32965	32486	
2137	0	32903	32677	33137	32223	32671	32989	32349	32258	
2138	0	32637	32508	33111	31831	32823	32871	32039	32191	
2139	0	32524	32191	33174	31949	33143	32689	31959	32359	
2140	0	32620	32223	33197	32215	32833	32669	32131	32409	
2141	0	32596	32481	33243	32257	32868	32532	31773	32694	
2142	0	32437	32607	33308	32639	32933	32447	31649	32957	
2143	0	32212	32519	33589	32898	32671	32625	32060	32875	
2144	0	32039	32769	34151	32819	32332	32949	32487	32541	
2145	0	32274	32855	34486	32863	32263	32884	32999	32623	
2146	0	32327	32663	33847	32739	32502	32751	33260	32525	
2147	0	32294	32756	33445	32471	32469	32801	33581	32499	
