# OpenSignals Text File Format
# {"00:07:80:3B:46:38": {"sensor": ["CUSTOM/0.5/1.0/V", "CUSTOM/0.5/1.0/V", "CUSTOM/0.5/1.0/V", "CUSTOM/0.5/1.0/V", "CUSTOM/0.5/1.0/V", "CUSTOM/0.5/1.0/V", "CUSTOM/0.5/1.0/V", "CUSTOM/0.5/1.0/V"], "device name": "EMGs", "column": ["nSeq", "DI", "RA_L", "RA_R", "OE_L", "OE:R", "IL_L", "IL_R", "MF_L", "MF_R"], "sync interval": 2, "time": "10:48:53.267", "comments": "", "device connection": "BTH00:07:80:3B:46:38", "channels": [1, 2, 3, 4, 5, 6, 7, 8], "date": "2017-6-2", "mode": 0, "digital IO": [0, 1], "firmware version": 772, "device": "biosignalsplux", "position": 0, "sampling rate": 1000, "label": ["RA_L", "RA_R", "OE_L", "OE:R", "IL_L", "IL_R", "MF_L", "MF_R"], "resolution": [16, 16, 16, 16, 16, 16, 16, 16], "special": [{}, {}, {}, {}, {}, {}, {}, {}]}}
# EndOfHeader
0	0	32816	32559	32734	32639	32765	32567	32759	32100	
1	0	32775	32765	32726	32371	32812	32722	32674	32319	
2	0	32759	32855	32699	32452	32823	32685	32551	32535	
3	0	32726	32791	32653	32547	32721	32663	32519	32709	
4	0	32832	32761	32621	32622	32559	32839	32589	32903	
5	0	32811	32813	32695	32822	32567	32935	32759	32647	
6	0	32838	32614	32751	32845	32498	32876	32889	32029	
7	0	32792	32836	32783	33051	32701	32895	33040	31983	
8	0	32761	32755	32813	33063	32810	32670	32957	32742	
9	0	32756	32625	32647	33237	32615	32847	32775	33351	
10	0	32729	32819	32631	33167	32713	32878	32692	33439	
11	0	32708	32694	32658	33149	32773	32682	32673	33511	
12	0	32727	32635	32635	32950	32657	32815	32647	33870	
13	0	32754	32852	32751	32943	32679	32692	32603	33619	
14	0	32726	32823	32763	32623	32743	32775	32731	33044	
15	0	32775	32940	32773	32775	32599	32675	32715	32748	
16	0	32710	32847	32727	32483	32783	32823	32749	32442	
17	0	32665	32647	32711	32517	32749	32815	32687	32534	
18	0	32723	32826	32671	32292	32658	32635	32756	32687	
19	0	32719	32747	32738	32331	32722	32759	32725	32903	
20	0	32744	32822	32770	32331	32773	32663	32575	33251	
21	0	32756	32811	32793	32583	32551	32775	32487	33191	
22	0	32764	32595	32707	32523	32711	32773	32475	32692	
23	0	32764	32871	32676	32677	32709	32749	32547	32405	
24	0	32732	32803	32655	32742	32647	32751	32594	32557	
25	0	32746	32599	32660	32831	32723	32660	32676	32775	
26	0	32767	32852	32634	32875	32775	32803	32679	32303	
27	0	32775	32771	32695	33097	32605	32724	32775	31787	
28	0	32742	32751	32754	33067	32599	32655	32639	32244	
29	0	32751	32750	32685	32983	32681	32655	32823	32151	
30	0	32711	32599	32659	32903	32534	32935	32799	32092	
31	0	32709	32927	32687	32839	32679	32855	32815	32251	
32	0	32742	32831	32626	32759	32733	32750	32810	32885	
33	0	32775	32695	32742	32737	32707	32790	32828	33455	
34	0	32764	32847	32775	32706	32669	32993	32749	33197	
35	0	32757	32551	32791	32535	32775	33159	32653	33229	
36	0	32793	32675	32845	32544	32666	33119	32590	33014	
37	0	32890	32587	32747	32411	32509	32919	32913	32419	
38	0	32782	32535	32690	32564	32687	32647	32959	32293	
39	0	32800	32658	32693	32515	32607	32871	32900	33197	
40	0	32818	32557	32695	32775	32575	32743	32746	34039	
41	0	32745	32871	32678	32783	32342	32859	32714	33885	
42	0	32731	32647	32690	32773	32570	32699	32765	33316	
43	0	32647	32887	32703	32731	32836	32637	32859	32615	
44	0	32751	32763	32695	32621	32893	32551	32661	32391	
45	0	32763	32782	32695	32735	32807	32887	32741	32299	
46	0	32767	32754	32597	32670	32769	32935	32799	32177	
47	0	32736	32757	32642	32859	32813	32903	32637	32527	
48	0	32767	32762	32646	32935	32553	32733	32598	33099	
49	0	32757	32615	32613	33003	32742	32766	32805	32871	
50	0	32722	32911	32657	32953	32766	32567	32939	32159	
51	0	32790	32858	32741	32933	32590	32732	32517	31947	
52	0	32738	32711	32711	32903	32742	32775	32538	32052	
53	0	32785	32913	32759	32765	32783	32810	32759	32451	
54	0	32773	32669	32759	32683	32573	32827	32645	32775	
55	0	32873	32915	32739	32519	32786	32813	32613	33107	
56	0	32763	32871	32762	32463	32702	32578	32759	33245	
57	0	32783	32658	32823	32263	32675	32479	32701	33012	
58	0	32685	32806	32783	32231	32687	32593	32619	32895	
59	0	32785	32826	32863	32263	32719	32541	32591	32751	
60	0	32729	32763	32695	32443	32639	32823	32816	32590	
61	0	32753	32847	32638	32431	32743	32783	32783	32783	
62	0	32733	32671	32673	32559	32703	32749	32679	33223	
63	0	32656	32879	32740	32647	32485	32895	32541	33614	
64	0	32751	32766	32743	32974	32628	32850	32566	33497	
65	0	32874	32570	32700	33038	32647	32885	32750	32988	
66	0	32896	32771	32789	33099	32615	32759	32883	32486	
67	0	32847	32775	32781	33197	32707	32703	32903	32194	
68	0	32817	32804	32775	33027	32732	32807	32587	32673	
69	0	32902	32833	32789	32975	32747	32835	32495	32831	
70	0	32854	32617	32735	32914	32612	32815	32575	32798	
71	0	32885	32867	32749	33012	32764	32719	32599	32854	
72	0	32860	32749	32711	32795	32873	32775	32775	32471	
73	0	32841	32710	32738	32988	32596	32663	32951	32343	
74	0	32873	32811	32703	32942	32775	32603	33011	31721	
75	0	32903	32719	32663	33015	32711	32775	32869	31526	
76	0	32860	32567	32831	32919	32743	32871	32639	32363	
77	0	32791	32841	32865	32931	32755	32889	32639	32859	
78	0	32847	32765	32819	32748	32615	32775	32724	33607	
79	0	32788	32775	32831	32691	32635	32990	32823	34426	
80	0	32810	32831	32839	32498	32587	33057	32925	33750	
81	0	32819	32633	32734	32453	32737	32795	32919	32383	
82	0	32815	32743	32582	32433	32863	32615	32711	32583	
83	0	32812	32775	32729	32493	32734	32621	32739	32718	
84	0	32798	32763	32764	32555	32635	32763	32702	32713	
85	0	32759	32757	32755	32543	32730	32724	32631	32871	
86	0	32809	32900	32706	32627	32639	32743	32720	32187	
87	0	32759	32657	32633	32703	32655	32861	32749	31903	
88	0	32735	32892	32661	32765	32674	32855	32751	31867	
89	0	32775	32811	32599	32759	32541	32747	32747	32161	
90	0	32719	32895	32679	32716	32647	32731	32603	33195	
91	0	32775	32726	32671	32669	32753	33061	32757	33863	
92	0	32775	32775	32596	32694	32735	33045	32815	33499	
93	0	32747	32739	32753	32621	32591	32914	33046	33146	
94	0	32710	32845	32780	32562	32667	32833	32563	33119	
95	0	32786	32629	32819	32605	32759	32743	32541	32351	
96	0	32794	32614	32814	32807	32749	32527	32628	31834	
97	0	32790	32695	32765	32866	32789	32415	32469	32726	
98	0	32790	32827	32794	32887	32802	32550	32590	33151	
99	0	32671	32631	32751	32847	32771	32557	32576	33451	
100	0	32726	32775	32724	32974	32687	32644	32911	33174	
101	0	32804	32793	32807	32989	32659	32762	32931	32340	
102	0	32742	32825	32833	32961	32663	33011	32832	31751	
103	0	32702	32631	32640	32983	32646	32955	32903	32245	
104	0	32775	32802	32745	32927	32619	32852	32695	33250	
105	0	32761	32926	32751	32843	32807	32487	32443	33773	
106	0	32752	32665	32661	32894	32663	32447	32511	33837	
107	0	32775	32535	32687	32859	32675	32500	32843	33091	
108	0	32703	32748	32673	32758	32567	32903	32767	32391	
109	0	32743	32799	32645	32714	32637	33060	32571	32293	
110	0	32723	32855	32635	32899	32723	32854	32538	33298	
111	0	32747	32625	32681	32917	32683	32903	32820	32882	
112	0	32711	32555	32699	32925	32587	33021	32999	31722	
113	0	32805	32647	32715	32719	32702	32967	32933	31693	
114	0	32770	32818	32598	32723	32723	33170	32901	32373	
115	0	32804	32709	32755	32591	32548	32707	32786	32894	
116	0	32802	32507	32749	32667	32813	32661	32659	32903	
117	0	32797	32759	32775	32687	32759	32679	32697	32765	
118	0	32796	32734	32727	32719	32790	32677	32559	32717	
119	0	32738	32623	32631	32690	32679	32647	32590	32826	
120	0	32746	32863	32703	32687	32718	32577	32529	32975	
121	0	32742	32799	32695	32675	32679	32706	32567	32813	
122	0	32737	32655	32775	32663	32691	32638	32711	32731	
123	0	32701	32951	32744	32701	32695	32671	32727	32735	
124	0	32718	32903	32775	32766	32775	32627	32702	32737	
125	0	32765	32851	32729	32807	32585	32617	32559	32523	
126	0	32708	32879	32709	32738	32767	32595	32579	32620	
127	0	32730	32899	32719	33023	32830	32839	32605	32812	
128	0	32729	32795	32669	32999	32559	32823	32667	32877	
129	0	32695	32863	32579	32995	32635	32890	32704	32867	
130	0	32681	32871	32607	32835	32647	32917	32873	32301	
131	0	32772	32839	32601	32721	32559	32721	32902	32383	
132	0	32751	32721	32711	32466	32647	32711	32732	32487	
133	0	32818	32732	32734	32541	32671	32764	32563	32325	
134	0	32714	32759	32644	32527	32703	32898	32695	32315	
135	0	32745	32583	32619	32559	32495	32885	32838	32127	
136	0	32733	32827	32607	32343	32786	32839	32790	32455	
137	0	32700	32847	32725	32525	32919	32695	32655	33739	
138	0	32735	32679	32742	32391	32579	32763	32647	33906	
139	0	32726	32585	32723	32317	32711	33039	32627	33795	
140	0	32666	32835	32656	32355	32698	32972	32639	34159	
141	0	32660	32822	32642	32323	32603	32847	32847	33559	
142	0	32733	32535	32766	32627	32750	32903	32743	33138	
143	0	32710	32733	32726	32867	32525	32775	32593	33073	
144	0	32714	32883	32725	33029	32751	32764	32783	32502	
145	0	32715	32816	32711	33146	32742	32730	32827	31917	
146	0	32716	32876	32765	33278	32759	32775	32841	31788	
147	0	32791	32797	32793	33207	32687	32749	32887	31971	
148	0	32825	32615	32751	33167	32676	32863	32943	31703	
149	0	32815	32871	32764	33122	32668	32867	32790	32476	
150	0	32786	32775	32695	33037	32684	32891	32631	33378	
151	0	32815	32646	32634	33053	32604	32679	32582	33511	
152	0	32809	32869	32695	33101	32748	32627	32583	32935	
153	0	32854	32823	32685	32941	32847	32698	32613	32885	
154	0	32775	32809	32727	32933	32631	32711	32623	32691	
155	0	32711	32663	32703	32764	32767	32681	32669	32319	
156	0	32750	32699	32775	32742	32749	32551	32673	32089	
157	0	32801	32743	32749	32570	32606	32599	32755	31993	
158	0	32828	32643	32647	32553	32691	32677	32789	32225	
159	0	32761	32855	32689	32373	32629	32875	32799	32830	
160	0	32820	32582	32775	32375	32582	32795	32579	33773	
161	0	32736	32754	32703	32262	32719	32903	32131	34498	
162	0	32812	32759	32647	32259	32706	32993	32471	33950	
163	0	32743	32571	32703	32381	32601	32929	33105	32983	
164	0	32773	32690	32719	32562	32714	32775	33063	32589	
165	0	32765	32775	32690	32543	32602	32923	32895	32228	
166	0	32686	32775	32663	32833	32726	32879	32921	32191	
167	0	32716	32567	32775	32927	32738	32739	32818	32397	
168	0	32775	32813	32679	32919	32662	32903	32661	32559	
169	0	32773	32738	32654	33010	32676	32691	32535	32739	
170	0	32719	32603	32658	32918	32726	32627	32647	32891	
171	0	32729	32903	32679	32935	32595	32828	32810	32950	
172	0	32781	32775	32783	32775	32668	32893	32743	32759	
173	0	32747	32591	32743	32799	32754	32799	32659	32861	
174	0	32820	32695	32734	32491	32835	32626	32699	32414	
175	0	32804	32771	32764	32511	32836	32703	32783	32167	
176	0	32796	32775	32631	32365	32595	32719	32667	32642	
177	0	32722	32583	32589	32455	32731	32855	32647	32788	
178	0	32736	32815	32644	32339	32695	32839	32623	32818	
179	0	32722	32821	32751	32507	32769	32829	32747	32855	
180	0	32807	32851	32767	32718	32695	32759	32623	32941	
181	0	32775	32727	32727	32806	32567	32685	32423	33263	
182	0	32751	32903	32635	32955	32751	32575	32613	32933	
183	0	32717	32807	32668	32975	32799	32615	32765	32455	
184	0	32719	32703	32675	32941	32621	32548	32844	32429	
185	0	32679	32791	32642	32956	32719	32559	32885	32827	
186	0	32694	32690	32593	32827	32623	32711	32743	32586	
187	0	32703	32735	32669	32879	32571	32805	32663	32500	
188	0	32762	32868	32766	32843	32639	32835	32545	33265	
189	0	32780	32709	32803	32733	32606	32805	32663	33383	
190	0	32812	32615	32957	32839	32655	33071	32619	32957	
191	0	32812	32791	32807	32791	32671	33185	32738	32403	
192	0	32797	32807	32719	32855	32428	33069	33043	32092	
193	0	32780	32719	32763	32854	32804	32820	32767	32515	
194	0	32775	32713	32775	32903	32879	32512	32323	33026	
195	0	32786	32743	32765	32877	32644	32535	32335	33023	
196	0	32838	32690	32719	32966	32695	32647	32508	32802	
197	0	32718	32519	32830	32871	32516	32604	32718	32589	
198	0	32704	32839	32599	32883	32722	32655	32766	32695	
199	0	32717	32825	32532	32741	32707	32717	32983	32282	
200	0	32599	32863	32535	32852	32751	32895	33031	31611	
201	0	32656	32715	32607	32790	32747	33003	32806	31759	
202	0	32608	32834	32557	32807	32567	32617	32575	32735	
203	0	32686	32847	32620	32797	32774	32710	32500	33639	
204	0	32718	32742	32577	32663	32667	33093	32595	33993	
205	0	32730	33055	32655	32839	32447	33254	32948	33015	
206	0	32760	32855	32639	32893	32615	33002	32895	33297	
207	0	32679	32759	32647	32867	32615	33105	32821	33551	
208	0	32708	32811	32557	32783	32599	32791	32784	33681	
209	0	32709	32751	32630	32775	32763	32694	32793	33022	
210	0	32653	32717	32631	32667	32693	32615	32839	32283	
211	0	32719	32834	32593	32599	32626	32751	32615	32426	
212	0	32695	32831	32743	32646	32756	32619	32613	32207	
213	0	32717	32698	32711	32695	32699	32799	32743	32319	
214	0	32750	32884	32775	32706	32581	32683	32731	32735	
215	0	32773	32811	32799	32623	32717	32637	32727	33065	
216	0	32850	32647	32775	32595	32639	32757	32714	33275	
217	0	32807	32899	32783	32747	32775	32647	32722	33049	
218	0	32834	32823	32783	32647	32733	32515	32727	32821	
219	0	32839	32579	32847	32812	32787	32475	32847	32399	
220	0	32844	32759	32811	32663	32717	32643	32659	32679	
221	0	32873	32590	32831	32631	32767	32623	32514	32615	
222	0	32832	32639	32781	32639	32764	32799	32599	32691	
223	0	32782	32714	32775	32559	32601	32629	32690	32765	
224	0	32856	32647	32799	32415	32791	32598	32647	32481	
225	0	32780	32621	32769	32583	32823	32739	32670	32109	
226	0	32873	32829	32662	32531	32625	32713	32767	31983	
227	0	32821	32783	32675	32622	32735	32741	32789	32224	
228	0	32825	32535	32670	32676	32773	32802	32687	32629	
229	0	32775	32759	32716	32775	32499	33071	32567	32967	
230	0	32807	32775	32775	32938	32587	33103	32541	33140	
231	0	32631	32639	32638	32915	32567	33239	32581	32834	
232	0	32742	32823	32677	32918	32423	33179	32879	32454	
233	0	32726	32723	32799	32947	32615	33137	32903	33063	
234	0	32740	32647	32734	33085	32631	33031	32823	33427	
235	0	32734	32937	32694	32797	32605	32647	32737	33247	
236	0	32820	32859	32718	32671	32799	32276	32677	33071	
237	0	32795	32674	32707	32495	32859	32231	32576	32903	
238	0	32775	32813	32717	32679	32683	32662	32461	33012	
239	0	32838	32790	32745	32619	32799	33006	32716	32375	
240	0	32780	32823	32771	32722	32775	32853	32815	31551	
241	0	32751	32695	32852	32821	32734	32807	32513	32564	
242	0	32757	32861	32699	33067	32773	32493	32459	33351	
243	0	32758	32820	32659	33207	32727	32620	32786	32707	
244	0	32762	32596	32631	33221	32739	32913	32978	31806	
245	0	32828	32801	32751	33223	32708	32771	32675	32563	
246	0	32807	32727	32703	33039	32570	32757	32756	33287	
247	0	32668	32759	32719	32966	32602	32727	32890	33861	
248	0	32709	32609	32681	32754	32607	32687	32851	33734	
249	0	32791	32775	32639	32471	32767	32749	32647	33763	
250	0	32742	32959	32638	32333	32822	32799	32455	33639	
251	0	32711	33034	32647	32147	32583	33090	32715	32929	
252	0	32646	32759	32617	32295	32611	33127	33051	31999	
253	0	32681	32718	32647	32363	32619	32967	32796	32372	
254	0	32728	32835	32719	32335	32647	32861	32593	32879	
255	0	32702	32722	32679	32455	32693	32839	32655	32842	
256	0	32734	32459	32640	32519	32559	32847	32698	33197	
257	0	32807	32703	32645	32615	32735	32587	32770	32539	
258	0	32810	32690	32727	32660	32815	32462	32707	31844	
259	0	32780	32513	32743	32871	32598	32615	32705	31993	
260	0	32767	32807	32815	32811	32647	32621	32799	32483	
261	0	32778	32646	32773	32839	32692	32828	32683	32151	
262	0	32786	32595	32805	32903	32591	32931	32737	31995	
263	0	32796	32831	32775	33139	32526	32867	32814	32459	
264	0	32810	32851	32726	33159	32547	32898	32789	32551	
265	0	32713	32850	32671	33074	32793	32509	32718	33008	
266	0	32754	32711	32775	32959	32807	32391	32575	33347	
267	0	32836	32959	32775	32977	32903	32695	32731	33283	
268	0	32805	32895	32739	32921	32722	32989	32780	32701	
269	0	32788	32743	32740	32827	32551	33047	32535	32535	
270	0	32743	32927	32775	32691	32703	32801	32647	32391	
271	0	32775	32831	32711	32615	32575	32811	32671	32687	
272	0	32756	32628	32687	32607	32717	32711	32636	33004	
273	0	32798	32676	32767	32471	32784	32545	32594	33234	
274	0	32767	32871	32739	32437	32839	32803	32722	32823	
275	0	32799	32806	32735	32587	32775	32751	32673	33083	
276	0	32775	32591	32635	32641	32602	32622	32594	33055	
277	0	32908	32647	32683	32823	32803	32607	32602	32527	
278	0	32812	32854	32775	32926	32604	32690	32647	32055	
279	0	32719	32831	32733	32844	32641	32964	32711	32325	
280	0	32704	32807	32653	32902	32471	33108	32579	32911	
281	0	32762	32738	32639	32927	32631	33012	32501	33509	
282	0	32755	32631	32676	32923	32719	32845	32477	33829	
283	0	32742	32803	32737	32841	32545	32903	32694	33275	
284	0	32725	32796	32747	32875	32683	32871	32915	32587	
285	0	32780	32602	32791	32863	32685	32863	32893	32735	
286	0	32791	32647	32675	32647	32789	32611	32914	32893	
287	0	32813	32807	32675	32617	32735	32497	32870	32751	
288	0	32794	32771	32783	32647	32775	32535	32895	32429	
289	0	32780	32749	32804	32794	32799	32596	32903	32751	
290	0	32749	32677	32751	32799	32515	32679	32467	33727	
291	0	32713	32775	32675	32791	32663	32813	32317	33391	
292	0	32671	32815	32685	32660	32858	32559	32559	33189	
293	0	32710	32647	32572	32655	32703	32471	32637	32842	
294	0	32738	32839	32567	32718	32759	32463	32659	32114	
295	0	32730	32727	32707	32583	32663	32635	32845	31671	
296	0	32764	32855	32615	32791	32732	32863	32895	31611	
297	0	32706	32783	32615	32775	32706	33139	32983	31365	
298	0	32781	32839	32667	32954	32512	33278	32831	31727	
299	0	32689	32756	32687	32885	32749	33025	32738	33143	
300	0	32694	32807	32805	33135	32599	32945	32796	33347	
301	0	32858	32807	32924	32987	32615	32739	32823	32877	
302	0	32887	32759	32901	32979	32679	32575	32711	32927	
303	0	32809	32663	32883	32775	32525	33053	32757	32629	
304	0	32831	32871	32820	32831	32595	33251	32898	32077	
305	0	32800	32821	32811	32751	32639	32974	32903	32692	
306	0	32799	32599	32687	32591	32764	32847	32793	33238	
307	0	32780	32735	32603	32555	32822	33055	32663	32999	
308	0	32707	32767	32535	32438	32663	33058	32732	32859	
309	0	32711	32710	32551	32503	32786	32775	32759	32914	
310	0	32711	32611	32603	32375	32611	32519	32577	33003	
311	0	32683	32879	32594	32343	32766	32549	32471	32796	
312	0	32623	32763	32541	32482	32595	32703	32613	32553	
313	0	32596	32641	32489	32541	32754	32527	32639	32351	
314	0	32599	32775	32607	32757	32719	32617	32663	32282	
315	0	32633	32903	32707	32749	32719	32754	32627	32603	
316	0	32711	32821	32775	32669	32733	32662	32791	32965	
317	0	32832	32669	32741	32871	32543	32791	32755	33028	
318	0	32815	32791	32868	32977	32775	32621	32741	33071	
319	0	32755	32663	32943	33023	32783	32699	32874	33181	
320	0	32662	32659	32828	32903	32721	32655	32846	33389	
321	0	32703	32843	32669	33103	32713	32775	32626	32935	
322	0	32844	32551	32722	33010	32733	32867	32519	32469	
323	0	32783	32828	32707	32903	32638	32575	32621	32571	
324	0	32783	32769	32711	32687	32535	32847	32817	32660	
325	0	32703	32483	32622	32607	32447	32797	32799	32943	
326	0	32748	32627	32596	32631	32628	33019	32715	32935	
327	0	32786	32855	32609	32516	32460	33109	32583	32741	
328	0	32767	32773	32725	32479	32679	32965	32647	32847	
329	0	32833	32733	32691	32419	32707	32723	32659	33041	
330	0	32727	32919	32711	32487	32673	32679	32745	33149	
331	0	32647	32967	32631	32503	32642	32561	32709	33077	
332	0	32717	32815	32585	32578	32839	32545	32570	32535	
333	0	32671	32623	32685	32660	32831	32628	32647	32503	
334	0	32710	32831	32751	32746	32591	32874	32743	32725	
335	0	32735	32739	32759	32982	32820	32635	32486	32643	
336	0	32737	32775	32817	33190	32826	32453	32564	32423	
337	0	32791	32589	32687	33191	32815	32412	32775	32258	
338	0	32808	32823	32784	33172	32578	32507	32581	32519	
339	0	32838	32722	32823	33063	32783	32469	32435	32727	
340	0	32812	32609	32707	32963	32751	32626	32435	33207	
341	0	32837	32794	32749	32828	32615	32966	32417	33128	
342	0	32811	32742	32637	32881	32679	33207	32775	32960	
343	0	32840	32677	32699	32767	32499	33215	32826	32966	
344	0	32839	32637	32663	32602	32743	33090	32741	32842	
345	0	32839	32749	32742	32567	32658	33171	32845	32999	
346	0	32819	32731	32799	32412	32527	33157	33047	32220	
347	0	32865	32753	32851	32493	32631	33177	33395	32373	
348	0	32775	32851	32821	32471	32388	33211	33670	33095	
349	0	32764	32795	32747	32765	32391	32791	33107	33568	
350	0	32804	32837	32775	32903	32521	32599	32479	33338	
351	0	32839	32797	32719	32799	32599	32551	32495	33015	
352	0	32764	32867	32775	32707	32687	32575	32739	32330	
353	0	32735	32611	32690	32727	32679	32695	32711	31994	
354	0	32833	32795	32567	32551	32758	32631	32637	32448	
355	0	32711	32931	32727	32391	32751	32443	32507	33106	
356	0	32813	32678	32783	32403	32855	32479	32702	33053	
357	0	32850	32799	32743	32607	32925	32583	32589	32551	
358	0	32895	32903	32881	32630	32849	32645	32581	32679	
359	0	32937	32572	33019	32763	32732	32663	32425	32806	
360	0	33022	32620	33045	32847	32674	32799	32591	32339	
361	0	32972	32573	33061	32887	32722	32829	32679	32319	
362	0	32727	32591	32871	33031	32846	32768	32706	32373	
363	0	32663	32753	32691	33007	32631	32647	33018	32249	
364	0	32623	32807	32453	32903	32813	32627	32805	32539	
365	0	32487	32935	32247	32806	32692	33019	32431	33079	
366	0	32469	33103	32147	32807	32411	33041	32535	32385	
367	0	32429	33039	32225	32869	32703	32738	32627	32239	
368	0	32406	32841	32341	33042	32613	32537	32621	32935	
369	0	32448	33039	32327	32979	32663	32631	32815	32674	
370	0	32476	32943	32515	32951	32700	32823	33007	32517	
371	0	32643	32647	32690	32711	32415	32995	32743	33327	
372	0	32758	32722	32717	32791	32658	32996	32766	33583	
373	0	32796	32727	32860	32617	32485	32887	32871	33467	
374	0	32821	32679	32797	32703	32642	32967	32803	33263	
375	0	32851	32545	32876	32679	32529	33027	32847	32875	
376	0	32877	32707	32806	32602	32692	32695	32762	32439	
377	0	32882	32589	32767	32575	32659	32640	32303	31958	
378	0	32858	32619	32821	32578	32775	32863	32495	31751	
379	0	32883	32579	32883	32662	32647	32697	32578	32594	
380	0	32827	32739	32873	32583	32740	32703	32562	33181	
381	0	32836	32695	32823	32719	32597	32999	32785	32701	
382	0	32788	32743	32822	32571	32647	32827	32830	33326	
383	0	32777	32769	32771	32775	32626	32471	32843	33663	
384	0	32820	32743	32767	32668	32839	32430	32826	33597	
385	0	32863	32818	32715	32717	32702	32671	32825	33137	
386	0	32800	32831	32624	32694	32730	33021	32755	32743	
387	0	32748	32647	32685	32815	32687	33103	32697	32293	
388	0	32703	32879	32735	32799	32529	32887	32711	32787	
389	0	32764	32790	32783	32923	32710	32773	32757	33320	
390	0	32701	32775	32695	32946	32614	32754	32738	32999	
391	0	32800	32670	32759	32921	32740	32807	32730	32398	
392	0	32762	32759	32747	32791	32871	32747	32637	31993	
393	0	32800	32731	32668	32399	32767	32734	32546	32415	
394	0	32736	32679	32707	32535	32695	32898	32576	32687	
395	0	32751	32903	32735	32599	32607	32435	32734	32679	
396	0	32787	32791	32681	32578	32791	32329	32749	32775	
397	0	32764	32743	32654	32629	32751	32485	32693	32823	
398	0	32729	32865	32633	32871	32476	32591	32743	32843	
399	0	32786	32687	32759	32831	32639	32701	32669	32916	
400	0	32745	32775	32703	32956	32654	32738	32639	32535	
401	0	32796	32767	32715	33027	32555	33067	32692	32062	
402	0	32838	32579	32663	33119	32706	33079	32821	31838	
403	0	32797	32835	32723	33029	32579	33129	32725	32455	
404	0	32735	32751	32663	32937	32745	33079	32685	32759	
405	0	32717	32615	32659	32869	32833	32955	32774	32799	
406	0	32787	32754	32711	32790	32818	33071	32831	32615	
407	0	32717	32732	32676	32722	32567	32979	32850	32591	
408	0	32701	32647	32623	32799	32730	32749	32818	32391	
409	0	32727	32827	32683	32859	32647	32674	32548	33469	
410	0	32713	32775	32771	32807	32461	32812	32689	34139	
411	0	32863	32519	32893	32775	32598	32592	32824	33767	
412	0	32937	32751	32891	32685	32775	32331	32107	33854	
413	0	32929	32726	32869	32823	32855	32423	31959	33511	
414	0	32903	32675	32764	32733	32847	32489	32483	33036	
415	0	32789	32977	32633	32755	32627	32566	32631	32881	
416	0	32748	32903	32631	32575	32819	32849	32975	32116	
417	0	32622	32821	32623	32593	32708	33179	33215	31866	
418	0	32610	32967	32662	32491	32655	33039	33181	31145	
419	0	32597	32866	32623	32659	32591	33266	33159	30834	
420	0	32563	32687	32431	32667	32471	32887	33069	31859	
421	0	32572	32972	32493	32671	32719	32642	32795	32823	
422	0	32628	32702	32756	32679	32685	32709	32591	33262	
423	0	32646	32855	32726	32581	32718	32763	32580	33301	
424	0	32724	32683	32749	32663	32635	32473	32677	33159	
425	0	32658	32809	32716	32667	32743	32642	32681	33139	
426	0	32654	32737	32647	32674	32699	32709	32791	32999	
427	0	32680	32559	32647	32690	32567	32826	32591	33105	
428	0	32748	32833	32681	32639	32707	32681	32463	32847	
429	0	32881	32714	32791	32685	32659	32645	32407	33031	
430	0	32801	32567	32743	32479	32772	32751	32349	33493	
431	0	32900	32727	32819	32551	32839	32615	32551	33295	
432	0	32908	32766	32773	32590	32685	32647	32826	32551	
433	0	32918	32743	32725	32773	32735	32751	32737	32807	
434	0	32769	32767	32697	32867	32763	32851	32867	32583	
435	0	32747	32894	32647	33271	32679	32891	32857	32623	
436	0	32831	32722	32775	33455	32647	32804	32722	33123	
437	0	32804	32802	32723	33351	32647	32977	32661	33215	
438	0	32771	32834	32707	33159	32559	32733	32763	32903	
439	0	32729	32660	32675	32939	32796	32591	32723	32151	
440	0	32822	32797	32727	32788	32825	32579	32738	31301	
441	0	32797	32727	32757	32613	32729	32475	32719	31127	
442	0	32754	32471	32787	32573	32789	32559	32551	31485	
443	0	32634	32703	32695	32423	32871	32551	32509	32229	
444	0	32636	32687	32723	32319	32527	32930	32718	32911	
445	0	32711	32619	32677	32203	32672	33006	32572	34212	
446	0	32726	32806	32647	32313	32699	32834	32543	35033	
447	0	32717	32620	32677	32374	32411	32690	32849	34266	
448	0	32709	32885	32675	32633	32671	32903	33020	33237	
449	0	32718	32751	32759	32679	32543	33147	32815	32923	
450	0	32791	32607	32703	32771	32431	33238	32741	32695	
451	0	32869	32749	32735	32717	32740	32927	32827	32990	
452	0	32818	32661	32828	32931	32751	32559	32711	33193	
453	0	32764	32535	32735	33046	32892	32609	32566	32703	
454	0	32797	32799	32745	33108	32807	32679	32586	32367	
455	0	32767	32679	32775	33159	32596	32767	32597	32423	
456	0	32793	32647	32839	32935	32679	32755	32532	33383	
457	0	32863	32876	32902	32939	32557	32950	32844	32667	
458	0	32934	32769	33044	32894	32677	32931	32979	31391	
459	0	32940	32628	32991	32705	32711	32748	32716	32263	
460	0	32836	32900	32837	32675	32518	32845	32681	32566	
461	0	32812	32703	32699	32769	32771	32715	32301	33131	
462	0	32770	32679	32566	32775	32825	32603	32284	33876	
463	0	32705	32834	32481	32864	32635	32423	32469	34247	
464	0	32606	32716	32191	32775	32558	32630	33077	32919	
465	0	32546	33026	32235	32919	32623	32775	33231	30901	
466	0	32640	33003	32359	32714	32655	32498	33026	30775	
467	0	32448	32903	32311	32623	32939	32524	32647	31854	
468	0	32382	32995	32452	32397	32820	33007	32751	31890	
469	0	32510	32871	32479	32391	32541	33577	32951	32208	
470	0	32594	32867	32639	32511	32626	33322	32851	33223	
471	0	32720	32695	32821	32749	32567	32929	32797	33919	
472	0	32929	32543	32964	32835	32538	32562	32711	33487	
473	0	32939	32703	33044	32819	32726	32773	32621	32738	
474	0	32891	32623	32835	32742	32707	33095	32663	32343	
475	0	32875	32515	32775	32911	32639	32879	32641	32303	
476	0	32896	32739	32783	32839	32787	32575	32642	32153	
477	0	32855	32978	32753	32582	32702	32588	32687	32399	
478	0	32775	32951	32583	32551	32754	32595	32679	32639	
479	0	32775	32934	32571	32359	32673	32642	32695	33071	
480	0	32775	32762	32599	32495	32631	32949	32709	33317	
481	0	32760	32599	32708	32518	32681	32850	32725	33311	
482	0	32767	32767	32747	32663	32703	32637	32647	33211	
483	0	32814	32655	32881	32498	32623	32621	32653	32911	
484	0	32855	32796	32877	32601	32818	32685	32593	32700	
485	0	32861	32635	32783	32679	32775	32749	32738	32861	
486	0	32797	32854	32702	32762	32629	32691	32721	33166	
487	0	32820	32790	32735	32903	32757	32679	32663	33259	
488	0	32695	32531	32809	33023	32763	32647	32687	33149	
489	0	32703	32820	32775	33035	32807	32628	32685	32789	
490	0	32773	32747	32691	33311	32739	32751	32767	32883	
491	0	32759	32583	32751	33342	32655	32718	32690	33127	
492	0	32762	32865	32803	33271	32669	32711	32810	32615	
493	0	32793	32815	32791	33273	32551	32843	32937	32122	
494	0	32781	32605	32763	33119	32669	32910	32811	32223	
495	0	32765	32775	32775	33076	32647	33085	32829	32229	
496	0	32796	32535	32711	32932	32512	32903	32891	32615	
497	0	32830	32775	32735	32929	32719	32671	32587	32965	
498	0	32846	32573	32679	32718	32823	32660	32449	33255	
499	0	32816	32467	32663	32666	32735	32661	32547	32691	
500	0	32837	32847	32689	32359	32687	32727	32479	32295	
501	0	32818	32935	32671	32295	32599	32722	32491	32191	
502	0	32727	32731	32867	32127	32751	32684	32525	32514	
503	0	32566	33003	32810	32021	32698	32911	32533	33023	
504	0	32637	33067	32859	32065	32595	32951	32694	33293	
505	0	32647	33098	32699	32303	32539	32935	32959	33186	
506	0	32710	32883	32673	32533	32667	32855	33023	32854	
507	0	32709	32839	32671	32656	32615	32551	32925	32018	
508	0	32765	32703	32646	32733	32771	32565	32916	32199	
509	0	32764	32711	32843	32741	32748	32711	32647	32487	
510	0	32892	32526	32805	32895	32889	32791	32198	32621	
511	0	32819	32871	32683	32847	32741	32775	32293	33347	
512	0	32806	32685	32511	32940	32765	32711	32343	33351	
513	0	32765	32466	32581	32831	32743	32927	32474	33473	
514	0	32784	32683	32659	32919	32485	32931	32749	32871	
515	0	32775	32585	32679	32903	32676	32869	32823	32231	
516	0	32788	32474	32663	32879	32487	33093	32893	31918	
517	0	32758	32878	32711	32914	32631	33121	32917	32619	
518	0	32685	32957	32551	32871	32726	33106	33065	32887	
519	0	32647	32886	32528	32835	32534	32799	32893	33703	
520	0	32725	32833	32605	32819	32727	32671	32821	34107	
521	0	32733	32787	32775	32839	32751	32655	32819	33346	
522	0	32673	32713	32709	32695	32615	32605	33039	32790	
523	0	32760	32839	32755	32773	32687	32567	32899	32463	
524	0	32713	32577	32799	32615	32550	32469	32761	32427	
525	0	32747	32790	32799	32743	32684	32550	32588	32083	
526	0	32691	32837	32663	32558	32727	32705	32511	31899	
527	0	32703	32622	32725	32637	32581	32725	32423	32407	
528	0	32751	32834	32854	32638	32818	33080	32481	32455	
529	0	32825	32743	32775	32863	32669	33347	32579	32223	
530	0	32851	32711	32770	32743	32834	32845	32567	32668	
531	0	32874	32763	32775	32871	32822	32635	32511	32795	
532	0	32881	32700	32647	32767	32609	32582	32577	32403	
533	0	32784	32806	32711	32799	32815	32839	32548	32550	
534	0	32824	32701	32684	32623	32724	32935	32663	33113	
535	0	32698	32679	32741	32845	32439	32831	32766	34237	
536	0	32653	32935	32687	32769	32709	32366	32868	34639	
537	0	32716	32903	32731	32837	32715	32311	32570	34357	
538	0	32733	32863	32838	32743	32727	32765	32657	33294	
539	0	32786	32798	32774	32684	32751	32805	32943	32167	
540	0	32790	32610	32700	32814	32603	32891	32979	32067	
541	0	32781	32839	32677	32642	32621	32804	32743	32599	
542	0	32752	32799	32615	32451	32703	32753	32751	32775	
543	0	32703	32566	32634	32669	32735	32762	32614	33104	
544	0	32759	32795	32655	32875	32715	32739	32617	32901	
545	0	32736	32819	32749	32975	32663	32765	32901	32114	
546	0	32763	32774	32669	33010	32718	32631	32913	31718	
547	0	32725	32843	32583	33078	32722	32565	32991	31355	
548	0	32687	32815	32562	32935	32799	32415	32647	31551	
549	0	32711	32839	32626	32805	32647	32631	32327	32246	
550	0	32749	32562	32572	32575	32756	32938	32414	32447	
551	0	32775	32767	32669	32673	32726	33345	32511	32155	
552	0	32811	32787	32655	32775	32519	33311	32677	32311	
553	0	32839	32665	32751	32818	32675	32959	32743	32899	
554	0	32859	32858	32833	32603	32594	32799	32900	33095	
555	0	32847	32773	32791	32612	32775	32789	32935	33079	
556	0	32873	32743	32791	32391	32762	32735	32676	33947	
557	0	32851	32759	32850	32583	32694	32583	32815	33970	
558	0	32758	32687	32811	32717	32539	32684	32902	33670	
559	0	32762	32660	32836	32566	32659	32615	32396	33431	
560	0	32832	32391	32853	32629	32735	32514	32151	33175	
561	0	32848	32679	32834	32565	32767	32327	32403	32689	
562	0	32740	32655	32751	32918	32860	32599	32895	31089	
563	0	32694	32637	32751	32826	32721	33233	33046	30141	
564	0	32717	32740	32629	32894	32511	33170	32742	31964	
565	0	32676	32660	32615	32787	32515	33107	32373	34005	
566	0	32702	32947	32729	32759	32583	32839	32413	34655	
567	0	32876	33251	32861	32487	32818	32884	32623	34823	
568	0	32981	33087	32923	32637	32815	32757	32563	35711	
569	0	32971	33124	32925	32739	32673	32637	32811	34823	
570	0	32893	32846	32871	32805	32515	32834	33199	32389	
571	0	32823	33005	32923	32724	32543	32805	33181	31350	
572	0	32820	32867	32775	32711	32523	32963	32850	31145	
573	0	32820	32701	32745	32775	32775	32831	32662	31554	
574	0	32587	32967	32615	32919	32742	32578	32367	32423	
575	0	32372	32903	32615	32995	32843	32551	32126	33387	
576	0	32271	32915	32428	32991	32796	32599	32223	33681	
577	0	32244	33068	32279	33031	32423	32749	32576	33895	
578	0	32367	32827	32386	32855	32383	33019	32727	33583	
579	0	32444	33055	32455	32947	32564	32835	32895	32487	
580	0	32509	32827	32567	32835	32461	32893	33004	31385	
581	0	32564	32595	32530	32773	32658	32803	32963	30674	
582	0	32540	32643	32475	32685	32727	32938	32765	31271	
583	0	32550	32358	32495	32638	32511	32743	32693	31983	
584	0	32544	32645	32509	32319	32695	32807	32669	32135	
585	0	32577	32485	32609	32466	32706	32982	32710	32276	
586	0	32549	32467	32599	32621	32451	32945	32557	32982	
587	0	32551	32527	32674	32628	32677	32856	32407	33274	
588	0	32554	32425	32620	32652	32685	32687	32431	33031	
589	0	32556	32551	32749	32639	32532	32815	32369	32933	
590	0	32555	32375	32586	32590	32679	32734	32535	32821	
591	0	32729	32215	32582	32813	32647	32523	32563	32955	
592	0	32717	32382	32588	32708	32785	32583	32607	33183	
593	0	32748	32297	32586	32751	32556	32535	32721	33535	
594	0	32829	32169	32663	32589	32743	32503	32692	33159	
595	0	32833	32439	32791	32679	32775	32503	32743	32709	
596	0	32934	32423	32838	32583	32903	32428	32748	32391	
597	0	32892	32775	32805	32500	32755	32633	32786	32242	
598	0	32753	32839	32583	32421	32759	32861	32581	32495	
599	0	32578	32735	32446	32467	32721	32999	32621	32767	
600	0	32687	32951	32575	32487	32543	32922	33031	32694	
601	0	32775	32828	32743	32539	32807	32983	33191	32666	
602	0	32808	33051	32711	32663	32715	32839	33135	33236	
603	0	32847	32823	32771	32797	32679	33018	33155	32595	
604	0	32839	32783	32783	32818	32647	33031	33248	31917	
605	0	32841	32698	32949	32978	32771	32883	33041	32594	
606	0	33036	32557	32994	33007	32867	32749	32937	33111	
607	0	33241	32764	33114	33226	32663	32639	33007	33071	
608	0	33474	32855	33243	33401	32927	32629	33095	32617	
609	0	33632	33053	33431	33362	33013	32535	33195	32662	
610	0	33638	33023	33386	33268	32809	32550	33159	33053	
611	0	33557	33020	33391	33259	33031	32557	33141	32775	
612	0	33498	32903	33287	33315	32873	32675	33007	32586	
613	0	33267	32943	33127	33007	32965	32583	32647	32567	
614	0	33182	32893	33023	32923	32837	32637	32471	32583	
615	0	33174	33079	32866	32903	32751	32647	32731	32559	
616	0	33092	32915	32788	32918	32772	32643	32806	32762	
617	0	33037	32893	32701	32659	32721	32695	32657	32937	
618	0	32937	32773	32647	32643	32751	32519	32303	33047	
619	0	32759	32863	32629	32742	32517	32755	32221	32903	
620	0	32724	32762	32705	32815	32593	32831	32429	33504	
621	0	32634	32694	32722	32855	32589	32723	32615	33475	
622	0	32496	32783	32615	32882	32433	32918	32957	32069	
623	0	32381	32723	32505	32775	32539	33199	32918	31565	
624	0	32358	32939	32524	32695	32526	33151	32685	32082	
625	0	32455	32946	32511	32687	32495	32699	32557	32655	
626	0	32478	33039	32451	32421	32695	32775	32382	33530	
627	0	32559	33133	32495	32429	32827	32775	32455	33211	
628	0	32631	32941	32530	32467	32677	32855	32603	33122	
629	0	32554	33021	32594	32468	32757	32862	32599	33087	
630	0	32526	32859	32660	32486	32771	32879	32506	32609	
631	0	32509	32932	32610	32631	32583	33375	32539	32145	
632	0	32527	32843	32685	32513	32525	33151	32775	32295	
633	0	32583	32611	32598	32485	32591	32697	32381	32674	
634	0	32658	32631	32647	32425	32747	32296	32463	33003	
635	0	32692	32434	32668	32567	32621	32491	32797	32505	
636	0	32688	32719	32687	32703	32639	32789	32927	32207	
637	0	32708	32716	32667	32960	32567	32743	32694	32806	
638	0	32688	32786	32699	33006	32615	32753	32645	33919	
639	0	32714	32855	32707	33074	32519	33022	32582	34326	
640	0	32774	32918	32726	33172	32499	32724	32948	32677	
641	0	32773	32775	32798	33317	32682	32709	32799	32369	
642	0	32743	32707	32775	33159	32578	32679	32973	32721	
643	0	32781	32747	32732	32926	32791	32740	32879	32493	
644	0	32851	32559	32735	32639	32822	32671	32567	32647	
645	0	32775	32719	32695	32447	32517	33007	32584	33383	
646	0	32796	32445	32695	32283	32735	33147	32669	33307	
647	0	32803	32685	32738	32424	32769	33005	32607	33367	
648	0	32715	32379	32852	32443	32798	32714	32703	33090	
649	0	32749	32559	32775	32455	32835	32623	32764	32671	
650	0	32679	32429	32702	32831	32615	32543	32892	32287	
651	0	32721	32645	32741	32943	32807	32607	32822	32167	
652	0	32711	32695	32757	32845	32758	32811	32479	32512	
653	0	32824	32831	32789	32769	32789	32859	32371	32687	
654	0	32805	32853	32599	32718	32663	32587	32505	32795	
655	0	32647	32759	32543	32519	32847	32559	32551	33295	
656	0	32636	32995	32555	32411	32620	32575	32655	33666	
657	0	32615	32865	32558	32663	32671	32622	32679	32999	
658	0	32617	33022	32643	32795	32523	32795	32631	32262	
659	0	32677	32774	32683	32827	32663	33146	32647	31827	
660	0	32769	32956	32719	32955	32677	33053	32723	31620	
661	0	32775	32807	32772	32894	32611	32823	32647	32259	
662	0	32779	32588	32862	32791	32711	32893	32767	32463	
663	0	32801	32913	32769	32823	32499	33139	33004	31918	
664	0	32802	32739	32711	32660	32638	32927	33006	32860	
665	0	32814	32795	32803	32611	32747	32663	32775	33373	
666	0	32722	32660	32786	32687	32635	32639	32701	33771	
667	0	32734	32822	32729	32597	32725	32821	32659	33709	
668	0	32727	32527	32727	32699	32731	32722	32679	32951	
669	0	32791	32821	32686	32844	32763	32855	32647	32958	
670	0	32758	32606	32738	32831	32626	32759	32699	32541	
671	0	32773	32879	32711	32823	32714	32791	32802	32823	
672	0	32825	32663	32683	32821	32767	32615	32671	32747	
673	0	32806	32821	32739	32943	32743	32667	32387	33171	
674	0	32766	32675	32743	32954	32636	32471	32495	32885	
675	0	32813	32743	32769	32931	32756	32519	32630	33047	
676	0	32797	32737	32775	32879	32739	32391	32644	32948	
677	0	32770	32555	32823	32810	32663	32468	32671	32751	
678	0	32726	32759	32791	32817	32695	32518	33127	32064	
679	0	32753	32626	32794	32743	32771	32668	33025	31963	
680	0	32825	32766	32722	32795	32527	32749	32583	31815	
681	0	32816	32571	32759	32741	32637	33059	32147	32489	
682	0	32800	32759	32703	32786	32497	33434	32567	33639	
683	0	32822	32534	32607	32673	32329	33522	32885	33453	
684	0	32759	32711	32638	32640	32605	33311	33063	32508	
685	0	32724	32487	32614	32607	32626	33287	33126	31963	
686	0	32630	32871	32615	32487	32729	32845	32935	32632	
687	0	32694	32859	32627	32430	32645	32633	32729	33261	
688	0	32663	32894	32638	32527	32829	32577	32615	33575	
689	0	32711	32935	32690	32543	32663	32583	32615	33511	
690	0	32810	32726	32789	32545	32863	32743	32644	33103	
691	0	32849	32980	32791	32724	32811	32679	32620	32789	
692	0	32775	32823	32821	33033	32709	32679	32743	32519	
693	0	32741	32791	32793	33095	32656	32567	32668	32575	
694	0	32734	32831	32645	33127	32680	32718	32607	32700	
695	0	32681	32842	32567	33055	32545	32749	32695	32583	
696	0	32673	32951	32567	32810	32735	32647	32671	32647	
697	0	32687	32815	32530	32717	32717	32687	32687	32759	
698	0	32751	32755	32598	32835	32671	32647	32836	32647	
699	0	32711	32815	32615	32775	32527	32726	32868	32527	
700	0	32734	32615	32694	32687	32763	32574	32687	32625	
701	0	32768	32748	32695	32647	32751	32711	32607	32902	
702	0	32763	32549	32775	32482	32683	32639	32671	32695	
703	0	32871	32687	32797	32671	32591	32631	32757	32346	
704	0	32962	32485	32789	32701	32838	32599	32613	32595	
705	0	32911	32671	32724	32723	32767	32419	32532	32759	
706	0	32862	32570	32743	32975	32870	32489	32687	32474	
707	0	32781	32862	32631	32909	32647	32535	32735	32535	
708	0	32738	32855	32631	32807	32726	32717	32631	32935	
709	0	32738	32807	32662	32827	32773	32701	32431	33607	
710	0	32711	32879	32623	32823	32571	32954	32573	33827	
711	0	32592	32935	32557	32692	32562	33344	32615	33313	
712	0	32463	33014	32478	32771	32507	33367	32731	32914	
713	0	32588	32884	32660	32713	32551	33095	32852	32102	
714	0	32655	32677	32810	32598	32565	33052	32998	32275	
715	0	32743	32729	32762	32519	32660	32947	33085	32582	
716	0	32788	32631	32775	32447	32563	32966	33055	31731	
717	0	32819	32895	32791	32647	32719	32834	33011	31474	
718	0	32738	32788	32816	32677	32679	32751	32771	32041	
719	0	32696	32631	32893	32749	32839	32639	32615	32817	
720	0	32775	32851	32847	32784	32807	32643	32564	33460	
721	0	32884	32723	32855	32949	32589	32617	32636	33389	
722	0	32903	32574	32923	32818	32676	32759	32796	32948	
723	0	32942	32755	32898	32865	32775	32879	32877	32807	
724	0	32935	32719	32849	32935	32694	32753	32759	32644	
725	0	32861	32647	32703	33027	32713	32845	32713	32845	
726	0	32644	32946	32615	33027	32555	32899	32575	33099	
727	0	32640	32808	32633	33101	32689	32719	32518	33239	
728	0	32640	32751	32603	33019	32743	32599	32563	32875	
729	0	32728	32754	32567	33003	32623	32570	32711	32519	
730	0	32637	32813	32569	32785	32739	32703	32663	32733	
731	0	32631	32751	32647	32715	32761	32731	32754	33035	
732	0	32726	32694	32697	32511	32639	32655	32839	32924	
733	0	32811	32583	32715	32483	32731	32704	32677	32869	
734	0	32796	32855	32749	32305	32687	32638	32727	32493	
735	0	32846	32702	32799	32311	32803	32606	32819	32588	
736	0	32842	32556	32787	32237	32775	32855	32467	33203	
737	0	32818	32708	32679	32445	32514	32895	32543	32586	
738	0	32758	32742	32640	32439	32579	32917	32663	32327	
739	0	32732	32623	32698	32690	32509	32981	32793	32533	
740	0	32733	32708	32591	32767	32647	32820	32719	32999	
741	0	32656	32707	32551	33055	32731	32707	32702	32911	
742	0	32669	32603	32527	33063	32604	32855	32791	32728	
743	0	32824	32706	32567	33103	32765	32748	32751	32483	
744	0	32694	32639	32614	32994	32699	32715	32530	32575	
745	0	32716	32702	32613	32871	32679	32815	32627	32421	
746	0	32858	32775	32690	32810	32667	32845	32620	32451	
747	0	32846	32919	32671	32735	32631	32833	32630	32729	
748	0	32759	32864	32795	32679	32679	32805	32758	32987	
749	0	32746	32876	32850	32797	32674	32855	32926	33213	
750	0	32802	32811	32845	32667	32438	32879	32881	33700	
751	0	32871	32827	32948	32421	32743	32783	32687	33287	
752	0	32878	32711	32927	32385	32757	32535	32574	32717	
753	0	32804	32799	32827	32499	32875	32579	32765	32482	
754	0	32735	32602	32701	32794	32615	32634	32703	32005	
755	0	32702	32731	32461	32911	32815	32647	32631	31670	
756	0	32691	32546	32355	32823	32671	32619	32495	32173	
757	0	32615	32903	32315	32901	32743	32706	32567	32996	
758	0	32524	32835	32302	32957	32466	32866	32631	34157	
759	0	32511	32823	32387	32964	32677	33013	32679	33837	
760	0	32492	32861	32445	32996	32739	32887	32963	33209	
761	0	32684	32903	32531	32863	32683	32974	32989	33415	
762	0	32687	32951	32677	32846	32703	32742	33079	33015	
763	0	32751	32751	32763	32743	32615	32919	33410	31538	
764	0	32767	32855	32866	32743	32694	33179	32894	31179	
765	0	32866	32691	32903	32731	32722	33012	32060	32071	
766	0	32807	32659	32862	32689	32726	32771	32338	32559	
767	0	32754	32755	32713	32583	32798	32626	32643	32797	
768	0	32743	32587	32639	32562	32583	32935	32711	33530	
769	0	32775	32839	32727	32634	32661	32879	32647	34163	
770	0	32743	32873	32783	32551	32591	32843	32859	33029	
771	0	32796	32748	32799	32613	32551	32766	32875	32813	
772	0	32821	32703	32807	32637	32775	32697	32804	33255	
773	0	32789	32709	32839	32595	32801	32515	32703	33129	
774	0	32809	32775	32799	32791	32802	32427	32729	32801	
775	0	32828	32687	32786	32919	32785	32575	32583	32487	
776	0	32871	32735	32767	32925	32670	32817	32556	32105	
777	0	32834	32675	32791	32835	32431	32925	32589	32631	
778	0	32842	32623	32835	32748	32734	32775	32466	33174	
779	0	32817	32743	32847	32627	32839	32855	32633	32959	
780	0	32756	32787	32789	32698	32727	33074	32967	32555	
781	0	32700	32881	32751	32654	32601	33095	33021	31975	
782	0	32756	32607	32775	32623	32795	32835	32739	32675	
783	0	32812	32682	32725	32642	32833	32603	32730	32903	
784	0	32806	32603	32743	32693	32641	32711	32745	33199	
785	0	32803	32851	32711	32809	32485	32841	32679	33095	
786	0	32787	32795	32613	32773	32535	32916	32788	32365	
787	0	32793	32727	32655	32913	32422	32939	32707	31723	
788	0	32726	32819	32663	32763	32667	32871	32673	32063	
789	0	32676	32647	32670	33003	32725	32621	32751	32528	
790	0	32614	32919	32683	32975	32815	32599	32819	32750	
791	0	32564	32799	32647	32875	32781	32671	32839	32087	
792	0	32647	32682	32639	32802	32783	32546	32791	31943	
793	0	32730	32805	32682	32751	32659	32683	32595	32181	
794	0	32756	32583	32775	32742	32631	32691	32527	32847	
795	0	32802	32801	32738	32647	32635	32935	32471	33434	
796	0	32811	32723	32807	32725	32681	32749	32565	33769	
797	0	32751	32773	32690	32617	32596	32754	32817	33489	
798	0	32832	32727	32687	32743	32751	32799	32655	33547	
799	0	32808	32695	32706	32814	32663	32819	32679	33349	
800	0	32758	32759	32647	32679	32711	32679	32811	32850	
801	0	32694	32912	32655	32847	32511	32645	32822	33084	
802	0	32692	32863	32659	32813	32759	32541	32787	32878	
803	0	32705	32690	32615	32829	32834	32469	32423	32795	
804	0	32652	32733	32685	32804	32695	32457	32549	32501	
805	0	32806	32743	32751	32463	32647	32883	32540	32205	
806	0	32724	32839	32742	32680	32602	33343	32723	32326	
807	0	32724	32654	32723	32609	32615	33103	32834	33287	
808	0	32761	32855	32723	32452	32577	32555	32775	33595	
809	0	32818	32775	32711	32495	32731	32551	33079	32674	
810	0	32815	32732	32715	32679	32662	32751	33379	31980	
811	0	32848	32743	32599	32859	32663	32599	32495	33175	
812	0	32821	32747	32639	32960	32711	32830	31975	34301	
813	0	32815	32807	32707	32911	32793	32658	32095	33683	
814	0	32797	32647	32812	32951	32679	33039	32715	31837	
815	0	32793	32415	32795	32831	32647	33363	33279	31247	
816	0	32828	32633	32917	32679	32492	33037	33177	32045	
817	0	32836	32573	32799	32527	32673	32943	32738	33103	
818	0	32845	32501	32745	32634	32719	32957	32647	33079	
819	0	32749	32683	32742	32685	32771	32775	32815	32691	
820	0	32715	32977	32745	32681	32754	32627	32687	32735	
821	0	32679	33135	32611	32619	32700	32323	32541	32659	
822	0	32687	33220	32509	32550	32822	32462	32493	32383	
823	0	32625	32967	32567	32419	32739	32619	32430	31847	
824	0	32590	32565	32604	32467	32879	32689	32548	32153	
825	0	32608	32707	32641	32583	32691	32758	32468	33287	
826	0	32685	32669	32642	32790	32479	33001	32807	32562	
827	0	32742	32677	32693	32903	32691	32935	32738	33031	
828	0	32817	32783	32807	32775	32615	32962	32711	33638	
829	0	32817	32673	32903	32903	32647	32925	32901	33533	
830	0	32815	32935	32807	32839	32671	32647	33007	32607	
831	0	32816	32903	32775	32999	32706	32591	32694	32377	
832	0	32767	32863	32723	33154	32715	32823	32595	32411	
833	0	32827	32775	32730	33125	32707	32803	32702	32562	
834	0	32700	32576	32667	32983	32727	32881	32747	32711	
835	0	32639	32887	32601	32885	32592	32889	32566	32876	
836	0	32497	32771	32567	32869	32749	32585	32379	33602	
837	0	32514	32638	32703	32623	32795	32613	32362	34087	
838	0	32676	32671	32715	32530	32614	32858	32287	34797	
839	0	32751	32525	32704	32523	32729	32847	32581	34243	
840	0	32767	32911	32709	32662	32751	32642	33062	32375	
841	0	32806	32781	32815	32611	32751	32711	33391	31207	
842	0	32810	32570	32699	32765	32763	32890	33323	30780	
843	0	32775	32884	32687	32807	32694	32933	33196	31581	
844	0	32758	32775	32826	32823	32647	32775	32990	32207	
845	0	32821	32615	32830	32717	32556	32591	32719	32257	
846	0	32811	32851	32830	32708	32835	32389	32591	32193	
847	0	32812	32727	32851	32679	32775	32563	32515	32668	
848	0	32852	32751	32903	32687	32431	32880	32487	32807	
849	0	32799	32679	32797	32772	32603	33094	32531	32975	
850	0	32846	32575	32699	32871	32740	32929	32605	32822	
851	0	32829	32762	32694	32871	32798	32675	32771	32749	
852	0	32829	32757	32749	32918	32821	32551	32667	32741	
853	0	32831	32677	32722	32883	32599	32647	32563	32759	
854	0	32804	32887	32715	32962	32713	32673	32725	32775	
855	0	32833	32829	32630	32879	32725	32686	32740	32809	
856	0	32698	32827	32707	33031	32599	32679	32719	32960	
857	0	32798	32894	32709	33010	32645	32794	32647	32807	
858	0	32895	32643	32695	32847	32813	32815	32553	32773	
859	0	32920	32903	32727	32604	32659	32719	32759	32967	
860	0	32887	32847	32775	32547	32655	32861	32714	33233	
861	0	32919	32876	32823	32391	32773	32759	32583	33387	
862	0	32842	32743	32980	32546	32705	32991	32530	32943	
863	0	32829	32735	32862	32563	32887	33167	32683	32379	
864	0	32782	32799	32753	32623	32807	32937	32771	32811	
865	0	32819	32636	32727	32582	32497	32775	32799	33215	
866	0	32815	32804	32727	32647	32772	32710	32831	33061	
867	0	32844	32807	32647	32647	32721	32614	32949	33055	
868	0	32743	32775	32687	32767	32775	32607	32727	33159	
869	0	32723	32855	32679	32696	32502	32801	32846	32500	
870	0	32784	32763	32661	32803	32775	32763	32717	32245	
871	0	32717	32871	32583	32791	32771	32679	32611	32316	
872	0	32709	32763	32571	32754	32795	32588	32647	32135	
873	0	32741	32815	32671	32799	32623	32662	32698	32359	
874	0	32760	32762	32735	32759	32706	32730	32555	32823	
875	0	32752	32726	32748	32831	32694	33143	32682	32742	
876	0	32775	32743	32775	32726	32595	32967	32839	32461	
877	0	32892	32667	32734	32603	32795	32676	32669	32943	
878	0	32941	32679	32863	32735	32847	32551	32679	33058	
879	0	32868	32550	32821	32741	32659	32818	32673	32972	
880	0	32865	32931	32815	32899	32747	32775	32773	33159	
881	0	32839	32839	32766	32876	32621	32629	32935	32818	
882	0	32775	32975	32819	32886	32559	32283	32975	32215	
883	0	32731	32891	32735	32806	32718	32278	32802	32167	
884	0	32727	32679	32743	32801	32762	32579	32689	32423	
885	0	32751	32823	32683	32565	32617	32783	32603	32726	
886	0	32743	32577	32642	32707	32647	33039	32459	34029	
887	0	32647	32951	32653	32647	32695	33319	32467	34695	
888	0	32724	32775	32655	32691	32501	33519	32695	33655	
889	0	32703	32642	32661	32595	32597	33369	32835	32263	
890	0	32731	32818	32671	32685	32562	33083	32950	30989	
891	0	32793	32823	32775	32775	32711	32903	33025	31367	
892	0	32795	32607	32706	32783	32773	32862	32857	32439	
893	0	32775	32791	32775	32883	32619	32661	32834	32615	
894	0	32797	32782	32641	32879	32827	32429	32703	33047	
895	0	32751	32863	32699	32949	32719	32293	32599	33178	
896	0	32775	32543	32681	32903	32783	32391	32591	32940	
897	0	32719	32707	32647	32861	32685	32367	32459	33542	
898	0	32745	32523	32655	32996	32719	32457	32492	33335	
899	0	32655	32743	32668	32831	32765	32551	32631	32503	
900	0	32630	32603	32726	32731	32877	32834	32869	31903	
901	0	32692	32916	32775	32713	32535	33243	33137	31431	
902	0	32754	32804	32717	32790	32595	33377	33049	31775	
903	0	32748	32751	32753	32647	32561	33167	32721	32743	
904	0	32671	32730	32631	32765	32625	32678	32574	33086	
905	0	32719	32590	32687	32790	32697	32711	32355	33157	
906	0	32671	32554	32615	32571	32773	32724	32385	32997	
907	0	32786	32477	32735	32530	32681	32735	32341	33453	
908	0	32751	32663	32679	32429	32727	32703	32719	33403	
909	0	32844	32515	32701	32329	32831	32677	32817	32933	
910	0	32860	32991	32792	32359	32719	32469	32902	32716	
911	0	32754	32995	32667	32443	32833	32715	32683	32895	
912	0	32747	32804	32631	32668	32662	32767	32694	32535	
913	0	32749	33001	32615	32833	32673	32708	32863	32025	
914	0	32692	32892	32663	32887	32593	32687	32797	32595	
915	0	32789	32775	32892	32867	32564	32487	32679	33693	
916	0	32921	32947	33003	32951	32667	32699	32599	33601	
917	0	32903	32719	32997	32935	32574	32720	32644	33287	
918	0	32855	32505	32754	33103	32751	32639	33133	32943	
919	0	32747	32658	32624	33051	32706	32451	32914	32852	
920	0	32692	32790	32533	32867	32821	32694	32071	33303	
921	0	32586	32775	32543	32899	32754	33071	32339	32866	
922	0	32500	32741	32429	32743	32708	33019	32902	32388	
923	0	32482	32887	32327	32733	32615	33053	33037	32253	
924	0	32516	32775	32441	32641	32463	32811	32951	32308	
925	0	32647	32764	32659	32667	32679	32647	32723	32391	
926	0	32703	32807	32663	32423	32831	32583	32647	32023	
927	0	32684	32647	32621	32487	32577	32932	32751	31255	
928	0	32734	32846	32671	32315	32702	32903	32751	31123	
929	0	32809	32686	32749	32354	32763	32717	32419	32249	
930	0	32741	32731	32773	32568	32547	32797	32317	33245	
931	0	32775	32735	32733	32767	32727	32877	32366	33812	
932	0	32730	32615	32697	32839	32757	32995	32663	34263	
933	0	32679	32869	32710	33015	32487	32961	32855	34373	
934	0	32715	32647	32799	32971	32631	32975	32869	33426	
935	0	32745	32903	32852	33063	32647	33189	32997	32061	
936	0	32878	32756	32878	33099	32686	32945	32894	31783	
937	0	32970	32797	32900	33119	32599	32981	32934	32282	
938	0	32930	32762	32847	32991	32686	32605	32927	32647	
939	0	32892	32709	32822	32871	32711	32465	32890	32817	
940	0	32828	32876	32769	32755	32630	32495	32735	33223	
941	0	32796	32745	32699	32669	32647	32506	32652	33963	
942	0	32754	32723	32694	32723	32639	32612	32617	33463	
943	0	32789	32715	32668	32659	32799	32515	32825	32923	
944	0	32752	32583	32574	32671	32717	32842	32941	32405	
945	0	32753	32817	32602	32663	32487	33149	32505	32012	
946	0	32730	32690	32671	32575	32690	32845	32387	32555	
947	0	32716	32455	32747	32691	32865	32621	32663	32829	
948	0	32812	32564	32871	32685	32551	32865	32883	32633	
949	0	32815	32299	32865	32769	32631	32918	33049	32320	
950	0	32813	32703	32785	32819	32739	32623	32518	32487	
951	0	32801	32874	32635	32973	32775	32445	32351	33159	
952	0	32749	33049	32534	32715	32807	32525	32402	33127	
953	0	32716	33607	32555	32419	32607	32641	32482	32557	
954	0	32609	33361	32626	32411	32743	32903	32541	32292	
955	0	32536	32879	32643	32722	32732	33039	32581	32407	
956	0	32630	32901	32668	32727	32613	32985	32727	32590	
957	0	32751	32637	32796	32775	32670	32948	32703	32885	
958	0	32767	32847	32731	32727	32719	32853	32789	32733	
959	0	32755	32710	32717	32646	32619	32771	32747	32903	
960	0	32759	32854	32759	32615	32742	32514	32711	33478	
961	0	32684	32673	32630	32679	32736	32587	32751	33259	
962	0	32677	32769	32594	32821	32479	32787	32925	32441	
963	0	32673	32663	32523	33075	32643	32959	33018	31975	
964	0	32635	32822	32503	33023	32647	32978	32759	32475	
965	0	32669	32687	32614	32983	32505	32819	32711	32725	
966	0	32733	32719	32726	32775	32735	32674	32735	32753	
967	0	32761	32775	32823	32755	32842	32695	32822	32493	
968	0	32786	32811	32758	32765	32658	32661	32911	32419	
969	0	32790	32767	32797	32661	32583	32785	32647	32503	
970	0	32849	32684	32854	32631	32714	32766	32502	33139	
971	0	32836	32773	32791	32535	32791	32707	32553	32743	
972	0	32839	32587	32775	32622	32667	32583	32735	32755	
973	0	32783	32714	32786	32423	32831	32548	32587	33787	
974	0	32831	32479	32782	32447	32727	32660	32467	34660	
975	0	32847	32773	32723	32297	32583	32821	32470	33847	
976	0	32848	32663	32711	32577	32749	32900	32839	32711	
977	0	32812	32767	32707	32708	32791	32647	33003	32333	
978	0	32813	32603	32775	32831	32663	32663	32831	32095	
979	0	32841	32629	32835	32887	32621	32711	32755	32073	
980	0	32718	32719	32694	32887	32567	33091	32839	31443	
981	0	32690	32590	32582	32943	32495	32959	32863	31791	
982	0	32728	32836	32622	33047	32519	32727	32725	32297	
983	0	32752	32741	32642	32931	32747	32832	32627	32512	
984	0	32846	33031	32706	32665	32671	33306	32587	32358	
985	0	32845	32911	32807	32749	32551	33087	32511	32802	
986	0	32762	32999	32834	32793	32629	32739	32551	33233	
987	0	32765	32677	32951	32799	32715	32775	32551	33607	
988	0	32801	32815	32855	32686	32807	32711	32583	33594	
989	0	32706	32739	32743	32844	32799	32620	32633	33446	
990	0	32662	32735	32514	32699	32828	32687	32445	33303	
991	0	32639	32754	32466	32805	32743	32824	32646	32325	
992	0	32611	32711	32445	32655	32549	32759	32807	31739	
993	0	32655	32775	32461	32454	32702	32971	32839	32093	
994	0	32702	32727	32549	32591	32719	32925	32855	32130	
995	0	32734	32775	32719	32819	32771	32851	32762	32370	
996	0	32790	32633	32851	32855	32557	32700	32661	32643	
997	0	32822	32843	32844	32817	32791	32527	33053	32805	
998	0	32817	32613	32918	32903	32711	32457	32961	33644	
999	0	32835	32887	32719	32757	32538	32933	32782	34035	
1000	0	32759	32903	32639	32722	32604	32791	32809	33575	
1001	0	32762	32925	32534	32759	32687	32655	32850	33189	
1002	0	32740	32737	32647	32935	32655	32567	32914	32893	
1003	0	32834	32551	32773	32761	32791	32707	32711	32985	
1004	0	32926	32799	32875	32828	32742	32767	32583	33082	
1005	0	32923	32586	32915	32679	32702	32947	32555	32803	
1006	0	32919	32734	32914	32582	32640	32903	32517	32295	
1007	0	32864	32607	32833	32681	32514	32955	32575	31957	
1008	0	32711	32823	32699	32647	32775	32655	32808	32213	
1009	0	32570	32725	32690	32723	32834	32693	32751	32605	
1010	0	32512	32699	32582	32851	32517	32979	32655	32475	
1011	0	32441	32903	32455	32951	32687	32940	32735	32170	
1012	0	32469	32643	32435	32991	32839	32749	32761	32352	
1013	0	32599	32887	32415	32869	32563	32837	32634	32719	
1014	0	32624	32619	32511	32799	32818	32839	32463	33238	
1015	0	32697	32903	32562	32686	32770	32815	32573	33755	
1016	0	32784	32827	32719	32615	32671	32708	32684	33708	
1017	0	32835	32615	32737	32577	32883	32791	32703	33493	
1018	0	32823	32887	32743	32767	32804	32793	32789	32892	
1019	0	32820	32766	32789	32749	32559	32893	32803	32249	
1020	0	32854	32605	32809	32681	32724	32479	32694	32343	
1021	0	32879	32732	32803	32578	32783	32415	32811	32071	
1022	0	32836	32727	32750	32671	32427	32803	32939	31671	
1023	0	32839	32786	32724	32474	32423	32946	32751	32399	
1024	0	32775	32583	32678	32647	32687	32914	32690	32623	
1025	0	32818	32803	32709	32669	32726	32893	32562	32864	
1026	0	32838	32791	32646	32774	32621	32851	32591	33075	
1027	0	32834	32829	32711	32847	32633	32839	32757	33315	
1028	0	32805	32797	32687	32735	32804	32575	32596	33683	
1029	0	32772	32647	32733	32870	32749	32662	32655	33647	
1030	0	32768	32858	32757	32775	32503	32751	32733	32594	
1031	0	32807	32743	32701	32838	32732	32885	32742	32087	
1032	0	32762	32927	32708	32775	32802	32543	32583	32291	
1033	0	32765	32826	32751	32615	32819	32503	32495	32755	
1034	0	32733	32789	32801	32764	32743	32586	32391	33269	
1035	0	32772	32711	32809	32839	32647	32731	32497	32887	
1036	0	32753	32571	32815	32791	32639	33189	32802	31623	
1037	0	32757	32775	32783	32890	32687	33111	32915	31804	
1038	0	32735	32676	32765	32951	32748	33005	32735	32682	
1039	0	32681	32836	32701	32703	32543	32812	32671	33167	
1040	0	32685	32671	32683	32810	32607	32845	32675	33004	
1041	0	32700	32791	32679	32726	32738	32775	32589	33175	
1042	0	32767	32603	32765	32795	32695	32929	32508	33287	
1043	0	32740	32923	32805	32799	32559	32972	32642	33207	
1044	0	32775	32719	32717	32593	32559	32610	32775	33024	
1045	0	32804	32823	32773	32655	32773	32579	32749	32950	
1046	0	32714	32810	32807	32605	32671	32524	32815	32756	
1047	0	32735	32708	32807	32597	32587	32791	32807	32475	
1048	0	32782	32869	32765	32509	32723	32803	32822	32307	
1049	0	32739	32671	32793	32519	32775	32757	32775	32493	
1050	0	32718	32790	32706	32532	32803	32719	32738	32647	
1051	0	32684	32559	32644	32533	32703	32743	32799	32623	
1052	0	32671	32769	32603	32669	32692	32630	32717	32597	
1053	0	32730	32708	32605	32695	32765	32724	32751	32583	
1054	0	32793	32751	32673	32796	32883	32694	32638	32551	
1055	0	32780	32717	32735	32898	32623	32771	32643	32574	
1056	0	32849	32807	32767	32901	32736	32740	32677	32850	
1057	0	32841	32730	32903	33173	32775	32591	32707	33303	
1058	0	32836	32763	32943	33091	32677	32763	32614	33593	
1059	0	32827	32729	32918	33007	32665	32686	32639	33311	
1060	0	32801	32647	32749	32965	32531	32788	32740	33019	
1061	0	32815	32806	32687	32915	32575	32759	32751	32807	
1062	0	32751	32791	32639	32955	32655	32947	32791	32065	
1063	0	32775	32795	32582	32803	32644	33079	32939	32181	
1064	0	32754	32772	32641	32765	32759	32834	32703	32758	
1065	0	32632	32898	32563	32703	32466	33071	32707	33103	
1066	0	32662	32711	32485	32735	32679	32670	32775	33415	
1067	0	32681	32871	32495	32673	32711	32662	32807	32494	
1068	0	32770	32796	32682	32725	32532	32525	32802	31812	
1069	0	32782	32719	32822	32628	32818	32503	32719	32311	
1070	0	32831	32711	32803	32687	32871	32547	32507	33335	
1071	0	32773	32673	32687	32667	32647	32694	32775	33045	
1072	0	32797	32866	32812	32671	32721	32990	32959	33429	
1073	0	32808	32885	32935	32532	32723	33246	32451	33778	
1074	0	32837	32685	32927	32439	32479	33231	32515	32879	
1075	0	32710	32820	32831	32391	32751	33083	32807	31777	
1076	0	32668	32687	32699	32515	32893	32663	32784	31942	
1077	0	32668	32527	32631	32583	32549	32679	32743	31775	
1078	0	32687	32799	32639	32503	32597	32978	32765	31879	
1079	0	32658	32646	32515	32663	32557	33187	32791	32358	
1080	0	32615	32931	32615	32599	32639	33069	32735	32925	
1081	0	32631	32847	32581	32751	32553	33031	32573	33127	
1082	0	32618	32711	32673	32734	32655	32678	32644	33561	
1083	0	32799	32847	32711	32869	32647	32519	32679	33383	
1084	0	32853	32559	32771	32911	32695	32551	32839	32839	
1085	0	32810	32759	32748	32934	32717	32663	32765	32479	
1086	0	32844	32735	32741	32775	32717	32532	32690	32519	
1087	0	32858	32503	32719	32967	32607	32631	32759	32631	
1088	0	32795	32749	32647	32807	32731	32583	32639	32838	
1089	0	32829	32639	32739	32921	32821	32724	32655	32951	
1090	0	32870	32474	32727	32721	32613	32727	32615	32771	
1091	0	32935	32663	32775	32890	32717	32751	32734	32810	
1092	0	32843	32615	32745	32955	32703	32607	32791	32646	
1093	0	32860	32901	32755	32740	32847	32575	32615	32559	
1094	0	32796	32741	32775	32745	32634	32591	32626	32487	
1095	0	32803	33005	32756	32676	32835	32861	32512	32195	
1096	0	32766	32783	32833	32578	32711	32739	32454	32308	
1097	0	32787	32915	32863	32529	32710	32599	32164	33338	
1098	0	32713	32586	32818	32419	32815	32575	32321	32599	
1099	0	32660	32898	32654	32482	32677	32527	32447	32029	
1100	0	32626	32895	32537	32460	32673	32803	32638	33439	
1101	0	32532	32981	32605	32711	32462	32914	32831	34794	
1102	0	32569	33005	32637	32707	32511	33061	33063	34263	
1103	0	32586	32775	32591	32838	32370	33204	33573	32638	
1104	0	32644	32847	32695	32985	32379	33265	33783	32026	
1105	0	32815	32582	32710	33007	32690	32681	33149	32858	
1106	0	32775	32787	32746	33110	32685	32577	32512	33012	
1107	0	32832	32555	32751	33143	32672	32717	32372	33179	
1108	0	32797	32766	32679	33073	32839	32933	32495	32528	
1109	0	32766	32839	32658	32975	32807	33170	32693	32099	
1110	0	32810	32625	32726	32734	32731	32768	32903	32115	
1111	0	32846	32789	32789	32790	32594	32811	32875	32095	
1112	0	32850	32711	32759	32818	32735	32797	32662	32413	
1113	0	32861	32859	32801	32716	32847	32725	32457	32815	
1114	0	32943	32720	32775	32647	32615	32534	32543	33223	
1115	0	32847	32647	32887	32642	32757	32599	32671	33028	
1116	0	32796	32791	32711	32531	32773	32583	32706	32964	
1117	0	32766	32607	32663	32429	32541	32751	32704	33140	
1118	0	32762	32743	32589	32535	32723	32715	32591	32903	
1119	0	32760	32723	32620	32487	32767	32721	32694	32455	
1120	0	32663	32847	32551	32675	32527	32884	32751	32087	
1121	0	32663	32775	32495	32373	32748	32845	32707	32463	
1122	0	32695	32695	32612	32379	32739	32851	32799	32885	
1123	0	32701	32751	32670	32383	32596	32814	32738	33403	
1124	0	32795	32581	32675	32647	32810	32695	32703	33283	
1125	0	32855	32823	32749	32695	32827	32513	32804	33138	
1126	0	32834	32612	32757	32811	32635	32609	32885	32731	
1127	0	32806	32759	32719	32852	32735	32643	32959	32215	
1128	0	32751	32743	32838	32940	32638	32727	32709	32167	
1129	0	32826	32769	32817	33119	32495	32743	32443	32647	
1130	0	32837	32771	32811	33027	32719	32839	32631	32551	
1131	0	32826	32682	32743	33095	32712	32631	32503	32868	
1132	0	32823	32719	32749	33023	32719	32623	32527	32726	
1133	0	32772	32647	32785	33012	32682	32951	32685	32631	
1134	0	32743	32791	32683	32999	32749	33246	32495	32751	
1135	0	32663	32733	32658	32771	32786	33253	32391	33129	
1136	0	32613	32875	32638	32843	32756	32987	32463	33659	
1137	0	32630	32663	32743	32775	32639	32647	32663	33471	
1138	0	32671	32791	32767	32814	32635	32679	32890	33287	
1139	0	32729	32579	32815	32663	32687	32508	32895	32447	
1140	0	32742	32740	32823	32698	32658	32421	32449	32277	
1141	0	32743	32605	32813	32487	32742	32511	32548	32050	
1142	0	32772	32784	32796	32527	32816	32634	32511	31971	
1143	0	32832	32695	32719	32785	32743	32717	32551	31967	
1144	0	32817	32821	32699	32759	32623	32962	32727	32590	
1145	0	32812	32647	32662	32547	32455	33115	32890	32147	
1146	0	32695	32871	32675	32643	32660	32891	32731	32217	
1147	0	32739	32795	32709	32689	32727	33012	32755	33174	
1148	0	32806	32839	32770	32700	32590	32954	32835	34171	
1149	0	32807	32623	32823	32739	32626	32743	33061	34242	
1150	0	32825	32802	32883	32613	32551	32785	33067	33254	
1151	0	32793	32629	32714	32758	32626	32619	32962	33095	
1152	0	32745	32847	32703	32662	32710	32657	32815	32797	
1153	0	32706	32598	32695	32731	32697	32742	32747	32315	
1154	0	32685	32822	32509	32642	32647	32903	32730	32527	
1155	0	32694	32727	32566	32646	32761	32775	32583	32947	
1156	0	32679	32791	32607	32637	32697	32851	32715	32940	
1157	0	32725	32685	32622	32644	32611	32791	32851	32723	
1158	0	32701	32577	32625	32743	32716	32743	33007	32279	
1159	0	32775	32871	32687	32757	32846	32566	32903	32477	
1160	0	32814	32583	32687	32839	32683	32589	32708	32703	
1161	0	32741	32927	32723	32791	32635	32545	32570	32967	
1162	0	32739	32819	32743	32885	32613	32573	32626	33047	
1163	0	32775	32642	32732	32868	32685	32563	32644	32931	
1164	0	32761	32801	32773	32823	32615	32903	32692	32447	
1165	0	32775	32854	32775	32878	32767	32982	32535	32473	
1166	0	32756	32828	32775	32879	32775	32775	32471	32735	
1167	0	32787	32703	32809	32769	32743	32518	32287	32847	
1168	0	32811	32519	32813	32707	32871	32646	32465	32903	
1169	0	32834	32747	32817	32802	32737	32687	32839	32431	
1170	0	32762	32741	32655	32692	32499	32863	32919	31619	
1171	0	32798	32665	32644	32677	32623	32959	32932	31943	
1172	0	32839	32763	32659	32553	32795	32662	32787	33194	
1173	0	32844	32643	32751	32662	32647	32554	32770	32489	
1174	0	32848	32894	32691	32591	32807	32927	32786	31716	
1175	0	32775	32827	32663	32738	32775	32864	32623	32591	
1176	0	32642	32711	32539	32725	32642	32870	32420	33987	
1177	0	32655	32766	32631	32823	32538	32883	32467	34522	
1178	0	32708	32643	32687	32799	32551	33005	32841	34228	
1179	0	32740	32878	32786	32631	32590	32775	33003	32732	
1180	0	32771	32732	32799	32597	32735	32775	32937	31714	
1181	0	32813	32771	32754	32647	32735	32845	32915	31751	
1182	0	32801	32743	32641	32733	32559	32729	32843	31979	
1183	0	32758	32838	32659	32937	32629	32751	32701	32575	
1184	0	32700	32863	32703	32885	32513	32834	32815	32751	
1185	0	32720	32647	32713	33050	32740	32701	32558	33251	
1186	0	32791	32751	32711	32986	32814	32719	32431	33495	
1187	0	32762	32627	32735	32947	32601	32705	32687	32869	
1188	0	32772	32860	32723	32903	32751	32847	32711	32708	
1189	0	32745	32751	32740	32871	32702	32903	32844	32429	
1190	0	32740	32620	32647	32887	32593	32903	33019	32607	
1191	0	32727	32887	32719	32724	32711	32790	32775	32898	
1192	0	32708	32775	32735	32671	32597	32679	32695	32787	
1193	0	32703	32701	32671	32747	32767	32823	32621	32687	
1194	0	32679	32775	32717	32830	32695	32919	32647	32379	
1195	0	32748	32783	32695	32613	32491	32985	32725	31948	
1196	0	32746	32791	32631	32658	32760	32845	32695	32159	
1197	0	32747	32763	32621	32599	32751	32643	32679	33004	
1198	0	32743	32655	32703	32661	32634	32575	32660	33215	
1199	0	32694	32791	32671	32559	32772	32539	32511	33413	
1200	0	32690	32599	32703	32683	32771	32637	32611	33366	
1201	0	32742	32815	32758	32611	32562	32645	32583	33054	
1202	0	32775	32727	32863	32663	32795	32614	32583	32871	
1203	0	32756	32551	32679	32718	32923	32509	32639	32615	
1204	0	32838	32771	32747	32809	32658	32751	32677	32365	
1205	0	32777	32791	32715	32858	32674	32950	32825	32413	
1206	0	32731	32694	32717	32897	32567	32937	32755	32919	
1207	0	32751	32900	32715	32999	32642	32847	32679	33949	
1208	0	32784	32669	32731	32839	32714	32630	32637	34291	
1209	0	32810	32893	32736	32755	32749	32647	32679	33219	
1210	0	32775	32591	32706	32671	32605	32729	32691	31999	
1211	0	32861	32820	32614	32434	32710	32623	32708	31943	
1212	0	32835	32769	32721	32662	32701	32943	32938	31901	
1213	0	32729	32895	32694	32695	32679	32801	32865	32087	
1214	0	32711	32841	32705	32603	32823	32823	32733	32548	
1215	0	32707	32836	32719	32729	32570	32764	32548	33031	
1216	0	32748	32807	32695	32655	32735	32715	32560	32940	
1217	0	32711	32692	32687	32867	32679	32827	32571	32663	
1218	0	32735	32823	32695	32980	32598	32918	32753	32695	
1219	0	32714	32577	32686	32754	32573	32951	32811	32285	
1220	0	32732	32695	32635	32903	32763	32684	33019	31751	
1221	0	32743	32553	32638	32923	32647	32746	32899	32428	
1222	0	32735	32727	32714	32646	32743	32869	32730	32975	
1223	0	32780	32549	32657	32796	32506	32956	32675	33543	
1224	0	32733	32847	32621	32671	32655	33004	32647	33591	
1225	0	32747	32799	32590	32844	32658	32738	32703	33668	
1226	0	32790	32711	32627	32815	32791	32574	32647	33465	
1227	0	32788	32875	32783	32846	32710	32383	32724	32251	
1228	0	32708	32859	32757	32932	32809	32446	32661	32263	
1229	0	32760	32751	32773	32870	32850	32406	32601	32603	
1230	0	32792	32903	32727	32924	32703	32526	32485	33257	
1231	0	32779	32839	32667	32861	32754	32615	32260	33703	
1232	0	32792	32715	32631	32711	32791	32918	32272	33111	
1233	0	32714	32707	32615	32531	32635	32786	32389	33133	
1234	0	32762	32595	32734	32611	32735	32862	32543	33481	
1235	0	32756	32775	32693	32540	32612	33086	33385	31379	
1236	0	32756	32713	32615	32515	32287	33426	33828	29791	
1237	0	32783	32609	32666	32533	32626	33091	32986	32570	
1238	0	32751	32748	32709	32583	32660	32797	32743	34045	
1239	0	32762	32477	32747	32631	32681	32887	32831	33086	
1240	0	32732	32791	32757	32686	32573	33101	32930	32391	
1241	0	32791	32514	32743	32775	32815	32767	32692	32991	
1242	0	32799	32735	32763	32869	32722	32791	32551	33155	
1243	0	32775	32748	32775	32895	32725	32813	32620	32871	
1244	0	32799	32671	32719	32925	32559	32775	32613	33231	
1245	0	32759	32790	32749	32883	32576	32765	32647	33017	
1246	0	32834	32741	32726	33084	32671	32517	32676	32667	
1247	0	32802	32991	32694	32965	32578	32336	32687	32285	
1248	0	32753	32894	32719	32886	32758	32407	32836	32031	
1249	0	32713	32775	32637	32752	32743	32604	32733	32059	
1250	0	32738	32935	32729	32742	32726	32989	32609	32756	
1251	0	32709	32775	32763	32695	32647	32918	32455	33935	
1252	0	32715	32679	32691	32743	32671	32971	32647	33943	
1253	0	32785	32807	32695	32843	32799	32935	32847	33159	
1254	0	32826	32571	32745	32675	32670	32892	32946	32671	
1255	0	32769	32871	32684	32719	32573	32877	32784	32015	
1256	0	32809	32759	32614	32541	32731	32863	32711	31975	
1257	0	32734	32630	32647	32631	32738	32805	32646	31901	
1258	0	32701	32873	32807	32671	32555	32647	32629	32548	
1259	0	32793	32641	32709	32811	32732	32615	32731	33239	
1260	0	32759	32939	32775	32715	32769	32490	32641	33511	
1261	0	32790	32837	32813	32727	32587	32582	32679	32999	
1262	0	32823	32647	32775	32935	32687	32527	32710	32544	
1263	0	32813	32766	32679	32971	32647	32647	32589	32564	
1264	0	32751	32663	32671	32859	32812	32730	32313	32775	
1265	0	32769	32501	32723	32743	32775	32773	32503	32676	
1266	0	32741	32883	32694	32659	32661	32767	32619	32783	
1267	0	32694	32788	32679	32655	32671	33159	32621	33133	
1268	0	32724	32750	32706	32663	32775	33151	32734	33028	
1269	0	32799	32699	32695	32450	32757	32711	32924	32869	
1270	0	32758	32699	32645	32476	32607	32499	32845	32943	
1271	0	32764	32507	32647	32549	32833	32533	32888	32260	
1272	0	32781	32799	32735	32669	32693	32391	32823	32107	
1273	0	32722	32772	32669	32726	32639	32634	32827	32313	
1274	0	32775	32765	32767	32751	32591	32647	32855	32933	
1275	0	32830	32734	32773	32783	32691	32775	32887	33490	
1276	0	32797	32551	32696	32711	32534	32891	32829	34130	
1277	0	32759	32775	32759	32690	32671	33303	32594	33607	
1278	0	32629	32740	32698	32599	32695	33245	32455	33023	
1279	0	32786	32683	32647	32687	32498	33003	32647	32436	
1280	0	32775	32813	32671	32615	32694	32874	32697	32214	
1281	0	32748	32717	32663	32571	32735	32765	32743	32391	
1282	0	32721	33086	32708	32643	32509	32677	32935	31895	
1283	0	32706	33031	32723	32647	32749	32549	32801	31734	
1284	0	32725	32847	32767	32813	32671	32663	32875	32333	
1285	0	32698	32830	32743	32825	32534	32903	33055	32669	
1286	0	32811	32767	32711	32801	32579	32965	32847	32986	
1287	0	32810	32799	32740	32958	32695	32731	32495	33395	
1288	0	32730	32711	32576	32965	32739	32515	32301	33228	
1289	0	32726	32575	32631	32903	32836	32495	32331	32775	
1290	0	32728	32710	32846	32807	32731	32845	32595	32190	
1291	0	32828	32701	32815	32799	32853	32999	32603	31833	
1292	0	32807	32455	32854	32831	32723	32915	32675	31852	
1293	0	32821	32711	32892	32783	32587	32876	32666	32521	
1294	0	32756	32751	32736	32668	32702	32870	32757	33034	
1295	0	32722	32831	32610	32578	32730	32862	32943	33204	
1296	0	32767	32758	32671	32451	32503	32767	32713	33823	
1297	0	32808	32663	32599	32571	32731	32723	32735	33317	
1298	0	32767	32814	32647	32678	32647	32663	32751	33086	
1299	0	32694	32787	32719	32769	32551	32723	32647	32903	
1300	0	32675	32626	32686	32787	32731	32593	32519	33021	
1301	0	32634	32831	32621	32963	32775	32593	32814	32458	
1302	0	32696	32749	32614	32903	32602	32589	32807	31947	
1303	0	32712	32787	32597	32883	32763	32645	32663	32502	
1304	0	32680	32775	32607	32876	32775	32518	32719	32759	
1305	0	32740	32595	32718	32839	32531	32711	32890	32903	
1306	0	32764	32775	32711	32971	32647	32479	32898	33015	
1307	0	32799	32775	32727	32997	32615	32707	32681	33590	
1308	0	32766	32846	32727	32927	32671	32874	32639	33271	
1309	0	32754	32845	32783	32943	32751	32871	32559	33281	
1310	0	32719	32773	32695	32925	32767	32955	32653	33110	
1311	0	32743	32647	32718	32807	32775	33072	32799	32164	
1312	0	32751	32737	32859	32690	32757	33069	32655	32295	
1313	0	32839	32715	32854	32749	32817	32775	32679	32775	
1314	0	32807	32831	32775	32775	32621	32557	32783	33143	
1315	0	32775	32773	32838	32870	32719	32669	32935	32509	
1316	0	32812	32611	32710	32681	32614	32891	32836	31667	
1317	0	32769	32791	32663	32646	32611	32955	32782	31483	
1318	0	32735	32742	32646	32484	32699	33155	32811	31843	
1319	0	32733	32514	32695	32476	32548	33103	32854	32619	
1320	0	32772	32730	32739	32359	32647	32967	32775	33383	
1321	0	32856	32679	32833	32451	32673	32685	32733	33011	
1322	0	32858	32642	32846	32352	32535	32647	32742	32685	
1323	0	32892	32787	32703	32517	32783	32492	32815	32701	
1324	0	32903	32747	32575	32647	32747	32562	32693	32736	
1325	0	32830	32771	32571	33036	32662	32679	32629	32519	
1326	0	32807	32967	32709	32871	32955	32447	32783	33014	
1327	0	32785	32869	32759	32775	32692	32431	32855	33108	
1328	0	32767	32724	32882	32732	32675	32762	32719	32766	
1329	0	32670	32962	32751	32953	32571	32871	32666	32485	
1330	0	32692	32871	32711	32918	32631	32958	32495	32501	
1331	0	32738	32567	32751	32859	32751	32687	32589	33247	
1332	0	32714	32870	32711	32819	32555	32551	32631	33407	
1333	0	32697	32743	32726	32962	32593	33415	32727	32813	
1334	0	32653	32555	32815	32758	32711	33331	32775	32774	
1335	0	32808	32839	32703	32741	32795	32863	32793	33632	
1336	0	32807	32838	32685	32599	32715	32519	32711	34535	
1337	0	32732	32890	32711	32647	32583	32612	32805	33828	
1338	0	32758	32887	32783	32560	32619	32802	32775	31999	
1339	0	32834	32541	32818	32669	32735	32642	32738	31423	
1340	0	32754	32679	32703	32564	32551	32839	32706	32003	
1341	0	32775	32734	32632	32690	32771	32751	32795	32579	
1342	0	32775	32599	32583	32647	32802	32809	32671	32763	
1343	0	32676	32698	32565	32891	32583	32839	32591	32941	
1344	0	32730	32611	32585	32795	32687	32579	32549	33055	
1345	0	32735	32775	32589	32687	32647	32679	32602	32415	
1346	0	32759	32733	32647	32788	32701	32735	32839	32187	
1347	0	32727	32646	32769	32613	32831	32676	32919	32127	
1348	0	32731	32863	32687	32663	32642	32681	32701	32903	
1349	0	32655	32755	32683	32707	32491	32743	32540	33549	
1350	0	32732	32518	32757	32675	32758	32741	32647	33001	
1351	0	32756	32745	32799	32731	32791	32693	32737	32554	
1352	0	32795	32711	32743	32742	32614	32803	32788	32503	
1353	0	32807	32838	32711	32724	32673	32668	32747	32335	
1354	0	32796	32935	32647	32855	32717	32641	32708	32602	
1355	0	32704	32801	32705	32678	32607	32655	32564	32855	
1356	0	32675	33029	32809	32805	32637	32873	32391	32967	
1357	0	32740	32935	32773	32839	32685	32737	32415	33044	
1358	0	32741	32823	32815	32725	32685	32694	32644	32527	
1359	0	32692	32827	32758	32775	32781	32531	32566	32503	
1360	0	32713	32791	32663	32821	32849	32495	32511	32609	
1361	0	32723	32775	32615	32903	32727	32679	32518	32830	
1362	0	32784	32813	32701	32668	32761	32609	32365	33178	
1363	0	32836	32631	32717	32751	32839	32775	32507	33442	
1364	0	32787	32903	32773	32835	32515	32915	32827	33974	
1365	0	32764	32821	32822	32859	32492	33287	33079	33717	
1366	0	32822	32647	32884	32775	32443	33447	33463	32262	
1367	0	32842	32851	32789	32807	32431	33263	33369	31540	
1368	0	32807	32731	32710	32811	32671	33071	33285	31970	
1369	0	32784	32873	32711	32815	32724	32775	33318	32463	
1370	0	32735	32815	32511	32749	32599	32532	32851	33287	
1371	0	32764	32673	32503	32511	32807	32403	32119	34134	
1372	0	32679	32783	32614	32623	32831	32485	32171	33799	
1373	0	32676	32644	32578	32647	32693	32563	32599	32815	
1374	0	32684	32878	32645	32775	32759	32683	32943	32381	
1375	0	32701	32809	32647	32916	32857	32500	32806	32563	
1376	0	32743	32751	32662	32789	32663	32311	32645	32525	
1377	0	32757	32711	32775	32914	32749	32643	32701	31853	
1378	0	32687	32707	32721	32751	32543	33399	32819	30855	
1379	0	32733	32789	32773	32806	32430	33198	32727	31382	
1380	0	32763	32578	32807	32660	32604	33007	32589	32421	
1381	0	32773	32863	32647	32731	32775	32605	32551	33235	
1382	0	32850	32786	32707	32691	32631	32884	32611	33610	
1383	0	32829	32699	32741	32775	32717	32946	32711	33575	
1384	0	32844	32786	32911	32930	32757	32903	32629	33723	
1385	0	32839	32708	32923	32915	32804	32590	32623	33668	
1386	0	32835	32916	32814	32859	32687	32575	32567	32871	
1387	0	32742	32763	32647	32647	32677	32631	32717	32176	
1388	0	32760	32766	32637	32699	32598	32602	32806	32223	
1389	0	32708	32755	32617	32537	32723	32659	32751	32159	
1390	0	32703	32619	32639	32644	32823	32665	32575	32578	
1391	0	32714	32799	32567	32775	32655	32823	32551	32738	
1392	0	32703	32786	32666	32821	32743	32919	32530	32626	
1393	0	32694	32698	32575	32783	32577	33175	32711	32623	
1394	0	32715	32889	32523	32741	32573	33213	32660	33507	
1395	0	32762	32845	32638	32775	32598	33207	32883	32878	
1396	0	32775	32695	32742	32927	32675	32854	32874	33035	
1397	0	32884	32834	32797	32933	32662	32707	32900	33421	
1398	0	32871	32903	32855	32958	32631	32615	32911	33027	
1399	0	32814	32967	32911	32933	32646	32559	32775	33191	
1400	0	32860	32933	32927	32679	32775	32529	32708	33082	
1401	0	32793	32795	32803	32577	32720	32509	32499	32971	
1402	0	32802	32974	32658	32412	32669	32736	32433	32861	
1403	0	32749	32871	32679	32550	32637	32923	32583	32423	
1404	0	32712	32916	32663	32477	32551	32982	32723	32043	
1405	0	32699	32845	32699	32420	32727	32783	32681	31971	
1406	0	32684	32726	32683	32462	32655	32838	32571	32367	
1407	0	32641	32754	32687	32379	32583	32775	32529	32959	
1408	0	32657	32575	32677	32567	32820	32743	32481	33511	
1409	0	32642	32919	32629	32711	32763	32607	32371	33657	
1410	0	32560	32951	32679	32870	32593	32677	32495	32663	
1411	0	32507	32735	32559	32876	32736	32773	32724	32375	
1412	0	32493	32887	32451	32877	32613	32767	32763	32407	
1413	0	32481	32718	32476	32795	32701	32795	32791	32263	
1414	0	32516	32473	32543	32751	32692	32711	32741	32447	
1415	0	32502	32695	32509	32677	32567	32621	32627	32973	
1416	0	32465	32587	32537	32658	32658	32593	32485	33055	
1417	0	32433	32625	32503	32592	32509	32740	32453	32966	
1418	0	32391	32682	32463	32695	32631	32955	32551	32708	
1419	0	32362	32493	32347	32711	32693	32891	32575	33031	
1420	0	32391	32679	32402	32588	32469	32950	32359	33391	
1421	0	32491	32388	32403	32435	32669	32749	32377	33661	
1422	0	32556	32231	32459	32434	32663	32989	32827	32878	
1423	0	32683	32263	32565	32433	32455	32873	33231	31457	
1424	0	32795	32129	32647	32597	32612	32761	33087	31359	
1425	0	32838	32406	32679	32439	32957	32293	32937	31789	
1426	0	32832	32475	32702	32540	32671	32541	32851	32372	
1427	0	32861	32469	32747	32422	32799	32892	32775	32602	
1428	0	32740	32642	32727	32643	32821	32993	32716	32863	
1429	0	32719	32621	32737	32789	32644	32967	32903	33239	
1430	0	32884	32845	32881	32783	32775	32791	33061	32951	
1431	0	32903	32977	32955	32917	32834	32807	33124	32466	
1432	0	32959	32855	32891	32815	32639	32813	33085	32484	
1433	0	32967	32911	32919	32783	32787	32879	32865	32703	
1434	0	32935	32903	32845	32874	32663	32773	32736	33159	
1435	0	33000	32742	32861	32749	32895	32725	32535	33543	
1436	0	33174	32743	32958	32764	32934	32391	32749	33231	
1437	0	33351	32581	33067	32999	32775	32679	33143	32403	
1438	0	33479	32941	33300	33039	32955	32647	33311	32287	
1439	0	33654	32959	33366	33264	33047	32551	33287	32999	
1440	0	33586	32799	33428	33212	32844	32671	33261	32935	
1441	0	33499	33172	33287	33375	32838	32783	33322	32577	
1442	0	33284	33103	33069	33087	32663	32818	33157	32299	
1443	0	33177	33095	32987	32983	32763	32619	33055	32431	
1444	0	33220	32943	32967	33030	32711	32461	32861	32597	
1445	0	33112	33135	32867	32883	32817	32445	33052	32187	
1446	0	33028	32903	32762	32843	32583	32567	32882	32299	
1447	0	32978	32775	32903	32809	32655	32601	32263	33719	
1448	0	32876	32557	32884	32647	32515	32679	32242	33825	
1449	0	32826	32583	32773	32629	32509	32895	32795	32463	
1450	0	32738	32763	32799	32464	32359	33110	32046	32471	
1451	0	32635	32727	32671	32342	32548	32903	31894	33347	
1452	0	32591	32578	32595	32335	32775	32935	32197	33482	
1453	0	32548	32951	32350	32391	32747	32962	32335	33031	
1454	0	32410	33031	32199	32374	32775	33124	32615	32329	
1455	0	32391	32959	32199	32447	32743	33321	32956	31931	
1456	0	32414	33175	32301	32615	32531	33117	32923	31943	
1457	0	32481	33011	32441	32739	32647	32803	32707	32887	
1458	0	32391	32802	32461	32763	32575	32501	32551	33979	
1459	0	32468	32876	32547	32935	32690	32567	32578	33255	
1460	0	32512	32611	32621	32882	32634	32900	32877	31886	
1461	0	32551	32731	32541	33069	32482	32802	32924	31788	
1462	0	32654	32639	32599	32862	32699	32714	32749	32301	
1463	0	32711	32524	32758	32855	32759	32549	32717	32771	
1464	0	32649	32787	32723	32743	32841	32549	32583	32879	
1465	0	32662	32791	32711	32723	32863	32487	32543	32915	
1466	0	32678	32655	32746	32695	32519	32511	32499	33117	
1467	0	32699	32823	32597	32700	32583	32879	32541	33283	
1468	0	32713	32775	32655	32684	32594	32919	32603	32549	
1469	0	32765	32743	32693	32823	32495	32875	32671	31879	
1470	0	32713	32731	32671	32647	32635	32821	32941	31957	
1471	0	32692	32436	32727	32709	32831	32719	32794	32434	
1472	0	32761	32658	32791	32691	32583	32749	32559	33183	
1473	0	32799	32655	32807	32748	32693	32786	32551	33715	
1474	0	32873	32663	32799	32803	32775	32903	32615	33831	
1475	0	32816	32662	32826	32802	32679	32815	32757	33263	
1476	0	32767	32575	32791	32763	32695	32732	32813	33810	
1477	0	32742	32811	32747	32743	32707	32805	32691	33687	
1478	0	32751	32697	32710	32695	32463	32641	32647	33115	
1479	0	32775	32716	32743	32621	32771	32459	32594	33575	
1480	0	32742	32711	32655	32831	32817	32344	32443	33199	
1481	0	32767	32613	32587	32827	32614	32903	32617	32013	
1482	0	32676	32885	32623	32903	32691	32885	32773	31909	
1483	0	32678	32871	32575	32789	32543	32791	32839	32371	
1484	0	32732	32623	32553	32758	32742	32679	32775	32286	
1485	0	32782	32832	32671	32612	32775	32663	32607	32901	
1486	0	32752	32866	32668	32663	32439	33114	32640	32991	
1487	0	32736	32692	32695	32554	32698	32815	32811	32583	
1488	0	32671	32774	32663	32571	32729	32855	33007	32294	
1489	0	32659	32755	32742	32551	32519	32999	33111	32208	
1490	0	32646	32691	32735	32709	32597	32807	32767	32670	
1491	0	32694	32851	32726	32598	32731	32559	32546	32915	
1492	0	32728	32729	32663	32615	33007	32636	32418	32999	
1493	0	32792	32693	32655	32412	32775	33709	32511	32543	
1494	0	32751	32695	32638	32355	32487	33591	32703	32093	
1495	0	32783	32691	32701	32434	32705	32775	32759	32207	
1496	0	32800	32583	32773	32575	32756	32759	32749	32501	
1497	0	32850	32759	32850	32711	32599	32735	32627	32679	
1498	0	32844	32603	32775	32771	32756	32631	32723	32837	
1499	0	32831	32751	32773	32578	32826	32578	32699	32660	
1500	0	32764	32559	32719	32845	32822	32612	32632	32589	
1501	0	32747	32918	32655	32903	32742	32423	32867	32381	
1502	0	32686	32815	32621	33135	32759	32606	32845	32529	
1503	0	32679	32743	32635	33197	32737	32685	32668	33017	
1504	0	32684	32819	32710	33218	32479	32903	32727	32663	
1505	0	32705	32801	32695	32963	32703	32686	32694	32771	
1506	0	32736	32855	32732	32869	32763	32455	32557	33146	
1507	0	32756	32843	32703	32641	32647	32766	32557	33525	
1508	0	32797	32679	32699	32743	32687	33031	32570	33337	
1509	0	32807	32879	32663	32565	32643	33191	32751	32677	
1510	0	32807	32742	32831	32577	32679	32967	32832	32621	
1511	0	32867	32738	32788	32565	32695	32763	32673	33335	
1512	0	32756	32668	32775	32589	32715	32814	32726	33145	
1513	0	32811	32833	32695	32495	32814	32858	32739	32511	
1514	0	32839	32726	32702	32407	32679	32731	32807	32199	
1515	0	32818	32839	32775	32342	32735	32601	32845	32037	
1516	0	32732	32743	32654	32359	32625	32615	32571	32484	
1517	0	32653	32941	32619	32615	32751	32647	32471	33297	
1518	0	32638	32813	32629	32806	32738	32719	32549	33881	
1519	0	32640	32595	32631	32933	32635	32713	32767	33572	
1520	0	32753	32599	32743	32917	32716	32724	32788	33061	
1521	0	32789	32507	32837	33041	32543	32807	33014	32637	
1522	0	32824	32795	32802	32916	32691	32835	33342	32324	
1523	0	32856	32741	32749	32750	32697	32635	32435	32791	
1524	0	32788	32709	32786	32587	32551	32693	31863	33261	
1525	0	32794	32974	32695	32759	32743	32789	32391	32106	
1526	0	32750	32838	32658	32647	32783	32859	32759	31612	
1527	0	32700	32739	32679	32865	32825	32695	32891	31975	
1528	0	32720	32951	32719	32836	32727	32631	32918	32274	
1529	0	32668	32702	32720	32788	32458	32755	32927	32535	
1530	0	32644	32627	32751	32819	32699	32875	32869	33507	
1531	0	32696	32695	32688	32855	32735	32789	32617	33751	
1532	0	32827	32691	32748	32747	32623	32580	32455	33293	
1533	0	32807	32845	32687	32927	32793	32853	32638	32943	
1534	0	32813	32835	32647	32850	32663	32903	32647	32774	
1535	0	32745	32591	32702	32807	32479	32935	32789	32199	
1536	0	32756	32879	32731	32610	32663	32959	32957	31933	
1537	0	32764	32815	32708	32615	32743	32850	32966	32631	
1538	0	32775	32679	32775	32659	32475	32939	32695	33869	
1539	0	32796	32855	32757	32735	32621	32746	32562	33300	
1540	0	32726	32845	32665	32719	32735	32403	32835	32487	
1541	0	32727	32623	32674	32899	32852	32407	32706	32287	
1542	0	32747	32815	32676	32742	32823	32807	32599	31959	
1543	0	32827	32732	32757	32787	32613	32921	32493	32647	
1544	0	32796	32553	32773	32683	32795	32923	32445	33647	
1545	0	32681	32820	32646	32683	32743	32963	32647	33569	
1546	0	32752	32811	32566	32594	32557	33106	32895	32884	
1547	0	32764	32757	32455	32703	32685	32941	32870	33066	
1548	0	32749	32775	32701	32516	32775	32756	32998	33007	
1549	0	32784	32599	32683	32567	32495	32751	32977	32503	
1550	0	32658	32820	32679	32647	32735	32839	33065	31835	
1551	0	32743	32668	32735	32556	32691	32791	32831	32505	
1552	0	32621	32710	32687	32583	32687	32567	32631	32789	
1553	0	32626	32599	32647	32571	32671	32615	32684	32807	
1554	0	32644	32614	32671	32607	32687	32590	32663	32391	
1555	0	32727	32937	32727	32607	32775	32715	32563	32751	
1556	0	32762	32959	32822	32679	32491	32671	32494	33015	
1557	0	32767	33149	32807	32671	32741	32847	32711	32951	
1558	0	32686	32991	32663	32735	32767	32839	32733	32943	
1559	0	32741	32711	32810	32753	32599	32801	32622	32871	
1560	0	32789	32756	32773	32807	32759	32681	32735	32639	
1561	0	32878	32594	32830	32861	32855	32551	32783	32699	
1562	0	32882	32775	32807	32690	32611	32733	32769	32975	
1563	0	32830	32757	32755	32535	32759	32623	32709	32475	
1564	0	32854	32671	32838	32519	32703	32775	32727	32695	
1565	0	32807	32796	32743	32671	32727	32747	32523	33111	
1566	0	32749	32703	32759	32615	32671	32621	32578	33174	
1567	0	32762	32556	32803	32818	32731	32623	32683	32967	
1568	0	32730	32695	32663	32788	32794	32647	32631	31799	
1569	0	32805	32527	32581	32955	32811	32821	32751	31234	
1570	0	32903	32711	32612	33007	32690	32943	32703	31911	
1571	0	32903	32451	32731	33222	32391	33154	32627	32285	
1572	0	32893	32788	32823	33140	32631	33287	32629	33170	
1573	0	32924	32716	32829	33124	32647	33159	32775	33170	
1574	0	32786	32620	32745	32983	32519	32745	33061	33046	
1575	0	32684	32827	32742	32647	32756	32381	32663	33227	
1576	0	32644	32591	32767	32723	32698	32451	32459	33468	
1577	0	32556	32985	32614	32734	32519	32813	32687	33551	
1578	0	32430	32943	32397	32887	32627	32799	32863	33356	
1579	0	32355	33061	32391	32903	32681	32807	32887	32919	
1580	0	32460	33082	32423	32894	32727	32727	33035	32828	
1581	0	32526	32739	32470	32758	32735	32683	32791	32613	
1582	0	32672	32939	32615	32622	32808	32567	32410	32491	
1583	0	32672	32692	32675	32533	32851	32623	32240	32511	
1584	0	32690	32628	32727	32419	32701	32639	32356	32630	
1585	0	32816	32703	32835	32605	32733	32695	32578	32851	
1586	0	32910	32547	32854	32583	32767	32761	32668	33413	
1587	0	32852	32753	32837	32639	32613	32943	32807	33194	
1588	0	32927	32751	32854	32445	32595	33024	33035	32130	
1589	0	32920	32687	32819	32391	32718	32775	32775	32225	
1590	0	32910	32797	32773	32562	32510	32655	32367	33174	
1591	0	32842	32692	32699	32624	32833	32608	32354	32885	
1592	0	32814	32667	32775	32917	32893	32647	32775	31895	
1593	0	32810	32765	32647	33014	32629	32767	32966	31841	
1594	0	32851	32647	32749	33117	32691	32935	32911	32519	
1595	0	32805	32897	32815	32885	32701	32963	32694	33363	
1596	0	32756	32790	32708	32791	32522	32647	32629	33601	
1597	0	32780	32589	32686	32694	32773	32643	32526	33937	
1598	0	32772	32794	32775	32823	32681	32567	32873	33746	
1599	0	32788	32767	32767	32647	32463	32795	32967	32851	
1600	0	32820	32703	32825	32795	32671	32955	33007	32438	
1601	0	32871	32729	32733	32775	32749	32819	32939	32009	
1602	0	32772	32775	32745	32883	32685	32967	32799	31895	
1603	0	32783	32804	32685	32759	32631	33047	32647	32036	
1604	0	32756	32751	32611	32782	32711	33087	32638	32271	
1605	0	32745	32630	32623	32941	32839	32767	32547	32550	
1606	0	32703	32903	32700	32989	32763	32647	32537	32727	
1607	0	32703	32770	32707	33110	32583	32810	32658	33039	
1608	0	32738	32703	32735	32942	32667	32823	32839	32761	
1609	0	32709	32885	32775	32803	32711	32975	32851	32471	
1610	0	32775	32863	32757	32671	32545	32914	32727	32671	
1611	0	32754	32789	32677	32583	32731	32858	32681	32999	
1612	0	32692	32903	32625	32454	32795	32599	32631	33154	
1613	0	32703	32711	32647	32612	32659	32487	32751	32643	
1614	0	32718	33029	32646	32668	32823	32501	32795	32439	
1615	0	32738	32855	32751	32820	32871	32607	32767	32087	
1616	0	32756	32691	32635	32750	32570	32795	32595	32250	
1617	0	32794	32818	32743	32703	32671	32742	32482	33415	
1618	0	32815	32677	32859	32631	32469	32724	32627	33844	
1619	0	32802	32547	32695	32681	32679	32729	32638	33925	
1620	0	32773	32711	32681	32775	32775	32355	32627	33759	
1621	0	32745	32596	32758	32742	32589	32413	32610	33204	
1622	0	32766	32711	32783	32707	32667	32735	32659	32751	
1623	0	32706	32736	32807	32613	32572	33191	32727	31803	
1624	0	32742	32647	32756	32709	32551	33215	32727	31635	
1625	0	32783	32895	32686	32575	32711	33407	32863	31779	
1626	0	32738	32831	32623	32687	32852	33075	32727	32422	
1627	0	32716	32862	32461	32662	32695	32740	32703	33410	
1628	0	32749	32775	32538	32663	32796	32578	32733	33455	
1629	0	32679	32639	32615	32583	32823	32927	32853	32583	
1630	0	32733	32766	32693	32749	32679	32877	32775	32843	
1631	0	32720	32751	32668	32671	32663	32773	32605	33951	
1632	0	32758	32587	32790	32789	32639	32642	32539	33887	
1633	0	32801	32676	32751	32839	32732	32837	32646	32718	
1634	0	32775	32597	32831	32903	32582	32955	32809	31991	
1635	0	32783	32613	32811	32790	32757	32743	32754	32177	
1636	0	32815	32759	32743	32809	32557	32699	32630	32692	
1637	0	32793	32925	32711	32631	32775	32546	32514	33110	
1638	0	32772	32790	32711	32773	32758	32577	32575	32709	
1639	0	32726	32847	32647	32647	32637	32545	32727	32195	
1640	0	32771	32809	32639	32636	32727	32516	32695	32038	
1641	0	32742	32894	32659	32668	32735	32647	32791	32023	
1642	0	32796	32812	32715	32660	32623	32805	32938	31956	
1643	0	32762	32695	32681	32774	32663	33203	32924	31927	
1644	0	32834	32935	32887	32635	32627	32978	32793	33383	
1645	0	32773	32809	32879	32639	32500	32633	32821	33637	
1646	0	32747	32723	32745	32557	32825	32359	32603	33721	
1647	0	32677	32815	32631	32823	32751	32583	32515	33446	
1648	0	32711	32641	32638	32903	32615	32626	32623	32910	
1649	0	32647	32919	32639	32849	32773	32655	32636	33223	
1650	0	32679	32803	32567	32876	32735	32615	32587	33185	
1651	0	32716	32828	32550	32719	32749	32709	32829	32258	
1652	0	32719	32766	32646	32775	32803	32877	32795	31555	
1653	0	32698	32599	32767	32818	32731	33088	32707	31156	
1654	0	32719	32871	32767	32882	32514	33131	32631	31770	
1655	0	32736	32823	32813	32862	32775	32882	32667	33287	
1656	0	32824	32709	32867	32898	32734	33011	32838	34101	
1657	0	32821	32703	32879	32717	32439	32887	32658	33582	
1658	0	32783	32681	32690	32843	32785	32749	32847	32823	
1659	0	32778	32851	32615	32855	32636	33111	32933	32359	
1660	0	32801	32811	32613	32809	32323	32975	32831	32855	
1661	0	32826	32815	32653	32835	32675	32899	32553	33415	
1662	0	32806	32723	32615	32703	32663	32804	32562	32937	
1663	0	32748	32757	32626	32742	32815	32771	32615	32257	
1664	0	32734	32759	32599	32731	32578	32631	32671	32255	
1665	0	32708	32615	32703	32601	32813	32647	32591	32503	
1666	0	32712	32727	32711	32727	32723	32737	32593	32735	
1667	0	32783	32631	32727	32595	32532	32807	32643	32991	
1668	0	32826	32743	32799	32611	32795	32655	32671	32943	
1669	0	32802	32583	32790	32491	32834	32681	32767	32786	
1670	0	32797	32835	32707	32595	32628	32591	32835	32685	
1671	0	32818	32743	32690	32615	32775	32691	32702	32731	
1672	0	32802	32775	32775	32721	32775	32732	32695	32591	
1673	0	32775	32791	32803	32647	32581	32647	32773	32683	
1674	0	32734	32620	32807	32696	32749	32590	32687	32529	
1675	0	32792	32853	32621	32855	32647	32682	32595	32547	
1676	0	32775	32767	32635	32826	32765	32655	32583	33041	
1677	0	32791	32669	32695	32685	32763	32695	32623	33271	
1678	0	32756	32864	32647	32679	32541	32700	32839	32903	
1679	0	32822	32605	32813	32722	32628	32674	32685	33115	
1680	0	32813	32551	32771	32839	32531	32842	32703	33445	
1681	0	32796	32775	32860	32925	32767	32795	32458	33174	
1682	0	32806	32753	32903	32999	32815	32762	32473	32628	
1683	0	32866	32930	32786	32975	32639	32935	32581	32575	
1684	0	32745	32951	32655	33079	32735	32941	32839	32551	
1685	0	32726	32811	32619	33027	32531	33079	32917	32339	
1686	0	32766	32919	32605	32957	32735	32996	32767	32467	
1687	0	32699	32775	32493	32999	32741	32763	32918	32916	
1688	0	32681	32845	32513	32871	32668	32571	32671	32943	
1689	0	32670	32926	32627	32747	32799	32434	32615	32737	
1690	0	32788	32655	32609	32879	32749	32566	32701	32263	
1691	0	32766	32879	32730	32833	32669	32743	32887	31961	
1692	0	32770	32807	32727	32832	32694	32750	32859	32447	
1693	0	32843	32581	32807	32723	32413	32898	32817	32627	
1694	0	32846	32903	32814	32647	32583	32903	32871	32380	
1695	0	32815	32842	32799	32647	32763	32615	32827	32351	
1696	0	32767	32566	32867	32635	32977	32511	32759	32675	
1697	0	32858	32890	32794	32659	32763	32799	32604	33601	
1698	0	32823	32863	32739	32687	32595	32951	32603	33274	
1699	0	32857	32734	32795	32775	32793	32815	32554	32966	
1700	0	32836	32867	32764	32743	32866	32711	32519	32423	
1701	0	32780	32839	32647	32765	32693	33001	32457	32551	
1702	0	32786	32814	32623	32775	32745	32967	32783	32527	
1703	0	32743	32802	32671	32937	32621	33052	33068	32967	
1704	0	32762	32642	32708	33021	32637	33213	33044	33227	
1705	0	32708	32887	32771	33010	32658	32885	32963	33623	
1706	0	32812	32701	32823	32871	32644	32543	32745	33878	
1707	0	32827	32685	32839	32621	32775	32493	32690	33351	
1708	0	32828	32695	32831	32559	32725	32700	32731	32619	
1709	0	32927	32539	32799	32341	32663	32681	32747	31799	
1710	0	32898	32627	32682	32450	32615	32855	32839	31693	
1711	0	32869	32647	32741	32425	32698	32748	32791	32045	
1712	0	32795	32583	32789	32535	32616	32739	32706	32839	
1713	0	32706	32729	32775	32475	32711	32863	32617	33671	
1714	0	32742	32815	32775	32599	32757	32783	32671	33271	
1715	0	32828	32811	32838	32639	32609	32745	32634	32859	
1716	0	32709	32827	32724	32973	32775	32682	32693	32525	
1717	0	32640	32685	32646	32916	32816	32615	32639	32455	
1718	0	32602	32940	32534	33026	32811	32635	32617	32773	
1719	0	32709	32755	32747	33050	32795	32743	32595	32501	
1720	0	32729	32609	32734	33052	32557	32707	32623	32433	
1721	0	32788	32771	32751	33031	32695	32591	32567	32580	
1722	0	32807	32647	32692	32913	32761	32564	32631	32719	
1723	0	32746	32805	32671	32845	32647	32675	32623	32903	
1724	0	32767	32814	32686	32883	32723	32735	32589	33479	
1725	0	32821	32866	32717	32678	32660	33146	32829	33486	
1726	0	32775	32791	32699	32679	32491	32775	32838	33308	
1727	0	32890	32685	32825	32687	32745	32489	32858	32727	
1728	0	32860	32887	32885	32607	32839	32550	32620	32431	
1729	0	32775	32610	32820	32557	32495	32859	32477	32509	
1730	0	32723	32841	32836	32713	32575	33359	32578	31591	
1731	0	32840	32743	32675	32551	32515	33650	33198	31142	
1732	0	32720	32694	32690	32567	32693	33047	32871	32493	
1733	0	32713	32919	32515	32506	32767	32790	32951	32283	
1734	0	32639	32839	32467	32610	32839	32637	33007	32014	
1735	0	32599	32699	32534	32643	32775	32610	32823	32557	
1736	0	32647	32786	32613	32751	32675	32662	32815	32919	
1737	0	32688	32519	32687	32813	32703	32635	32565	33415	
1738	0	32703	32887	32591	32974	32885	32574	32279	33878	
1739	0	32743	32823	32692	32903	32757	32623	32337	33731	
1740	0	32716	32898	32679	32791	32453	32963	32675	33985	
1741	0	32678	32836	32767	32947	32661	32924	32615	33917	
1742	0	32685	32748	32818	32839	32679	32751	32771	33117	
1743	0	32708	32667	32787	32717	32714	32511	32830	32963	
1744	0	32746	32685	32799	32615	32715	32538	32933	32807	
1745	0	32775	32495	32757	32479	32735	32487	32742	32999	
1746	0	32796	32759	32775	32581	32640	32615	32694	33013	
1747	0	32784	32719	32743	32557	32691	32903	32897	32063	
1748	0	32855	32669	32765	32655	32483	33243	32868	31330	
1749	0	32879	32679	32802	32466	32539	32919	32775	31742	
1750	0	32892	32503	32875	32575	32758	32871	32641	32143	
1751	0	32820	32747	32830	32607	32796	32741	32683	32045	
1752	0	32717	32709	32745	32801	32676	32578	32805	32259	
1753	0	32738	32884	32659	32925	32893	32567	32531	32999	
1754	0	32613	32674	32663	32854	32719	32807	32423	33141	
1755	0	32638	32812	32731	32991	32439	32727	32559	33077	
1756	0	32666	32647	32555	32879	32647	32767	32795	32814	
1757	0	32775	32729	32538	32922	32719	32623	32239	33303	
1758	0	32806	32570	32677	32941	32662	32818	32401	32508	
1759	0	32815	32858	32751	32743	32535	33110	32671	32300	
1760	0	32772	32838	32807	32823	32661	33001	32855	32784	
1761	0	32786	33015	32669	32645	32799	32903	32848	33575	
1762	0	32758	32845	32683	32469	32799	32647	32439	33894	
1763	0	32757	33082	32663	32540	32683	32668	32507	33014	
1764	0	32788	32727	32711	32567	32631	32647	32487	32719	
1765	0	32736	32845	32635	32633	32761	32734	32614	32723	
1766	0	32790	32705	32611	32711	32794	32719	32655	32418	
1767	0	32738	32475	32687	32691	32763	32775	32807	31919	
1768	0	32658	32646	32687	32687	32793	32699	32763	31701	
1769	0	32705	32511	32662	32667	32683	32714	32545	32523	
1770	0	32735	32805	32715	32611	32701	32695	32564	33563	
1771	0	32711	32695	32756	32614	32727	32717	32691	33501	
1772	0	32719	32668	32693	32722	32538	32722	32989	33223	
1773	0	32695	32739	32698	32671	32703	32543	33050	33021	
1774	0	32788	32533	32675	32637	32607	32703	33141	32491	
1775	0	32738	32690	32661	32647	32647	32685	32731	32748	
1776	0	32801	32587	32704	32751	32631	32855	32260	32935	
1777	0	32797	32893	32767	32733	32660	32958	32535	32823	
1778	0	32788	32758	32748	32659	32667	33254	32707	32726	
1779	0	32768	32855	32711	32953	32534	32987	32535	32911	
1780	0	32791	32831	32700	33058	32795	32591	32662	32743	
1781	0	32782	32838	32726	32941	32677	32437	32807	33189	
1782	0	32711	32817	32711	33020	32572	32525	32807	33791	
1783	0	32684	32783	32750	32990	32659	32519	32683	33695	
1784	0	32761	32788	32785	32983	32684	32771	32529	32537	
1785	0	32719	32614	32763	33101	32746	33227	32462	31996	
1786	0	32710	32823	32784	33003	32821	33495	32540	32251	
1787	0	32730	32734	32668	33067	32635	33205	32691	31958	
1788	0	32738	32769	32759	32883	32603	33085	32836	31781	
1789	0	32740	32711	32725	32885	32487	33059	32969	31681	
1790	0	32708	32767	32723	32617	32627	33028	33099	31013	
1791	0	32770	32887	32711	32143	32727	32808	33087	31379	
1792	0	32757	32887	32663	32319	32598	32758	32742	32823	
1793	0	32711	32925	32725	32391	32795	32548	32691	33918	
1794	0	32791	32646	32748	32503	32812	32479	32503	34391	
1795	0	32816	32802	32709	32647	32543	32359	32499	34487	
1796	0	32822	32597	32663	32574	32631	32420	32715	33436	
1797	0	32871	32751	32631	32749	32708	32325	32799	32471	
1798	0	32822	32607	32695	32751	32827	32423	32679	32198	
1799	0	32770	32935	32687	32842	32756	32491	32602	32183	
1800	0	32759	32855	32588	32817	32847	32819	32621	31923	
1801	0	32682	32783	32621	32797	32787	33055	32495	32415	
1802	0	32629	32811	32703	32867	32540	33102	32527	32688	
1803	0	32735	32767	32775	32903	32787	32911	32522	33062	
1804	0	32751	32791	32815	32866	32795	32895	32551	33735	
1805	0	32838	32663	32701	32833	32578	32726	32745	33780	
1806	0	32877	32866	32687	32887	32627	32675	32978	33535	
1807	0	32809	32710	32663	32727	32706	32759	33050	32950	
1808	0	32823	32729	32691	32745	32527	32999	33092	32706	
1809	0	32885	32703	32711	32630	32717	32732	32807	32535	
1810	0	32791	32687	32677	32717	32698	32809	32687	32320	
1811	0	32743	32701	32887	32775	32615	32629	32715	32555	
1812	0	32797	32597	32807	32775	32739	32803	32623	32871	
1813	0	32759	32819	32639	32821	32767	32633	32483	32983	
1814	0	32652	32739	32603	32835	32565	32723	32629	32851	
1815	0	32716	32719	32629	32721	32687	32615	32743	32694	
1816	0	32792	32809	32691	32773	32718	32703	32965	32123	
1817	0	32680	32679	32734	32582	32511	32914	32971	32119	
1818	0	32719	32839	32646	32791	32619	32937	32879	32351	
1819	0	32726	32715	32623	32742	32724	32785	32791	32439	
1820	0	32757	32773	32684	32597	32455	32805	32697	32915	
1821	0	32768	32759	32657	32615	32603	33123	32519	33258	
1822	0	32775	32727	32615	32597	32837	32991	32429	32775	
1823	0	32749	32492	32663	32667	32751	32695	32443	32711	
1824	0	32626	32879	32669	32517	32862	32523	32471	33439	
1825	0	32772	32647	32751	32490	32817	32546	32407	34095	
1826	0	32766	32775	32807	32547	32637	32611	32391	33703	
1827	0	32797	32631	32828	32551	32775	32941	32855	31905	
1828	0	32775	32795	32711	32559	32647	32999	33173	31141	
1829	0	32738	32775	32747	32526	32487	32837	32895	32491	
1830	0	32837	32845	32759	32999	32679	32742	32767	33046	
1831	0	32886	32754	32767	33259	32683	32743	32841	32797	
1832	0	32796	32815	32669	33263	32630	32543	32719	33306	
1833	0	32810	32823	32669	33319	32668	32482	32775	33151	
1834	0	32734	32927	32707	33093	32753	33167	32863	32407	
1835	0	32740	32619	32655	33031	32695	33431	32790	32428	
1836	0	32729	32835	32717	32971	32618	33143	32435	33084	
1837	0	32716	32635	32754	32657	32578	32775	32527	32833	
1838	0	32715	32861	32711	32725	32759	32535	32749	32631	
1839	0	32815	32589	32755	32559	32671	32537	32738	32662	
1840	0	32815	32797	32647	32711	32674	32719	32895	32871	
1841	0	32785	32637	32716	32659	32655	32793	32812	32764	
1842	0	32705	32932	32674	32701	32801	32813	32860	32519	
1843	0	32722	32807	32679	32602	32622	32567	32595	33259	
1844	0	32692	33003	32679	32528	32845	32539	32471	33623	
1845	0	32751	32814	32751	32663	32737	32576	32698	32982	
1846	0	32690	32931	32647	32587	32503	32861	32915	32669	
1847	0	32738	32891	32663	32844	32583	32898	32895	31989	
1848	0	32808	32867	32775	32829	32681	32903	32807	31735	
1849	0	32806	32676	32735	32839	32605	32850	32867	31922	
1850	0	32892	32615	32767	32897	32541	32959	32851	32154	
1851	0	32902	32463	32775	32859	32746	32707	32453	32423	
1852	0	32775	32491	32825	32763	32766	32581	32578	32375	
1853	0	32756	32679	32847	32791	32727	32543	32597	32421	
1854	0	32783	33010	32675	32615	32839	32669	32827	32509	
1855	0	32786	32987	32663	32489	32685	32743	32674	33639	
1856	0	32745	32903	32561	32429	32722	32910	32671	34085	
1857	0	32664	32923	32583	32495	32527	32809	32572	33671	
1858	0	32665	32728	32595	32695	32751	32818	32633	33427	
1859	0	32607	32770	32543	32706	32647	32775	32815	32783	
1860	0	32605	32691	32595	32579	32663	32631	32852	32198	
1861	0	32679	32845	32694	32668	32887	32495	32773	32103	
1862	0	32752	32746	32735	32567	32797	32590	32759	32319	
1863	0	32809	32575	32857	32699	32617	32717	32685	32967	
1864	0	32846	32767	32914	32716	32659	32624	32575	33159	
1865	0	32933	32639	32854	32774	32659	32887	32597	32898	
1866	0	32847	32791	32735	32775	32727	32916	32705	32925	
1867	0	32740	32719	32631	32667	32719	33031	32695	32895	
1868	0	32632	32705	32564	32722	32531	33009	32647	33327	
1869	0	32654	32799	32527	32702	32766	32827	32645	33133	
1870	0	32655	32607	32571	32854	32766	32887	32775	32589	
1871	0	32647	32838	32562	32919	32530	32892	32699	32679	
1872	0	32625	32615	32619	32962	32718	32845	32543	32491	
1873	0	32675	32791	32689	32863	32703	32878	32771	32447	
1874	0	32793	32502	32817	32823	32707	32702	32789	32882	
1875	0	32775	32735	32788	32835	32603	32739	32834	33371	
1876	0	32863	32798	32691	32863	32676	32655	32839	33197	
1877	0	32829	32767	32711	32860	32694	32759	32751	33026	
1878	0	32815	32823	32812	32639	32644	32709	32751	32260	
1879	0	32870	32787	32821	32540	32874	32507	32807	31975	
1880	0	32818	32943	32809	32606	32788	32786	32647	32412	
1881	0	32763	32751	32715	32575	32711	32902	32634	33159	
1882	0	32785	32909	32783	32567	32710	33020	32839	32499	
1883	0	32807	32802	32733	32524	32502	32869	32873	31783	
1884	0	32817	32671	32727	32535	32674	32745	32535	32439	
1885	0	32808	32786	32691	32647	32641	32851	32543	32613	
1886	0	32799	32577	32770	32799	32683	32798	32771	32635	
1887	0	32789	32724	32789	32932	32530	32929	32854	32459	
1888	0	32838	32587	32903	32955	32675	32775	32903	32639	
1889	0	32830	32799	32841	32999	32823	32591	32673	32831	
1890	0	32712	32763	32817	33026	32733	32431	32445	33300	
1891	0	32632	32861	32795	32935	32847	32253	32603	33319	
1892	0	32627	32663	32692	32852	32758	32402	32547	33375	
1893	0	32709	32935	32687	32791	32540	33079	32773	33069	
1894	0	32793	32763	32749	32834	32692	32803	32711	33879	
1895	0	32787	32628	32759	32785	32763	32605	32491	33571	
1896	0	32831	32694	32658	32873	32854	32495	32599	32741	
1897	0	32775	32555	32587	32775	32635	32683	32827	32237	
1898	0	32767	32788	32607	32567	32729	32732	33079	31799	
1899	0	32723	32535	32519	32674	32734	33082	32897	31215	
1900	0	32749	32839	32647	32667	32483	33207	32643	31694	
1901	0	32612	32869	32599	32843	32583	33247	32555	32892	
1902	0	32580	32692	32591	32775	32365	33367	32576	34399	
1903	0	32665	32935	32679	32805	32510	33087	32841	34476	
1904	0	32758	32771	32605	32847	32596	32869	33092	32786	
1905	0	32658	32532	32601	32885	32663	32561	33226	32262	
1906	0	32743	32749	32587	32860	32818	32503	32919	31965	
1907	0	32755	32765	32787	32703	32811	32943	32372	32135	
1908	0	32783	32962	32743	32647	32635	32847	32615	32454	
1909	0	32803	32935	32785	32406	32721	32825	32690	32647	
1910	0	32903	32599	32860	32466	32773	32940	32663	32733	
1911	0	32814	32749	32837	32204	32701	32773	32567	33028	
1912	0	32810	32706	32806	32282	32728	32577	32465	33539	
1913	0	32813	32751	32877	32406	32745	32390	32561	33410	
1914	0	32855	32763	32839	32489	32827	32487	32637	33047	
1915	0	32843	32609	32785	32715	32743	32755	32654	32595	
1916	0	32753	32749	32711	32786	32711	32573	32642	32125	
1917	0	32785	32583	32685	32919	32823	32567	32706	32374	
1918	0	32778	32831	32699	32916	32629	32770	32854	33206	
1919	0	32751	32706	32690	33055	32671	32747	32663	33693	
1920	0	32742	32641	32619	33102	32555	32751	32679	33047	
1921	0	32662	32759	32695	33087	32679	32711	32644	32431	
1922	0	32679	32727	32709	33074	32807	32731	32583	32289	
1923	0	32841	32516	32773	32815	32647	32706	32811	32167	
1924	0	32846	32813	32724	32807	32673	32951	32809	32279	
1925	0	32855	32762	32746	32815	32671	32689	32754	32062	
1926	0	32865	32677	32775	32871	32719	32783	32937	32035	
1927	0	32786	33071	32751	32715	32689	33085	32966	32831	
1928	0	32752	32959	32748	32742	32543	33206	32999	33282	
1929	0	32718	32659	32531	32605	32751	33106	32983	32503	
1930	0	32545	32823	32551	32675	32770	32890	32519	32605	
1931	0	32637	32719	32638	32582	32677	32589	32420	32871	
1932	0	32584	32807	32635	32524	32829	32442	32607	32855	
1933	0	32582	32839	32685	32607	32706	32596	32763	32959	
1934	0	32708	32612	32694	32567	32566	32575	32793	32647	
1935	0	32760	32887	32775	32599	32678	32692	32727	32613	
1936	0	32824	32851	32821	32501	32619	32510	32683	32660	
1937	0	32829	32646	32805	32575	32719	32519	32585	32807	
1938	0	32767	32731	32821	32663	32661	33077	32647	32765	
1939	0	32761	32807	32683	32591	32684	33193	32775	32903	
1940	0	32748	32775	32702	32788	32631	32855	32755	33506	
1941	0	32738	32915	32629	32993	32639	32895	32669	33172	
1942	0	32743	32609	32743	32923	32557	32931	32675	33060	
1943	0	32754	32843	32738	32836	32463	32959	32660	33287	
1944	0	32804	32713	32676	32801	32645	32873	32566	33731	
1945	0	32853	32663	32803	32743	32687	32391	32558	33507	
1946	0	32774	32743	32677	32847	32855	32239	32527	32459	
1947	0	32742	32679	32742	32885	32898	32423	32633	31866	
1948	0	32815	32595	32670	32855	32679	32599	32519	32447	
1949	0	32773	32491	32730	32843	32623	32855	32787	31764	
1950	0	32766	32667	32789	32769	32647	32943	33031	31460	
1951	0	32793	32679	32687	32876	32666	32799	32912	31915	
1952	0	32735	32775	32716	32805	32751	32734	32698	33023	
1953	0	32823	32621	32695	32663	32775	32671	32511	33445	
1954	0	32745	32623	32763	32647	32605	33235	32647	33885	
1955	0	32782	32833	32742	32667	32671	33175	32707	33735	
1956	0	32839	32916	32743	32802	32853	33111	32485	33711	
1957	0	32846	32774	32847	32783	32687	33091	32499	33501	
1958	0	32797	32663	32775	32739	32477	32927	32845	33055	
1959	0	32795	32771	32679	32820	32486	32931	33135	31735	
1960	0	32802	32858	32747	32767	32675	32739	32999	31612	
1961	0	32807	32969	32655	32605	32731	32796	32763	32313	
1962	0	32679	33071	32609	32554	32601	32898	32935	32281	
1963	0	32610	32797	32626	32539	32698	32788	32881	32239	
1964	0	32674	32613	32563	32574	32705	32615	32757	32773	
1965	0	32723	32584	32639	32551	32642	32470	32743	32799	
1966	0	32743	32783	32581	32516	32756	32565	32645	32839	
1967	0	32710	32788	32765	32471	32855	32688	32599	32763	
1968	0	32735	32807	32699	32663	32719	32727	32786	32375	
1969	0	32729	32791	32727	32756	32630	32795	32700	32999	
1970	0	32742	32699	32721	32715	32603	32854	32551	33388	
1971	0	32734	32543	32748	32700	32642	32884	32405	33199	
1972	0	32718	32711	32644	32758	32791	32703	32662	32671	
1973	0	32743	32695	32732	32891	32767	32773	32575	32369	
1974	0	32823	32815	32805	32748	32842	32679	32527	32431	
1975	0	32826	32687	32725	32940	32805	32756	32529	32791	
1976	0	32789	32795	32750	32887	32759	32665	32658	32991	
1977	0	32855	32871	32763	33016	32757	32578	32719	33209	
1978	0	32815	32868	32751	33005	32773	32487	32734	33302	
1979	0	32761	32837	32695	32937	32577	32702	32887	32892	
1980	0	32694	32623	32640	32775	32717	32775	33040	32164	
1981	0	32799	32813	32748	32791	32655	32729	32841	32342	
1982	0	32754	32789	32772	32609	32699	32915	32755	32410	
1983	0	32705	32823	32726	32721	32447	33021	32757	32167	
1984	0	32636	32754	32599	32775	32553	32941	32900	32615	
1985	0	32700	32895	32679	32715	32519	32875	32970	33143	
1986	0	32694	32829	32755	32721	32834	32786	32615	33549	
1987	0	32729	32729	32750	32645	32765	33309	32679	32939	
1988	0	32797	32827	32685	32722	32719	33444	32807	32911	
1989	0	32761	32589	32642	32734	32662	32812	32743	32820	
1990	0	32745	32747	32690	32727	32583	32455	32811	32679	
1991	0	32745	32726	32759	32630	32711	32492	32854	32695	
1992	0	32795	32553	32751	32735	32676	32575	32742	32921	
1993	0	32785	32871	32743	32573	32675	32735	32385	33583	
1994	0	32788	32716	32719	32743	32726	32903	32511	32935	
1995	0	32801	32739	32740	32626	32647	32979	32694	32277	
1996	0	32794	32789	32659	32751	32854	32674	32715	32017	
1997	0	32809	32590	32695	32679	32775	32705	32655	32411	
1998	0	32791	32831	32707	32815	32699	32679	32563	32942	
1999	0	32752	32667	32724	32925	32593	32775	32541	33263	
2000	0	32716	32903	32752	32901	32719	32743	32543	33167	
2001	0	32786	32775	32819	32983	32695	32852	32575	32365	
2002	0	32745	32566	32709	32982	32647	32991	32754	31957	
2003	0	32756	32775	32773	32877	32603	33047	32989	31902	
2004	0	32817	32635	32751	32823	32519	32791	32871	32356	
2005	0	32845	32455	32711	32663	32774	32775	32806	32847	
2006	0	32781	32807	32642	32775	32804	32701	32775	33415	
2007	0	32773	32847	32647	32519	32642	32656	32845	33885	
2008	0	32733	33147	32670	32450	32771	32508	32835	33697	
2009	0	32717	32967	32757	32481	32727	32917	32623	33479	
2010	0	32735	32711	32829	32783	32623	32854	32756	33203	
2011	0	32750	32663	32791	32968	32663	32877	32815	33019	
2012	0	32730	32564	32717	32807	32764	32541	32895	32902	
2013	0	32769	32708	32647	32951	32559	32575	32797	32711	
2014	0	32770	32559	32611	32839	32795	32590	32759	32122	
2015	0	32696	32759	32563	32877	32755	32753	32604	32300	
2016	0	32684	32647	32624	32694	32775	32692	32510	32297	
2017	0	32740	32820	32647	32667	32631	32863	32582	32131	
2018	0	32694	32615	32615	32847	32807	32733	32642	31777	
2019	0	32815	32759	32695	32635	32769	32845	32774	31867	
2020	0	32811	32587	32740	32699	32611	33002	32687	32631	
2021	0	32754	32687	32727	32733	32695	32948	32612	33023	
2022	0	32752	32747	32785	32647	32759	32854	32573	33573	
2023	0	32794	32671	32658	32599	32531	32639	32479	34159	
2024	0	32742	32963	32609	32749	32627	32722	32837	33959	
2025	0	32729	32775	32617	32703	32719	32525	33091	32901	
2026	0	32746	32679	32735	32731	32611	32669	32491	32434	
2027	0	32690	32757	32695	32751	32695	32655	32381	32822	
2028	0	32674	32561	32719	32610	32735	32621	32517	33645	
2029	0	32708	32831	32710	32630	32703	32957	32853	32807	
2030	0	32761	32703	32663	32594	32671	32899	33103	31615	
2031	0	32775	32773	32647	32551	32617	32887	33044	30977	
2032	0	32796	32743	32703	32519	32735	32791	32738	31379	
2033	0	32756	32686	32755	32699	32805	32770	32535	32631	
2034	0	32820	32863	32719	32715	32436	32951	32743	33133	
2035	0	32832	32699	32767	32838	32658	33166	32691	33279	
2036	0	32786	32815	32751	32895	32698	32871	32690	33018	
2037	0	32742	32663	32732	32707	32858	32961	32635	32850	
2038	0	32751	32815	32740	32735	32676	32718	32732	32631	
2039	0	32800	32783	32647	32757	32742	32690	32967	32559	
2040	0	32841	32519	32662	32788	32579	32655	33077	32775	
2041	0	32812	32765	32771	32666	32681	32765	32797	32695	
2042	0	32793	32707	32823	32611	32645	32895	32327	33101	
2043	0	32764	32695	32805	32631	32731	33007	32557	33073	
2044	0	32795	32947	32743	32759	32687	32767	32647	33178	
2045	0	32745	32916	32695	32677	32555	32767	32767	33107	
2046	0	32633	32821	32658	32755	32743	32695	32961	32921	
2047	0	32622	33015	32749	32764	32723	32763	32887	32583	
2048	0	32658	32787	32669	32805	32842	32645	32678	33071	
2049	0	32647	32594	32615	32839	32775	32551	32564	33287	
2050	0	32678	32743	32623	32943	32819	32574	32487	33095	
2051	0	32696	32732	32599	32975	32787	32582	32367	32367	
2052	0	32706	32611	32671	32923	32659	32499	32525	31822	
2053	0	32815	32771	32725	32877	32674	32783	32524	32086	
2054	0	32814	32807	32722	32873	32839	32647	32559	32327	
2055	0	32871	32799	32845	32817	32679	32807	32711	32535	
2056	0	32839	32759	32749	32887	32687	32898	32839	32333	
2057	0	32780	32711	32655	32815	32445	32863	33123	32351	
2058	0	32731	32833	32571	33071	32743	32731	32843	33207	
2059	0	32792	32775	32723	33031	32637	32477	32731	33711	
2060	0	32830	32567	32725	33034	32775	32527	32759	33335	
2061	0	32827	32703	32799	32918	32759	32647	32999	32998	
2062	0	32758	32765	32679	32820	32599	33156	33140	33165	
2063	0	32710	32791	32711	32647	32583	33602	33083	32151	
2064	0	32708	32731	32726	32641	32647	32893	33004	32349	
2065	0	32663	32932	32751	32685	32913	32383	32775	33394	
2066	0	32690	32820	32718	32615	32497	32743	32644	33175	
2067	0	32719	32721	32677	32531	32674	32839	32559	32503	
2068	0	32772	32839	32637	32535	32715	32999	32478	32391	
2069	0	32775	32627	32745	32531	32714	33061	32629	32870	
2070	0	32783	32718	32723	32596	32735	33098	32695	33095	
2071	0	32709	32765	32845	32578	32732	32951	32773	33159	
2072	0	32729	32702	32748	32583	32807	32583	32503	33601	
2073	0	32788	32583	32855	32553	32837	32454	32429	33197	
2074	0	32791	32687	32726	32461	32801	32538	32573	32519	
2075	0	32823	32722	32674	32564	32718	32679	32903	32023	
2076	0	32838	32802	32722	32598	32724	32731	32679	32665	
2077	0	32720	32655	32654	32567	32775	32724	32807	32591	
2078	0	32723	32597	32613	32634	32590	32683	32879	32354	
2079	0	32780	32535	32743	32702	32679	32676	32738	32534	
2080	0	32794	32831	32863	32764	32586	32677	32679	32681	
2081	0	32748	32903	32703	32882	32631	32847	32507	32754	
2082	0	32772	32847	32678	32865	32821	32791	32326	32819	
2083	0	32800	32671	32725	32975	32687	32871	32602	32647	
2084	0	32805	32811	32739	32962	32639	32863	32775	32683	
2085	0	32831	32843	32819	32935	32506	32875	32743	33127	
2086	0	32772	32797	32611	32790	32635	32834	32759	33124	
2087	0	32743	32719	32714	32826	32639	32751	32807	32306	
2088	0	32786	32855	32794	32763	32755	32738	32831	32085	
2089	0	32810	32679	32747	32689	32791	32532	32644	32567	
2090	0	32811	32677	32821	32599	32659	32629	32454	33457	
2091	0	32786	32919	32671	32727	32785	32852	32591	33155	
2092	0	32799	32767	32726	32629	32609	33121	32862	31973	
2093	0	32804	32620	32751	32766	32711	33014	32882	32163	
2094	0	32732	32871	32687	32789	32749	32855	32971	32679	
2095	0	32760	32847	32699	32703	32605	32625	32519	33571	
2096	0	32764	32635	32559	32574	32679	32671	32391	33836	
2097	0	32653	32871	32523	32701	32434	32871	32798	33447	
2098	0	32637	32675	32689	32701	32583	32935	32821	32695	
2099	0	32708	32567	32732	32815	32671	32879	32900	32111	
2100	0	32726	32902	32675	32739	32769	32683	32815	32233	
2101	0	32712	32767	32599	32807	32770	32451	32811	32082	
2102	0	32724	32947	32685	32803	32820	32523	32675	32287	
2103	0	32702	32914	32835	32723	32727	32430	32555	32893	
2104	0	32750	32859	32762	32665	32737	32423	32534	33191	
2105	0	32743	32635	32789	32756	32820	32470	32578	33118	
2106	0	32786	32783	32717	32711	32602	32677	32833	33151	
2107	0	32756	32698	32711	32751	32732	32870	32692	33399	
2108	0	32677	32607	32677	32663	32670	33267	32491	33257	
2109	0	32816	32727	32741	32679	32601	33345	32713	32367	
2110	0	32813	32699	32711	32669	32658	33175	32951	31847	
2111	0	32721	32764	32557	32679	32735	32962	32837	32010	
2112	0	32706	32713	32599	32581	32793	32799	32621	32748	
2113	0	32697	32692	32647	32429	32727	32637	32598	32989	
2114	0	32703	32787	32693	32308	32695	32647	32834	32883	
2115	0	32676	32699	32658	32627	32757	32563	32871	32411	
2116	0	32659	32899	32647	32839	32743	32626	32766	32261	
2117	0	32827	32836	32683	32947	32839	32743	32671	32711	
2118	0	32756	32623	32705	32994	32609	32571	32380	33973	
2119	0	32756	32811	32823	32874	32739	32493	32638	33707	
2120	0	32751	32769	32738	32871	32643	32584	32564	33100	
2121	0	32775	32679	32751	33018	32634	32719	32530	32483	
2122	0	32745	32977	32724	33157	32605	32929	32867	32331	
2123	0	32789	32865	32690	33063	32497	32887	32621	33127	
2124	0	32828	32685	32699	32943	32599	33463	32695	32599	
2125	0	32774	32823	32691	32917	32606	33499	33071	31717	
2126	0	32738	32839	32771	32809	32797	32937	33159	32423	
2127	0	32698	32734	32763	32619	32723	32570	32879	32967	
2128	0	32799	32844	32773	32455	32810	32551	32679	33010	
2129	0	32811	32707	32735	32363	32709	32858	32463	32991	
2130	0	32797	32647	32662	32365	32613	32943	32455	33350	
2131	0	32784	32727	32739	32514	32775	32741	32535	33481	
2132	0	32743	32687	32699	32647	32631	32517	32581	33389	
2133	0	32720	32607	32687	32743	32765	32605	32698	33199	
2134	0	32743	32791	32775	32749	32805	32579	32583	32731	
2135	0	32772	32839	32702	32822	32708	32758	32655	32405	
2136	0	32714	32619	32671	32810	32709	32767	32706	32175	
2137	0	32742	32671	32671	32815	32519	32862	32935	31559	
2138	0	32746	32591	32655	32758	32623	32887	33014	31699	
2139	0	32773	32883	32751	32775	32719	32707	32951	32335	
2140	0	32762	32775	32771	32703	32603	32583	32763	32556	
2141	0	32781	32720	32784	32675	32759	32583	32725	32403	
2142	0	32678	32951	32747	32591	32757	32679	32669	33037	
2143	0	32749	32832	32678	32563	32775	32875	32401	33317	
2144	0	32754	32791	32569	32725	32684	32919	32475	32826	
2145	0	32787	32749	32659	32647	32727	32804	32658	32703	
2146	0	32738	32639	32665	32882	32587	32865	32847	32610	
2147	0	32743	32915	32775	32850	32624	32775	32775	32763	
