# OpenSignals Text File Format
# {"00:07:80:64:6D:DA": {"sensor": ["CUSTOM/0.5/1.0/V", "CUSTOM/0.5/1.0/V", "CUSTOM/0.5/1.0/V", "CUSTOM/0.5/1.0/V"], "device name": "Plataforma", "column": ["nSeq", "DI", "CH1", "CH2", "CH3", "CH4"], "sync interval": 2, "time": "11:5:11.507", "comments": "", "device connection": "BTH00:07:80:64:6D:DA", "channels": [1, 2, 3, 4], "date": "2017-6-2", "mode": 0, "digital IO": [0, 1], "firmware version": "772", "device": "biosignalsplux", "position": 0, "sampling rate": 1000, "label": ["CH1", "CH2", "CH3", "CH4"], "resolution": [16, 16, 16, 16], "special": [{}, {}, {}, {}]}, "00:07:80:3B:46:38": {"sensor": ["CUSTOM/0.5/1.0/V", "CUSTOM/0.5/1.0/V", "CUSTOM/0.5/1.0/V", "CUSTOM/0.5/1.0/V", "CUSTOM/0.5/1.0/V", "CUSTOM/0.5/1.0/V", "CUSTOM/0.5/1.0/V", "CUSTOM/0.5/1.0/V"], "device name": "EMGs", "column": ["nSeq", "DI", "RA_L", "RA_R", "OE_L", "OE:R", "IL_L", "IL_R", "MF_L", "MF_R"], "sync interval": 2, "time": "11:5:11.507", "comments": "", "device connection": "BTH00:07:80:3B:46:38", "channels": [1, 2, 3, 4, 5, 6, 7, 8], "date": "2017-6-2", "mode": 0, "digital IO": [0, 1], "firmware version": "772", "device": "biosignalsplux", "position": 1, "sampling rate": 1000, "label": ["RA_L", "RA_R", "OE_L", "OE:R", "IL_L", "IL_R", "MF_L", "MF_R"], "resolution": [16, 16, 16, 16, 16, 16, 16, 16], "special": [{}, {}, {}, {}, {}, {}, {}, {}]}}
# EndOfHeader
0	0	3950	2848	1338	10131	1246	0	32654	32730	32493	32879	32460	32686	32711	32103	
1	0	3873	2829	1351	10114	1247	0	32671	32903	32583	32917	32663	32787	32642	32314	
2	0	3916	2848	1382	10071	1248	0	32551	32663	32591	32895	32471	32642	32643	32605	
3	0	3934	2801	1318	10114	1249	0	32496	32973	32644	32933	32380	32655	32527	32818	
4	0	3947	2833	1389	10125	1250	0	32558	32638	32743	32871	32731	32615	32415	32979	
5	0	3942	2837	1359	10102	1251	0	32631	32919	32731	32677	32871	32813	32507	32973	
6	0	3921	2829	1379	10070	1252	0	32767	32541	32783	32780	32743	32919	32615	33044	
7	0	3928	2788	1379	10104	1253	0	32903	32739	32813	32692	32759	32828	32914	33444	
8	0	3940	2836	1322	10082	1254	0	32988	32420	32881	32715	33213	33070	33191	34085	
9	0	3950	2860	1349	10082	1255	0	33001	32663	33060	32647	33348	32943	33126	34041	
10	0	3966	2823	1316	10088	1256	0	32907	32684	33098	32674	32775	32759	33002	33063	
11	0	3932	2865	1311	10108	1257	0	32847	32586	32870	32749	32818	32615	32690	32446	
12	0	3974	2763	1340	10111	1258	0	32694	32775	32807	32630	32647	32647	32390	31932	
13	0	3912	2812	1318	10022	1259	0	32699	32564	32791	32636	32751	32530	32442	31943	
14	0	3876	2805	1361	10064	1260	0	32679	32829	32762	32554	32834	32383	32447	31803	
15	0	3911	2781	1343	10060	1261	0	32695	32559	32675	32518	32727	32545	32535	31783	
16	0	3898	2861	1380	10089	1262	0	32674	32863	32677	32525	32675	32549	32469	32262	
17	0	3950	2876	1349	10032	1263	0	32756	32838	32591	32570	32403	32663	32423	33287	
18	0	3954	2821	1374	10085	1264	0	32753	32671	32611	32599	32549	32839	32567	33619	
19	0	3941	2828	1391	10098	1265	0	32717	32820	32679	32647	32383	33055	32903	33110	
20	0	3910	2833	1334	10060	1266	0	32666	32743	32559	32903	32127	33282	32948	32637	
21	0	3895	2810	1341	10102	1267	0	32769	32963	32518	32937	32445	33279	32967	32389	
22	0	3917	2805	1379	10052	1268	0	32718	32762	32671	32911	32599	33319	32950	32701	
23	0	3898	2821	1332	10050	1269	0	32724	32830	32753	32885	32545	33321	33065	33287	
24	0	3910	2801	1327	10088	1270	0	32804	32685	32715	33125	32679	33111	32814	34099	
25	0	3937	2824	1362	10056	1271	0	32773	32797	32638	33074	32629	33103	32876	33455	
26	0	3904	2821	1378	10040	1272	0	32846	32615	32647	33211	32495	32729	32941	33071	
27	0	3914	2800	1379	10022	1273	0	32849	32797	32843	33055	32804	32615	32759	33283	
28	0	3909	2818	1342	9968	1274	0	32911	32527	32871	33031	32815	32461	32703	33351	
29	0	3877	2840	1319	10061	1275	0	32884	32803	32769	33058	32818	32468	32815	32982	
30	0	3965	2854	1353	10023	1276	0	32800	32866	32747	32983	32523	32745	32719	32690	
31	0	3946	2839	1328	10019	1277	0	32768	32903	32689	32839	32738	32604	32701	32279	
32	0	3954	2809	1356	10032	1278	0	32747	32565	32731	32797	32663	32663	32615	31895	
33	0	3940	2844	1356	10098	1279	0	32722	32775	32731	32675	32681	32831	32715	31796	
34	0	3899	2846	1389	10085	1280	0	32716	32575	32655	32679	32629	32959	32543	32065	
35	0	3896	2842	1378	10092	1281	0	32664	32887	32775	32563	32717	32877	32626	32305	
36	0	3906	2879	1356	10059	1282	0	32717	32742	32815	32831	32578	32851	32719	32094	
37	0	3911	2819	1340	10094	1283	0	32756	32867	32874	32662	32741	33019	32647	32235	
38	0	3899	2849	1378	10040	1284	0	32706	32685	32775	32395	32751	33126	32838	32589	
39	0	3961	2804	1338	10076	1285	0	32743	32751	32693	32222	32591	32897	32791	32981	
40	0	3965	2815	1352	10016	1286	0	32754	32699	32621	31958	32835	32833	32741	33305	
41	0	3940	2812	1320	10098	1287	0	32773	32546	32676	31923	32741	32839	32730	33223	
42	0	3950	2792	1383	10082	1288	0	32736	32659	32550	32114	32831	32850	32690	32978	
43	0	3936	2810	1382	10096	1289	0	32733	32578	32548	32103	32731	32583	32655	32723	
44	0	3909	2853	1358	10057	1290	0	32765	32719	32583	31799	32870	32565	32715	32711	
45	0	3961	2808	1379	10080	1291	0	32870	32514	32756	31583	32819	32567	32677	32759	
46	0	3970	2837	1378	10126	1292	0	32829	32799	33007	31887	32623	32519	32735	32843	
47	0	3927	2864	1381	10092	1293	0	32740	32711	32915	32754	32607	32639	32647	32836	
48	0	3933	2820	1327	10069	1294	0	32764	32955	32799	33473	32615	32511	32750	32689	
49	0	3898	2871	1369	10078	1295	0	32790	32804	32728	34407	32665	32663	32660	32567	
50	0	3851	2820	1385	10046	1296	0	32722	33159	32683	34597	32735	32639	32727	32711	
51	0	3926	2840	1401	10103	1297	0	32595	33111	32621	34885	32823	32727	32687	32846	
52	0	3934	2804	1381	10079	1298	0	32684	33139	32547	34428	32764	32775	32785	32715	
53	0	3958	2801	1385	10104	1299	0	32658	32855	32481	34198	32843	32719	32679	33003	
54	0	3910	2823	1408	10142	1300	0	32708	33047	32588	33863	32757	32703	32748	32807	
55	0	3958	2803	1401	10144	1301	0	32804	32897	32676	33570	32691	32775	32727	32823	
56	0	3887	2829	1407	10106	1302	0	32783	32859	32646	33359	32738	32796	32620	32836	
57	0	3915	2845	1365	10137	1303	0	32866	32900	32719	33047	32591	32807	32679	32754	
58	0	3896	2828	1388	10120	1304	0	32805	32551	32858	32999	32805	32789	32699	32743	
59	0	3914	2842	1367	10105	1305	0	32749	32812	32887	32996	32711	32675	32727	32623	
60	0	3907	2883	1412	10068	1306	0	32783	32754	32847	32829	32605	32875	32553	32447	
61	0	3916	2830	1376	10139	1307	0	32734	32668	32831	32727	32503	32762	32537	32388	
62	0	3938	2851	1347	10150	1308	0	32818	32647	32797	32455	32671	32863	32694	32417	
63	0	3944	2826	1420	10145	1309	0	32726	32751	32743	32387	32679	32755	32661	32587	
64	0	3952	2820	1451	10157	1310	0	32775	32751	32708	32279	32495	32879	32564	32631	
65	0	3940	2861	1392	10120	1311	0	32786	32807	32839	32172	32644	32903	32706	32821	
66	0	3919	2838	1410	10088	1312	0	32791	32471	32817	32055	32519	32839	32823	32918	
67	0	3944	2818	1366	10168	1313	0	32756	32801	32775	31799	32767	32820	32775	33151	
68	0	3949	2830	1397	10107	1314	0	32732	32519	32647	31924	32868	32847	32671	33263	
69	0	3941	2881	1388	10180	1315	0	32713	32796	32678	31967	32655	32743	32700	33232	
70	0	3915	2824	1418	10128	1316	0	32775	32565	32739	31923	32934	32710	32847	33175	
71	0	3913	2850	1405	10230	1317	0	32751	32809	32783	31997	32900	32647	32863	33045	
72	0	3957	2806	1389	10150	1318	0	32759	32563	32805	32271	32692	32607	32775	32925	
73	0	3917	2825	1413	10164	1319	0	32747	32727	32756	32319	32788	32615	32847	32741	
74	0	3901	2848	1394	10141	1320	0	32758	32475	32753	32494	32719	32563	32884	32639	
75	0	3921	2821	1390	10184	1321	0	32790	32807	32719	32519	32439	32663	32660	32727	
76	0	3918	2809	1415	10196	1322	0	32820	32531	32653	32653	32507	32621	32620	32643	
77	0	3890	2805	1417	10139	1323	0	32773	32723	32609	32729	32507	32839	32749	32615	
78	0	3938	2896	1432	10204	1324	0	32773	32607	32662	32868	32612	32948	32791	32626	
79	0	3890	2823	1408	10166	1325	0	32775	32773	32711	32811	32647	32963	32703	32719	
80	0	3964	2790	1398	10157	1326	0	32758	32659	32731	32810	32731	32828	32668	32692	
81	0	3953	2827	1397	10142	1327	0	32732	32847	32671	32987	32684	32903	32737	32759	
82	0	3909	2852	1414	10140	1328	0	32769	32854	32642	32988	32607	32711	32785	32647	
83	0	3917	2838	1439	10156	1329	0	32747	32883	32595	32791	32445	32775	32801	32705	
84	0	3937	2838	1417	10186	1330	0	32640	32903	32557	32663	32647	32759	32647	32671	
85	0	3955	2863	1430	10163	1331	0	32722	32807	32631	32586	32727	32679	32623	32623	
86	0	3914	2884	1406	10176	1332	0	32716	32723	32589	32799	32839	32705	32854	32559	
87	0	3898	2873	1344	10153	1333	0	32726	32774	32749	32707	32837	32759	32916	32658	
88	0	3942	2815	1433	10196	1334	0	32799	32791	32879	32773	32949	32721	32694	32739	
89	0	3985	2777	1413	10188	1335	0	32849	32711	32831	32738	32739	32815	32625	32751	
90	0	3927	2826	1410	10182	1336	0	32742	32825	32851	32952	32915	32823	32727	32903	
91	0	3954	2816	1409	10172	1337	0	32711	32628	32839	32932	32794	32631	32597	32914	
92	0	3892	2772	1384	10210	1338	0	32633	32999	32739	32895	32301	32724	32511	32895	
93	0	3908	2823	1368	10190	1339	0	32581	32698	32535	32811	32258	32670	32517	32822	
94	0	3977	2832	1474	10162	1340	0	32700	32843	32399	32647	32391	32559	32749	32550	
95	0	3924	2817	1451	10187	1341	0	32754	32701	32455	32663	32347	32615	32751	32293	
96	0	3907	2859	1404	10216	1342	0	32813	32729	32551	32529	32379	32698	32539	32403	
97	0	3934	2807	1430	10145	1343	0	32920	32547	32743	32637	32519	32687	32625	32439	
98	0	3922	2852	1422	10172	1344	0	33329	32385	33213	32516	33901	33063	33045	32495	
99	0	3916	2836	1442	10145	1345	0	33209	32475	33114	32657	33940	32986	33093	32796	
100	0	3881	2818	1414	10179	1346	0	32972	32807	32851	32535	32993	32951	32803	32971	
101	0	3909	2806	1444	10166	1347	0	32877	32759	32743	32660	32827	32810	32743	33157	
102	0	3882	2769	1445	10220	1348	0	32785	32827	32683	32602	32699	32935	32797	33167	
103	0	3938	2798	1471	10172	1349	0	32761	32731	32559	32583	32431	32959	32701	33014	
104	0	3911	2792	1397	10146	1350	0	32787	32815	32551	32685	32635	32795	32643	32941	
105	0	3896	2856	1426	10169	1351	0	32687	32775	32551	32575	32634	32839	32681	33022	
106	0	3866	2844	1386	10200	1352	0	32581	32845	32479	32612	32423	32719	32700	32669	
107	0	3902	2832	1405	10156	1353	0	32591	32757	32471	32455	32621	32643	32703	32739	
108	0	3898	2808	1381	10190	1354	0	32601	32767	32520	32367	32717	32646	32823	32692	
109	0	3941	2767	1436	10148	1355	0	32535	32839	32575	32450	32602	32573	32739	32407	
110	0	3905	2797	1435	10136	1356	0	32592	32919	32727	32647	32655	32751	32669	32208	
111	0	3894	2800	1352	10146	1357	0	32711	32955	32775	32815	32509	32831	32703	32543	
112	0	3873	2799	1436	10168	1358	0	32714	32923	32783	33151	32686	32863	32573	32573	
113	0	3918	2835	1401	10164	1359	0	32715	32899	32799	33287	32631	32725	32411	32983	
114	0	3932	2818	1389	10162	1360	0	32655	32845	32783	33476	32463	32854	32543	33301	
115	0	3912	2844	1422	10147	1361	0	32692	32918	32871	33553	32595	32771	32565	33310	
116	0	3899	2824	1412	10178	1362	0	32768	32607	32871	33303	32507	32749	32513	33311	
117	0	3940	2882	1401	10141	1363	0	32780	32795	32877	33191	32717	32767	32590	33335	
118	0	3915	2834	1466	10116	1364	0	32773	32645	32719	32873	32738	32579	32759	33107	
119	0	3879	2843	1437	10151	1365	0	32847	32787	32629	32587	32636	32646	32831	32763	
120	0	3920	2784	1432	10152	1366	0	32843	32559	32636	32631	32738	32599	32879	32644	
121	0	3893	2814	1434	10160	1367	0	32818	32743	32679	32903	32678	32675	32647	32717	
122	0	3876	2829	1444	10136	1368	0	32793	32871	32687	32839	32711	32553	32575	32496	
123	0	3876	2830	1499	10100	1369	0	32844	32883	32597	32470	32647	32429	32758	32157	
124	0	3866	2868	1413	10125	1370	0	32740	32587	32561	32941	32703	32587	32711	32006	
125	0	3828	2806	1410	10072	1371	0	32700	32980	32569	33206	32745	32850	32766	32199	
126	0	3858	2830	1451	10144	1372	0	32653	32903	32627	33052	32660	32977	32663	32159	
127	0	3906	2847	1427	10138	1373	0	32671	32713	32675	32983	32773	33223	32656	32503	
128	0	3882	2827	1422	10132	1374	0	32747	32687	32805	32853	32641	33233	32660	33447	
129	0	3897	2811	1491	10142	1375	0	32786	32771	32903	32999	32463	33127	32671	34404	
130	0	3897	2826	1404	10115	1376	0	32807	32514	32903	32826	32673	33067	32647	33871	
131	0	3861	2806	1428	10110	1377	0	32828	32804	32771	32621	32766	32935	32853	32547	
132	0	3924	2810	1419	10146	1378	0	32825	32558	32663	32337	32570	32891	32887	32382	
133	0	3904	2846	1457	10102	1379	0	32753	32765	32599	32181	32639	32727	33014	32692	
134	0	3880	2815	1412	10112	1380	0	32686	32611	32711	32381	32591	32623	32773	32799	
135	0	3901	2861	1443	10116	1381	0	32743	32743	32770	32647	32823	32579	33027	32590	
136	0	3905	2864	1420	10127	1382	0	32820	32815	32837	33083	32737	32686	32742	32743	
137	0	3878	2845	1454	10129	1383	0	32742	32951	32867	33197	32518	32837	32647	32620	
138	0	3880	2847	1427	10104	1384	0	32850	32863	32867	33213	32691	32797	32327	32551	
139	0	3899	2846	1469	10094	1385	0	32765	32831	32703	33195	32647	32923	32391	32718	
140	0	3914	2852	1465	10156	1386	0	32763	32679	32641	33143	32487	32791	32623	32845	
141	0	3906	2886	1433	10128	1387	0	32831	32747	32610	33198	32748	32678	32868	32967	
142	0	3930	2854	1463	10138	1388	0	32711	32751	32555	32971	32791	32802	32789	32821	
143	0	3884	2872	1409	10120	1389	0	32698	32871	32551	32848	32635	32701	32647	32866	
144	0	3886	2861	1430	10080	1390	0	32647	32775	32535	32721	32647	32935	32734	32682	
145	0	3902	2793	1427	10128	1391	0	32666	32775	32607	32463	32662	32903	32983	32439	
146	0	3929	2807	1464	10100	1392	0	32721	32599	32583	32487	32847	32893	32887	32755	
147	0	3935	2837	1454	10096	1393	0	32783	32797	32639	32383	32666	32863	32548	33001	
148	0	3902	2864	1449	10112	1394	0	32820	32679	32682	32319	32822	32675	32527	33170	
149	0	3899	2837	1450	10074	1395	0	32903	32831	32698	32327	32815	32643	32862	33234	
150	0	3924	2822	1459	10110	1396	0	32823	32669	32871	32444	32713	32647	32795	33095	
151	0	3912	2818	1413	10094	1397	0	32738	32711	32921	32390	32615	32895	32567	32999	
152	0	3877	2836	1467	10097	1398	0	32656	32723	32831	32511	32398	32958	32663	32793	
153	0	3923	2854	1436	10109	1399	0	32620	32647	32723	32447	32679	32771	32677	32389	
154	0	3899	2835	1468	10116	1400	0	32670	32730	32737	32566	32623	32733	32717	32436	
155	0	3892	2846	1416	10130	1401	0	32673	32711	32647	32520	32471	32615	32687	32495	
156	0	3918	2869	1464	10091	1402	0	32703	32847	32692	32595	32775	32563	32703	32587	
157	0	3881	2856	1378	10102	1403	0	32669	32639	32763	32565	32673	32609	32739	32621	
158	0	3908	2820	1454	10066	1404	0	32681	32838	32796	32551	32789	32647	32732	32567	
159	0	3906	2865	1430	10090	1405	0	32714	32679	32674	32293	32775	32643	32765	32485	
160	0	3877	2848	1436	10050	1406	0	32751	32719	32763	32253	32615	32714	32759	32655	
161	0	3853	2842	1457	10076	1407	0	32730	32635	32767	32563	32742	32845	32719	32639	
162	0	3880	2871	1446	10056	1408	0	32758	32717	32645	32637	32807	32683	32567	32653	
163	0	3882	2861	1432	10051	1409	0	32828	32775	32555	32643	32646	32804	32567	32759	
164	0	3876	2869	1424	10028	1410	0	32929	32815	32595	32546	32775	32667	32580	32791	
165	0	3902	2874	1539	10052	1411	0	32911	32595	32692	32483	32662	32747	32623	32894	
166	0	3857	2817	1452	10084	1412	0	32933	32740	32843	32647	32812	32823	32658	32851	
167	0	3875	2867	1414	10070	1413	0	32881	32628	32813	32531	32582	32703	32823	32483	
168	0	3932	2817	1403	10060	1414	0	32804	32869	32787	32654	32775	32795	32767	32690	
169	0	3912	2844	1462	10076	1415	0	32756	32687	32748	32788	32623	32739	32673	32754	
170	0	3913	2860	1433	10089	1416	0	32735	32925	32663	33311	32468	32799	32822	32566	
171	0	3876	2830	1412	10064	1417	0	32743	32660	32637	33255	32679	32707	32821	32289	
172	0	3905	2870	1458	10048	1418	0	32740	32883	32731	33319	32790	32677	32761	32327	
173	0	3868	2848	1397	10047	1419	0	32710	32826	32615	32999	32642	32767	32691	32495	
174	0	3900	2866	1451	10034	1420	0	32684	33076	32643	32903	32811	32693	32603	32903	
175	0	3889	2815	1431	10086	1421	0	32635	32804	32603	32903	32724	32759	32683	32935	
176	0	3886	2848	1425	10050	1422	0	32640	32883	32607	32711	32583	32797	32671	33170	
177	0	3878	2860	1456	10068	1423	0	32753	32687	32637	32285	32686	32717	32535	33399	
178	0	3855	2872	1416	10056	1424	0	32823	32775	32817	32278	32735	32965	32567	33127	
179	0	3876	2880	1440	10025	1425	0	32862	32607	32831	32326	32564	32903	32583	33141	
180	0	3873	2865	1437	10024	1426	0	32836	32807	32655	32511	32711	33045	32607	33265	
181	0	3880	2837	1413	10050	1427	0	32639	32719	32647	32775	32677	33087	32637	33287	
182	0	3910	2851	1441	9996	1428	0	32480	32791	32759	33039	32487	33015	32717	32931	
183	0	3888	2823	1456	10040	1429	0	32470	32663	32740	33181	32580	32957	32517	32807	
184	0	3897	2886	1451	10018	1430	0	32481	32951	32663	33447	32621	32859	32476	32755	
185	0	3870	2898	1434	10060	1431	0	32477	32743	32767	33527	32621	32775	32545	32815	
186	0	3892	2840	1425	9976	1432	0	32543	32955	32719	33877	32417	32747	32599	32879	
187	0	3880	2849	1487	10021	1433	0	32550	32818	32703	33799	32565	32869	32613	32807	
188	0	3867	2866	1464	10065	1434	0	32550	32903	32687	33887	32567	32781	32548	32701	
189	0	3899	2858	1470	10021	1435	0	32537	32879	32530	33635	32607	32803	32564	32663	
190	0	3868	2834	1451	10004	1436	0	32578	32819	32477	33579	32701	32737	32575	32631	
191	0	3893	2839	1464	10020	1437	0	32540	32662	32421	33234	32783	32747	32644	32573	
192	0	3928	2825	1438	10024	1438	0	32635	32623	32418	33063	32545	32759	32587	32582	
193	0	3858	2852	1461	10024	1439	0	32718	32564	32451	32783	32573	32730	32647	32801	
194	0	3889	2875	1453	10048	1440	0	32701	32467	32548	32515	32427	32775	32583	32775	
195	0	3913	2877	1525	9986	1441	0	32756	32455	32507	32261	32471	32703	32687	32663	
196	0	3858	2831	1472	9976	1442	0	32820	32343	32527	32153	32646	32722	32870	32623	
197	0	3872	2874	1439	9972	1443	0	32948	32342	32681	31810	32655	32723	32970	32630	
198	0	3898	2892	1447	10015	1444	0	33023	32127	32743	31871	32443	32753	32895	32665	
199	0	3891	2862	1440	10012	1445	0	32977	32349	32771	31903	32579	32635	32820	32563	
200	0	3868	2837	1391	9977	1446	0	32847	32295	32727	31901	32771	32643	32757	32467	
201	0	3878	2858	1425	10018	1447	0	32872	32383	32771	32086	32709	32711	32857	32449	
202	0	3854	2818	1484	9993	1448	0	32770	32383	32806	32087	32762	32603	32741	32519	
203	0	3886	2856	1434	9993	1449	0	32637	32738	32679	32367	32554	32730	32675	32727	
204	0	3844	2833	1470	9994	1450	0	32642	32703	32679	32327	32470	32647	32711	32693	
205	0	3815	2856	1454	9985	1451	0	32646	33146	32726	32423	32763	32815	32858	32671	
206	0	3860	2866	1515	10000	1452	0	32647	33082	32684	32531	32887	32695	32893	32698	
207	0	3866	2904	1471	9968	1453	0	32655	33006	32659	32579	32883	32753	32927	32727	
208	0	3862	2857	1486	9964	1454	0	32703	32983	32765	32748	32877	32641	33095	32747	
209	0	3908	2877	1472	9960	1455	0	32887	32935	32829	32673	33110	32765	33039	32687	
210	0	3876	2890	1442	9990	1456	0	32979	32859	32899	32867	32951	32807	33071	32775	
211	0	3918	2898	1461	9950	1457	0	33145	32797	33025	32957	32868	32903	32967	32795	
212	0	3876	2876	1444	9970	1458	0	33281	32839	33122	33005	33221	32899	33091	32775	
213	0	3871	2901	1494	9926	1459	0	33308	32851	33190	33023	33135	32692	33197	32727	
214	0	3871	2859	1462	9952	1460	0	33388	33159	33366	33123	32943	32611	33191	32775	
215	0	3871	2852	1436	9950	1461	0	33453	32887	33220	33145	32934	32559	33060	32635	
216	0	3879	2893	1458	9952	1462	0	33422	32999	33189	33063	32823	32751	33010	32806	
217	0	3876	2861	1478	9976	1463	0	33316	32868	33071	33054	32695	32841	32870	32796	
218	0	3888	2856	1397	9956	1464	0	33190	32743	32935	32941	32646	32820	32702	32791	
219	0	3890	2848	1476	9923	1465	0	33146	32687	32935	32999	32569	32861	32561	32788	
220	0	3888	2868	1482	9964	1466	0	33158	32751	32823	32852	32763	32695	32734	32799	
221	0	3884	2891	1484	9882	1467	0	33054	32775	32767	32805	32694	32655	32743	32663	
222	0	3847	2885	1464	9931	1468	0	32970	32675	32626	32831	32655	32703	32717	32655	
223	0	3853	2914	1500	9934	1469	0	32859	32759	32579	32967	32829	32758	32579	32825	
224	0	3904	2884	1456	9904	1470	0	32740	32647	32529	32875	32655	32727	32501	32757	
225	0	3865	2864	1504	9950	1471	0	32754	32811	32518	32743	32509	32812	32642	32739	
226	0	3862	2883	1480	9920	1472	0	32647	32814	32547	32475	32578	32783	32575	32716	
227	0	3898	2907	1441	9904	1473	0	32510	32861	32471	32639	32495	32666	32571	32852	
228	0	3877	2895	1519	9859	1474	0	32477	32899	32429	32669	32549	32854	32495	32802	
229	0	3900	2901	1438	9881	1475	0	32485	32991	32455	32731	32475	32775	32487	32823	
230	0	3896	2885	1510	9894	1476	0	32458	33027	32455	32425	32450	32815	32647	32911	
231	0	3905	2902	1493	9900	1477	0	32431	32967	32361	31957	32586	32715	32621	32725	
232	0	3901	2902	1495	9885	1478	0	32457	33015	32495	32076	32791	32763	32751	32719	
233	0	3848	2906	1468	9856	1479	0	32469	32890	32671	32351	32706	32775	32805	32717	
234	0	3888	2911	1467	9860	1480	0	32625	32911	32814	32671	32927	32802	32759	32689	
235	0	3841	2908	1485	9880	1481	0	32655	32815	32817	33037	32991	32683	32507	32695	
236	0	3872	2859	1453	9914	1482	0	32690	32858	32893	33159	33086	32619	32595	32633	
237	0	3860	2886	1512	9923	1483	0	32735	32543	33063	33266	33067	32753	32623	32745	
238	0	3880	2932	1476	9872	1484	0	32767	32812	33045	33218	32747	32701	32754	32743	
239	0	3854	2925	1459	9853	1485	0	32805	32607	32991	32964	32775	32791	32767	32823	
240	0	3884	2883	1488	9866	1486	0	32807	32831	32949	33093	32751	32805	32628	33179	
241	0	3876	2960	1522	9872	1487	0	32740	32727	32647	32850	32476	32793	32535	33179	
242	0	3910	2920	1491	9832	1488	0	32758	32710	32359	32758	32513	32935	32487	33020	
243	0	3864	2899	1533	9841	1489	0	32550	32839	32303	32807	32293	32885	32495	32775	
244	0	3857	2918	1539	9838	1490	0	32551	32535	32362	32886	32503	32967	32583	32404	
245	0	3816	2910	1497	9837	1491	0	32525	32775	32425	32753	32477	32825	32591	32215	
246	0	3881	2911	1537	9830	1492	0	32591	32879	32575	32665	32818	32858	32709	32327	
247	0	3883	2930	1520	9861	1493	0	32661	32847	32749	32756	32796	32893	32783	32484	
248	0	3828	2936	1556	9885	1494	0	32617	32911	32841	32791	32755	32876	32628	33125	
249	0	3891	2913	1564	9821	1495	0	32722	32679	32838	32903	32687	32855	32487	33399	
250	0	3835	2924	1523	9862	1496	0	32690	32802	32834	32985	32487	32890	32662	33191	
251	0	3858	2916	1499	9862	1497	0	32695	32895	32691	33038	32509	32759	32919	32919	
252	0	3856	2923	1521	9848	1498	0	32838	32599	32674	33015	32319	32923	32871	32813	
253	0	3870	2887	1531	9846	1499	0	32858	32775	32621	32791	32535	32855	32659	32626	
254	0	3838	2931	1556	9879	1500	0	32886	32573	32644	32881	32606	32663	32701	32361	
255	0	3882	2950	1528	9817	1501	0	32903	32740	32731	32790	32674	32567	32675	31996	
256	0	3867	2955	1543	9826	1502	0	32871	32643	32699	32445	32903	32578	32530	32201	
257	0	3884	2924	1532	9860	1503	0	32841	32567	32579	31905	32767	32505	32495	32567	
258	0	3887	2916	1565	9848	1504	0	32698	32807	32557	31501	32383	32487	32807	32383	
259	0	3853	2904	1583	9829	1505	0	32647	32679	32694	31686	32743	32448	32855	32583	
260	0	3870	2941	1614	9818	1506	0	32654	32735	32762	31847	32676	32637	32996	32479	
261	0	3934	2925	1540	9864	1507	0	32614	32519	32767	31937	32548	32743	32849	32743	
262	0	3909	2955	1549	9828	1508	0	32716	32836	32661	32247	32933	33158	32821	32493	
263	0	3867	2948	1581	9849	1509	0	32838	32579	32551	32615	32810	33323	32841	32825	
264	0	3877	2948	1537	9848	1510	0	32854	32775	32591	32933	32671	33214	32635	33743	
265	0	3864	2912	1568	9849	1511	0	32850	32591	32722	33127	32807	33178	32591	34265	
266	0	3849	2911	1572	9836	1512	0	32694	32799	32739	33287	32683	33011	32631	34063	
267	0	3862	2931	1549	9850	1513	0	32684	32755	32813	33671	32549	32874	32814	33831	
268	0	3858	2946	1539	9869	1514	0	32647	32950	32831	33887	32609	32793	32903	33815	
269	0	3880	2938	1550	9832	1515	0	32692	32758	32943	33782	32703	32667	32943	33549	
270	0	3899	2954	1565	9828	1516	0	32706	32953	32940	33899	32774	32689	32979	33107	
271	0	3866	2926	1581	9856	1517	0	32793	32765	32949	33863	32582	32742	32628	32749	
272	0	3868	2904	1603	9870	1518	0	32807	32787	32903	33645	32775	32837	32677	32887	
273	0	3830	2956	1575	9853	1519	0	32854	32941	32917	33373	32679	32869	32591	32595	
274	0	3878	2945	1606	9827	1520	0	32854	32679	32791	32910	32743	32789	32579	32198	
275	0	3856	2959	1582	9852	1521	0	32741	32903	32525	32637	32727	32527	32486	32559	
276	0	3845	2946	1604	9830	1522	0	32678	32701	32530	32655	32566	32551	32669	32804	
277	0	3830	2910	1632	9901	1523	0	32715	32815	32534	32378	32867	32675	32591	32819	
278	0	3864	2958	1613	9835	1524	0	32690	32627	32495	32259	32591	32701	32509	33025	
279	0	3829	2969	1589	9862	1525	0	32669	32685	32411	32401	32407	32863	32505	32807	
280	0	3853	2936	1578	9862	1526	0	32578	32560	32407	32447	32647	32749	32783	32483	
281	0	3856	2953	1574	9861	1527	0	32630	32639	32479	32293	32653	32767	32871	32279	
282	0	3854	2997	1662	9876	1528	0	32658	32661	32575	32239	32735	32575	32706	32242	
283	0	3805	2933	1612	9834	1529	0	32708	32719	32754	32259	32826	32646	32684	32135	
284	0	3863	2918	1604	9870	1530	0	32782	32839	32700	32043	32604	32839	32785	31539	
285	0	3871	2934	1616	9865	1531	0	32769	32604	32815	31695	32629	32970	32839	31516	
286	0	3857	2952	1616	9861	1532	0	32793	32775	32815	31733	32601	32940	32717	32487	
287	0	3864	2952	1632	9891	1533	0	32803	32743	32628	32037	32717	32807	32734	33095	
288	0	3824	2952	1605	9826	1534	0	32751	32757	32615	32207	32923	32559	32659	33095	
289	0	3923	2956	1656	9857	1535	0	32751	32719	32738	32563	32839	32583	32605	33195	
290	0	3865	2962	1641	9872	1536	0	32871	32823	32869	32598	32739	32701	32599	33083	
291	0	3813	2961	1629	9856	1537	0	32843	32604	33005	32647	32799	32638	32747	32574	
292	0	3881	2978	1639	9882	1538	0	32806	32863	32999	32923	32595	32783	32871	32329	
293	0	3804	2967	1612	9848	1539	0	32762	32699	32950	32869	32695	32898	32630	32567	
294	0	3872	2987	1644	9865	1540	0	32816	32870	32855	33043	32700	32813	32609	32447	
295	0	3836	2985	1627	9844	1541	0	32772	32667	32796	33215	32603	32903	32807	32222	
296	0	3846	2953	1643	9892	1542	0	32740	32879	32591	33495	32711	32756	32802	32301	
297	0	3868	2974	1621	9818	1543	0	32696	32737	32660	33405	32647	32903	32667	32365	
298	0	3850	2932	1619	9892	1544	0	32609	32786	32775	33279	32762	32881	32656	32663	
299	0	3869	2943	1616	9852	1545	0	32545	32919	32810	33461	32743	32719	32699	32866	
300	0	3829	2982	1669	9862	1546	0	32663	32615	32765	33394	32739	32575	32655	32927	
301	0	3903	2952	1622	9832	1547	0	32691	32885	32869	33155	32694	32729	32639	32901	
302	0	3866	2889	1660	9850	1548	0	32771	32615	32858	32787	32729	32791	32721	32993	
303	0	3890	2910	1592	9878	1549	0	32824	32807	32799	32891	32807	32711	32665	32967	
304	0	3825	2961	1629	9859	1550	0	32775	32621	32677	33147	32818	32796	32706	32897	
305	0	3871	2979	1603	9867	1551	0	32801	32810	32593	33055	32631	32745	32684	32991	
306	0	3901	2977	1610	9847	1552	0	32822	32677	32701	32853	32765	32679	32839	32881	
307	0	3862	2974	1619	9832	1553	0	32887	32775	32755	32795	32843	32759	32795	32831	
308	0	3839	2962	1620	9846	1554	0	32847	32807	32599	32829	32623	32895	32647	32903	
309	0	3844	2925	1636	9861	1555	0	32912	32751	32644	32915	32786	32687	32820	32755	
310	0	3876	2938	1614	9846	1556	0	32801	32873	32735	32827	32671	32719	32734	32775	
311	0	3855	2977	1647	9859	1557	0	32895	32635	32823	32855	32781	32775	32647	32935	
312	0	3864	3001	1614	9881	1558	0	32846	32871	32853	32634	32751	32751	32607	32877	
313	0	3886	2938	1616	9864	1559	0	32799	32615	32775	32519	32631	32718	32733	32855	
314	0	3854	2933	1624	9876	1560	0	32772	32918	32751	32541	32719	32820	32703	32838	
315	0	3852	2917	1636	9821	1561	0	32759	32573	32742	32426	32411	32879	32519	32903	
316	0	3835	2980	1643	9852	1562	0	32824	32847	32743	32375	32153	32772	32554	32922	
317	0	3874	2967	1621	9848	1563	0	32751	32535	32662	32243	32270	32775	32595	32877	
318	0	3888	2999	1642	9816	1564	0	32709	32755	32499	32305	32567	32797	32575	32813	
319	0	3902	2985	1646	9776	1565	0	32728	32538	32569	32423	32771	32775	32563	32787	
320	0	3830	2951	1664	9816	1566	0	32685	32738	32695	32519	32983	32807	32790	32796	
321	0	3857	2916	1608	9762	1567	0	32716	32739	32659	32511	32799	32709	32844	32660	
322	0	3845	2932	1653	9813	1568	0	32622	32719	32487	32655	32805	32731	32791	32735	
323	0	3872	2979	1598	9824	1569	0	32679	32827	32569	32487	32573	32903	32771	32825	
324	0	3813	2977	1578	9780	1570	0	32721	32583	32613	32635	32331	32879	32799	32835	
325	0	3883	2979	1627	9806	1571	0	32719	32767	32675	32727	32530	32684	32791	32775	
326	0	3872	2967	1592	9802	1572	0	32735	32732	32686	32755	32621	32662	32615	32751	
327	0	3868	2962	1621	9776	1573	0	32809	32795	32903	32839	32927	32693	32612	32702	
328	0	3887	2979	1635	9834	1574	0	32787	32935	32999	32751	32959	32723	32639	32851	
329	0	3876	3010	1603	9809	1575	0	32783	32645	32796	32678	32813	32775	32639	32721	
330	0	3861	2929	1618	9772	1576	0	32825	32781	32875	32823	32863	32850	32765	32723	
331	0	3880	2978	1665	9808	1577	0	32826	32493	32866	32771	32732	32893	32887	32751	
332	0	3893	2996	1660	9740	1578	0	32877	32679	32814	32850	32367	32871	32927	32767	
333	0	3865	3006	1622	9803	1579	0	32891	32607	32679	32647	32419	32831	32855	32717	
334	0	3903	2979	1632	9777	1580	0	32775	32833	32487	32771	32447	32819	32811	32799	
335	0	3879	3005	1655	9780	1581	0	32722	32895	32613	32775	32495	32750	32839	32695	
336	0	3882	2994	1599	9714	1582	0	32698	32805	32685	32799	32635	32715	32734	32726	
337	0	3837	3027	1680	9740	1583	0	32745	32867	32645	32878	32676	32788	32767	32817	
338	0	3869	2981	1696	9772	1584	0	32799	32735	32775	32687	32826	32659	32695	32819	
339	0	3881	2997	1645	9802	1585	0	32754	32865	32771	32843	32775	32799	32591	32812	
340	0	3900	2990	1627	9744	1586	0	32758	32578	32679	32811	32735	32807	32534	32838	
341	0	3883	2981	1680	9772	1587	0	32770	32754	32798	32877	32751	32763	32570	32847	
342	0	3926	3009	1650	9722	1588	0	32815	32515	32839	32737	32764	32723	32678	32731	
343	0	3885	2974	1627	9743	1589	0	32791	32719	32643	32845	32599	32759	32634	32745	
344	0	3873	2999	1668	9736	1590	0	32718	32823	32519	32725	32790	32803	32673	32746	
345	0	3868	3012	1668	9758	1591	0	32739	32867	32519	32633	32763	32771	32868	32675	
346	0	3893	2974	1676	9778	1592	0	32742	32871	32677	32705	32578	32893	32861	32772	
347	0	3873	2994	1686	9786	1593	0	32722	32693	32689	32724	32598	32731	32766	32815	
348	0	3868	2990	1689	9776	1594	0	32647	32919	32735	32683	32476	32827	32673	32871	
349	0	3904	2972	1729	9748	1595	0	32647	32959	32575	32819	32587	32765	32597	32754	
350	0	3892	2992	1708	9744	1596	0	32729	32607	32567	32790	32619	32767	32599	32731	
351	0	3888	3027	1701	9709	1597	0	32785	32839	32547	32699	32783	32723	32709	32797	
352	0	3891	3000	1707	9764	1598	0	32718	32729	32555	32629	32889	32655	32715	32679	
353	0	3851	3023	1724	9759	1599	0	32708	32751	32591	32623	32799	32668	32623	32769	
354	0	3902	2991	1663	9733	1600	0	32785	32695	32826	32493	32877	32775	32679	32895	
355	0	3895	3014	1704	9740	1601	0	32854	32615	32999	32685	32914	32836	32639	32903	
356	0	3888	3047	1702	9763	1602	0	32859	32700	32879	32743	32697	32943	32743	32775	
357	0	3909	3023	1679	9757	1603	0	32838	32623	32703	32781	32757	32828	32739	32846	
358	0	3893	3044	1689	9773	1604	0	32806	32833	32674	32982	32507	32935	32831	32732	
359	0	3914	3026	1702	9751	1605	0	32697	32999	32694	32997	32575	32851	32711	32775	
360	0	3915	3015	1725	9732	1606	0	32711	32722	32748	32991	32605	32857	32797	32706	
361	0	3864	3043	1706	9750	1607	0	32748	32863	32797	32994	32855	32743	33012	32614	
362	0	3916	2984	1672	9757	1608	0	32655	32815	32742	32831	32855	32794	32887	32757	
363	0	3905	3026	1676	9712	1609	0	32797	32799	32791	32707	32589	32705	32647	32741	
364	0	3834	3002	1736	9758	1610	0	32782	32771	32749	32615	32691	32729	32516	32677	
365	0	3929	3045	1736	9716	1611	0	32714	32782	32839	32787	32647	32681	32743	32615	
366	0	3894	3012	1690	9713	1612	0	32696	32815	32903	32701	32533	32683	32815	32741	
367	0	3924	3054	1696	9759	1613	0	32626	32783	32818	32683	32726	32717	32754	32747	
368	0	3873	3035	1737	9768	1614	0	32675	32855	32795	32660	32703	32845	32719	32763	
369	0	3912	3001	1747	9730	1615	0	32727	32543	32723	32535	32643	32704	32837	32517	
370	0	3946	3043	1766	9747	1616	0	32708	32887	32609	32570	32701	32764	32679	32671	
371	0	3922	3015	1730	9726	1617	0	32767	32739	32551	32487	32751	32692	32575	32679	
372	0	3925	3044	1735	9712	1618	0	32679	32891	32436	32407	32543	32791	32543	32813	
373	0	3856	3044	1701	9712	1619	0	32756	32759	32519	32367	32855	32710	32709	32717	
374	0	3908	3013	1732	9708	1620	0	32850	32751	32583	32615	32852	32713	32847	32764	
375	0	3924	3046	1741	9710	1621	0	32817	32775	32630	32893	32991	32711	32903	32863	
376	0	3915	3054	1712	9745	1622	0	32786	32629	32710	32869	32863	32675	32829	32626	
377	0	3904	3005	1776	9769	1623	0	32762	32895	32813	33137	32767	32594	32763	32578	
378	0	3918	3034	1730	9728	1624	0	32743	32885	32765	33333	32758	32788	32591	32923	
379	0	3903	3087	1715	9734	1625	0	32743	32898	32743	33133	32543	32943	32314	33221	
380	0	3935	3073	1727	9709	1626	0	32676	32795	32647	33063	32047	32879	32447	33139	
381	0	3940	3076	1722	9704	1627	0	32724	32727	32714	32797	32334	32937	32503	33060	
382	0	3884	3062	1750	9734	1628	0	32903	32684	32743	32367	32578	32798	32758	33059	
383	0	3909	3009	1693	9714	1629	0	32927	32527	32775	32071	32679	32810	32895	33017	
384	0	3897	3017	1730	9734	1630	0	32924	32725	32786	32102	32723	32721	32711	32743	
385	0	3900	3002	1734	9708	1631	0	32823	32547	32753	32069	32661	32567	32717	32631	
386	0	3833	3049	1722	9683	1632	0	32807	32687	32855	32012	32823	32625	32733	32742	
387	0	3906	3011	1716	9716	1633	0	32828	32715	32850	32123	32647	32657	32685	32903	
388	0	3898	3059	1735	9696	1634	0	32805	32902	32726	32439	32813	32771	32726	32839	
389	0	3878	3037	1710	9681	1635	0	32703	32862	32631	32703	32647	32868	32675	32639	
390	0	3915	3058	1744	9716	1636	0	32653	33071	32739	33090	32511	32849	32628	32662	
391	0	3867	3040	1766	9686	1637	0	32717	33110	32763	33503	32647	32842	32691	32646	
392	0	3869	3066	1722	9702	1638	0	32741	32855	32816	33579	32670	32845	32691	32743	
393	0	3884	3052	1730	9664	1639	0	32732	32980	32727	33779	32735	32804	32741	32812	
394	0	3904	3050	1737	9668	1640	0	32759	32807	32661	33847	32642	32797	32711	32875	
395	0	3860	3052	1665	9660	1641	0	32727	32818	32701	33795	32513	32884	32751	32967	
396	0	3876	3046	1750	9688	1642	0	32742	32805	32793	33763	32884	32889	32698	32783	
397	0	3852	3029	1747	9657	1643	0	32743	32775	32829	33487	32917	32871	32772	32862	
398	0	3892	3050	1705	9662	1644	0	32779	32799	32813	33263	32647	32783	32827	32735	
399	0	3884	3059	1744	9616	1645	0	32699	32815	32731	32829	32715	32661	32765	32557	
400	0	3887	3066	1764	9624	1646	0	32677	32797	32747	32641	32820	32695	32819	32276	
401	0	3917	3069	1717	9704	1647	0	32695	32713	32771	32661	32549	32687	32671	32279	
402	0	3873	3058	1753	9672	1648	0	32662	32794	32666	32822	32751	32643	32743	32271	
403	0	3885	3077	1702	9684	1649	0	32796	32605	32645	32775	32734	32813	32730	32334	
404	0	3855	3039	1754	9669	1650	0	32860	32689	32692	32903	32612	32691	32791	32239	
405	0	3854	3066	1773	9641	1651	0	32842	32620	32710	33021	32807	32741	32671	32758	
406	0	3852	3032	1722	9657	1652	0	32816	32763	32600	33135	32773	32773	32662	33107	
407	0	3844	3050	1766	9654	1653	0	32800	32581	32583	32725	32629	32787	32636	33407	
408	0	3875	3038	1738	9676	1654	0	32760	32807	32519	32235	32598	32903	32719	33653	
409	0	3904	3033	1717	9599	1655	0	32815	32693	32567	32370	32761	32717	32683	33782	
410	0	3870	3055	1750	9669	1656	0	32857	32677	32733	32375	32665	32655	32765	33391	
411	0	3824	3043	1755	9636	1657	0	32781	32719	32753	32453	32693	32615	32609	33074	
412	0	3830	3056	1761	9641	1658	0	32599	32655	32563	32482	32686	32619	32629	32279	
413	0	3850	3104	1766	9632	1659	0	32559	32943	32711	32487	32871	32587	32698	31428	
414	0	3866	3014	1733	9642	1660	0	32591	32607	32711	32641	32867	32727	32903	31308	
415	0	3826	3042	1784	9674	1661	0	32670	32789	32719	32589	32583	32671	32903	31419	
416	0	3810	3033	1718	9635	1662	0	32749	32503	32757	32510	32507	32626	32735	31861	
417	0	3864	3045	1693	9654	1663	0	32793	32793	32869	32453	32471	32814	32695	32287	
418	0	3828	3037	1775	9644	1664	0	32812	32559	32903	32387	32430	32914	32735	32641	
419	0	3843	3052	1744	9664	1665	0	32775	32833	32991	32325	32614	32923	32804	32635	
420	0	3839	3018	1761	9668	1666	0	32720	32711	32799	32452	32501	32978	32795	32567	
421	0	3868	3004	1735	9638	1667	0	32793	32855	32775	32391	32706	33143	32775	32703	
422	0	3874	3052	1758	9676	1668	0	32775	32580	32753	32615	32540	33151	32818	33213	
423	0	3811	3047	1735	9646	1669	0	32814	32837	32575	32647	32727	33042	32679	33526	
424	0	3785	3030	1761	9632	1670	0	32801	32549	32551	32883	32607	32735	32583	33700	
425	0	3845	3039	1759	9672	1671	0	32799	32711	32690	32982	32743	32795	32411	33955	
426	0	3795	3054	1764	9634	1672	0	32845	32617	32683	32943	32647	32847	32566	33815	
427	0	3796	3012	1740	9631	1673	0	32765	32919	32719	33058	32647	32679	32679	33311	
428	0	3848	3026	1759	9638	1674	0	32676	32827	32641	32927	32445	32695	32633	33111	
429	0	3789	3092	1746	9640	1675	0	32785	32943	32629	32980	32242	32647	32727	33215	
430	0	3806	3017	1695	9616	1676	0	32822	32647	32573	32775	32489	32526	32705	33223	
431	0	3797	3078	1708	9675	1677	0	32799	32797	32541	32662	32685	32700	32823	33159	
432	0	3804	3037	1722	9606	1678	0	32767	32703	32749	32738	32837	32795	32929	33034	
433	0	3788	3019	1708	9587	1679	0	32916	32511	33101	32615	33453	33076	32844	33109	
434	0	3787	3009	1732	9653	1680	0	33049	32563	33231	32551	33535	33031	32847	33178	
435	0	3806	3043	1708	9620	1681	0	32838	32564	32924	32583	33555	32863	32687	33037	
436	0	3789	2993	1696	9572	1682	0	32567	32847	32598	32593	32983	32589	32639	32666	
437	0	3840	3054	1720	9678	1683	0	32581	32668	32483	32485	32754	32557	32799	32461	
438	0	3800	3041	1717	9582	1684	0	32580	32871	32459	32674	32315	32627	32797	32587	
439	0	3840	3006	1733	9616	1685	0	32676	32461	32531	32663	32287	32735	32694	32647	
440	0	3813	3017	1742	9637	1686	0	32710	32679	32589	32714	32275	32841	32561	32519	
441	0	3748	3032	1683	9664	1687	0	32769	32519	32540	32630	32405	32679	32518	32471	
442	0	3785	3004	1734	9630	1688	0	32797	32863	32511	32543	32479	32621	32803	32295	
443	0	3770	2996	1741	9657	1689	0	32758	32727	32571	32567	32551	32677	32835	32253	
444	0	3782	3040	1733	9630	1690	0	32740	32925	32663	32950	32551	32655	32435	32468	
445	0	3811	3041	1769	9651	1691	0	32693	32671	32700	32773	32711	32732	32327	32574	
446	0	3802	3029	1763	9688	1692	0	32750	32813	32666	32898	32731	32935	32549	32607	
447	0	3764	3062	1765	9652	1693	0	32788	32751	32743	32894	32583	32773	32812	32662	
448	0	3804	3035	1721	9658	1694	0	32800	32837	32858	32887	32795	32725	32803	32511	
449	0	3806	3012	1738	9680	1695	0	32758	32927	32903	32878	32925	32756	32999	32359	
450	0	3832	3019	1692	9637	1696	0	32726	32646	32845	32868	32775	32759	32903	32468	
451	0	3759	3002	1768	9669	1697	0	32692	32817	32727	32629	32791	32591	32757	32557	
452	0	3775	2990	1721	9672	1698	0	32689	32775	32687	32835	32767	32745	32597	32647	
453	0	3776	3024	1747	9720	1699	0	32691	32811	32658	32679	32591	32621	32655	32791	
454	0	3790	3025	1767	9658	1700	0	32766	32551	32567	32759	32751	32791	32605	32742	
455	0	3804	3044	1775	9638	1701	0	32796	32804	32587	32543	32679	32901	32519	32807	
456	0	3741	3020	1720	9693	1702	0	32786	32561	32643	32621	32519	32655	32367	32756	
457	0	3772	3001	1731	9683	1703	0	32843	32729	32727	32615	32843	32833	32593	32753	
458	0	3811	3014	1743	9689	1704	0	32828	32631	32775	32735	32793	32999	32770	32711	
459	0	3808	3047	1740	9666	1705	0	32903	32795	32887	32699	32927	32911	32893	32827	
460	0	3781	3002	1729	9696	1706	0	32848	32679	32812	32798	32551	32942	32955	32770	
461	0	3753	3014	1700	9716	1707	0	32787	32933	32738	32756	32425	32870	32731	32829	
462	0	3787	3021	1736	9680	1708	0	32701	32825	32663	32581	32614	32815	32741	32828	
463	0	3788	3036	1760	9656	1709	0	32684	32814	32647	32795	32715	32677	32709	32829	
464	0	3783	3081	1779	9691	1710	0	32698	32785	32690	32859	32561	32775	32647	32853	
465	0	3789	3020	1715	9709	1711	0	32661	32719	32775	32942	32743	32759	32823	32749	
466	0	3791	3002	1747	9684	1712	0	32789	32803	32734	32735	32756	32843	32877	32767	
467	0	3790	3041	1772	9666	1713	0	32824	32717	32706	32813	32647	32651	32902	32851	
468	0	3760	3038	1715	9700	1714	0	32877	32743	32735	32827	32623	32748	32721	32757	
469	0	3762	3038	1759	9670	1715	0	32871	32834	32715	32775	32711	32701	32690	32830	
470	0	3789	3066	1714	9691	1716	0	32811	32796	32759	32577	32733	32719	32773	32782	
471	0	3758	3003	1757	9689	1717	0	32807	32887	32775	32736	32611	32727	32759	32754	
472	0	3779	2985	1738	9717	1718	0	32783	32743	32642	32644	32773	32826	32703	32867	
473	0	3758	2977	1737	9674	1719	0	32741	32749	32758	32609	32643	32804	32626	32838	
474	0	3784	3007	1744	9666	1720	0	32675	32795	32759	32547	32647	32658	32647	32775	
475	0	3771	2996	1733	9723	1721	0	32655	32843	32689	32639	32831	32711	32705	32671	
476	0	3786	2978	1767	9743	1722	0	32767	32677	32629	32748	32740	32713	32690	32695	
477	0	3805	3004	1733	9682	1723	0	32831	32791	32619	32787	32623	32847	32628	32839	
478	0	3714	3039	1766	9704	1724	0	32863	32551	32767	32645	32594	32841	32676	32773	
479	0	3733	3038	1750	9713	1725	0	32902	32743	32775	32615	32764	32823	32742	32786	
480	0	3775	3052	1724	9701	1726	0	32924	32647	32847	32643	32847	32731	32845	32775	
481	0	3759	3031	1722	9703	1727	0	32900	32951	32863	32820	32605	32607	32843	32647	
482	0	3786	3013	1778	9689	1728	0	32831	32715	32797	32647	32468	32841	32751	32775	
483	0	3737	3030	1743	9690	1729	0	32824	32663	32839	32527	32756	32829	32705	32759	
484	0	3762	3017	1734	9708	1730	0	32831	32679	32724	31958	32727	32807	32658	32640	
485	0	3766	2953	1711	9692	1731	0	32712	32599	32729	31132	32591	32686	32711	32703	
486	0	3840	3007	1720	9735	1732	0	32806	32541	32799	31154	32793	32730	32669	32835	
487	0	3780	3021	1772	9708	1733	0	32825	32636	32711	31879	32677	32586	32775	32802	
488	0	3738	2978	1782	9714	1734	0	32801	32775	32663	32721	32679	32725	32735	32876	
489	0	3785	3013	1752	9735	1735	0	32647	32929	32769	33348	32755	32783	32772	32735	
490	0	3806	2985	1754	9696	1736	0	32647	33053	32783	33895	32679	32835	32851	32700	
491	0	3762	3044	1746	9763	1737	0	32747	33143	32799	34325	32643	32879	32763	32700	
492	0	3741	2998	1686	9731	1738	0	32843	32775	32807	34275	32835	32805	32599	32807	
493	0	3789	3034	1759	9732	1739	0	32879	33031	32658	34371	32793	32893	32666	32823	
494	0	3804	3020	1759	9725	1740	0	32895	32837	32687	34371	32613	32935	32751	32800	
495	0	3751	2996	1748	9699	1741	0	32839	33079	32723	34023	32705	32797	32642	32851	
496	0	3796	3010	1712	9765	1742	0	32847	32810	32687	34149	32722	32897	32693	32890	
497	0	3784	2972	1713	9746	1743	0	32790	32775	32731	33879	32627	32914	32647	32831	
498	0	3810	3029	1778	9733	1744	0	32749	32519	32642	33535	32772	32823	32655	32971	
499	0	3785	2986	1766	9756	1745	0	32716	32807	32615	33055	32723	32903	32607	32959	
500	0	3779	2987	1757	9744	1746	0	32610	32775	32518	32609	32569	32689	32735	32711	
501	0	3783	3017	1769	9770	1747	0	32543	32763	32582	31875	32685	32751	32815	32487	
502	0	3788	3017	1792	9758	1748	0	32549	32683	32551	31605	32726	32662	32751	32647	
503	0	3771	2996	1700	9767	1749	0	32575	32631	32607	31812	32609	32735	32796	32699	
504	0	3756	3037	1752	9784	1750	0	32708	32595	32647	31946	32812	32763	32846	32671	
505	0	3790	3023	1753	9704	1751	0	32668	32796	32703	32155	32643	32699	32719	32790	
506	0	3804	2989	1754	9778	1752	0	32656	32549	32759	32471	32719	32775	32633	32727	
507	0	3770	3045	1757	9778	1753	0	32717	32773	32845	32399	32507	32647	32699	32805	
508	0	3841	2967	1739	9747	1754	0	32679	32563	32884	32631	32790	32732	32742	32815	
509	0	3810	3058	1722	9769	1755	0	32780	32807	32837	32749	32802	32647	32727	32707	
510	0	3824	3044	1724	9806	1756	0	32812	32764	32687	32918	32823	32715	32757	32679	
511	0	3802	3002	1740	9746	1757	0	32834	32850	32643	33104	32596	32659	32729	32603	
512	0	3770	2977	1740	9809	1758	0	32831	32774	32557	33104	32771	32833	32717	32627	
513	0	3809	3031	1701	9780	1759	0	32840	32775	32646	33255	32722	32929	32783	32749	
514	0	3742	2990	1753	9755	1760	0	32835	32663	32647	33123	32588	32847	32751	32615	
515	0	3770	3003	1737	9784	1761	0	32879	32821	32671	33078	32679	32847	32623	32773	
516	0	3761	2998	1712	9795	1762	0	32734	32631	32679	32977	32669	32743	32431	33031	
517	0	3786	2976	1779	9770	1763	0	32734	32831	32703	32909	32604	32763	32487	33317	
518	0	3746	2979	1716	9818	1764	0	32838	32556	32663	32690	32829	32676	32699	33215	
519	0	3775	2988	1764	9780	1765	0	32858	32669	32718	32623	32711	32759	32726	32850	
520	0	3806	3060	1782	9764	1766	0	32903	32492	32747	32583	32607	32687	32827	32549	
521	0	3828	2998	1712	9772	1767	0	32854	32729	32846	32599	32589	32698	32859	32455	
522	0	3798	3045	1761	9788	1768	0	32746	32587	32883	32258	32641	32850	32722	32830	
523	0	3764	3022	1755	9795	1769	0	32749	32831	32759	32303	32731	32717	32615	32973	
524	0	3805	3042	1714	9796	1770	0	32629	32727	32611	32302	32535	32734	32610	32775	
525	0	3784	3026	1765	9760	1771	0	32671	32871	32492	32201	32519	32689	32666	32307	
526	0	3768	2996	1789	9789	1772	0	32734	32927	32434	32191	32464	32677	32813	31759	
527	0	3780	3000	1725	9771	1773	0	32773	32807	32471	32241	32531	32879	32715	31691	
528	0	3744	2982	1735	9825	1774	0	32756	32734	32493	32271	32557	32702	32477	32257	
529	0	3790	2999	1709	9780	1775	0	32716	32707	32642	32338	32655	32786	32428	32527	
530	0	3817	2988	1731	9800	1776	0	32710	32607	32675	32263	32527	32725	32391	32937	
531	0	3792	2993	1766	9772	1777	0	32747	32660	32747	32022	32795	32850	32852	32505	
532	0	3805	2981	1750	9793	1778	0	32687	32626	32869	32301	32685	32870	32980	32181	
533	0	3755	2972	1674	9801	1779	0	32630	32871	32846	32517	32476	32875	32841	32359	
534	0	3789	2970	1714	9767	1780	0	32640	32807	32851	32751	32668	32963	32737	32471	
535	0	3792	2949	1709	9756	1781	0	32633	32773	32783	32743	32567	32815	32727	32886	
536	0	3797	3000	1657	9864	1782	0	32679	32659	32716	33125	32604	32903	32759	33571	
537	0	3808	2980	1666	9808	1783	0	32646	32711	32708	33133	32799	32639	32795	34045	
538	0	3762	3006	1717	9812	1784	0	32780	32555	32711	33095	33123	32785	32791	34373	
539	0	3800	3003	1716	9821	1785	0	32882	32594	32773	33079	33213	32986	32647	34279	
540	0	3764	2968	1755	9792	1786	0	32871	32705	32724	32825	33093	32871	32663	33495	
541	0	3781	2998	1687	9769	1787	0	32823	32825	32773	32930	32767	32687	32692	33309	
542	0	3813	2952	1693	9772	1788	0	32724	32967	32819	32892	32671	32581	32775	33003	
543	0	3799	3009	1733	9781	1789	0	32719	32861	32831	32927	32629	32639	32622	32733	
544	0	3797	2984	1691	9758	1790	0	32708	32871	32823	32839	32527	32673	32647	32457	
545	0	3777	2992	1701	9814	1791	0	32718	32815	32820	32899	32615	32797	32695	32811	
546	0	3772	2970	1732	9772	1792	0	32785	32667	32671	32647	32414	32644	32615	33292	
547	0	3748	2976	1696	9827	1793	0	32799	32807	32435	32135	32695	32689	32775	32925	
548	0	3791	2982	1710	9808	1794	0	32743	32617	32454	31989	32599	32812	32806	32427	
549	0	3794	2958	1695	9816	1795	0	32783	32619	32423	32255	32412	33023	32949	32335	
550	0	3791	2948	1712	9780	1796	0	32926	32510	32516	32391	32718	33173	32988	32200	
551	0	3768	3016	1671	9812	1797	0	32840	32743	32499	32725	32597	33133	33135	31721	
552	0	3805	2998	1712	9764	1798	0	32807	32751	32567	33157	32421	33279	33043	32039	
553	0	3811	2973	1726	9816	1799	0	32807	32903	32638	33071	32735	33159	32951	32599	
554	0	3789	2961	1701	9773	1800	0	32858	32892	32843	32967	32755	32959	32799	32933	
555	0	3775	2970	1730	9832	1801	0	32848	32667	33063	33273	32523	32887	32722	32950	
556	0	3764	3007	1719	9828	1802	0	32761	32967	33038	33334	32755	32741	32555	32585	
557	0	3759	3007	1669	9788	1803	0	32815	32855	32991	33209	32735	32599	32669	32590	
558	0	3800	2952	1697	9811	1804	0	32712	33110	32865	33223	32567	32749	32708	32773	
559	0	3801	2978	1672	9827	1805	0	32581	33037	32751	33383	32667	32518	32603	33069	
560	0	3798	2957	1705	9812	1806	0	32609	32871	32855	33347	32758	32671	32553	33159	
561	0	3731	2983	1664	9816	1807	0	32610	32867	32669	33415	32833	32567	32529	33071	
562	0	3747	2956	1697	9792	1808	0	32548	32791	32455	33223	32810	32597	32511	33121	
563	0	3808	2948	1707	9784	1809	0	32674	32999	32402	33060	32535	32677	32538	32919	
564	0	3776	2942	1708	9816	1810	0	32745	32647	32484	32879	32734	32698	32503	32823	
565	0	3780	2995	1707	9825	1811	0	32903	32727	32609	32455	32735	32647	32569	32742	
566	0	3782	3015	1693	9852	1812	0	32892	32391	32775	32163	32703	32619	32750	32585	
567	0	3786	2991	1684	9809	1813	0	32845	32565	32787	32146	32850	32583	32765	32510	
568	0	3745	2954	1664	9842	1814	0	32889	32530	32811	32519	32724	32727	32701	32519	
569	0	3789	2976	1667	9825	1815	0	32885	32775	32775	32567	32578	32726	32759	32451	
570	0	3764	2967	1688	9800	1816	0	32786	32575	32759	32638	32770	32662	32644	32539	
571	0	3756	2967	1697	9801	1817	0	32815	32847	32893	32911	32823	32731	32639	32579	
572	0	3801	2953	1656	9814	1818	0	32719	32643	32714	32939	32615	32614	32707	32543	
573	0	3774	2972	1731	9813	1819	0	32688	32819	32607	32903	32764	32863	32788	32612	
574	0	3728	2992	1708	9848	1820	0	32709	32691	32599	32939	32808	32863	32571	32999	
575	0	3758	2953	1693	9790	1821	0	32608	32876	32516	33019	32551	32823	32589	33188	
576	0	3763	2948	1651	9859	1822	0	32647	32925	32508	32983	32767	32831	32487	33127	
577	0	3780	2985	1725	9812	1823	0	32676	32841	32548	32922	32607	32703	32551	33391	
578	0	3773	2968	1669	9812	1824	0	32697	32855	32683	32775	32491	32709	32631	33351	
579	0	3772	2964	1678	9797	1825	0	32694	32799	32687	32647	32773	32709	32647	32914	
580	0	3775	2975	1685	9804	1826	0	32695	32831	32749	32439	32791	32851	32691	32599	
581	0	3823	2976	1681	9828	1827	0	32900	32647	33004	32215	32745	33021	32987	32347	
582	0	3813	2999	1686	9800	1828	0	32927	32699	33079	32461	32793	32979	33097	32063	
583	0	3821	2949	1698	9850	1829	0	32830	32535	32914	32495	32459	32900	32997	32167	
584	0	3840	2950	1678	9827	1830	0	32755	32743	32807	32561	32551	32911	32875	32358	
585	0	3779	2982	1666	9818	1831	0	32676	32589	32628	32583	32555	32663	32735	32509	
586	0	3760	2976	1669	9810	1832	0	32742	32698	32642	32583	32405	32717	32689	32703	
587	0	3801	2935	1658	9813	1833	0	32784	32755	32677	32535	32679	32805	32439	32862	
588	0	3803	2930	1678	9828	1834	0	32780	32719	32780	32471	32719	32635	32609	32799	
589	0	3785	2992	1664	9850	1835	0	32790	32885	32807	32457	32815	32702	32683	32802	
590	0	3792	2973	1683	9837	1836	0	32742	32583	32850	32591	32889	32828	32795	32739	
591	0	3776	2935	1636	9886	1837	0	32698	32827	32811	32639	32653	32677	32939	32474	
592	0	3813	2998	1657	9866	1838	0	32656	32495	32711	32615	32799	32718	33003	32551	
593	0	3810	2949	1647	9834	1839	0	32679	32722	32679	32683	32875	32715	32737	32613	
594	0	3792	2991	1655	9849	1840	0	32617	32812	32613	32884	32937	32663	32443	32743	
595	0	3748	3000	1629	9854	1841	0	32596	32870	32719	32847	32706	32690	32223	32927	
596	0	3812	3005	1610	9835	1842	0	32617	32850	32717	32774	32565	32701	32310	32871	
597	0	3803	3012	1653	9836	1843	0	32722	32691	32612	32804	32609	32699	32497	32803	
598	0	3783	2958	1696	9820	1844	0	32807	32802	32762	32743	32571	32839	32434	32831	
599	0	3770	3027	1671	9888	1845	0	32903	32658	32749	32695	32539	32811	32751	32839	
600	0	3783	2954	1685	9844	1846	0	32915	32703	32813	32820	32749	32794	33019	32996	
601	0	3741	2940	1664	9912	1847	0	32948	32478	32775	32671	32923	32941	33036	33076	
602	0	3812	2960	1654	9885	1848	0	32983	32605	32763	32763	32748	33022	32859	33109	
603	0	3794	2951	1631	9899	1849	0	32824	32499	32742	32811	32717	32927	32700	32867	
604	0	3753	2923	1671	9834	1850	0	32775	32858	32534	32695	32555	32731	32727	32715	
605	0	3794	2977	1616	9860	1851	0	32770	32781	32585	32903	32587	32743	32851	32723	
606	0	3785	2956	1663	9912	1852	0	32760	32815	32623	32836	32523	32743	32983	32539	
607	0	3781	2954	1652	9860	1853	0	32759	32801	32713	32852	32674	32836	32738	32548	
608	0	3783	2922	1651	9899	1854	0	32802	32839	32836	32841	32505	32918	32711	32855	
609	0	3788	2950	1619	9832	1855	0	32831	32647	32871	32791	32675	32749	32675	32829	
610	0	3757	2960	1612	9828	1856	0	32766	32767	32727	32797	32727	32686	32566	32759	
611	0	3748	2993	1658	9907	1857	0	32721	32610	32627	32817	32687	32812	32599	32775	
612	0	3815	2968	1688	9866	1858	0	32749	32799	32747	32801	32725	32807	32767	32614	
613	0	3761	2992	1667	9837	1859	0	32729	32709	32675	32538	32726	32839	32839	32591	
614	0	3826	2990	1641	9860	1860	0	32673	32895	32503	32518	32767	32735	33091	32557	
615	0	3804	2945	1658	9868	1861	0	32721	32935	32436	32543	32738	32581	33103	32628	
616	0	3814	2968	1686	9853	1862	0	32676	32621	32571	32727	32493	32694	32655	33167	
617	0	3741	2926	1668	9910	1863	0	32652	32881	32541	32948	32715	32751	32503	33170	
618	0	3760	2937	1642	9917	1864	0	32619	32647	32647	32863	32718	32587	32532	33295	
619	0	3806	2948	1672	9889	1865	0	32692	32895	32683	32783	32813	32671	32557	33598	
620	0	3826	3004	1637	9888	1866	0	32763	32691	32711	32948	32719	32757	32655	33159	
621	0	3814	2915	1636	9914	1867	0	32828	32859	32799	32932	32727	32655	32631	33035	
622	0	3792	2952	1638	9877	1868	0	32812	32663	32687	32733	32683	32677	32459	33234	
623	0	3797	2990	1626	9853	1869	0	32858	32799	32519	32733	32555	32695	32551	32902	
624	0	3809	2969	1657	9888	1870	0	32858	32555	32628	32845	32631	32811	32535	32698	
625	0	3800	2976	1616	9878	1871	0	32729	32645	32698	32887	32495	32835	32671	31815	
626	0	3806	2938	1624	9871	1872	0	32706	32730	32712	32951	32709	32747	32979	31149	
627	0	3732	2928	1682	9910	1873	0	32654	32774	32687	32854	32822	32769	32927	31033	
628	0	3793	2957	1646	9882	1874	0	32663	32955	32735	33018	32781	32643	32629	31819	
629	0	3790	2990	1690	9898	1875	0	32727	32803	32775	32943	32813	32635	32477	32947	
630	0	3786	2920	1660	9904	1876	0	32733	32918	32748	32679	32646	32685	32647	33389	
631	0	3786	2927	1657	9874	1877	0	32671	32796	32758	32247	32828	32869	32797	32813	
632	0	3792	2957	1635	9850	1878	0	32748	32691	32807	31455	32843	32758	32705	32342	
633	0	3782	2934	1658	9884	1879	0	32766	32759	32795	31207	32795	32669	32691	32373	
634	0	3805	2960	1642	9962	1880	0	32775	32463	32731	31239	32807	32667	32847	32346	
635	0	3757	2965	1660	9882	1881	0	32710	32567	32607	31511	32515	32663	32757	32431	
636	0	3751	2908	1769	9920	1882	0	32736	32647	32791	32167	32566	32874	32925	32581	
637	0	3787	2968	1629	9912	1883	0	32726	32655	32821	32791	32637	33095	32847	32719	
638	0	3763	2958	1682	9934	1884	0	32746	32719	32775	33389	32585	33107	32711	33207	
639	0	3819	2950	1647	9922	1885	0	32813	32655	32679	34099	32487	33175	32803	33868	
640	0	3776	2948	1676	9890	1886	0	32908	32927	32701	34507	32457	33284	32831	34199	
641	0	3821	2937	1669	9893	1887	0	32852	32863	32707	34372	32639	33227	32877	34231	
642	0	3760	2977	1636	9897	1888	0	32828	32843	32711	34307	32615	33215	32787	34037	
643	0	3797	2935	1635	9922	1889	0	32751	32987	32691	34107	32635	33067	32903	33719	
644	0	3757	2969	1639	9868	1890	0	32738	32971	32671	33838	32647	32999	32811	32967	
645	0	3734	2950	1622	9925	1891	0	32595	32807	32743	33509	32813	32818	32775	32553	
646	0	3788	2892	1647	9916	1892	0	32471	32959	32709	33311	32829	32735	32715	32543	
647	0	3746	2953	1686	9896	1893	0	32467	33028	32701	33221	32775	32705	32647	32511	
648	0	3795	2922	1663	9950	1894	0	32581	32717	32699	32983	32775	32740	32607	32452	
649	0	3796	2900	1670	9933	1895	0	32742	32789	32751	32879	32687	32672	32627	32442	
650	0	3791	2943	1657	9882	1896	0	32807	32621	32775	32703	32627	32534	32819	32524	
651	0	3815	2949	1666	9950	1897	0	32907	32773	32775	32587	32726	32595	32547	32583	
652	0	3765	2933	1685	9916	1898	0	32919	32567	32765	32243	32671	32578	32550	32890	
653	0	3775	2915	1690	9941	1899	0	32903	32627	32822	32050	32703	32587	32533	33006	
654	0	3783	2944	1675	9994	1900	0	32938	32415	32789	32015	32618	32629	32567	33055	
655	0	3776	2935	1707	9986	1901	0	32950	32599	32718	31795	32898	32639	32668	33156	
656	0	3811	2921	1728	9963	1902	0	32933	32482	32719	31511	32773	32615	32645	32720	
657	0	3805	2951	1652	9992	1903	0	32860	32631	32745	31799	32583	32495	32703	32611	
658	0	3792	2930	1684	9982	1904	0	32802	32743	32860	32023	32790	32609	32711	32471	
659	0	3829	2930	1648	9960	1905	0	32828	32742	32866	32209	32727	32703	32647	32661	
660	0	3768	2929	1691	9932	1906	0	32732	32806	32867	32498	32698	32647	32641	32745	
661	0	3798	2943	1686	9965	1907	0	32784	32671	32833	32596	32731	32831	32655	32467	
662	0	3784	2909	1693	9968	1908	0	32710	32691	32623	32925	32532	32887	32550	32291	
663	0	3788	2915	1693	10010	1909	0	32730	32843	32607	33207	32647	32791	32629	32134	
664	0	3781	2927	1674	9998	1910	0	32686	32679	32562	33375	32621	32743	32885	32028	
665	0	3799	2948	1669	9962	1911	0	32601	32999	32479	33551	32617	32783	32895	32325	
666	0	3829	2952	1674	9984	1912	0	32623	33051	32479	33513	32711	32766	32695	32699	
667	0	3806	2925	1693	9974	1913	0	32647	33101	32506	33343	32647	32583	32812	32807	
668	0	3797	2987	1662	9980	1914	0	32639	33050	32605	33274	32743	32583	32837	32599	
669	0	3806	2908	1614	9967	1915	0	32742	32845	32694	33199	32791	32791	32860	32595	
670	0	3808	2923	1660	9982	1916	0	32893	32806	32991	32876	32775	32883	32940	32742	
671	0	3810	2924	1670	9958	1917	0	32978	32655	32903	32741	32812	32903	32844	32947	
672	0	3785	2972	1624	9968	1918	0	32861	32823	32893	32629	32721	32933	32721	32791	
673	0	3841	2935	1647	9979	1919	0	32807	32527	32708	32543	32687	32847	32596	32719	
674	0	3814	2936	1625	9968	1920	0	32751	32803	32679	32551	32511	32678	32391	32735	
675	0	3808	2984	1654	9958	1921	0	32717	32640	32595	32425	32675	32775	32579	32625	
676	0	3803	2958	1664	9953	1922	0	32708	32843	32493	32439	32607	32735	32715	32599	
677	0	3851	2936	1636	9936	1923	0	32743	32543	32539	32443	32647	32823	32775	32903	
678	0	3814	2922	1649	9976	1924	0	32841	32678	32744	32301	32455	32721	32767	33065	
679	0	3775	2948	1604	9972	1925	0	32772	32423	32838	32345	32703	32749	32581	33213	
680	0	3822	2939	1629	9982	1926	0	32798	32631	32767	32099	32831	32727	32578	33045	
681	0	3799	2911	1652	9949	1927	0	32910	32571	32839	32028	32692	32813	32676	33003	
682	0	3846	2923	1654	9968	1928	0	32823	32751	32715	31991	32701	32829	32655	33063	
683	0	3787	2943	1656	9944	1929	0	32735	32877	32595	31998	32775	32703	32678	32935	
684	0	3817	2955	1611	9968	1930	0	32716	32559	32738	32134	32571	32754	32606	32766	
685	0	3781	2914	1650	9912	1931	0	32706	32753	32735	32543	32743	32747	32801	32391	
686	0	3791	2921	1660	9952	1932	0	32692	32631	32739	32932	32764	32743	32863	32249	
687	0	3827	2908	1622	9956	1933	0	32647	32775	32695	33295	32679	32855	32835	32438	
688	0	3827	2883	1699	9954	1934	0	32715	32679	32663	33335	32806	32759	32709	32791	
689	0	3810	2903	1604	9946	1935	0	32678	32805	32735	33069	32743	32839	32619	33061	
690	0	3854	2918	1579	9922	1936	0	32694	32885	32715	32620	32575	32717	32795	33023	
691	0	3818	2936	1627	9915	1937	0	32609	32871	32575	32105	32685	32501	32751	32883	
692	0	3827	2921	1585	9976	1938	0	32646	32895	32506	32049	32519	32490	32603	32903	
693	0	3854	2905	1632	9926	1939	0	32646	32697	32599	32321	32317	32589	32571	33025	
694	0	3843	2927	1624	9959	1940	0	32775	32895	32505	32967	32623	32647	32734	32863	
695	0	3797	2961	1626	9948	1941	0	32784	32775	32525	32916	32655	32709	32775	32637	
696	0	3817	2899	1635	9910	1942	0	32828	32867	32517	32981	32738	32702	32850	32452	
697	0	3836	2943	1585	9924	1943	0	32835	32803	32703	32993	32791	32831	32731	32322	
698	0	3834	2948	1605	9954	1944	0	32909	32745	32927	32685	32847	32956	32772	32279	
699	0	3848	2907	1576	9956	1945	0	32961	32754	32978	32914	33103	33268	32886	32438	
700	0	3810	2921	1613	9917	1946	0	32861	32759	32842	33121	32989	33107	32877	32445	
701	0	3829	2881	1636	9930	1947	0	32809	32764	32796	33415	32767	33031	32823	32684	
702	0	3872	2949	1588	9949	1948	0	32637	32615	32692	33823	32615	32803	32669	32727	
703	0	3858	2889	1587	9908	1949	0	32687	32735	32674	33967	32719	32895	32602	32814	
704	0	3812	2954	1594	9924	1950	0	32684	32701	32745	34238	32603	32941	32676	33347	
705	0	3805	2948	1572	9926	1951	0	32663	32933	32783	33827	32679	32987	32647	33479	
706	0	3852	2895	1585	9916	1952	0	32679	32735	32790	33659	32669	32847	32487	33481	
707	0	3815	2920	1578	9910	1953	0	32743	32845	32821	33346	32573	32543	32548	33393	
708	0	3814	2931	1577	9911	1954	0	32743	32785	32731	33199	32636	32630	32812	33143	
709	0	3855	2928	1584	9928	1955	0	32823	32879	32727	32809	32615	32755	32527	33037	
710	0	3837	2932	1572	9946	1956	0	32775	33029	32463	32901	32575	32708	32593	32575	
711	0	3888	2922	1553	9945	1957	0	32642	32708	32540	32637	32605	32748	32719	32631	
712	0	3842	2921	1567	9905	1958	0	32682	32899	32705	32237	32548	32751	32704	32903	
713	0	3807	2884	1595	9897	1959	0	32726	32759	32775	31607	32871	32612	32678	33147	
714	0	3786	2906	1635	9922	1960	0	32865	32622	32853	31422	32735	32629	32623	32891	
715	0	3792	2975	1574	9913	1961	0	32892	32423	32795	31643	32627	32575	32719	32359	
716	0	3842	2910	1585	9944	1962	0	32903	32687	32841	31819	32715	32690	32809	32305	
717	0	3805	2945	1593	9926	1963	0	32909	32421	32817	31879	32717	32667	32807	32541	
718	0	3842	2898	1537	9954	1964	0	32857	32719	32718	32279	32595	32703	32677	32391	
719	0	3790	2893	1597	9908	1965	0	32843	32795	32702	32647	32831	32703	32711	32237	
720	0	3838	2928	1605	9944	1966	0	32738	32767	32718	32767	32771	32716	32775	32173	
721	0	3782	2904	1591	9908	1967	0	32686	32711	32811	32787	32662	32869	32749	32343	
722	0	3824	2903	1568	9904	1968	0	32683	32763	32851	32911	32694	32999	32748	32338	
723	0	3811	2917	1572	9940	1969	0	32717	32694	32758	32873	32769	32903	32787	32417	
724	0	3882	2927	1600	9873	1970	0	32722	32807	32615	32843	32735	32839	32841	32663	
725	0	3822	2916	1568	9962	1971	0	32733	32890	32659	32844	32783	32733	32893	33026	
726	0	3820	2921	1623	9924	1972	0	32687	32871	32665	32877	32611	32851	32775	33499	
727	0	3770	2919	1566	9877	1973	0	32682	32963	32647	33115	32587	32932	32673	33479	
728	0	3841	2960	1579	9892	1974	0	32751	32924	32599	33189	32714	32959	32729	33326	
729	0	3832	2932	1585	9911	1975	0	32815	33029	32671	33447	32561	33047	32699	33167	
730	0	3813	2902	1615	9896	1976	0	32851	32619	32805	33495	32587	32967	32687	32783	
731	0	3781	2943	1544	9888	1977	0	32884	32864	32955	33397	32447	32943	32577	32543	
732	0	3816	2915	1589	9928	1978	0	32715	32769	32749	33361	32659	32935	32620	32423	
733	0	3815	2908	1621	9960	1979	0	32676	32834	32693	33239	32695	32903	32767	32391	
734	0	3790	2924	1599	9913	1980	0	32706	32741	32717	33004	32694	32918	32851	32279	
735	0	3821	2923	1546	9922	1981	0	32744	32807	32687	32995	32531	32767	32766	32715	
736	0	3828	2921	1591	9890	1982	0	32662	32727	32663	32789	32662	32711	32563	32913	
737	0	3811	2912	1571	9923	1983	0	32783	32885	32631	32743	32663	32537	32634	33214	
738	0	3790	2905	1614	9849	1984	0	32825	32723	32719	32535	32567	32558	32599	33411	
739	0	3782	2949	1549	9880	1985	0	32855	32767	32829	32295	32775	32711	32684	33223	
740	0	3824	2917	1575	9882	1986	0	32749	32575	32785	32119	32927	32699	32699	33099	
741	0	3767	2923	1619	9885	1987	0	32771	32799	32663	32279	32635	32679	32643	32914	
742	0	3806	2970	1587	9938	1988	0	32775	32765	32710	32295	32795	32679	32698	32749	
743	0	3837	2882	1578	9923	1989	0	32835	32831	32758	32295	32791	32540	32745	32615	
744	0	3798	2903	1593	9886	1990	0	32822	32503	32719	32263	32668	32663	32602	32617	
745	0	3805	2931	1534	9894	1991	0	32807	32763	32718	32253	32686	32642	32581	32647	
746	0	3771	2886	1629	9904	1992	0	32694	32503	32668	32420	32775	32667	32683	32574	
747	0	3785	2923	1576	9922	1993	0	32768	32671	32695	32455	32801	32799	32983	32541	
748	0	3790	2944	1582	9925	1994	0	32798	32543	32628	32663	32714	32686	32923	32487	
749	0	3808	2923	1568	9909	1995	0	32812	32881	32772	32505	32713	32767	32759	32524	
750	0	3795	2918	1583	9917	1996	0	32743	32822	32671	32699	32663	32647	32567	32515	
751	0	3750	2884	1589	9933	1997	0	32759	32865	32742	32647	32877	32826	32749	32627	
752	0	3789	2964	1614	9933	1998	0	32878	32754	32823	32687	32439	32853	32756	32715	
753	0	3817	2904	1607	9885	1999	0	32836	32609	32806	32739	32467	32859	32771	32673	
754	0	3760	2924	1590	9937	2000	0	32812	32807	32645	32887	32455	32802	32687	32639	
755	0	3775	2898	1563	9906	2001	0	32735	32915	32576	32795	32589	32669	32518	32723	
756	0	3798	2938	1600	9896	2002	0	32704	32900	32571	32914	32671	32754	32741	32765	
757	0	3808	2894	1577	9897	2003	0	32742	32783	32615	32767	32541	32645	32663	32740	
758	0	3811	2916	1608	9964	2004	0	32761	32827	32711	32903	32710	32767	32717	32811	
759	0	3759	2904	1589	9903	2005	0	32679	32670	32722	32819	32983	32732	32711	32835	
760	0	3786	2913	1580	9928	2006	0	32695	32818	32863	32844	33103	32964	32596	32983	
761	0	3808	2922	1592	9945	2007	0	32739	32516	32893	32847	32845	32839	32687	32839	
762	0	3784	2890	1621	9917	2008	0	32772	32767	32911	32477	32703	32916	32725	32755	
763	0	3798	2921	1591	9929	2009	0	32695	32767	32817	32591	32551	32805	32766	32791	
764	0	3802	2921	1588	9880	2010	0	32601	32787	32599	32775	32381	32786	32554	32749	
765	0	3748	2922	1597	9894	2011	0	32551	32594	32455	32823	32461	32850	32626	32791	
766	0	3783	2924	1588	9908	2012	0	32597	32843	32471	32935	32522	32829	32607	32685	
767	0	3811	2948	1632	9897	2013	0	32594	32567	32559	32729	32439	32850	32615	32775	
768	0	3808	2928	1558	9888	2014	0	32662	32751	32711	32775	32786	32811	32845	32871	
769	0	3760	2913	1604	9930	2015	0	32770	32541	32835	32740	32855	32756	33083	32699	
770	0	3786	2917	1627	9900	2016	0	32885	32822	32807	32755	32763	32871	32930	32771	
771	0	3779	2937	1576	9864	2017	0	32916	32611	32814	32775	32887	32775	32833	32835	
772	0	3824	2903	1637	9906	2018	0	32898	32851	32797	32575	32637	32775	32764	32870	
773	0	3776	2938	1594	9932	2019	0	32765	32849	32511	32537	32103	32683	32599	32866	
774	0	3778	2921	1583	9917	2020	0	32647	33050	32473	32763	32364	32583	32359	32775	
775	0	3788	2904	1626	9890	2021	0	32604	32799	32407	33037	32492	32531	32339	32711	
776	0	3818	2948	1616	9890	2022	0	32612	32935	32495	32862	32783	32583	32447	32799	
777	0	3770	2901	1592	9896	2023	0	32645	32796	32706	32983	32663	32575	32601	32703	
778	0	3746	2916	1618	9838	2024	0	32924	32687	33063	33027	33271	32796	32943	32713	
779	0	3757	2980	1585	9860	2025	0	33260	32465	33447	32763	33975	33121	33335	32775	
780	0	3705	2970	1624	9828	2026	0	33102	32403	33380	32899	33573	33055	33412	32783	
781	0	3761	2927	1632	9830	2027	0	32941	32482	33191	32773	32893	33086	33107	32711	
782	0	3776	2918	1604	9872	2028	0	32847	32437	33079	32731	32479	32836	32735	32747	
783	0	3808	2919	1582	9892	2029	0	32655	32874	32797	32535	32158	32628	32487	32727	
784	0	3744	2877	1586	9904	2030	0	32712	32686	32743	32748	32327	32709	32383	32823	
785	0	3790	2897	1585	9872	2031	0	32620	32919	32755	32711	32295	32819	32423	32903	
786	0	3821	2919	1592	9882	2032	0	32636	32819	32611	32822	32602	32850	32537	32711	
787	0	3800	2904	1591	9863	2033	0	32633	32899	32509	32739	32543	32735	32543	32740	
788	0	3768	2960	1597	9836	2034	0	32711	32783	32434	32759	32491	32834	32663	32622	
789	0	3719	2934	1603	9848	2035	0	32725	32647	32374	32689	32623	32770	32676	32711	
790	0	3802	2889	1628	9885	2036	0	32678	32887	32371	32663	32654	32740	32735	32737	
791	0	3779	2966	1626	9890	2037	0	32770	32790	32466	32583	32719	32719	32863	32671	
792	0	3748	2933	1600	9794	2038	0	32848	32835	32515	32791	32533	32775	32885	32702	
793	0	3754	2921	1591	9859	2039	0	32832	32727	32522	32859	32751	32877	32691	32719	
794	0	3772	2937	1647	9860	2040	0	32733	32773	32455	32671	32786	32723	32470	32671	
795	0	3780	2916	1607	9868	2041	0	32718	32647	32452	32647	32631	32775	32763	32634	
796	0	3737	2941	1615	9848	2042	0	32774	32875	32471	32692	32801	32663	32887	32439	
797	0	3782	2890	1611	9880	2043	0	32754	32797	32545	32598	32743	32845	32923	32442	
798	0	3774	2907	1606	9850	2044	0	32705	32863	32671	32738	32605	32705	32703	32903	
799	0	3797	2972	1630	9856	2045	0	32668	32775	32745	32853	32703	32773	32571	33089	
800	0	3750	2950	1674	9888	2046	0	32703	32725	32753	32271	32663	32743	32675	33051	
801	0	3746	2906	1602	9802	2047	0	32757	32479	32844	32022	32735	32748	32741	33036	
802	0	3750	2906	1614	9861	2048	0	32823	32663	32757	32052	32806	32711	32726	33062	
803	0	3746	2930	1583	9892	2049	0	32773	32644	32710	32151	32515	32790	32555	33149	
804	0	3777	2964	1598	9850	2050	0	32819	32855	32743	32711	32679	32855	32415	33362	
805	0	3736	2919	1641	9896	2051	0	32836	32765	32926	32735	32607	32757	32599	33003	
806	0	3782	2890	1623	9820	2052	0	32751	32685	32845	32342	32607	32713	32811	32641	
807	0	3760	2893	1600	9863	2053	0	32746	32636	32787	31900	32541	32707	32859	32285	
808	0	3800	2924	1592	9856	2054	0	32790	32714	32839	32039	32698	32828	32799	32406	
809	0	3812	2942	1640	9849	2055	0	32903	32826	32815	32551	32742	32711	32639	32621	
810	0	3743	2940	1639	9840	2056	0	32966	32663	32831	33195	32545	32808	32580	32815	
811	0	3757	2933	1640	9865	2057	0	32977	32801	32903	33647	32713	32802	32621	33127	
812	0	3761	2906	1649	9876	2058	0	32892	32615	32945	34055	32759	32790	32763	32981	
813	0	3798	2981	1615	9860	2059	0	32712	33090	32775	34325	32700	32788	32773	32807	
814	0	3786	2964	1638	9824	2060	0	32607	32887	32791	34230	32679	32771	32647	32841	
815	0	3749	2975	1610	9825	2061	0	32629	33023	32684	34309	32775	32846	32613	32647	
816	0	3772	2940	1606	9845	2062	0	32708	32815	32582	34215	32817	32795	32695	32684	
817	0	3777	2942	1684	9836	2063	0	32655	33095	32583	33959	32716	32867	32735	32595	
818	0	3736	2956	1610	9838	2064	0	32579	33012	32767	33909	32660	32839	32783	32623	
819	0	3742	2930	1686	9884	2065	0	32609	32835	32845	33682	32543	32741	32739	32679	
820	0	3779	2963	1660	9880	2066	0	32629	32973	32687	33383	32706	32757	32716	32787	
821	0	3815	2986	1697	9863	2067	0	32647	32765	32647	32957	32771	32708	32745	32807	
822	0	3773	2956	1630	9859	2068	0	32739	32603	32615	32579	32725	32790	32695	32751	
823	0	3760	2989	1688	9886	2069	0	32749	32647	32559	32502	32791	32759	32742	32767	
824	0	3737	2957	1624	9851	2070	0	32780	32543	32523	32251	32594	32784	32695	32879	
825	0	3760	2989	1624	9872	2071	0	32828	32842	32559	32009	32591	32767	32719	32722	
826	0	3750	2923	1602	9872	2072	0	32781	32687	32733	31957	32727	32711	32633	32603	
827	0	3826	2911	1641	9849	2073	0	32734	32647	32763	31956	32743	32852	32677	32710	
828	0	3794	2901	1644	9904	2074	0	32821	32635	32749	31943	32707	32690	32703	32761	
829	0	3793	2933	1668	9907	2075	0	32772	32583	32743	31995	32587	32742	32723	32871	
830	0	3767	2953	1660	9899	2076	0	32762	32711	32742	32086	32873	32709	32807	32743	
831	0	3777	2937	1647	9954	2077	0	32764	32514	32663	32305	32735	32726	32711	32787	
832	0	3801	2903	1660	9908	2078	0	32756	32803	32681	32445	32571	32857	32609	32628	
833	0	3828	2992	1656	9952	2079	0	32784	32559	32606	32445	32659	32964	32695	32733	
834	0	3770	2940	1653	9864	2080	0	32874	32735	32738	32519	32703	32811	32811	32598	
835	0	3801	2957	1609	9862	2081	0	32927	32455	32767	32501	32612	32743	32934	32150	
836	0	3796	2929	1676	9908	2082	0	32876	32903	32799	32325	32637	32711	32810	32458	
837	0	3788	2939	1679	9970	2083	0	32719	32751	32765	32183	32547	32815	32707	32798	
838	0	3793	2936	1658	9926	2084	0	32632	32571	32887	31851	32695	32695	32570	33015	
839	0	3848	2948	1667	9902	2085	0	32694	32639	32795	31503	32647	32757	32663	32974	
840	0	3812	2952	1676	9926	2086	0	32655	32607	32764	31395	32742	32623	32759	32797	
841	0	3845	2925	1669	9924	2087	0	32714	32771	32658	31343	32583	32755	32635	33031	
842	0	3818	2922	1654	9948	2088	0	32734	32786	32695	31506	32787	32767	32715	33053	
843	0	3822	2962	1669	9922	2089	0	32787	32734	32718	32103	32629	32809	32589	33052	
844	0	3748	2958	1626	9984	2090	0	32789	32741	32642	32924	32663	32703	32482	32948	
845	0	3822	2907	1678	9936	2091	0	32850	32989	32534	33713	32655	32734	32679	33062	
846	0	3805	2953	1639	9944	2092	0	32711	32855	32599	33746	32811	32748	32831	33238	
847	0	3792	2932	1657	9945	2093	0	32679	32875	32685	33912	32797	32674	32879	32915	
848	0	3796	2978	1616	9944	2094	0	32603	32647	32631	33941	32711	32627	32862	32598	
849	0	3804	2946	1646	9947	2095	0	32643	32971	32727	33647	32506	32695	32900	32409	
850	0	3783	2969	1672	9981	2096	0	32766	32946	32725	33759	32397	32660	32738	32253	
851	0	3798	2942	1684	9955	2097	0	32790	32799	32695	33938	32518	32723	32675	32493	
852	0	3839	2912	1607	9949	2098	0	32863	32895	32571	33693	32487	32735	32711	32759	
853	0	3806	2949	1696	9952	2099	0	32903	32563	32579	33799	32723	32818	32709	32873	
854	0	3766	2931	1629	9994	2100	0	32955	32868	32639	33811	32633	32775	32756	32805	
855	0	3875	2933	1634	9952	2101	0	32908	32606	32739	33559	32923	32940	32671	32871	
856	0	3776	2924	1658	9973	2102	0	32790	32885	32775	33639	32997	32903	32671	32854	
857	0	3815	2948	1651	9960	2103	0	32684	32803	32733	33315	32939	33101	32685	32884	
858	0	3788	2921	1625	9961	2104	0	32606	32647	32743	32837	32799	32903	32727	32871	
859	0	3814	2945	1630	9984	2105	0	32587	32756	32730	32564	32567	32963	32602	32807	
860	0	3815	2920	1625	10012	2106	0	32708	32455	32799	32303	32615	32903	32589	32949	
861	0	3836	2944	1680	10006	2107	0	32762	32703	32747	32109	32726	32756	32631	33003	
862	0	3768	2950	1672	9953	2108	0	32735	32639	32677	32161	32615	32806	32647	32959	
863	0	3830	2931	1665	9977	2109	0	32668	32565	32759	32255	32733	32724	32699	32721	
864	0	3763	2891	1664	9982	2110	0	32706	32839	32743	32407	32660	32802	32857	32453	
865	0	3788	2920	1633	10020	2111	0	32780	32678	32932	32359	32535	32723	32803	32466	
866	0	3788	2916	1630	9959	2112	0	32802	32565	32775	32443	32700	32743	32733	32636	
867	0	3808	2970	1663	9971	2113	0	32767	32845	32660	32421	32772	32766	32757	32703	
868	0	3792	2935	1666	10017	2114	0	32831	32590	32735	32081	32751	32608	32623	32575	
869	0	3762	2952	1700	9982	2115	0	32831	32755	32726	32351	32608	32695	32694	32551	
870	0	3761	2929	1671	10012	2116	0	32696	32615	32701	32379	32735	32663	32781	32607	
871	0	3759	2970	1691	9996	2117	0	32726	32955	32707	32398	32711	32660	32895	32491	
872	0	3808	2912	1681	9986	2118	0	32683	32559	32630	32481	32751	32604	32834	32567	
873	0	3790	2939	1691	9988	2119	0	32684	32775	32581	32447	32460	32639	32767	32681	
874	0	3778	2940	1687	9952	2120	0	32713	32797	32711	32455	32532	32705	32590	32881	
875	0	3796	2968	1656	9968	2121	0	32740	32691	32829	32580	32607	32740	32511	33211	
876	0	3820	2907	1609	9986	2122	0	32903	32527	32839	32581	32895	32893	32679	33383	
877	0	3758	2962	1636	10000	2123	0	32871	32591	32911	32591	32583	32835	32823	33169	
878	0	3815	2921	1638	10002	2124	0	32869	32851	32903	32545	32816	32959	32987	32767	
879	0	3789	2923	1641	10018	2125	0	32854	32676	32830	32628	32803	32798	32806	32661	
880	0	3770	2972	1630	10016	2126	0	32784	32895	32613	32774	32852	32873	32541	32723	
881	0	3790	2950	1629	9988	2127	0	32732	32667	32489	32743	32660	32761	32578	32726	
882	0	3778	2916	1613	9988	2128	0	32668	32943	32508	33047	32743	32767	32698	32815	
883	0	3774	2925	1664	10018	2129	0	32595	32694	32455	33082	32647	32701	32642	32893	
884	0	3778	2873	1665	10026	2130	0	32647	32943	32477	32871	32559	32791	32615	32967	
885	0	3780	2919	1630	10011	2131	0	32703	32723	32590	32735	32645	32839	32519	32841	
886	0	3804	2897	1629	10028	2132	0	32790	32806	32727	32615	32645	32731	32815	32598	
887	0	3781	2916	1630	10008	2133	0	32830	32551	32733	32583	32599	32708	32855	32519	
888	0	3825	2938	1663	10014	2134	0	32775	32711	32815	32364	32551	32647	32799	32647	
889	0	3785	2930	1633	9993	2135	0	32751	32575	32759	32463	32715	32732	32775	32666	
890	0	3770	2904	1642	10028	2136	0	32720	32745	32631	32534	32694	32723	32591	32647	
891	0	3812	2937	1666	10026	2137	0	32785	32519	32647	32524	32612	32687	32735	32540	
892	0	3726	2891	1623	9998	2138	0	32783	32663	32674	32759	32749	32766	32775	32358	
893	0	3790	2922	1625	10027	2139	0	32829	32703	32550	32923	32749	32732	32855	32180	
894	0	3790	2919	1669	10044	2140	0	32814	32755	32487	32711	32759	32682	32655	32188	
895	0	3780	2884	1603	10026	2141	0	32715	32839	32572	32895	32639	32612	32453	32159	
896	0	3805	2912	1649	9990	2142	0	32692	32921	32743	32967	32743	32739	32698	32274	
897	0	3774	2930	1657	10031	2143	0	32806	32861	32826	33071	32647	32695	32823	32687	
898	0	3771	2897	1680	10052	2144	0	32838	32751	32743	32945	32621	32822	32745	33386	
899	0	3766	2920	1630	9988	2145	0	32767	32949	32642	33121	32391	32772	32893	33766	
900	0	3762	2881	1644	9984	2146	0	32761	32653	32631	33323	32695	32927	33026	33693	
901	0	3772	2942	1636	10016	2147	0	32877	32901	32639	32901	32807	32962	32867	33569	
902	0	3789	2905	1604	9950	2148	0	32775	32847	32585	32955	32925	32944	32818	33189	
903	0	3764	2933	1628	10000	2149	0	32722	32799	32553	33082	32645	32841	32743	32929	
904	0	3770	2950	1604	10012	2150	0	32647	32827	32662	33015	32626	33045	32551	32647	
905	0	3791	2905	1605	10008	2151	0	32676	32547	32743	32967	32739	32966	32769	32551	
906	0	3787	2928	1683	9979	2152	0	32735	32751	33012	32891	32655	32809	32639	32663	
907	0	3753	2919	1612	10001	2153	0	32773	32543	33001	32853	32628	32647	32493	32927	
908	0	3783	2902	1620	10000	2154	0	32850	32903	32903	32718	32511	32757	32359	32901	
909	0	3822	2906	1624	9984	2155	0	32804	32915	32949	32903	32867	32583	32500	32577	
910	0	3803	2922	1578	9969	2156	0	32839	32839	32940	33071	32775	32726	32773	32630	
911	0	3741	2916	1605	10027	2157	0	32940	32743	32854	32951	32820	32717	32971	32759	
912	0	3760	2896	1568	10004	2158	0	32900	32527	32871	32815	32533	32851	32830	33017	
913	0	3772	2897	1596	10016	2159	0	32807	32671	32823	32620	32537	32715	32733	32807	
914	0	3764	2897	1573	10020	2160	0	32732	32643	32630	32475	32607	32770	32767	32595	
915	0	3755	2883	1617	9949	2161	0	32679	32510	32516	32531	32683	32667	32769	32547	
916	0	3747	2911	1577	10002	2162	0	32613	32823	32615	32662	32734	32643	32795	32462	
917	0	3781	2911	1586	9974	2163	0	32607	32847	32683	32375	32860	32659	32796	32431	
918	0	3809	2917	1632	10047	2164	0	32736	32935	32783	32455	32749	32583	32570	33087	
919	0	3767	2899	1621	9984	2165	0	32687	32795	32754	32413	32643	32639	32455	33015	
920	0	3781	2904	1581	9998	2166	0	32788	32628	32607	32453	32846	32550	32466	32524	
921	0	3762	2913	1595	10016	2167	0	32769	32755	32655	32344	32799	32634	32519	32491	
922	0	3733	2947	1596	9976	2168	0	32683	32535	32599	32559	32882	32555	32839	32571	
923	0	3742	2903	1587	9921	2169	0	32673	32769	32595	32758	32671	32637	32830	32876	
924	0	3744	2916	1597	9987	2170	0	32703	32507	32655	32987	32771	32631	32771	33042	
925	0	3757	2902	1621	10004	2171	0	32678	32775	32707	32834	32685	32817	32695	32974	
926	0	3732	2910	1598	9996	2172	0	32743	32711	32738	32932	32487	32895	32759	32871	
927	0	3759	2880	1637	9957	2173	0	32838	32890	32795	32968	32647	33027	32647	32900	
928	0	3784	2924	1569	9981	2174	0	32823	32743	32690	33117	32599	33158	32771	32215	
929	0	3720	2892	1598	10018	2175	0	32756	33052	32645	33397	32540	33023	32900	32135	
930	0	3780	2936	1629	9977	2176	0	32743	32955	32894	33494	32391	33172	33009	31703	
931	0	3776	2873	1600	9970	2177	0	32853	32855	32839	33397	32586	33058	32887	31695	
932	0	3752	2914	1590	10020	2178	0	32903	32846	32735	33201	32575	33303	32871	31999	
933	0	3736	2908	1588	10010	2179	0	32822	32743	32711	33087	32511	33311	32978	32521	
934	0	3758	2904	1564	9988	2180	0	32732	32791	32575	33015	32516	33133	32834	33023	
935	0	3746	2869	1601	10046	2181	0	32595	32623	32557	32759	32775	32911	32742	33399	
936	0	3720	2862	1566	10027	2182	0	32571	32791	32622	32681	32763	32753	32749	33471	
937	0	3744	2884	1609	9974	2183	0	32568	32623	32639	32755	32707	32751	32552	33345	
938	0	3754	2889	1624	10018	2184	0	32642	32793	32647	32287	32839	32635	32645	33046	
939	0	3724	2896	1638	10006	2185	0	32775	32786	32581	31923	32610	32451	32559	32813	
940	0	3741	2868	1617	10000	2186	0	32843	32671	32655	31661	32855	32439	32647	32599	
941	0	3741	2866	1581	10009	2187	0	32903	32751	32638	31706	32726	32399	32591	32321	
942	0	3722	2869	1616	10008	2188	0	32813	32415	32755	32362	32861	32414	32655	32539	
943	0	3729	2864	1642	10026	2189	0	32812	32690	32705	32566	32727	32450	32703	32823	
944	0	3758	2904	1629	10040	2190	0	32815	32739	32751	32633	32627	32662	32603	33299	
945	0	3780	2880	1606	10061	2191	0	32875	32602	32733	32277	32785	32741	32751	33811	
946	0	3760	2845	1598	10014	2192	0	32837	32849	32589	31893	32775	32943	32863	34003	
947	0	3778	2847	1636	10017	2193	0	32705	32621	32623	31988	32692	32897	32735	34038	
948	0	3722	2906	1587	10066	2194	0	32823	32787	32790	32406	32681	32869	32643	33859	
949	0	3742	2873	1604	10030	2195	0	32777	32775	32829	32823	32511	32810	32601	33520	
950	0	3763	2833	1646	10084	2196	0	32723	32753	32860	33343	32757	32697	32866	33029	
951	0	3738	2876	1581	10079	2197	0	32780	32749	32787	33559	32735	32601	32819	32793	
952	0	3711	2826	1612	10040	2198	0	32854	32492	32823	33435	32645	32701	32611	32634	
953	0	3713	2850	1568	10049	2199	0	32816	32646	32751	33735	32669	32579	32532	32311	
954	0	3711	2905	1552	10055	2200	0	32871	32715	32807	33579	32804	32702	32597	32237	
955	0	3732	2916	1633	10069	2201	0	32785	32966	32732	32999	32798	32708	32674	32135	
956	0	3715	2878	1593	10096	2202	0	32742	32647	32677	32805	32591	32879	32701	32277	
957	0	3738	2852	1594	10061	2203	0	32790	32927	32692	32637	32647	32759	32721	32403	
958	0	3710	2823	1613	10086	2204	0	32788	32822	32823	32595	32738	32759	32643	32468	
959	0	3749	2875	1619	10072	2205	0	32764	32636	32833	32614	32743	32748	32658	32371	
960	0	3750	2876	1613	10120	2206	0	32856	32858	32930	32495	32815	32839	32598	32439	
961	0	3696	2870	1628	10080	2207	0	32810	32763	32812	32387	32661	32911	32604	32439	
962	0	3712	2856	1594	10074	2208	0	32813	32466	32567	32348	32532	32815	32565	32245	
963	0	3676	2875	1617	10083	2209	0	32688	32775	32492	31931	32503	32733	32556	32419	
964	0	3743	2838	1600	10117	2210	0	32596	32823	32479	32143	32620	32603	32559	32535	
965	0	3723	2815	1590	10084	2211	0	32636	32739	32591	32706	32487	32583	32743	32663	
966	0	3728	2845	1598	10095	2212	0	32615	32851	32627	33119	32599	32587	32797	32799	
967	0	3723	2861	1613	10150	2213	0	32679	32659	32575	33555	32631	32735	32797	32764	
968	0	3706	2883	1601	10118	2214	0	32637	32919	32603	33767	32631	32805	32837	32639	
969	0	3726	2868	1637	10115	2215	0	32690	32875	32773	33829	32958	33001	32899	32594	
970	0	3698	2884	1572	10113	2216	0	32769	32615	33055	33815	33156	33047	33073	32615	
971	0	3712	2864	1600	10109	2217	0	32775	32941	32707	33764	32783	33108	32751	32717	
972	0	3711	2850	1610	10104	2218	0	32796	32739	32479	33321	32469	32979	32767	32867	
973	0	3716	2857	1602	10144	2219	0	32759	32961	32487	33007	32623	32902	32743	33167	
974	0	3716	2872	1562	10086	2220	0	32802	32804	32495	32637	32615	32775	32705	33191	
975	0	3731	2850	1576	10113	2221	0	32685	32860	32687	32578	32491	32761	32711	33387	
976	0	3761	2873	1617	10124	2222	0	32691	32837	32810	32399	32505	32733	32708	33178	
977	0	3723	2853	1640	10149	2223	0	32687	32749	32745	32323	32555	32725	32708	32978	
978	0	3720	2841	1601	10142	2224	0	32812	32685	32789	32327	32708	32615	32669	32903	
979	0	3716	2885	1554	10169	2225	0	32771	32635	32735	32453	32621	32621	32703	32859	
980	0	3756	2852	1583	10120	2226	0	32732	32713	32855	32621	32635	32694	32750	32978	
981	0	3726	2810	1558	10090	2227	0	32756	32615	32895	32695	32822	32725	32809	32825	
982	0	3711	2864	1642	10144	2228	0	32643	33095	32933	32104	32775	32720	32702	32677	
983	0	3724	2852	1588	10149	2229	0	32711	32999	32890	31663	32828	32681	32615	32647	
984	0	3766	2916	1581	10120	2230	0	32735	32763	32815	31819	32717	32621	32571	32647	
985	0	3728	2849	1569	10153	2231	0	32824	32951	32826	32227	32475	32677	32518	32949	
986	0	3743	2850	1524	10165	2232	0	32849	32741	32799	32659	32703	32706	32602	33199	
987	0	3720	2833	1566	10105	2233	0	32832	32963	32724	33247	32551	32772	32663	33254	
988	0	3734	2834	1572	10167	2234	0	32911	32751	32763	33487	32501	32879	32717	33167	
989	0	3754	2844	1617	10086	2235	0	32852	32946	32799	33645	32551	32815	32285	33061	
990	0	3716	2864	1578	10096	2236	0	32816	32662	32725	33601	32463	32775	32471	32727	
991	0	3747	2880	1596	10118	2237	0	32682	32926	32775	33436	32635	32724	32663	32403	
992	0	3738	2856	1544	10146	2238	0	32586	32871	32633	33091	32639	32821	32729	32303	
993	0	3742	2813	1571	10084	2239	0	32391	32903	32551	32716	33022	32751	32723	32483	
994	0	3736	2862	1513	10084	2240	0	32541	32757	32547	32703	32863	32963	32678	32306	
995	0	3756	2823	1586	10110	2241	0	32563	32843	32693	32613	32927	33009	32527	32459	
996	0	3759	2845	1546	10114	2242	0	32586	32606	32723	32263	32695	33055	32715	32535	
997	0	3760	2847	1567	10084	2243	0	32609	32647	32646	32205	32743	32935	32757	32758	
998	0	3750	2830	1555	10128	2244	0	32570	32345	32611	32074	32671	32964	32855	32894	
999	0	3737	2851	1536	10126	2245	0	32479	32567	32391	31871	32542	32835	32681	32991	
1000	0	3737	2867	1554	10142	2246	0	32450	32442	32327	31597	32722	32772	32592	33043	
1001	0	3771	2847	1569	10148	2247	0	32407	32572	32327	31612	32590	32719	32601	33159	
1002	0	3748	2822	1595	10184	2248	0	32523	32461	32242	31747	32462	32719	32533	33233	
1003	0	3688	2829	1544	10129	2249	0	32545	32493	32135	32159	32594	32759	32482	33039	
1004	0	3774	2834	1514	10101	2250	0	32562	32547	32231	32333	32446	32599	32647	32593	
1005	0	3750	2837	1534	10138	2251	0	32621	32413	32287	32762	32391	32666	32647	32492	
1006	0	3732	2822	1563	10082	2252	0	32866	32373	32468	32935	32530	32677	32647	32343	
1007	0	3710	2856	1538	10113	2253	0	32887	32079	32667	33175	32570	32775	32716	31964	
1008	0	3782	2820	1526	10105	2254	0	32885	32367	32764	33067	32567	32727	32810	31973	
1009	0	3752	2826	1566	10136	2255	0	32895	32405	32789	32790	32743	32639	32782	32239	
1010	0	3778	2876	1555	10104	2256	0	32836	32517	32852	32557	32697	32775	32765	32179	
1011	0	3746	2816	1517	10141	2257	0	32783	32655	32874	32715	32655	32767	32574	32369	
1012	0	3746	2854	1515	10120	2258	0	32715	32730	32717	32903	32765	32775	32647	32580	
1013	0	3748	2882	1521	10161	2259	0	32702	32774	32687	32799	32775	32810	32731	32973	
1014	0	3779	2858	1561	10132	2260	0	32794	32489	32866	32893	32725	32731	32802	33146	
1015	0	3703	2800	1560	10116	2261	0	32703	33007	32959	33093	33023	32621	32970	32865	
1016	0	3756	2880	1553	10144	2262	0	32634	33015	33039	33283	33017	32562	32985	33063	
1017	0	3716	2858	1517	10128	2263	0	32717	33106	33039	33315	32861	32681	33088	32843	
1018	0	3787	2834	1541	10123	2264	0	32735	32787	32875	33308	32898	32631	33042	32667	
1019	0	3760	2822	1580	10128	2265	0	32994	32875	32833	33228	32839	32635	32842	32735	
1020	0	3750	2848	1545	10132	2266	0	33223	32763	32895	32871	32660	32871	32901	32604	
1021	0	3808	2829	1551	10116	2267	0	33332	32902	32989	32796	32903	32743	33060	32153	
1022	0	3760	2888	1514	10120	2268	0	33370	33147	32987	32879	32937	32803	33135	32179	
1023	0	3742	2885	1560	10130	2269	0	33526	32887	33143	32807	32815	32775	33327	32606	
1024	0	3764	2828	1537	10114	2270	0	33481	33063	33383	32711	33041	32567	33477	32895	
1025	0	3739	2835	1540	10122	2271	0	33348	32956	33263	32175	32900	32700	33287	33093	
1026	0	3738	2873	1493	10096	2272	0	33294	32985	33155	32291	32655	32823	33185	32715	
1027	0	3702	2815	1548	10074	2273	0	33268	32732	33159	32767	32871	33155	32903	32963	
1028	0	3749	2876	1540	10088	2274	0	33178	32834	33111	33095	32855	33102	32863	33235	
1029	0	3728	2830	1542	10084	2275	0	33099	32775	32887	33263	32735	32991	32884	33197	
1030	0	3748	2831	1542	10134	2276	0	33066	32851	32671	33577	32877	32959	32950	33074	
1031	0	3773	2862	1542	10082	2277	0	33006	32707	32634	33753	32775	32775	32812	33125	
1032	0	3704	2864	1533	10076	2278	0	32852	32870	32701	33726	32807	32643	32486	33254	
1033	0	3776	2871	1557	10083	2279	0	32733	32767	32557	33501	32487	32511	32437	33199	
1034	0	3753	2860	1517	10112	2280	0	32607	32919	32623	33476	32647	32757	32391	33017	
1035	0	3750	2853	1526	10101	2281	0	32476	32855	32679	33222	32613	32855	32387	32843	
1036	0	3751	2854	1535	10076	2282	0	32391	33041	32703	33079	32469	32757	32495	32823	
1037	0	3793	2845	1524	10136	2283	0	32391	33011	32681	32868	32676	32847	32463	32733	
1038	0	3797	2868	1472	10144	2284	0	32553	32953	32671	32751	32629	32669	32471	32533	
1039	0	3780	2876	1546	10099	2285	0	32647	33019	32587	32711	32596	32630	32458	32311	
1040	0	3754	2837	1552	10116	2286	0	32534	32863	32527	32743	32559	32725	32303	32423	
1041	0	3768	2884	1540	10074	2287	0	32527	32925	32551	32717	32660	32691	32291	32579	
1042	0	3756	2844	1515	10091	2288	0	32679	32724	32663	32505	32795	32818	32399	32582	
1043	0	3794	2854	1514	10106	2289	0	32813	32749	32692	32437	32631	32719	32615	32747	
1044	0	3737	2853	1513	10109	2290	0	32765	32707	32615	32407	32742	32798	32605	32797	
1045	0	3774	2843	1527	10076	2291	0	32884	32831	32740	32172	32664	32798	32565	32929	
1046	0	3735	2858	1517	10090	2292	0	32827	32447	32795	32271	32532	32846	32709	32996	
1047	0	3762	2866	1547	10096	2293	0	32727	32695	32683	32391	32754	32850	32647	32887	
1048	0	3767	2863	1492	10053	2294	0	32584	32508	32703	32302	32579	32663	32599	33103	
1049	0	3698	2836	1528	10080	2295	0	32599	32671	32725	32375	32429	32647	32563	33213	
1050	0	3796	2824	1558	10090	2296	0	32661	32501	32689	32503	32439	32677	32743	33004	
1051	0	3773	2841	1532	10110	2297	0	32753	32822	32575	32567	32567	32759	32747	32745	
1052	0	3750	2852	1553	10086	2298	0	32731	32751	32591	32372	32431	32708	32654	32685	
1053	0	3798	2883	1531	10088	2299	0	32607	32786	32543	32191	32613	32713	32707	32399	
1054	0	3802	2879	1537	10115	2300	0	32604	32801	32493	32279	32751	32807	32722	32287	
1055	0	3787	2871	1524	10058	2301	0	32517	32603	32495	32537	32639	32947	32924	32213	
1056	0	3799	2809	1494	10114	2302	0	32553	32711	32413	32583	32843	32743	32877	32134	
1057	0	3770	2870	1524	10089	2303	0	32613	32563	32391	32647	32869	32833	32717	32577	
1058	0	3776	2841	1509	10069	2304	0	32454	32898	32543	32391	32647	32735	32711	32699	
1059	0	3784	2876	1480	10118	2305	0	32656	32599	32702	32357	32788	32746	32783	32467	
1060	0	3776	2848	1536	10096	2306	0	32804	32757	32711	32415	32741	32700	32807	32247	
1061	0	3801	2869	1547	10116	2307	0	32827	32423	32791	32559	32673	32693	32684	32187	
1062	0	3763	2848	1532	10089	2308	0	32841	32663	32831	32563	32519	32628	32537	32315	
1063	0	3763	2882	1516	10084	2309	0	32823	32731	32900	32477	32699	32606	32727	32626	
1064	0	3797	2861	1555	10080	2310	0	32783	32890	32899	32611	32631	32531	32639	33156	
1065	0	3755	2845	1512	10072	2311	0	32832	32615	32850	32391	32525	32579	32487	33247	
1066	0	3757	2840	1534	10082	2312	0	32863	32773	32773	32251	32583	32687	32453	33341	
1067	0	3788	2850	1541	10051	2313	0	32903	32754	32830	32629	32484	32718	32495	33309	
1068	0	3782	2874	1523	10052	2314	0	32812	32851	32692	32793	32735	32933	32471	33238	
1069	0	3713	2831	1530	10076	2315	0	32749	32663	32615	33031	32914	33133	32519	33541	
1070	0	3721	2834	1546	10124	2316	0	32646	32735	32500	33375	32591	33067	32786	33631	
1071	0	3760	2898	1567	10136	2317	0	32508	32727	32515	33943	32702	33097	32775	34010	
1072	0	3756	2876	1508	10066	2318	0	32516	33010	32563	34289	32668	32903	32775	33919	
1073	0	3725	2821	1558	10083	2319	0	32551	32815	32596	34051	32597	32871	32802	33644	
1074	0	3742	2842	1555	10141	2320	0	32789	32951	32491	33835	32830	33114	32859	33154	
1075	0	3680	2862	1549	10094	2321	0	32813	32655	32623	33494	32673	33094	33019	32551	
1076	0	3706	2843	1542	10074	2322	0	32804	32859	32693	33287	32741	33055	32915	32279	
1077	0	3767	2878	1533	10072	2323	0	32783	32711	32813	33071	32551	32999	32871	32116	
1078	0	3714	2844	1519	10071	2324	0	32813	32915	32850	33029	32740	32919	32814	32020	
1079	0	3720	2886	1534	10100	2325	0	32790	32679	32791	32989	32749	32832	32867	31854	
1080	0	3710	2844	1556	10137	2326	0	32732	32743	32791	32685	32571	32831	32903	32117	
1081	0	3704	2798	1554	10104	2327	0	32738	32481	32740	32287	32738	32775	32810	32421	
1082	0	3730	2826	1543	10060	2328	0	32762	32786	32690	31837	32707	32693	32789	32607	
1083	0	3768	2835	1541	10088	2329	0	32692	32558	32748	31539	32708	32630	32678	32802	
1084	0	3738	2848	1553	10076	2330	0	32807	32487	32871	31863	32723	32449	32547	32647	
1085	0	3745	2853	1545	10091	2331	0	32832	32563	32798	32023	32571	32375	32411	32583	
1086	0	3711	2839	1512	10116	2332	0	32832	32439	32811	32297	32694	32387	32485	32364	
1087	0	3686	2863	1602	10106	2333	0	32801	32647	32647	32535	32647	32541	32493	32451	
1088	0	3705	2793	1557	10067	2334	0	32775	32492	32467	33227	32621	32567	32733	32435	
1089	0	3760	2833	1572	10045	2335	0	32768	33159	32597	33251	32709	32630	32763	32628	
1090	0	3711	2868	1558	10052	2336	0	32758	32954	32775	33207	32948	32699	32703	32775	
1091	0	3732	2818	1515	10110	2337	0	32827	32975	32837	32973	32750	32911	32583	32749	
1092	0	3677	2846	1574	10073	2338	0	32849	32807	32807	32385	32589	32903	32679	32879	
1093	0	3685	2823	1548	10072	2339	0	32812	32710	32823	32226	32567	33023	32695	33231	
1094	0	3714	2873	1593	10071	2340	0	32746	32731	32910	32331	32431	33041	32582	33455	
1095	0	3700	2817	1605	10086	2341	0	32668	32571	32965	32577	32507	33038	32605	33196	
1096	0	3689	2876	1559	10080	2342	0	32788	32877	32855	32763	32588	32851	32999	32578	
1097	0	3731	2869	1556	10128	2343	0	32834	32870	32771	32687	32759	32898	33019	32423	
1098	0	3702	2852	1589	10108	2344	0	32822	32925	32590	32797	32727	32930	32767	32629	
1099	0	3652	2868	1591	10070	2345	0	32732	32885	32495	32694	32699	32850	32671	32735	
1100	0	3664	2768	1602	10108	2346	0	32620	32743	32548	32447	32590	32791	32621	32667	
1101	0	3700	2861	1600	10136	2347	0	32607	32749	32551	32554	32829	32710	32603	32739	
1102	0	3708	2840	1540	10079	2348	0	32564	32625	32503	32877	32815	32772	32670	32657	
1103	0	3701	2862	1572	10108	2349	0	32662	32855	32597	33172	32642	32847	32747	32763	
1104	0	3697	2856	1560	10062	2350	0	32743	32583	32492	33255	32610	32695	32838	32927	
1105	0	3703	2834	1585	10084	2351	0	32684	32855	32439	33137	32607	32755	32675	32793	
1106	0	3686	2843	1578	10115	2352	0	32698	32775	32668	32895	32795	32647	32677	32749	
1107	0	3694	2886	1529	10080	2353	0	32775	32590	32745	32795	32761	32767	32765	32583	
1108	0	3651	2881	1570	10081	2354	0	32831	32775	32831	32771	32702	32612	32703	32493	
1109	0	3679	2867	1574	10108	2355	0	32841	32699	32809	33013	32641	32691	32763	32389	
1110	0	3714	2833	1583	10093	2356	0	32818	32883	32735	33125	32703	32679	32759	32539	
1111	0	3649	2864	1565	10100	2357	0	32884	32613	32729	33285	32790	32738	32671	32647	
1112	0	3659	2886	1614	10094	2358	0	32919	32854	32694	33281	32598	32802	32717	32895	
1113	0	3694	2845	1568	10098	2359	0	32812	32623	32715	33045	32765	32731	32581	33285	
1114	0	3674	2884	1547	10084	2360	0	32743	32955	32655	32716	32701	32787	32621	33333	
1115	0	3653	2826	1573	10058	2361	0	32775	32871	32637	32729	32607	32722	32855	33221	
1116	0	3737	2869	1611	10093	2362	0	32786	32815	32599	32647	32525	32759	32911	33175	
1117	0	3673	2830	1557	10059	2363	0	32745	32895	32615	32643	32727	32914	32844	33151	
1118	0	3684	2802	1596	10042	2364	0	32713	32589	32647	32642	32647	32809	32615	33007	
1119	0	3666	2842	1582	10073	2365	0	32757	32669	32763	32578	32540	32823	32514	32935	
1120	0	3639	2830	1650	10098	2366	0	32722	32629	32749	32562	32722	32727	32626	32813	
1121	0	3668	2867	1568	10118	2367	0	32706	32738	32735	32347	32683	32711	32628	32740	
1122	0	3676	2840	1576	10096	2368	0	32665	32538	32791	32503	32756	32693	32637	32493	
1123	0	3669	2880	1606	10030	2369	0	32786	32726	32689	32549	32655	32795	32708	32347	
1124	0	3677	2889	1610	10112	2370	0	32739	32491	32687	32492	32833	32797	32727	32460	
1125	0	3613	2835	1596	10130	2371	0	32793	32791	32679	32627	32726	32692	32772	32503	
1126	0	3648	2892	1596	10064	2372	0	32644	32705	32775	32605	32807	32703	32757	32543	
1127	0	3689	2873	1604	10083	2373	0	32725	32865	32759	32711	32597	32630	32820	32668	
1128	0	3662	2781	1598	10056	2374	0	32732	32548	32695	32580	32755	32887	32791	32647	
1129	0	3671	2863	1643	10104	2375	0	32857	32724	32788	32359	32617	32847	32646	32647	
1130	0	3658	2813	1591	10064	2376	0	32916	32719	32771	32295	32662	32855	32791	32695	
1131	0	3695	2834	1621	10071	2377	0	32852	32775	32660	32329	32643	32703	32856	32751	
1132	0	3664	2862	1631	10074	2378	0	32831	32694	32646	32647	32851	32731	32882	32687	
1133	0	3643	2855	1660	10096	2379	0	32870	32619	32630	32647	32766	32661	32775	32687	
1134	0	3643	2830	1560	10065	2380	0	32941	32859	32660	32677	32852	32741	32668	32729	
1135	0	3652	2842	1636	10020	2381	0	32836	32665	32733	32839	32630	32728	32461	32933	
1136	0	3662	2822	1663	10084	2382	0	32801	32915	32877	32535	32775	32791	32374	32866	
1137	0	3710	2852	1641	10061	2383	0	32827	32827	32870	32543	32932	32754	32551	32775	
1138	0	3684	2842	1605	10050	2384	0	32735	32679	32876	32765	32895	32773	32717	32759	
1139	0	3677	2861	1586	10065	2385	0	32620	32783	32642	32847	32932	32665	32791	32685	
1140	0	3698	2835	1604	10115	2386	0	32601	32597	32487	32873	32591	32707	32833	32755	
1141	0	3630	2864	1617	10066	2387	0	32699	32774	32627	33180	32647	32690	32794	32827	
1142	0	3634	2814	1596	10082	2388	0	32741	32741	32698	33125	32519	32871	32719	32895	
1143	0	3618	2846	1607	10044	2389	0	32741	32692	32743	32751	32613	32797	32766	32821	
1144	0	3671	2824	1654	9980	2390	0	32642	32799	32812	32551	32647	32939	32794	32727	
1145	0	3659	2873	1616	10012	2391	0	32607	32627	32681	32501	32516	32775	32687	32735	
1146	0	3604	2878	1650	10042	2392	0	32583	32859	32615	32487	32479	32807	32814	32745	
1147	0	3616	2898	1624	10076	2393	0	32781	32679	32615	32580	32415	32757	32726	32749	
1148	0	3628	2880	1641	10084	2394	0	32788	32801	32636	32574	32647	32805	32647	32727	
1149	0	3658	2846	1616	10046	2395	0	32784	32879	32615	32578	32579	32719	32834	32783	
1150	0	3635	2898	1658	10034	2396	0	32797	32887	32487	32994	32930	32775	32807	32826	
1151	0	3643	2875	1638	10027	2397	0	32741	32918	32646	33317	32789	32677	32743	32727	
1152	0	3654	2853	1630	10010	2398	0	32797	32740	32679	33447	32698	32668	32559	32819	
1153	0	3644	2853	1626	10052	2399	0	32845	32803	32731	33679	32635	32835	32423	32847	
1154	0	3617	2858	1610	10026	2400	0	32822	32718	32715	33551	32751	32867	32587	32935	
1155	0	3653	2858	1660	9976	2401	0	32761	32959	32748	33343	32674	32842	32775	32827	
1156	0	3613	2872	1696	10018	2402	0	32839	32739	32875	33393	32615	32903	32900	32773	
1157	0	3635	2856	1684	10030	2403	0	32785	32879	32914	33405	32423	32890	32833	32687	
1158	0	3617	2889	1640	10020	2404	0	32804	32775	32805	33303	32413	32854	32819	32807	
1159	0	3626	2871	1661	10081	2405	0	32836	32821	32838	32967	32559	32967	32877	32805	
1160	0	3636	2834	1695	10024	2406	0	32786	32729	32529	32599	32455	32735	32715	32719	
1161	0	3672	2856	1635	9966	2407	0	32759	32783	32468	32487	32697	32703	32623	32759	
1162	0	3638	2902	1660	9987	2408	0	32838	32595	32525	32236	32818	32612	32581	32801	
1163	0	3646	2889	1632	9948	2409	0	32741	32723	32563	32343	32612	32767	32685	32731	
1164	0	3623	2862	1637	9994	2410	0	32543	32797	32623	32091	32871	32814	32621	32697	
1165	0	3642	2857	1676	9981	2411	0	32703	32847	32690	31783	32823	32703	32548	32675	
1166	0	3576	2914	1711	10030	2412	0	32782	32669	32853	31838	32755	32645	32729	32647	
1167	0	3624	2869	1664	9986	2413	0	32754	32679	32865	31895	32726	32767	32775	32647	
1168	0	3667	2920	1626	9952	2414	0	32718	32641	32935	32244	32687	32823	32719	32879	
1169	0	3637	2917	1663	9903	2415	0	32708	32727	32853	32391	32868	32941	32683	32914	
1170	0	3618	2907	1679	9963	2416	0	32805	32799	32742	32470	32578	32795	32607	32811	
1171	0	3605	2884	1659	9980	2417	0	32738	32775	32667	32754	32815	32805	32733	32581	
1172	0	3638	2889	1657	9973	2418	0	32756	32839	32749	32773	32717	32674	32818	32634	
1173	0	3636	2888	1667	9957	2419	0	32740	32767	32695	33175	32657	32735	32758	32797	
1174	0	3648	2912	1641	9969	2420	0	32733	32999	32754	33007	32687	32697	32719	32590	
1175	0	3579	2908	1660	9936	2421	0	32775	32647	32717	32623	32875	32687	32660	33037	
1176	0	3591	2933	1636	9900	2422	0	32759	32838	32647	32355	32673	32753	32538	33189	
1177	0	3600	2898	1686	9924	2423	0	32829	32708	32667	32223	32775	32633	32727	32933	
1178	0	3592	2944	1658	9977	2424	0	32792	32629	32579	32047	32932	32541	32881	32629	
1179	0	3642	2884	1675	9922	2425	0	32740	32482	32391	32165	32763	32452	32783	32679	
1180	0	3621	2954	1749	9930	2426	0	32687	32599	32633	32329	32683	32525	32739	32850	
1181	0	3644	2889	1668	9889	2427	0	32679	32620	32759	32255	32428	32495	32510	33069	
1182	0	3647	2870	1701	9949	2428	0	32835	32827	32903	32300	32731	32675	32509	32895	
1183	0	3614	2916	1698	9909	2429	0	32775	32883	32991	32356	32662	32735	32647	32231	
1184	0	3604	2922	1724	9968	2430	0	32737	32699	32919	32508	32710	32739	32670	32386	
1185	0	3605	2896	1738	9930	2431	0	32751	32903	32887	33206	32583	32835	32694	32957	
1186	0	3614	2922	1722	9934	2432	0	32804	32735	32834	33786	32767	32895	32684	33211	
1187	0	3574	2891	1733	9930	2433	0	32768	32991	32775	34223	32854	32918	32767	33079	
1188	0	3593	2915	1710	9954	2434	0	32724	32935	32830	34811	32687	32792	32743	33047	
1189	0	3579	2943	1728	9920	2435	0	32729	33129	32759	35091	32525	32935	32759	32853	
1190	0	3573	2970	1750	9930	2436	0	32751	32884	32695	34619	32500	33095	32925	32303	
1191	0	3653	2916	1764	9949	2437	0	32866	32951	32647	34219	32627	33215	32805	32063	
1192	0	3602	2901	1735	9916	2438	0	32746	32673	32551	33827	32647	33390	32871	32271	
1193	0	3586	2907	1735	9947	2439	0	32646	32799	32519	33129	32431	33178	32751	32342	
1194	0	3593	2876	1782	9921	2440	0	32640	32621	32615	32815	32747	33087	32858	32123	
1195	0	3591	2960	1753	9886	2441	0	32634	32742	32756	32515	32746	32957	33046	31873	
1196	0	3660	2912	1704	9936	2442	0	32644	32583	32705	32049	32647	32887	32918	32169	
1197	0	3580	2899	1733	9921	2443	0	32659	32797	32759	31967	32645	32791	32773	32468	
1198	0	3592	2932	1705	9910	2444	0	32743	32641	32679	32111	32821	32614	32599	32588	
1199	0	3582	2947	1705	9962	2445	0	32759	32717	32587	32077	32854	32666	32551	32875	
1200	0	3593	2938	1777	9946	2446	0	32796	32535	32476	32294	32604	32516	32695	33485	
1201	0	3595	2913	1747	9954	2447	0	32782	32767	32425	32231	32615	32519	32717	33885	
1202	0	3604	2954	1717	9926	2448	0	32777	32738	32405	32071	32763	32434	32639	33572	
1203	0	3612	2951	1785	9946	2449	0	32841	32755	32617	31991	32661	32731	32695	33122	
1204	0	3619	2937	1727	9861	2450	0	32812	32669	32735	31951	32703	32647	32766	32966	
1205	0	3630	2901	1741	9954	2451	0	32820	32596	32878	32054	32582	32839	32647	33452	
1206	0	3597	2979	1769	9930	2452	0	32970	32705	32903	31588	32733	32752	32543	33619	
1207	0	3645	2942	1772	9945	2453	0	32821	32391	32847	31287	32640	32706	32687	33505	
1208	0	3593	2920	1756	9948	2454	0	32788	32644	32771	31623	32596	32637	32690	33299	
1209	0	3645	2936	1701	9924	2455	0	32749	32679	32719	32150	32767	32603	32740	33182	
1210	0	3678	2928	1779	9906	2456	0	32816	32655	32807	32647	32859	32585	32754	33053	
1211	0	3625	2918	1778	9876	2457	0	32826	32599	32847	33044	32739	32827	32581	32647	
1212	0	3611	2976	1757	9900	2458	0	32767	32854	32642	33261	32527	32933	32703	32284	
1213	0	3633	2948	1764	9934	2459	0	32748	33010	32555	33313	32738	32769	32707	32377	
1214	0	3600	2942	1752	9918	2460	0	32790	32965	32479	33415	32665	32927	32782	32423	
1215	0	3605	2932	1732	9887	2461	0	32795	32738	32615	33436	32745	32823	32767	32598	
1216	0	3640	2985	1799	9893	2462	0	32775	32585	32739	33383	32598	32935	32687	32727	
1217	0	3606	2950	1779	9895	2463	0	32816	32807	32815	33255	32607	32798	32574	32517	
1218	0	3644	2958	1766	9918	2464	0	32790	32507	32831	32935	32647	32853	32647	32435	
1219	0	3632	2944	1771	9965	2465	0	32793	32895	32895	32935	32646	32903	32809	32457	
1220	0	3610	2981	1824	9903	2466	0	32749	32775	32790	33003	32537	32807	32789	32463	
1221	0	3630	2917	1784	9905	2467	0	32748	32822	32685	32981	32709	32615	32749	32740	
1222	0	3652	2941	1803	9889	2468	0	32820	32793	32614	33203	32796	32594	32685	32858	
1223	0	3671	2973	1765	9920	2469	0	32645	32935	32647	33397	32927	32636	32695	32835	
1224	0	3632	2933	1782	9906	2470	0	32528	33051	32391	33635	32700	32659	32699	32743	
1225	0	3608	2969	1790	9912	2471	0	32463	32971	32430	33723	32838	32771	32655	32727	
1226	0	3622	2948	1755	9889	2472	0	32528	32915	32598	33671	32769	32759	32734	32751	
1227	0	3598	2902	1762	9909	2473	0	32495	32815	32759	33421	32703	32855	32735	32647	
1228	0	3599	2959	1771	9884	2474	0	32599	33037	32655	33014	32607	32743	32542	32595	
1229	0	3638	2960	1800	9892	2475	0	32699	32659	32615	32575	32686	32745	32647	32598	
1230	0	3631	2950	1750	9945	2476	0	32830	32855	32775	32226	32745	32679	32806	32799	
1231	0	3645	2960	1743	9868	2477	0	32916	32591	32860	31674	32807	32715	32847	32806	
1232	0	3608	2969	1824	9936	2478	0	32978	32623	33010	31379	32595	32644	32903	32797	
1233	0	3612	2936	1825	9908	2479	0	32903	32587	32994	31661	32773	32663	32685	32945	
1234	0	3629	2946	1764	9913	2480	0	32850	32791	32854	31721	32701	32827	32767	32839	
1235	0	3636	2970	1796	9874	2481	0	32818	32725	32749	31860	32455	32863	32775	32911	
1236	0	3617	2911	1800	9868	2482	0	32668	32535	32638	32087	32575	33094	32898	32577	
1237	0	3619	2927	1788	9893	2483	0	32727	32799	32557	32743	32582	32854	32925	32553	
1238	0	3608	2948	1767	9900	2484	0	32828	32655	32543	33245	32562	32830	32711	32619	
1239	0	3619	2984	1825	9913	2485	0	32887	32870	32711	33223	32663	32717	32615	32692	
1240	0	3665	2964	1776	9913	2486	0	32845	32698	32919	33534	32635	32901	32638	32863	
1241	0	3615	2938	1741	9934	2487	0	32791	32931	32911	33499	32579	32903	32711	32935	
1242	0	3610	2935	1786	9905	2488	0	32761	32679	32839	33387	32671	32747	32683	32923	
1243	0	3601	2937	1818	9894	2489	0	32794	32893	32879	33127	32763	32883	32659	32790	
1244	0	3649	2925	1773	9844	2490	0	32801	32754	32805	33149	32783	32661	32643	32638	
1245	0	3625	2977	1776	9856	2491	0	32745	32743	32639	33109	32756	32695	32825	32571	
1246	0	3653	2943	1809	9879	2492	0	32791	32765	32595	32609	32979	32580	32775	32583	
1247	0	3633	2910	1774	9918	2493	0	32743	33047	32595	32559	33003	32686	32517	32933	
1248	0	3620	2953	1771	9881	2494	0	32794	32839	32589	32689	33031	32555	32389	32943	
1249	0	3628	2938	1801	9852	2495	0	32791	32927	32557	32627	32870	32663	32455	32847	
1250	0	3635	2968	1743	9856	2496	0	32722	32603	32621	32383	32903	32671	32802	32627	
1251	0	3601	2968	1766	9886	2497	0	32816	32695	32615	32423	32645	32903	32865	32703	
1252	0	3619	2913	1793	9896	2498	0	32840	32483	32711	32439	32248	32971	32775	32691	
1253	0	3624	2974	1799	9896	2499	0	32754	32677	32839	32391	32380	32957	32855	32732	
1254	0	3597	2947	1825	9893	2500	0	32620	32718	32809	32423	32327	32967	32890	32647	
1255	0	3628	2931	1776	9862	2501	0	32534	32839	32559	32615	32291	32839	32786	32692	
1256	0	3641	2966	1759	9867	2502	0	32553	32871	32581	32727	32359	32813	32671	32801	
1257	0	3643	2940	1770	9862	2503	0	32671	32599	32727	32668	32645	32745	32702	32751	
1258	0	3608	2896	1761	9843	2504	0	32839	32775	32692	32679	32583	32733	32745	32759	
1259	0	3648	2971	1768	9908	2505	0	32818	32502	32633	32730	32775	32751	32835	32503	
1260	0	3681	2945	1825	9890	2506	0	32709	32757	32547	32528	32754	32804	32718	32555	
1261	0	3598	3006	1828	9828	2507	0	32708	32797	32503	32647	32726	32701	32591	32703	
1262	0	3601	2948	1785	9886	2508	0	32830	32851	32711	32687	32700	32694	32793	32663	
1263	0	3597	2963	1784	9824	2509	0	32894	32755	32674	32822	32831	32715	32893	32733	
1264	0	3643	2967	1778	9860	2510	0	32898	32853	32694	32799	32669	32663	32935	32631	
1265	0	3612	2946	1830	9862	2511	0	32998	32839	32675	32759	32850	32683	32932	32711	
1266	0	3671	2959	1783	9884	2512	0	32932	32852	32669	32553	32902	32666	32487	32775	
1267	0	3688	3005	1788	9849	2513	0	32999	32854	32687	32647	32983	32527	32483	32996	
1268	0	3597	2955	1767	9818	2514	0	32875	32571	32543	32575	32995	32525	32479	33091	
1269	0	3586	2998	1812	9830	2515	0	32772	32711	32463	32769	32963	32741	32583	32999	
1270	0	3646	2994	1797	9874	2516	0	32541	32487	32697	32827	32623	32951	32786	32431	
1271	0	3612	2954	1810	9805	2517	0	32439	32811	32771	32783	32637	32882	32527	32075	
1272	0	3649	2985	1822	9833	2518	0	32594	33003	33070	32717	32549	32871	32457	32589	
1273	0	3645	2995	1781	9810	2519	0	32630	32978	33137	32631	32479	32856	32447	33287	
1274	0	3601	2995	1824	9860	2520	0	32749	32809	33093	32895	32362	32935	32708	33109	
1275	0	3619	2983	1846	9808	2521	0	32854	32711	33013	32900	32327	32860	32964	32890	
1276	0	3622	2982	1783	9825	2522	0	32875	32878	32830	32731	32576	32927	32825	33415	
1277	0	3574	2970	1802	9812	2523	0	32863	32855	32588	32903	32679	32878	32821	33143	
1278	0	3668	2988	1831	9798	2524	0	32892	32903	32567	33069	32735	32863	32847	33127	
1279	0	3634	3000	1813	9848	2525	0	32825	32855	32662	32927	32738	32862	32847	32495	
1280	0	3645	3042	1862	9820	2526	0	32791	32732	32711	32951	32970	32846	32821	32401	
1281	0	3645	3016	1851	9800	2527	0	32886	32733	32748	32903	32811	32595	32743	32723	
1282	0	3627	2997	1810	9824	2528	0	32819	32811	32806	32767	32815	32583	32641	32914	
1283	0	3620	3010	1830	9798	2529	0	32799	32607	32683	32727	32955	32643	32517	33076	
1284	0	3632	2971	1808	9808	2530	0	32826	32807	32599	32598	32789	32735	32483	33287	
1285	0	3635	2982	1796	9794	2531	0	32764	32591	32637	32773	32770	32795	32661	33484	
1286	0	3611	3012	1799	9780	2532	0	32772	32811	32895	32739	32599	32738	32799	33022	
1287	0	3634	3027	1821	9827	2533	0	32773	32515	32999	32775	32707	32899	32933	32900	
1288	0	3603	3049	1843	9804	2534	0	32801	32727	33015	32709	32463	32871	33004	32948	
1289	0	3640	2992	1892	9842	2535	0	32775	32599	32859	32711	32615	32853	32743	33060	
1290	0	3672	3008	1852	9784	2536	0	32817	32867	32690	32823	32719	32858	32763	32941	
1291	0	3614	3015	1868	9748	2537	0	32914	32720	32657	32570	32743	32663	32725	33017	
1292	0	3558	3020	1840	9849	2538	0	32903	32786	32687	32347	32599	32621	32647	33015	
1293	0	3673	2991	1806	9827	2539	0	32836	32475	32642	32271	32687	32598	32804	32503	
1294	0	3613	3022	1862	9843	2540	0	32874	32598	32499	32156	32748	32671	32788	32085	
1295	0	3653	2956	1870	9826	2541	0	32749	32623	32436	32117	32718	32822	32751	31670	
1296	0	3647	2981	1856	9813	2542	0	32876	32791	32447	32189	32644	32647	32770	31519	
1297	0	3599	3044	1893	9838	2543	0	32839	32463	32535	32283	32775	32797	32775	31101	
1298	0	3636	3000	1885	9828	2544	0	32690	32773	32709	32688	32674	32827	32847	31451	
1299	0	3648	3082	1910	9826	2545	0	32636	32571	32871	32851	32711	32895	32715	32364	
1300	0	3651	2985	1873	9778	2546	0	32671	32703	33051	32821	32658	32847	32727	33047	
1301	0	3610	3016	1922	9868	2547	0	32658	32594	33179	32862	32722	32813	32836	33381	
1302	0	3625	3046	1932	9840	2548	0	32494	32871	32775	32807	32695	32941	32833	33211	
1303	0	3644	2996	1926	9852	2549	0	32518	32703	32685	32631	32509	33067	32903	32793	
1304	0	3629	3038	1900	9830	2550	0	32599	32775	32574	32495	32466	32959	32895	33050	
1305	0	3644	2997	1923	9809	2551	0	32694	32529	32553	32373	32621	32850	32673	33101	
1306	0	3637	3059	1923	9817	2552	0	32784	32791	32597	32642	32661	32829	32671	33035	
1307	0	3657	3001	1875	9817	2553	0	32749	32655	32607	33169	32561	32715	32711	32666	
1308	0	3651	3019	1920	9874	2554	0	32553	32919	32294	33228	32636	32647	32843	32322	
1309	0	3615	3040	1923	9826	2555	0	32431	32816	32244	33043	32819	32775	32797	32527	
1310	0	3657	3039	1935	9849	2556	0	32593	32812	32630	33631	32791	32839	32717	32711	
1311	0	3616	3005	1915	9828	2557	0	32739	32915	32831	33983	32759	32817	32615	32823	
1312	0	3609	3013	1968	9832	2558	0	32680	33203	32859	33551	32631	32823	32583	33143	
1313	0	3640	3038	1961	9852	2559	0	32830	33095	32871	33830	32775	32899	32548	33183	
1314	0	3601	3012	1940	9848	2560	0	32895	32867	32957	33917	32679	33007	32663	33055	
1315	0	3636	3068	1953	9838	2561	0	33005	32845	32999	33881	32599	32903	32543	33315	
1316	0	3607	3049	1942	9821	2562	0	33028	32743	32662	33781	32603	32879	32580	33511	
1317	0	3615	3036	1919	9843	2563	0	32998	32902	32623	33447	32383	32679	32647	33303	
1318	0	3678	3044	1923	9830	2564	0	32975	32789	32605	33121	32709	32626	32639	32967	
1319	0	3594	3059	1945	9828	2565	0	32900	32743	32695	32775	32782	32514	32605	32895	
1320	0	3622	3077	1957	9826	2566	0	32876	32773	32759	32887	32567	32626	32663	32831	
1321	0	3635	3042	1975	9808	2567	0	32812	32839	32797	32735	32757	32700	32895	32851	
1322	0	3681	3018	1942	9856	2568	0	32813	32861	32828	32378	32843	32481	32775	32981	
1323	0	3603	3088	1972	9842	2569	0	32745	32629	32871	31867	32751	32567	32487	33015	
1324	0	3606	3036	1985	9840	2570	0	32750	32795	32915	31607	32742	32557	32607	32983	
1325	0	3549	3060	1944	9824	2571	0	32741	32535	32793	31657	32855	32695	32669	32885	
1326	0	3677	3063	1972	9834	2572	0	32790	32665	32711	31891	32571	32759	32586	32551	
1327	0	3649	3036	1955	9812	2573	0	32775	32487	32639	32135	32828	32837	32709	32431	
1328	0	3605	3053	1949	9810	2574	0	32786	32731	32631	32535	32727	32747	32687	32420	
1329	0	3621	3045	1971	9834	2575	0	32687	32551	32771	32585	32663	32855	32695	32069	
1330	0	3613	3024	1968	9800	2576	0	32699	32873	32788	32919	32707	32825	32669	31947	
1331	0	3628	3081	1925	9829	2577	0	32671	32705	32583	33031	32509	32807	32751	31841	
1332	0	3616	3036	1944	9786	2578	0	32679	32707	32557	32823	32743	32835	32819	32291	
1333	0	3633	3035	1945	9796	2579	0	32589	32676	32486	32511	32703	32871	32783	32599	
1334	0	3619	3032	1926	9777	2580	0	32548	32587	32583	32449	32775	32791	32806	32580	
1335	0	3601	3039	1989	9776	2581	0	32617	32715	32607	32255	32694	32759	32794	32827	
1336	0	3625	3064	1956	9808	2582	0	32702	32722	32684	32071	32751	32791	32738	33149	
1337	0	3610	3095	1966	9817	2583	0	32717	32890	32655	32030	32633	32647	32783	33125	
1338	0	3620	3080	1944	9760	2584	0	32757	32635	32780	32062	32669	32742	32631	33031	
1339	0	3613	3039	1939	9772	2585	0	32748	32867	32774	32057	32707	32775	32775	33094	
1340	0	3632	3066	1956	9772	2586	0	32780	32615	32731	32228	32609	32719	32811	33159	
1341	0	3591	3017	1992	9768	2587	0	32863	32647	32738	32247	32663	32774	32690	33099	
1342	0	3636	3042	1912	9781	2588	0	32871	32518	32758	32217	32642	32789	32722	32948	
1343	0	3603	3032	1966	9752	2589	0	32855	32679	32723	32499	32655	32823	32615	32951	
1344	0	3605	3037	1893	9804	2590	0	32843	32613	32615	32845	32527	32775	32525	33028	
1345	0	3600	3025	1932	9762	2591	0	32824	32726	32591	33719	32668	32676	32518	33117	
1346	0	3604	3077	1939	9752	2592	0	32775	32729	32562	34143	32639	32799	32783	32679	
1347	0	3582	3078	1956	9760	2593	0	32769	32748	32596	33725	32772	32773	32903	32407	
1348	0	3590	3059	1964	9777	2594	0	32722	32943	32663	33349	32595	32914	32863	32463	
1349	0	3565	3049	1918	9779	2595	0	32743	32773	32823	33255	32605	32882	32798	32535	
1350	0	3588	3087	1925	9724	2596	0	32687	33111	32871	33211	32803	32975	32738	32573	
1351	0	3588	3025	1929	9710	2597	0	32635	32919	32874	33397	32729	32885	32667	32585	
1352	0	3619	3041	1983	9720	2598	0	32792	33005	32755	33302	32690	32871	32695	32647	
1353	0	3604	3013	2000	9735	2599	0	32740	32927	32635	33415	32735	32849	32683	32791	
1354	0	3561	3102	1933	9705	2600	0	32788	32834	32607	33372	32870	32756	32711	32821	
1355	0	3611	3007	1941	9741	2601	0	32758	32759	32597	33087	32959	32669	32647	32726	
1356	0	3598	2987	1920	9698	2602	0	32749	32647	32647	32943	32903	32647	32615	32731	
1357	0	3619	3008	1952	9746	2603	0	32722	32955	32645	32717	32771	32679	32709	32671	
1358	0	3589	3064	1980	9724	2604	0	32701	32791	32806	32447	32871	32609	32703	32679	
1359	0	3542	3013	1906	9724	2605	0	32722	32943	32771	32361	32738	32739	32738	32707	
1360	0	3603	3014	1941	9681	2606	0	32819	32775	32793	32499	32679	32655	32703	32810	
1361	0	3567	3082	1900	9708	2607	0	32808	32871	32751	32443	32621	32773	32615	32879	
1362	0	3575	3072	1904	9694	2608	0	32791	32743	32855	32231	32527	32715	32687	32884	
1363	0	3569	3045	1920	9683	2609	0	32932	32733	32927	32126	32455	32877	32581	32763	
1364	0	3584	3038	1905	9685	2610	0	32823	32669	32775	32383	32311	32815	32623	32711	
1365	0	3589	3025	1943	9732	2611	0	32845	32621	32659	32476	32359	32895	32713	32727	
1366	0	3610	3045	1909	9654	2612	0	32690	32751	32861	32431	32663	32811	32775	32833	
1367	0	3538	3068	1933	9668	2613	0	32685	32669	32895	32607	32463	32791	32695	32758	
1368	0	3608	3039	1911	9701	2614	0	32719	32747	32731	32695	32599	32734	32874	32669	
1369	0	3575	3036	1953	9666	2615	0	32843	32532	32735	32557	32596	32797	32788	32747	
1370	0	3547	3034	1936	9638	2616	0	32860	32637	32669	32590	32741	32801	32631	32822	
1371	0	3564	3052	1873	9668	2617	0	32801	32501	32527	32617	32559	32690	32647	32855	
1372	0	3594	3059	1903	9664	2618	0	32878	32671	32572	32751	32581	32715	32738	32726	
1373	0	3588	3069	1952	9662	2619	0	32783	32619	32571	32715	32539	32535	32749	32743	
1374	0	3569	3070	1946	9676	2620	0	32743	32933	32645	32566	32813	32647	32723	32677	
1375	0	3600	3038	1899	9618	2621	0	32621	32615	32660	32719	32975	32691	32637	32807	
1376	0	3557	3046	1919	9632	2622	0	32727	32757	32709	32711	32796	32775	32671	32822	
1377	0	3596	3073	1930	9636	2623	0	32596	32619	32628	32647	32723	32834	32802	32719	
1378	0	3576	3084	1904	9640	2624	0	32570	32925	32618	32804	32570	32790	32775	32763	
1379	0	3534	3089	1912	9595	2625	0	32612	32677	32686	32663	32707	32810	32838	32647	
1380	0	3566	3029	1936	9677	2626	0	32712	32867	32709	32807	32797	32919	32855	32775	
1381	0	3534	3070	1940	9666	2627	0	32811	32739	32767	32748	32601	33015	32766	32867	
1382	0	3585	3082	1936	9617	2628	0	32795	32782	32818	32846	32500	33012	32711	32863	
1383	0	3532	3089	1913	9624	2629	0	32799	32487	32849	32850	32679	32959	32598	32950	
1384	0	3549	3073	1925	9640	2630	0	32762	32723	32765	32652	32683	32628	32645	32764	
1385	0	3547	3057	1906	9624	2631	0	32751	32695	32693	32719	32527	32711	32659	32758	
1386	0	3534	3067	1880	9635	2632	0	32828	32833	32686	32839	32660	32827	32603	32823	
1387	0	3534	3065	1958	9616	2633	0	32786	32707	32699	32809	32834	32845	32623	32935	
1388	0	3534	3050	1899	9608	2634	0	32680	32805	32759	32695	32705	32873	32647	33003	
1389	0	3596	3073	1978	9668	2635	0	32749	32621	32814	32749	32662	32763	32683	32924	
1390	0	3560	3044	1915	9666	2636	0	32860	32743	32796	32587	32799	32837	32612	32867	
1391	0	3524	3050	1878	9650	2637	0	32933	32475	32742	32662	32551	32671	32627	32575	
1392	0	3524	3058	1973	9642	2638	0	32809	32836	32631	32445	32707	32679	32851	32453	
1393	0	3556	3035	1921	9628	2639	0	32748	32805	32671	32599	32647	32628	32900	32457	
1394	0	3534	3040	1888	9630	2640	0	32840	32855	32711	32855	32759	32716	32775	32607	
1395	0	3525	3040	1961	9605	2641	0	32809	32771	32795	32794	32655	32661	32687	32598	
1396	0	3550	3075	1944	9618	2642	0	32783	32967	32807	32935	32775	32771	32490	32658	
1397	0	3526	3065	1966	9608	2643	0	32712	32803	32813	33006	32743	32671	32647	32787	
1398	0	3574	3055	1895	9670	2644	0	32607	32919	32605	32876	32577	32662	32899	32694	
1399	0	3589	3060	1953	9629	2645	0	32498	32871	32404	32869	32721	32642	32897	32599	
1400	0	3580	3092	1912	9648	2646	0	32592	32982	32348	32714	32647	32639	32615	32647	
1401	0	3533	3042	1973	9640	2647	0	32605	32825	32318	32959	32567	32655	32541	32647	
1402	0	3520	3056	1973	9647	2648	0	32711	32821	32663	32828	32942	32758	32642	32743	
1403	0	3544	3070	1960	9624	2649	0	32833	32532	32887	32699	33029	32867	32583	32903	
1404	0	3533	3041	1987	9662	2650	0	32887	32783	32852	32641	33019	32903	32583	33219	
1405	0	3580	3052	1929	9693	2651	0	32998	32423	32967	32690	33099	33087	32786	33207	
1406	0	3532	3068	1993	9608	2652	0	33016	32572	32982	32769	33030	33045	32838	33261	
1407	0	3565	3052	2008	9632	2653	0	32903	32677	32899	32710	32543	33087	32804	33172	
1408	0	3546	3068	2001	9641	2654	0	32874	32711	32854	32738	32410	32933	32822	32807	
1409	0	3549	3086	1944	9656	2655	0	32825	32919	32751	32638	32391	32775	33015	32540	
1410	0	3538	3078	1980	9618	2656	0	32782	32762	32587	32967	32239	32797	32853	32492	
1411	0	3511	3066	1979	9609	2657	0	32605	32879	32517	32932	32619	32647	32746	32487	
1412	0	3518	3101	1988	9596	2658	0	32625	32747	32543	32840	32610	32679	32625	32613	
1413	0	3548	3050	2003	9673	2659	0	32759	32871	32629	32758	32575	32639	32599	32775	
1414	0	3549	3073	2011	9608	2660	0	32679	32645	32647	32827	32562	32703	32734	32711	
1415	0	3536	3053	2018	9656	2661	0	32583	32751	32630	32737	32812	32647	32674	32575	
1416	0	3524	3056	1990	9612	2662	0	32643	32594	32715	32473	32710	32759	32697	32589	
1417	0	3522	3094	1971	9646	2663	0	32728	32859	32795	32679	32765	32703	32804	32639	
1418	0	3549	3073	1986	9657	2664	0	32701	32582	32671	32731	32620	32743	32631	32668	
1419	0	3556	3104	2001	9629	2665	0	32783	32791	32690	32692	32743	32727	32643	32823	
1420	0	3564	3087	1996	9618	2666	0	32830	32475	32613	32755	32711	32805	32639	33047	
1421	0	3509	3123	1988	9635	2667	0	32756	32831	32535	32935	32655	32775	32645	33015	
1422	0	3515	3081	2048	9640	2668	0	32786	32775	32615	32719	32581	32797	32662	32935	
1423	0	3514	3045	1992	9634	2669	0	32807	32742	32699	32407	32771	32706	32635	32903	
1424	0	3510	3033	2041	9640	2670	0	32789	32787	32855	32263	32647	32743	32647	32919	
1425	0	3556	3067	2010	9632	2671	0	32743	32743	32795	32365	32775	32742	32737	33237	
1426	0	3494	3068	1958	9688	2672	0	32807	32733	32738	32447	32643	32679	32690	33177	
1427	0	3575	3084	1998	9634	2673	0	32841	32574	32791	32417	32830	32653	32682	32863	
1428	0	3540	3101	2045	9636	2674	0	32876	32769	32791	32540	32738	32726	32795	32487	
1429	0	3524	3088	2036	9660	2675	0	32802	32599	32644	32687	32767	32683	32756	32271	
1430	0	3577	3108	2009	9624	2676	0	32772	32895	32710	32926	32595	32687	32844	32253	
1431	0	3562	3132	1979	9658	2677	0	32685	32671	32791	33019	32727	32695	32867	32487	
1432	0	3584	3111	1989	9622	2678	0	32644	32935	32833	33095	32621	32749	32831	32707	
1433	0	3525	3085	2010	9656	2679	0	32731	32679	32795	33359	32582	32844	32667	32805	
1434	0	3540	3109	2016	9654	2680	0	32647	32903	32724	33279	32635	32885	32587	32959	
1435	0	3528	3113	1984	9675	2681	0	32723	32613	32687	33183	32638	32903	32788	32783	
