# OpenSignals Text File Format
# {"00:07:80:3B:46:38": {"sensor": ["CUSTOM/0.5/1.0/V", "CUSTOM/0.5/1.0/V", "CUSTOM/0.5/1.0/V", "CUSTOM/0.5/1.0/V", "CUSTOM/0.5/1.0/V", "CUSTOM/0.5/1.0/V", "CUSTOM/0.5/1.0/V", "CUSTOM/0.5/1.0/V"], "device name": "EMGs", "column": ["nSeq", "DI", "RA_L", "RA_R", "OE_L", "OE:R", "IL_L", "IL_R", "MF_L", "MF_R"], "sync interval": 2, "time": "18:5:38.170", "comments": "", "device connection": "BTH00:07:80:3B:46:38", "channels": [1, 2, 3, 4, 5, 6, 7, 8], "date": "2017-6-1", "mode": 0, "digital IO": [0, 1], "firmware version": 772, "device": "biosignalsplux", "position": 0, "sampling rate": 1000, "label": ["RA_L", "RA_R", "OE_L", "OE:R", "IL_L", "IL_R", "MF_L", "MF_R"], "resolution": [16, 16, 16, 16, 16, 16, 16, 16], "special": [{}, {}, {}, {}, {}, {}, {}, {}]}}
# EndOfHeader
0	0	32767	32771	32671	32615	32685	32817	32835	32505	
1	0	32788	32797	32631	32543	32793	32805	32742	32607	
2	0	32761	32775	32690	32617	32806	32762	32769	32595	
3	0	32751	32847	32767	32565	32671	32831	32753	32506	
4	0	32780	32756	32607	32647	32748	32819	32707	32535	
5	0	32743	32844	32738	32491	32887	32753	32775	32615	
6	0	32745	32788	32711	32507	32676	32719	32685	32665	
7	0	32709	32715	32635	32725	32775	32719	32791	32666	
8	0	32788	32812	32738	32671	32806	32807	32695	32647	
9	0	32775	32775	32799	32638	32863	32775	32742	32647	
10	0	32775	32775	32771	32631	32767	32855	32577	32567	
11	0	32729	32813	32567	32601	32683	32725	32773	32641	
12	0	32763	32759	32724	32657	32798	32845	32615	32617	
13	0	32734	32716	32718	32630	32811	32788	32835	32541	
14	0	32772	32724	32734	32711	32809	32815	32723	32519	
15	0	32758	32775	32769	32699	32687	32775	32646	32671	
16	0	32742	32765	32802	32745	32727	32767	32670	32623	
17	0	32772	32783	32687	32788	32690	32661	32765	32614	
18	0	32771	32765	32647	32722	32670	32626	32839	32775	
19	0	32668	32775	32707	32823	32679	32807	32791	32773	
20	0	32727	32825	32663	32819	32727	32759	32623	32833	
21	0	32756	32794	32677	32684	32827	32669	32559	32747	
22	0	32781	32716	32759	32746	32819	32715	32775	32739	
23	0	32772	32845	32811	32551	32788	32759	32775	32673	
24	0	32788	32895	32831	32661	32839	32762	32832	32699	
25	0	32772	32795	32738	32538	32875	32805	32828	32742	
26	0	32795	32796	32763	32605	32759	32702	32647	32708	
27	0	32826	32745	32735	32703	32775	32829	32775	32693	
28	0	32827	32802	32663	32685	32669	32847	32794	32567	
29	0	32806	32807	32756	32667	32629	32783	32887	32647	
30	0	32812	32842	32646	32565	32613	32775	32694	32747	
31	0	32726	32822	32685	32709	32676	32763	32612	32582	
32	0	32715	32791	32775	32677	32707	32699	32603	32729	
33	0	32754	32807	32692	32766	32751	32711	32735	32526	
34	0	32763	32859	32617	32765	32615	32831	32775	32727	
35	0	32749	32807	32605	32501	32685	32815	32839	32603	
36	0	32726	32743	32783	32611	32806	32767	32873	32612	
37	0	32748	32813	32739	32711	32877	32725	32742	32548	
38	0	32757	32734	32671	32575	32823	32800	32595	32694	
39	0	32736	32739	32599	32621	32759	32826	32599	32703	
40	0	32719	32820	32694	32559	32711	32738	32727	32677	
41	0	32759	32809	32746	32647	32762	32755	32747	32663	
42	0	32750	32770	32691	32634	32823	32802	32766	32683	
43	0	32756	32722	32647	32519	32797	32751	32821	32743	
44	0	32725	32738	32709	32671	32803	32647	32787	32717	
45	0	32829	32775	32756	32753	32798	32755	32663	32742	
46	0	32847	32871	32615	32565	32813	32751	32607	32638	
47	0	32786	32725	32647	32645	32666	32775	32631	32715	
48	0	32750	32739	32767	32551	32684	32787	32613	32655	
49	0	32822	32775	32609	32498	32790	32714	32855	32734	
50	0	32759	32669	32711	32597	32711	32787	32605	32687	
51	0	32802	32749	32743	32772	32767	32881	32850	32671	
52	0	32815	32775	32759	32707	32749	32789	32775	32674	
53	0	32692	32775	32671	32679	32790	32679	32707	32671	
54	0	32773	32804	32709	32679	32811	32743	32711	32698	
55	0	32761	32783	32793	32693	32671	32867	32662	32601	
56	0	32727	32850	32775	32727	32726	32711	32807	32555	
57	0	32765	32743	32607	32690	32717	32755	32669	32594	
58	0	32727	32771	32815	32738	32809	32701	32749	32671	
59	0	32791	32783	32655	32615	32831	32727	32677	32621	
60	0	32775	32755	32726	32487	32786	32633	32767	32566	
61	0	32761	32837	32642	32628	32791	32855	32591	32615	
62	0	32817	32775	32707	32796	32703	32871	32830	32617	
63	0	32804	32799	32757	32711	32765	32833	32755	32749	
64	0	32778	32799	32743	32753	32683	32791	32747	32679	
65	0	32765	32807	32743	32474	32719	32807	32646	32811	
66	0	32720	32786	32731	32671	32834	32767	32592	32844	
67	0	32737	32710	32711	32563	32743	32727	32593	32655	
68	0	32733	32775	32623	32725	32787	32799	32701	32775	
69	0	32734	32866	32719	32727	32751	32723	32799	32755	
70	0	32740	32806	32767	32573	32747	32834	32799	32743	
71	0	32757	32701	32754	32655	32705	32807	32771	32445	
72	0	32773	32759	32615	32700	32727	32703	32875	32623	
73	0	32775	32791	32694	32707	32855	32686	32903	32514	
74	0	32752	32807	32767	32679	32884	32749	32775	32619	
75	0	32829	32775	32719	32659	32727	32697	32809	32509	
76	0	32758	32775	32748	32670	32644	32735	32645	32717	
77	0	32772	32791	32695	32583	32673	32883	32599	32781	
78	0	32775	32791	32709	32660	32805	32823	32623	32727	
79	0	32748	32761	32807	32583	32823	32837	32727	32631	
80	0	32783	32823	32583	32487	32623	32855	32757	32539	
81	0	32713	32815	32691	32545	32823	32767	32615	32575	
82	0	32770	32727	32692	32559	32786	32731	32698	32591	
83	0	32757	32739	32581	32759	32679	32743	32577	32535	
84	0	32764	32759	32693	32763	32775	32759	32803	32479	
85	0	32771	32742	32743	32791	32849	32818	32629	32495	
86	0	32756	32879	32647	32787	32831	32660	32890	32562	
87	0	32719	32701	32661	32573	32839	32732	32791	32613	
88	0	32766	32766	32735	32690	32791	32767	32708	32615	
89	0	32775	32797	32751	32751	32791	32723	32775	32611	
90	0	32757	32743	32635	32691	32843	32687	32797	32551	
91	0	32733	32749	32689	32675	32698	32737	32751	32564	
92	0	32775	32767	32788	32679	32775	32839	32735	32589	
93	0	32818	32747	32731	32541	32663	32811	32819	32605	
94	0	32839	32828	32711	32576	32690	32763	32731	32554	
95	0	32804	32749	32774	32684	32701	32677	32767	32803	
96	0	32775	32743	32679	32668	32827	32787	32637	32715	
97	0	32765	32831	32735	32727	32807	32730	32775	32727	
98	0	32769	32706	32723	32743	32647	32755	32719	32759	
99	0	32787	32824	32704	32772	32827	32799	32789	32775	
100	0	32783	32807	32719	32729	32806	32827	32739	32537	
101	0	32817	32815	32759	32730	32719	32796	32791	32524	
102	0	32775	32747	32655	32757	32833	32695	32820	32595	
103	0	32775	32791	32775	32757	32621	32735	32679	32607	
104	0	32775	32811	32743	32615	32717	32751	32715	32615	
105	0	32774	32756	32694	32694	32783	32829	32706	32623	
106	0	32787	32771	32759	32725	32850	32791	32847	32584	
107	0	32775	32695	32663	32557	32661	32747	32689	32567	
108	0	32760	32801	32722	32591	32811	32703	32854	32587	
109	0	32767	32725	32639	32687	32693	32759	32811	32580	
110	0	32775	32759	32699	32647	32801	32803	32788	32530	
111	0	32715	32813	32685	32591	32839	32711	32735	32508	
112	0	32704	32751	32703	32507	32847	32734	32700	32766	
113	0	32793	32767	32643	32633	32783	32748	32823	32766	
114	0	32809	32732	32671	32771	32695	32763	32655	32663	
115	0	32685	32831	32700	32677	32899	32711	32887	32711	
116	0	32757	32862	32655	32805	32842	32791	32903	32756	
117	0	32791	32791	32615	32739	32706	32794	32839	32735	
118	0	32769	32775	32679	32775	32863	32711	32935	32527	
119	0	32808	32799	32637	32749	32884	32775	32647	32503	
120	0	32775	32743	32578	32732	32787	32757	32863	32583	
121	0	32772	32787	32727	32676	32717	32676	32631	32611	
122	0	32741	32761	32583	32703	32797	32679	32806	32691	
123	0	32764	32735	32761	32677	32695	32695	32725	32711	
124	0	32786	32763	32751	32685	32685	32813	32839	32647	
125	0	32783	32807	32743	32695	32775	32820	32775	32694	
126	0	32756	32767	32605	32631	32679	32831	32770	32724	
127	0	32781	32791	32719	32581	32839	32743	32889	32727	
128	0	32762	32799	32759	32637	32815	32713	32606	32739	
129	0	32749	32797	32607	32634	32825	32775	32751	32711	
130	0	32759	32692	32749	32679	32767	32720	32639	32775	
131	0	32805	32814	32763	32707	32841	32788	32749	32679	
132	0	32799	32807	32699	32634	32645	32821	32887	32535	
133	0	32765	32714	32679	32639	32827	32839	32567	32615	
134	0	32766	32818	32644	32683	32787	32769	32765	32751	
135	0	32730	32756	32751	32679	32647	32727	32559	32663	
136	0	32694	32775	32751	32662	32807	32736	32735	32679	
137	0	32729	32807	32615	32703	32879	32721	32765	32663	
138	0	32681	32861	32683	32681	32870	32791	32775	32723	
139	0	32731	32739	32679	32596	32830	32839	32627	32733	
140	0	32735	32871	32771	32575	32757	32671	32765	32679	
141	0	32727	32764	32731	32609	32735	32782	32661	32693	
142	0	32775	32815	32687	32621	32716	32847	32802	32715	
143	0	32798	32787	32731	32671	32727	32775	32767	32543	
144	0	32759	32763	32815	32515	32876	32893	32735	32605	
145	0	32698	32807	32775	32692	32879	32793	32775	32603	
146	0	32715	32750	32751	32636	32771	32758	32741	32775	
147	0	32745	32725	32635	32751	32741	32825	32783	32690	
148	0	32698	32743	32647	32711	32804	32756	32744	32681	
149	0	32738	32811	32647	32659	32749	32719	32805	32667	
150	0	32695	32837	32791	32661	32732	32775	32817	32755	
151	0	32694	32823	32636	32623	32775	32709	32677	32739	
152	0	32799	32770	32820	32773	32795	32726	32675	32819	
153	0	32845	32855	32775	32765	32769	32703	32684	32786	
154	0	32741	32735	32711	32607	32805	32871	32647	32699	
155	0	32737	32711	32621	32666	32755	32771	32593	32697	
156	0	32742	32711	32738	32711	32805	32695	32759	32623	
157	0	32740	32711	32711	32572	32854	32647	32859	32708	
158	0	32780	32775	32702	32691	32817	32757	32769	32643	
159	0	32807	32841	32691	32535	32786	32807	32749	32723	
160	0	32795	32795	32773	32661	32663	32758	32775	32607	
161	0	32835	32767	32765	32647	32747	32727	32863	32647	
162	0	32794	32775	32638	32716	32643	32871	32842	32763	
163	0	32832	32759	32738	32743	32679	32690	32679	32659	
164	0	32854	32754	32708	32533	32708	32747	32580	32735	
165	0	32839	32775	32711	32687	32735	32701	32605	32571	
166	0	32818	32743	32627	32685	32823	32740	32817	32636	
167	0	32739	32743	32735	32563	32844	32775	32797	32567	
168	0	32756	32741	32731	32625	32820	32775	32801	32691	
169	0	32758	32711	32636	32553	32849	32647	32772	32646	
170	0	32758	32726	32631	32620	32845	32685	32733	32734	
171	0	32715	32742	32735	32671	32759	32838	32838	32757	
172	0	32725	32751	32807	32579	32815	32804	32823	32662	
173	0	32665	32879	32673	32677	32887	32815	32743	32738	
174	0	32704	32775	32799	32739	32773	32826	32686	32711	
175	0	32734	32859	32681	32676	32676	32826	32756	32647	
176	0	32775	32806	32640	32614	32615	32757	32740	32663	
177	0	32756	32799	32679	32543	32738	32767	32710	32687	
178	0	32743	32783	32751	32679	32695	32797	32745	32665	
179	0	32728	32791	32663	32756	32807	32715	32627	32601	
180	0	32749	32847	32619	32708	32885	32679	32765	32690	
181	0	32793	32711	32685	32663	32783	32775	32595	32695	
182	0	32783	32743	32757	32639	32706	32832	32761	32671	
183	0	32741	32679	32723	32683	32654	32711	32643	32640	
184	0	32788	32765	32708	32674	32795	32763	32935	32667	
185	0	32730	32795	32591	32635	32751	32755	32655	32722	
186	0	32742	32729	32715	32630	32749	32783	32815	32723	
187	0	32827	32815	32735	32603	32725	32751	32627	32703	
188	0	32771	32775	32637	32593	32799	32723	32771	32679	
189	0	32702	32711	32805	32567	32818	32675	32596	32747	
190	0	32741	32794	32675	32575	32730	32707	32789	32757	
191	0	32738	32829	32645	32527	32814	32631	32647	32569	
192	0	32710	32711	32731	32551	32823	32682	32762	32690	
193	0	32736	32787	32739	32525	32772	32804	32668	32687	
194	0	32786	32831	32659	32623	32835	32769	32735	32707	
195	0	32735	32802	32641	32647	32815	32743	32783	32647	
196	0	32704	32887	32756	32773	32759	32799	32775	32663	
197	0	32761	32795	32719	32766	32707	32875	32822	32677	
198	0	32759	32823	32627	32713	32813	32874	32749	32641	
199	0	32769	32875	32723	32695	32815	32729	32843	32695	
200	0	32807	32735	32710	32692	32647	32685	32815	32663	
201	0	32813	32767	32727	32733	32764	32799	32791	32615	
202	0	32765	32767	32615	32635	32681	32923	32812	32747	
203	0	32775	32774	32647	32589	32838	32843	32701	32757	
204	0	32793	32903	32761	32671	32809	32821	32775	32799	
205	0	32794	32838	32685	32757	32765	32831	32605	32693	
206	0	32734	32871	32735	32731	32837	32860	32810	32695	
207	0	32711	32821	32623	32839	32727	32790	32655	32694	
208	0	32741	32871	32614	32743	32655	32852	32775	32667	
209	0	32742	32741	32707	32639	32623	32863	32677	32637	
210	0	32759	32787	32775	32487	32735	32866	32677	32645	
211	0	32763	32773	32645	32605	32740	32743	32773	32597	
212	0	32707	32786	32647	32637	32815	32807	32615	32571	
213	0	32728	32762	32735	32594	32647	32899	32741	32621	
214	0	32679	32741	32749	32743	32775	32698	32477	32790	
215	0	32620	32695	32847	32634	32759	32799	32742	32854	
216	0	32696	32761	32684	32503	32553	32703	32666	32799	
217	0	32639	32799	32801	32415	32751	32714	32695	32695	
218	0	32652	32775	32843	32503	32567	32665	32577	32639	
219	0	32643	32775	32867	32643	32723	32767	32677	32655	
220	0	32634	32711	32817	32598	32691	32746	32583	32695	
221	0	32638	32631	32797	32404	32615	32735	32543	32747	
222	0	32620	32787	32899	32535	32587	32823	32541	32775	
223	0	32664	32727	32815	32358	32615	32834	32555	32753	
224	0	32558	32639	32843	32343	32647	32767	32516	32655	
225	0	32622	32593	32903	32335	32573	32783	32583	32647	
226	0	32655	32564	32970	32231	32647	32714	32555	32482	
227	0	32710	32559	32807	32407	32605	32647	32519	32634	
228	0	32758	32585	32919	32342	32643	32631	32471	32565	
229	0	32708	32622	32859	32465	32711	32667	32443	32630	
230	0	32708	32533	32895	32445	32775	32703	32735	32430	
231	0	32740	32572	32797	32543	32839	32530	32787	32508	
232	0	32755	32631	32850	32610	32843	32639	32797	32439	
233	0	32786	32613	32797	32455	32841	32631	32815	32525	
234	0	32671	32587	32721	32583	32843	32703	32764	32607	
235	0	32789	32620	32667	32717	32858	32791	32743	32619	
236	0	32733	32759	32731	32727	32835	32735	32754	32646	
237	0	32760	32775	32711	32846	32799	32743	33013	32541	
238	0	32836	32895	32543	32790	32797	32695	32963	32613	
239	0	32832	32903	32588	32775	32831	32751	33015	32566	
240	0	32863	32884	32510	32903	32903	32729	33181	32644	
241	0	32960	32949	32541	32879	32982	32751	33158	32677	
242	0	32985	32943	32356	33042	32943	32787	33063	32751	
243	0	32951	32959	32503	33023	33021	32847	32999	32785	
244	0	33067	33011	32454	33037	33103	32775	33029	32667	
245	0	33142	32967	32429	33118	32975	32686	33106	32541	
246	0	33210	32932	32357	33063	33150	32677	33444	32514	
247	0	33295	32911	32255	33125	33223	32637	33584	32518	
248	0	33318	32847	32351	33001	33181	32623	33563	32487	
249	0	33333	32877	32399	32996	33174	32691	33633	32499	
250	0	33287	32827	32370	32999	33215	32709	33447	32441	
251	0	33243	32775	32402	32775	33159	32795	33148	32599	
252	0	33248	32727	32435	32952	33195	32677	33159	32371	
253	0	33201	32839	32459	32935	33117	32669	33171	32439	
254	0	33105	32833	32457	32982	33170	32670	33335	32457	
255	0	32985	32807	32439	32967	33065	32739	32965	32701	
256	0	32819	32791	32559	32751	32943	32839	32903	32730	
257	0	32748	32801	32674	32787	32743	32821	32711	32749	
258	0	32637	32717	32843	32615	32691	32827	32639	32833	
259	0	32492	32783	32790	32632	32638	32789	32551	32796	
260	0	32446	32811	32802	32531	32599	32915	32587	32799	
261	0	32415	32809	32967	32319	32563	32903	32404	32731	
262	0	32448	32831	32972	32474	32507	32867	32331	32895	
263	0	32447	32771	32834	32367	32484	32933	32355	32775	
264	0	32421	32743	32815	32478	32508	32831	32135	32804	
265	0	32406	32839	32975	32471	32375	32807	32155	32691	
266	0	32492	32786	32931	32319	32333	32903	32071	32801	
267	0	32441	32803	32834	32411	32391	32839	32297	32679	
268	0	32403	32799	32929	32383	32477	32763	32303	32843	
269	0	32440	32745	32947	32527	32483	32866	32239	32948	
270	0	32434	32853	32979	32532	32519	32850	32324	32925	
271	0	32467	32895	32815	32409	32447	32803	32399	32915	
272	0	32491	32805	32775	32647	32462	32903	32419	32807	
273	0	32590	32799	32900	32423	32583	32871	32497	32894	
274	0	32614	32807	32854	32603	32567	32823	32513	32903	
275	0	32632	32903	32823	32525	32580	32893	32495	32941	
276	0	32712	32827	32797	32677	32497	32815	32574	32799	
277	0	32743	32722	32741	32639	32663	32863	32567	32698	
278	0	32745	32851	32647	32659	32733	32751	32503	32799	
279	0	32745	32830	32661	32501	32703	32855	32562	32731	
280	0	32740	32805	32791	32671	32675	32791	32547	32775	
281	0	32792	32711	32742	32543	32759	32695	32709	32715	
282	0	32854	32743	32797	32647	32791	32739	32749	32631	
283	0	32846	32765	32583	32580	32871	32719	32867	32603	
284	0	32828	32751	32711	32766	32879	32763	32879	32675	
285	0	32858	32689	32692	32687	32871	32801	32831	32519	
286	0	32820	32655	32719	32729	32853	32677	32815	32623	
287	0	32775	32751	32607	32738	32695	32719	32999	32505	
288	0	32780	32773	32674	32551	32773	32735	32934	32615	
289	0	32820	32763	32755	32659	32767	32742	32775	32543	
290	0	32844	32719	32687	32513	32823	32729	32799	32590	
291	0	32788	32743	32663	32636	32695	32743	32687	32647	
292	0	32775	32738	32703	32795	32764	32751	32687	32647	
293	0	32757	32807	32753	32655	32902	32731	32721	32647	
294	0	32785	32838	32723	32671	32903	32830	32703	32615	
295	0	32745	32811	32603	32588	32807	32798	32810	32681	
296	0	32732	32767	32667	32799	32855	32701	32815	32590	
297	0	32780	32819	32671	32863	32749	32847	32773	32751	
298	0	32792	32797	32698	32839	32727	32695	32846	32621	
299	0	32738	32766	32645	32767	32807	32815	32831	32594	
300	0	32750	32791	32621	32719	32837	32731	32830	32565	
301	0	32772	32711	32655	32719	32759	32787	32939	32647	
302	0	32765	32694	32623	32663	32819	32775	32799	32723	
303	0	32780	32858	32623	32583	32803	32642	32903	32633	
304	0	32805	32758	32763	32559	32783	32747	32615	32631	
305	0	32791	32775	32759	32451	32679	32735	32859	32605	
306	0	32749	32823	32639	32474	32771	32743	32623	32647	
307	0	32853	32703	32775	32493	32817	32783	32871	32607	
308	0	32821	32755	32743	32506	32765	32725	32583	32621	
309	0	32798	32775	32671	32444	32748	32843	32815	32679	
310	0	32762	32743	32709	32465	32797	32737	32603	32667	
311	0	32752	32839	32677	32629	32810	32739	32799	32738	
312	0	32799	32829	32677	32634	32793	32807	32639	32615	
313	0	32785	32709	32757	32452	32805	32717	32775	32511	
314	0	32751	32743	32717	32493	32866	32729	32679	32567	
315	0	32736	32743	32639	32559	32751	32801	32822	32575	
316	0	32762	32775	32694	32627	32754	32893	32694	32593	
317	0	32725	32799	32713	32797	32775	32727	32763	32543	
318	0	32683	32775	32757	32735	32759	32788	32645	32519	
319	0	32708	32814	32659	32703	32775	32771	32755	32660	
320	0	32719	32749	32634	32727	32823	32804	32583	32631	
321	0	32765	32819	32684	32683	32687	32683	32877	32567	
322	0	32769	32709	32767	32723	32761	32775	32767	32495	
323	0	32785	32799	32767	32799	32722	32769	32838	32567	
324	0	32806	32727	32663	32733	32781	32733	32757	32684	
325	0	32740	32757	32735	32679	32711	32667	32783	32637	
326	0	32726	32839	32711	32695	32710	32684	32700	32659	
327	0	32769	32775	32599	32664	32796	32740	32804	32703	
328	0	32806	32759	32706	32687	32791	32767	32769	32727	
329	0	32783	32799	32706	32647	32743	32795	32839	32685	
330	0	32830	32742	32727	32487	32863	32759	32814	32679	
331	0	32703	32807	32642	32527	32757	32790	32786	32765	
332	0	32743	32775	32755	32519	32647	32775	32767	32742	
333	0	32736	32781	32687	32685	32829	32783	32613	32707	
334	0	32708	32805	32751	32658	32749	32743	32843	32747	
335	0	32652	32751	32695	32767	32804	32823	32639	32679	
336	0	32748	32775	32759	32647	32775	32811	32764	32763	
337	0	32752	32815	32807	32731	32734	32797	32610	32742	
338	0	32745	32751	32679	32773	32845	32714	32831	32718	
339	0	32743	32863	32775	32669	32815	32635	32595	32751	
340	0	32747	32884	32731	32647	32647	32726	32809	32647	
341	0	32772	32813	32669	32787	32741	32797	32639	32639	
342	0	32735	32839	32685	32742	32789	32839	32881	32655	
343	0	32783	32827	32759	32767	32703	32815	32823	32647	
344	0	32799	32771	32788	32839	32743	32836	32871	32679	
345	0	32791	32726	32839	32605	32743	32775	32794	32695	
346	0	32821	32791	32655	32569	32854	32791	32738	32631	
347	0	32864	32831	32739	32628	32795	32732	32807	32668	
348	0	32775	32767	32659	32559	32609	32807	32583	32711	
349	0	32810	32743	32699	32551	32762	32763	32817	32646	
350	0	32804	32733	32599	32531	32831	32791	32601	32613	
351	0	32793	32735	32658	32749	32836	32755	32731	32660	
352	0	32745	32727	32679	32733	32844	32839	32735	32657	
353	0	32748	32721	32701	32719	32775	32855	32675	32707	
354	0	32773	32795	32689	32671	32738	32639	32823	32691	
355	0	32695	32803	32655	32669	32694	32767	32630	32519	
356	0	32763	32855	32733	32715	32767	32739	32755	32507	
357	0	32743	32786	32771	32703	32811	32729	32683	32534	
358	0	32738	32771	32627	32678	32679	32658	32862	32879	
359	0	32785	32717	32627	32667	32805	32687	32715	32705	
360	0	32708	32762	32643	32599	32727	32738	32731	32711	
361	0	32773	32791	32765	32663	32850	32815	32785	32789	
362	0	32715	32775	32723	32615	32827	32803	32829	32532	
363	0	32726	32767	32693	32541	32823	32765	32807	32655	
364	0	32764	32820	32699	32807	32775	32773	32751	32786	
365	0	32731	32715	32669	32716	32771	32834	32707	32773	
366	0	32778	32727	32661	32566	32761	32839	32655	32847	
367	0	32802	32791	32709	32679	32782	32835	32579	32775	
368	0	32749	32823	32764	32591	32819	32626	32757	32743	
369	0	32742	32852	32607	32539	32819	32679	32791	32693	
370	0	32760	32807	32759	32433	32675	32727	32747	32713	
371	0	32715	32803	32724	32775	32631	32807	32755	32629	
372	0	32775	32789	32743	32823	32659	32707	32847	32647	
373	0	32764	32799	32707	32614	32621	32727	32705	32791	
374	0	32711	32787	32799	32603	32611	32743	32606	32643	
375	0	32703	32829	32819	32647	32703	32793	32591	32629	
376	0	32763	32819	32643	32687	32671	32826	32767	32497	
377	0	32742	32823	32731	32811	32675	32711	32751	32715	
378	0	32775	32845	32711	32599	32751	32843	32861	32807	
379	0	32788	32775	32677	32736	32767	32799	32927	32631	
380	0	32712	32695	32708	32846	32755	32759	32708	32743	
381	0	32780	32775	32767	32583	32671	32763	32527	32602	
382	0	32799	32775	32647	32687	32683	32747	32806	32703	
383	0	32764	32767	32643	32695	32647	32763	32751	32811	
384	0	32846	32695	32703	32695	32647	32827	32813	32615	
385	0	32850	32747	32637	32692	32617	32757	32711	32629	
386	0	32822	32775	32707	32719	32705	32691	32621	32767	
387	0	32795	32737	32742	32600	32711	32767	32726	32591	
388	0	32815	32767	32783	32669	32834	32775	32813	32739	
389	0	32762	32747	32646	32519	32837	32823	32863	32663	
390	0	32784	32771	32727	32705	32844	32717	32865	32647	
391	0	32761	32739	32759	32661	32699	32813	32815	32577	
392	0	32706	32773	32615	32551	32762	32695	32653	32607	
393	0	32727	32835	32747	32605	32911	32807	32807	32701	
394	0	32746	32747	32765	32609	32659	32766	32783	32789	
395	0	32729	32831	32647	32655	32755	32703	32763	32751	
396	0	32740	32871	32722	32623	32731	32751	32645	32669	
397	0	32775	32787	32759	32669	32767	32799	32851	32757	
398	0	32791	32783	32799	32725	32845	32809	32623	32694	
399	0	32751	32655	32626	32711	32694	32679	32871	32679	
400	0	32779	32789	32631	32703	32767	32802	32739	32711	
401	0	32757	32753	32684	32711	32683	32791	32751	32679	
402	0	32687	32754	32756	32658	32807	32647	32689	32757	
403	0	32755	32807	32693	32663	32756	32797	32743	32659	
404	0	32788	32769	32660	32629	32647	32698	32802	32703	
405	0	32811	32759	32800	32635	32782	32850	32636	32705	
406	0	32797	32727	32756	32535	32655	32755	32743	32647	
407	0	32795	32775	32669	32518	32743	32714	32597	32671	
408	0	32754	32797	32703	32571	32710	32797	32767	32647	
409	0	32739	32775	32737	32845	32703	32871	32620	32658	
410	0	32775	32773	32708	32807	32797	32771	32795	32708	
411	0	32788	32851	32647	32725	32738	32735	32604	32611	
412	0	32807	32799	32759	32703	32847	32783	32850	32699	
413	0	32759	32787	32749	32639	32627	32728	32679	32711	
414	0	32730	32771	32767	32692	32679	32643	32885	32666	
415	0	32788	32815	32623	32709	32665	32714	32751	32755	
416	0	32709	32791	32595	32739	32807	32791	32625	32711	
417	0	32757	32767	32775	32661	32815	32839	32775	32599	
418	0	32672	32791	32767	32647	32676	32679	32631	32647	
419	0	32751	32711	32663	32583	32807	32775	32855	32647	
420	0	32768	32759	32647	32517	32919	32765	32582	32703	
421	0	32698	32674	32719	32821	32836	32685	32829	32715	
422	0	32679	32749	32667	32767	32847	32695	32719	32679	
423	0	32731	32812	32631	32735	32807	32739	32737	32702	
424	0	32700	32815	32737	32559	32841	32727	32771	32567	
425	0	32757	32769	32662	32577	32607	32765	32721	32578	
426	0	32810	32791	32623	32517	32783	32841	32642	32634	
427	0	32755	32789	32687	32599	32767	32775	32695	32631	
428	0	32765	32826	32759	32691	32837	32791	32786	32815	
429	0	32811	32775	32791	32769	32671	32791	32807	32603	
430	0	32718	32740	32707	32708	32764	32831	32627	32567	
431	0	32751	32726	32703	32678	32735	32784	32797	32597	
432	0	32723	32741	32708	32683	32763	32755	32612	32511	
433	0	32757	32699	32771	32695	32733	32747	32847	32665	
434	0	32820	32827	32663	32647	32831	32791	32715	32647	
435	0	32740	32789	32655	32685	32751	32723	32810	32570	
436	0	32812	32754	32767	32711	32801	32797	32820	32631	
437	0	32743	32775	32739	32706	32765	32763	32677	32591	
438	0	32812	32727	32635	32702	32751	32787	32797	32562	
439	0	32801	32775	32668	32581	32836	32655	32655	32567	
440	0	32758	32799	32799	32535	32782	32790	32804	32556	
441	0	32753	32775	32703	32547	32750	32823	32622	32523	
442	0	32742	32771	32661	32541	32781	32805	32775	32599	
443	0	32770	32751	32701	32613	32719	32725	32599	32551	
444	0	32800	32739	32756	32677	32639	32738	32847	32514	
445	0	32801	32775	32735	32627	32799	32787	32759	32519	
446	0	32809	32727	32647	32621	32829	32775	32831	32547	
447	0	32854	32847	32709	32689	32647	32819	32583	32593	
448	0	32762	32900	32699	32743	32745	32821	32799	32663	
449	0	32769	32727	32703	32695	32630	32742	32775	32583	
450	0	32804	32847	32615	32764	32783	32802	32615	32607	
451	0	32759	32739	32642	32623	32703	32847	32795	32669	
452	0	32775	32807	32831	32567	32743	32635	32636	32627	
453	0	32811	32751	32811	32647	32647	32699	32836	32841	
454	0	32775	32833	32774	32743	32789	32731	32807	32725	
455	0	32791	32743	32665	32763	32823	32727	32655	32762	
456	0	32796	32709	32735	32679	32635	32743	32756	32647	
457	0	32764	32817	32739	32668	32813	32841	32647	32559	
458	0	32742	32675	32669	32713	32813	32866	32775	32578	
459	0	32748	32763	32743	32661	32729	32871	32699	32524	
460	0	32791	32850	32714	32719	32802	32807	32775	32593	
461	0	32732	32708	32775	32715	32839	32751	32615	32571	
462	0	32745	32826	32645	32669	32825	32807	32829	32607	
463	0	32725	32839	32607	32553	32863	32869	32742	32711	
464	0	32749	32807	32709	32481	32679	32647	32807	32578	
465	0	32684	32739	32767	32489	32815	32743	32787	32625	
466	0	32732	32775	32724	32591	32827	32798	32703	32615	
467	0	32740	32775	32647	32767	32764	32729	32791	32647	
468	0	32716	32831	32695	32725	32703	32735	32637	32769	
469	0	32711	32799	32628	32751	32647	32789	32846	32773	
470	0	32790	32827	32767	32799	32835	32723	32759	32663	
471	0	32743	32858	32743	32783	32749	32703	32819	32747	
472	0	32738	32775	32623	32775	32727	32727	32615	32613	
473	0	32807	32743	32717	32743	32813	32775	32771	32529	
474	0	32802	32837	32758	32740	32871	32775	32646	32551	
475	0	32807	32796	32655	32559	32831	32700	32898	32607	
476	0	32775	32773	32647	32549	32895	32803	32807	32775	
477	0	32759	32681	32706	32687	32810	32817	32628	32721	
478	0	32799	32805	32772	32647	32773	32735	32827	32661	
479	0	32821	32772	32757	32681	32661	32726	32614	32663	
480	0	32821	32775	32695	32607	32775	32751	32845	32673	
481	0	32802	32805	32661	32617	32749	32761	32722	32671	
482	0	32752	32725	32711	32719	32799	32787	32855	32679	
483	0	32722	32810	32763	32727	32757	32749	32750	32727	
484	0	32669	32669	32797	32533	32655	32671	32774	32773	
485	0	32726	32767	32723	32551	32803	32647	32751	32711	
486	0	32677	32775	32719	32627	32750	32762	32775	32595	
487	0	32724	32683	32674	32551	32677	32801	32799	32711	
488	0	32665	32791	32643	32559	32735	32804	32679	32717	
489	0	32704	32725	32561	32765	32674	32879	32877	32609	
490	0	32717	32867	32580	32811	32820	32807	32775	32687	
491	0	32718	32766	32707	32745	32775	32811	32839	32775	
492	0	32713	32707	32743	32647	32812	32751	32775	32763	
493	0	32703	32773	32735	32615	32721	32671	32814	32703	
494	0	32695	32723	32748	32698	32595	32772	32747	32679	
495	0	32717	32795	32719	32699	32781	32726	32763	32726	
496	0	32771	32791	32767	32599	32819	32764	32719	32627	
497	0	32783	32783	32643	32663	32699	32823	32811	32756	
498	0	32804	32863	32725	32694	32783	32699	32738	32717	
499	0	32816	32837	32743	32749	32879	32743	32827	32687	
500	0	32770	32831	32716	32725	32860	32799	32764	32613	
501	0	32822	32821	32815	32731	32795	32754	32831	32724	
502	0	32786	32755	32767	32743	32733	32837	32803	32703	
503	0	32775	32830	32733	32749	32814	32787	32845	32740	
504	0	32812	32783	32663	32692	32836	32674	32759	32647	
505	0	32832	32709	32715	32719	32761	32675	32839	32639	
506	0	32767	32791	32723	32687	32812	32743	32659	32684	
507	0	32787	32887	32613	32620	32785	32765	32763	32759	
508	0	32756	32847	32692	32628	32791	32806	32703	32703	
509	0	32756	32765	32755	32647	32646	32783	32807	32721	
510	0	32782	32759	32589	32713	32807	32823	32831	32782	
511	0	32728	32679	32677	32723	32803	32844	32737	32791	
512	0	32775	32709	32691	32743	32657	32765	32759	32775	
513	0	32771	32811	32717	32698	32693	32753	32767	32807	
514	0	32729	32795	32630	32659	32747	32749	32679	32755	
515	0	32785	32812	32703	32609	32769	32783	32788	32805	
516	0	32851	32743	32724	32647	32827	32647	32645	32723	
517	0	32793	32855	32731	32574	32804	32775	32793	32647	
518	0	32802	32727	32662	32607	32858	32722	32615	32743	
519	0	32775	32855	32711	32785	32721	32644	32883	32666	
520	0	32743	32847	32715	32738	32745	32711	32775	32571	
521	0	32755	32819	32733	32739	32675	32811	32743	32642	
522	0	32796	32739	32739	32647	32772	32711	32829	32705	
523	0	32809	32813	32695	32733	32741	32789	32877	32647	
524	0	32790	32745	32663	32701	32859	32827	32869	32645	
525	0	32803	32826	32730	32565	32830	32774	32670	32711	
526	0	32791	32759	32785	32534	32811	32715	32767	32714	
527	0	32767	32876	32668	32627	32775	32815	32593	32741	
528	0	32775	32782	32637	32839	32617	32839	32823	32748	
529	0	32762	32917	32579	32682	32671	32645	32594	32662	
530	0	32729	32823	32627	32711	32695	32813	32925	32707	
531	0	32719	32847	32767	32670	32806	32757	32843	32725	
532	0	32775	32827	32749	32717	32787	32811	32754	32671	
533	0	32796	32900	32742	32684	32805	32723	32742	32571	
534	0	32726	32765	32677	32551	32775	32740	32551	32545	
535	0	32742	32838	32660	32589	32775	32795	32810	32767	
536	0	32772	32787	32766	32707	32853	32727	32739	32796	
537	0	32705	32827	32773	32703	32861	32769	32885	32771	
538	0	32789	32783	32703	32671	32855	32809	32801	32735	
539	0	32775	32735	32815	32687	32786	32836	32775	32759	
540	0	32797	32751	32642	32583	32786	32679	32791	32700	
541	0	32756	32767	32621	32517	32610	32845	32583	32709	
542	0	32801	32710	32767	32631	32709	32839	32851	32751	
543	0	32765	32775	32727	32765	32658	32807	32727	32675	
544	0	32802	32775	32717	32705	32771	32723	32695	32691	
545	0	32828	32815	32763	32719	32691	32775	32818	32703	
546	0	32772	32731	32647	32709	32871	32751	32607	32743	
547	0	32778	32839	32756	32743	32843	32791	32823	32718	
548	0	32724	32775	32699	32719	32677	32695	32589	32715	
549	0	32765	32835	32809	32647	32825	32719	32730	32715	
550	0	32745	32749	32662	32621	32783	32767	32575	32647	
551	0	32762	32767	32770	32475	32743	32821	32811	32703	
552	0	32703	32763	32751	32463	32767	32764	32599	32615	
553	0	32677	32754	32687	32590	32661	32694	32750	32635	
554	0	32740	32775	32598	32584	32807	32791	32588	32647	
555	0	32721	32761	32755	32630	32751	32775	32756	32695	
556	0	32756	32734	32695	32610	32646	32759	32642	32709	
557	0	32760	32764	32749	32669	32735	32796	32859	32643	
558	0	32761	32755	32627	32647	32615	32767	32757	32627	
559	0	32724	32731	32613	32583	32727	32827	32683	32751	
560	0	32784	32797	32699	32444	32687	32742	32847	32727	
561	0	32794	32841	32721	32537	32767	32671	32675	32711	
562	0	32839	32847	32799	32743	32819	32691	32845	32675	
563	0	32782	32783	32663	32739	32781	32775	32581	32654	
564	0	32732	32711	32711	32674	32711	32817	32775	32693	
565	0	32743	32775	32735	32621	32667	32723	32575	32687	
566	0	32729	32699	32793	32647	32812	32775	32869	32693	
567	0	32713	32703	32675	32716	32813	32775	32636	32671	
568	0	32710	32773	32669	32717	32829	32799	32839	32699	
569	0	32775	32839	32772	32669	32773	32711	32764	32713	
570	0	32775	32817	32735	32631	32658	32743	32790	32660	
571	0	32809	32705	32679	32564	32757	32764	32711	32671	
572	0	32818	32711	32663	32639	32695	32817	32711	32647	
573	0	32774	32683	32679	32667	32847	32709	32727	32615	
574	0	32736	32807	32734	32625	32863	32685	32715	32647	
575	0	32764	32772	32679	32685	32869	32727	32759	32705	
576	0	32797	32701	32686	32647	32825	32803	32799	32677	
577	0	32747	32692	32739	32643	32681	32775	32797	32639	
578	0	32767	32805	32781	32553	32734	32748	32748	32541	
579	0	32706	32759	32772	32711	32646	32831	32727	32639	
580	0	32743	32759	32675	32551	32619	32834	32772	32677	
581	0	32772	32775	32647	32601	32701	32647	32903	32711	
582	0	32734	32815	32727	32679	32711	32895	32903	32643	
583	0	32647	32749	32786	32554	32733	32739	32962	32647	
584	0	32671	32819	32661	32615	32747	32775	32643	32607	
585	0	32723	32899	32726	32799	32660	32709	32577	32675	
586	0	32719	32855	32761	32703	32623	32749	32727	32694	
587	0	32826	32775	32647	32786	32642	32810	32754	32583	
588	0	32791	32769	32775	32742	32634	32789	32842	32694	
589	0	32799	32759	32705	32599	32749	32772	32700	32815	
590	0	32780	32759	32591	32621	32753	32799	32595	32540	
591	0	32800	32730	32668	32767	32775	32719	32751	32756	
592	0	32806	32805	32627	32666	32771	32738	32747	32799	
593	0	32765	32775	32738	32564	32791	32873	32844	32645	
594	0	32737	32749	32743	32719	32841	32775	32746	32743	
595	0	32705	32711	32671	32639	32791	32717	32669	32677	
596	0	32773	32771	32679	32547	32805	32822	32749	32687	
597	0	32748	32805	32738	32639	32771	32807	32717	32814	
598	0	32725	32757	32685	32611	32647	32702	32645	32663	
599	0	32761	32762	32604	32583	32807	32759	32531	32692	
600	0	32801	32718	32738	32559	32829	32793	32775	32677	
601	0	32736	32709	32733	32610	32807	32787	32767	32660	
602	0	32774	32723	32751	32762	32703	32735	32799	32722	
603	0	32762	32735	32662	32637	32663	32639	32747	32583	
604	0	32778	32756	32759	32490	32607	32786	32871	32659	
605	0	32775	32775	32687	32723	32677	32793	32863	32731	
606	0	32735	32811	32655	32701	32636	32735	32706	32662	
607	0	32775	32871	32787	32569	32631	32749	32670	32742	
608	0	32808	32775	32771	32631	32647	32835	32767	32671	
609	0	32761	32871	32815	32692	32819	32754	32749	32627	
610	0	32665	32819	32802	32719	32655	32751	32775	32685	
611	0	32687	32772	32663	32537	32658	32647	32855	32549	
612	0	32709	32837	32706	32687	32647	32775	32829	32721	
613	0	32736	32775	32693	32735	32660	32711	32743	32789	
614	0	32722	32775	32727	32763	32719	32705	32668	32685	
615	0	32757	32743	32668	32719	32623	32719	32591	32647	
616	0	32751	32805	32735	32647	32703	32831	32599	32527	
617	0	32743	32843	32711	32695	32729	32739	32695	32690	
618	0	32734	32830	32630	32617	32703	32764	32783	32789	
619	0	32775	32887	32751	32719	32747	32727	32839	32637	
620	0	32784	32885	32734	32611	32671	32793	32863	32642	
621	0	32748	32791	32663	32749	32811	32791	32825	32743	
622	0	32846	32743	32735	32615	32811	32828	32735	32661	
623	0	32826	32745	32695	32775	32845	32711	32601	32710	
624	0	32779	32735	32731	32759	32839	32797	32579	32590	
625	0	32775	32733	32663	32548	32735	32775	32573	32723	
626	0	32783	32717	32739	32614	32692	32738	32743	32743	
627	0	32788	32758	32698	32655	32804	32711	32750	32663	
628	0	32772	32775	32575	32703	32842	32767	32759	32695	
629	0	32724	32767	32644	32711	32807	32687	32743	32679	
630	0	32764	32727	32678	32487	32869	32703	32863	32613	
631	0	32743	32761	32745	32671	32694	32775	32807	32618	
632	0	32721	32643	32635	32690	32629	32751	32823	32709	
633	0	32746	32775	32647	32729	32759	32677	32863	32811	
634	0	32660	32783	32775	32771	32815	32843	32823	32775	
635	0	32738	32847	32708	32751	32703	32749	32829	32853	
636	0	32711	32887	32727	32735	32727	32743	32843	32690	
637	0	32748	32801	32639	32540	32775	32714	32732	32743	
638	0	32766	32775	32743	32699	32813	32711	32675	32455	
639	0	32770	32789	32647	32599	32834	32731	32647	32701	
640	0	32769	32775	32727	32671	32871	32815	32655	32524	
641	0	32763	32805	32612	32675	32659	32893	32702	32690	
642	0	32838	32759	32734	32529	32637	32798	32813	32773	
643	0	32874	32773	32766	32639	32671	32893	32771	32671	
644	0	32786	32816	32717	32527	32799	32819	32795	32711	
645	0	32810	32795	32633	32747	32843	32623	32853	32583	
646	0	32768	32741	32655	32647	32757	32737	32867	32757	
647	0	32747	32719	32735	32751	32801	32775	32837	32748	
648	0	32724	32757	32743	32754	32811	32831	32805	32715	
649	0	32756	32767	32679	32663	32806	32775	32673	32647	
650	0	32755	32775	32717	32647	32773	32676	32637	32679	
651	0	32788	32764	32737	32562	32639	32767	32615	32647	
652	0	32783	32711	32755	32631	32676	32679	32739	32677	
653	0	32770	32767	32641	32583	32663	32743	32753	32621	
654	0	32775	32717	32743	32641	32681	32703	32790	32755	
655	0	32754	32709	32684	32679	32630	32759	32819	32717	
656	0	32759	32795	32747	32575	32647	32711	32799	32633	
657	0	32807	32825	32839	32748	32719	32797	32659	32660	
658	0	32769	32863	32951	32666	32738	32804	32581	32539	
659	0	32743	32751	32951	32613	32775	32857	32723	32681	
660	0	32726	32789	32843	32790	32805	32843	32765	32815	
661	0	32725	32797	32871	32802	32822	32901	32796	32711	
662	0	32725	32711	32773	32583	32699	32655	32767	32710	
663	0	32762	32911	32660	32673	32731	32739	32821	32701	
664	0	32717	32827	32805	32617	32749	32775	32813	32721	
665	0	32715	32826	32791	32743	32773	32701	32786	32647	
666	0	32719	32807	32759	32677	32775	32821	32686	32647	
667	0	32752	32721	32594	32724	32826	32743	32581	32621	
668	0	32750	32764	32679	32555	32851	32775	32761	32711	
669	0	32745	32767	32749	32455	32839	32775	32775	32708	
670	0	32729	32706	32663	32615	32843	32767	32789	32551	
671	0	32760	32722	32647	32549	32694	32845	32839	32620	
672	0	32755	32775	32643	32639	32637	32739	32711	32586	
673	0	32676	32823	32631	32739	32637	32692	32631	32679	
674	0	32766	32807	32642	32617	32675	32599	32643	32676	
675	0	32785	32761	32735	32723	32748	32773	32796	32591	
676	0	32787	32803	32685	32679	32691	32764	32772	32679	
677	0	32751	32754	32603	32701	32807	32783	32783	32615	
678	0	32815	32733	32619	32757	32809	32757	32838	32663	
679	0	32827	32807	32643	32628	32711	32828	32839	32679	
680	0	32849	32787	32754	32683	32807	32727	32853	32703	
681	0	32757	32743	32686	32575	32839	32835	32710	32735	
682	0	32773	32757	32633	32631	32775	32769	32671	32735	
683	0	32801	32807	32749	32659	32671	32783	32615	32683	
684	0	32814	32742	32694	32765	32719	32771	32767	32559	
685	0	32761	32834	32659	32687	32839	32707	32825	32693	
686	0	32715	32845	32631	32639	32895	32783	32852	32562	
687	0	32751	32815	32713	32631	32847	32793	32873	32615	
688	0	32786	32838	32719	32483	32713	32757	32798	32671	
689	0	32756	32759	32604	32710	32743	32807	32598	32553	
690	0	32775	32813	32727	32783	32603	32797	32775	32657	
691	0	32804	32823	32705	32710	32822	32757	32647	32541	
692	0	32795	32733	32797	32543	32797	32775	32775	32525	
693	0	32676	32751	32643	32490	32791	32845	32727	32565	
694	0	32669	32751	32589	32597	32811	32745	32629	32583	
695	0	32694	32755	32739	32501	32626	32775	32741	32615	
696	0	32731	32747	32695	32621	32807	32727	32710	32647	
697	0	32822	32783	32621	32622	32847	32811	32755	32583	
698	0	32775	32759	32581	32663	32727	32647	32684	32734	
699	0	32743	32814	32771	32665	32807	32845	32794	32709	
700	0	32773	32703	32759	32546	32735	32751	32615	32687	
701	0	32809	32743	32767	32758	32791	32807	32835	32666	
702	0	32851	32681	32637	32767	32799	32686	32816	32751	
703	0	32822	32722	32775	32730	32763	32733	32788	32626	
704	0	32852	32747	32789	32572	32767	32834	32775	32647	
705	0	32817	32755	32679	32717	32798	32748	32849	32699	
706	0	32826	32757	32738	32711	32852	32773	32629	32661	
707	0	32796	32749	32679	32485	32767	32801	32785	32699	
708	0	32812	32647	32599	32655	32802	32795	32795	32743	
709	0	32852	32775	32694	32654	32663	32789	32862	32756	
710	0	32798	32869	32695	32623	32743	32727	32795	32647	
711	0	32763	32827	32671	32719	32743	32775	32671	32516	
712	0	32702	32863	32758	32807	32820	32843	32583	32669	
713	0	32676	32865	32763	32615	32917	32722	32725	32857	
714	0	32677	32767	32733	32710	32860	32727	32781	32734	
715	0	32583	32823	32694	32599	32806	32743	32717	32791	
716	0	32742	32871	32759	32749	32706	32775	32725	32719	
717	0	32744	32755	32817	32719	32723	32679	32713	32742	
718	0	32784	32773	32695	32535	32765	32767	32834	32578	
719	0	32789	32735	32663	32599	32811	32767	32901	32623	
720	0	32786	32787	32719	32647	32743	32813	32703	32795	
721	0	32713	32775	32643	32755	32754	32847	32775	32715	
722	0	32787	32807	32571	32735	32799	32739	32646	32705	
723	0	32751	32815	32758	32713	32721	32711	32797	32797	
724	0	32781	32875	32742	32691	32615	32747	32790	32715	
725	0	32815	32750	32789	32726	32812	32771	32855	32703	
726	0	32784	32751	32703	32570	32838	32732	32773	32695	
727	0	32784	32766	32647	32470	32868	32773	32631	32603	
728	0	32805	32830	32743	32550	32797	32767	32791	32647	
729	0	32839	32787	32748	32635	32684	32711	32567	32677	
730	0	32868	32767	32759	32694	32807	32726	32807	32709	
731	0	32732	32759	32647	32713	32795	32775	32646	32673	
732	0	32745	32775	32705	32735	32703	32692	32845	32679	
733	0	32704	32731	32703	32807	32843	32723	32607	32694	
734	0	32742	32805	32719	32709	32819	32753	32795	32735	
735	0	32765	32723	32647	32719	32727	32773	32789	32623	
736	0	32754	32823	32711	32755	32787	32815	32823	32876	
737	0	32734	32827	32631	32758	32844	32898	32715	32607	
738	0	32771	32765	32675	32663	32789	32775	32638	32626	
739	0	32708	32802	32708	32732	32644	32622	32795	32514	
740	0	32811	32787	32739	32647	32685	32747	32815	32708	
741	0	32709	32815	32631	32765	32607	32859	32719	32775	
742	0	32781	32823	32759	32699	32695	32775	32775	32711	
743	0	32830	32743	32749	32647	32847	32711	32871	32775	
744	0	32788	32807	32685	32690	32827	32869	32775	32711	
745	0	32807	32771	32642	32508	32807	32819	32663	32736	
746	0	32770	32767	32739	32789	32681	32738	32655	32559	
747	0	32802	32757	32735	32670	32747	32655	32743	32679	
748	0	32775	32694	32663	32431	32757	32731	32735	32716	
749	0	32759	32767	32773	32687	32719	32775	32819	32813	
750	0	32774	32807	32669	32775	32855	32701	32837	32773	
751	0	32737	32775	32631	32655	32821	32801	32749	32675	
752	0	32770	32787	32739	32740	32807	32842	32619	32695	
753	0	32731	32761	32751	32615	32773	32775	32609	32635	
754	0	32726	32727	32771	32807	32689	32691	32751	32674	
755	0	32807	32751	32635	32797	32668	32859	32759	32573	
756	0	32743	32795	32743	32537	32695	32767	32797	32675	
757	0	32741	32819	32758	32599	32775	32807	32811	32607	
758	0	32775	32795	32687	32567	32853	32711	32835	32719	
759	0	32780	32796	32712	32529	32855	32795	32786	32791	
760	0	32705	32743	32735	32663	32827	32718	32627	32659	
761	0	32762	32679	32729	32535	32783	32807	32646	32645	
762	0	32796	32726	32679	32659	32743	32730	32666	32703	
763	0	32736	32809	32655	32743	32787	32775	32735	32685	
764	0	32763	32773	32743	32700	32687	32822	32711	32557	
765	0	32730	32804	32679	32661	32820	32745	32871	32663	
766	0	32751	32756	32591	32726	32839	32850	32702	32765	
767	0	32736	32745	32701	32557	32759	32862	32621	32742	
768	0	32756	32751	32699	32647	32814	32823	32726	32711	
769	0	32701	32749	32631	32591	32764	32733	32758	32541	
770	0	32734	32822	32639	32797	32636	32705	32869	32662	
771	0	32740	32829	32705	32643	32756	32742	32743	32719	
772	0	32751	32757	32595	32711	32642	32711	32747	32519	
773	0	32775	32805	32738	32711	32623	32775	32647	32687	
774	0	32729	32815	32757	32713	32647	32738	32647	32795	
775	0	32710	32819	32773	32583	32803	32815	32745	32759	
776	0	32743	32749	32731	32699	32812	32765	32748	32754	
777	0	32738	32751	32941	32729	32775	32711	32775	32511	
778	0	32732	32671	32759	32532	32703	32719	32759	32613	
779	0	32743	32773	32718	32703	32769	32845	32843	32637	
780	0	32797	32799	32727	32767	32827	32836	32725	32791	
781	0	32800	32839	32703	32551	32815	32739	32583	32743	
782	0	32790	32867	32719	32631	32802	32865	32620	32597	
783	0	32819	32850	32615	32790	32791	32791	32748	32679	
784	0	32814	32733	32725	32692	32809	32767	32807	32523	
785	0	32738	32743	32692	32631	32835	32695	32806	32733	
786	0	32816	32765	32647	32553	32843	32823	32827	32695	
787	0	32775	32715	32699	32530	32811	32743	32626	32555	
788	0	32724	32719	32732	32646	32659	32693	32637	32691	
789	0	32791	32799	32676	32445	32647	32569	32686	32797	
790	0	32775	32804	32621	32731	32685	32706	32769	32711	
791	0	32802	32805	32634	32743	32647	32787	32775	32695	
792	0	32812	32799	32759	32566	32667	32863	32815	32583	
793	0	32775	32787	32667	32743	32819	32839	32871	32666	
794	0	32687	32739	32647	32731	32663	32751	32758	32611	
795	0	32708	32806	32711	32591	32655	32841	32647	32687	
796	0	32736	32787	32747	32757	32706	32818	32635	32751	
797	0	32751	32743	32687	32663	32660	32759	32847	32501	
798	0	32815	32759	32727	32581	32647	32667	32803	32635	
799	0	32772	32719	32657	32543	32679	32671	32839	32703	
800	0	32821	32726	32811	32686	32775	32829	32673	32559	
801	0	32735	32735	32769	32639	32762	32783	32691	32727	
802	0	32782	32805	32749	32457	32707	32854	32787	32769	
803	0	32825	32839	32727	32771	32617	32692	32773	32615	
804	0	32788	32815	32727	32749	32721	32727	32807	32762	
805	0	32769	32773	32675	32607	32757	32829	32749	32647	
806	0	32751	32756	32609	32647	32797	32797	32669	32733	
807	0	32816	32707	32704	32655	32799	32731	32797	32695	
808	0	32736	32743	32765	32477	32746	32711	32799	32675	
809	0	32748	32735	32675	32663	32831	32740	32875	32698	
810	0	32774	32745	32685	32754	32719	32767	32911	32539	
811	0	32823	32711	32755	32635	32711	32787	32655	32699	
812	0	32802	32732	32691	32715	32820	32687	32596	32751	
813	0	32773	32715	32735	32685	32791	32655	32723	32631	
814	0	32711	32732	32811	32533	32675	32815	32767	32698	
815	0	32701	32811	32629	32699	32655	32851	32837	32751	
816	0	32737	32822	32796	32748	32591	32818	32831	32559	
817	0	32700	32847	32698	32597	32601	32702	32709	32687	
818	0	32767	32775	32647	32719	32745	32837	32597	32622	
819	0	32724	32935	32759	32673	32631	32813	32745	32588	
820	0	32749	32799	32775	32583	32623	32819	32758	32717	
821	0	32780	32839	32636	32811	32679	32815	32835	32671	
822	0	32761	32833	32757	32703	32711	32702	32619	32759	
823	0	32715	32794	32716	32707	32823	32695	32783	32619	
824	0	32773	32813	32731	32559	32804	32793	32830	32706	
825	0	32794	32775	32788	32747	32731	32767	32855	32691	
826	0	32786	32769	32596	32679	32807	32743	32678	32749	
827	0	32825	32703	32678	32511	32795	32755	32607	32495	
828	0	32732	32759	32740	32685	32807	32689	32713	32663	
829	0	32759	32718	32647	32675	32826	32798	32771	32789	
830	0	32756	32769	32725	32631	32807	32775	32849	32591	
831	0	32697	32783	32726	32783	32797	32844	32699	32710	
832	0	32716	32711	32687	32663	32807	32775	32643	32687	
833	0	32750	32743	32743	32647	32801	32775	32735	32582	
834	0	32766	32820	32663	32721	32839	32829	32791	32675	
835	0	32760	32800	32703	32659	32771	32787	32817	32756	
836	0	32757	32815	32694	32627	32789	32767	32877	32534	
837	0	32789	32807	32757	32578	32690	32695	32711	32690	
838	0	32775	32775	32698	32615	32787	32641	32555	32629	
839	0	32756	32751	32594	32610	32639	32785	32598	32771	
840	0	32757	32775	32759	32668	32647	32743	32685	32731	
841	0	32790	32823	32763	32734	32671	32727	32747	32623	
842	0	32826	32773	32671	32826	32685	32629	32790	32679	
843	0	32781	32678	32711	32597	32673	32759	32844	32548	
844	0	32782	32815	32677	32658	32635	32815	32694	32671	
845	0	32738	32775	32711	32668	32630	32803	32639	32789	
846	0	32743	32711	32743	32802	32757	32775	32811	32742	
847	0	32756	32791	32711	32797	32804	32799	32675	32700	
848	0	32800	32815	32740	32742	32708	32749	32869	32703	
849	0	32841	32741	32823	32685	32836	32743	32751	32593	
850	0	32818	32710	32774	32635	32671	32757	32681	32647	
851	0	32716	32759	32679	32695	32847	32836	32725	32700	
852	0	32742	32805	32727	32605	32743	32735	32582	32725	
853	0	32721	32780	32661	32455	32799	32787	32839	32628	
854	0	32685	32722	32623	32566	32855	32845	32771	32567	
855	0	32644	32759	32698	32655	32819	32741	32671	32534	
856	0	32718	32743	32739	32623	32879	32798	32764	32820	
857	0	32773	32815	32807	32644	32727	32719	32684	32621	
858	0	32775	32775	32679	32694	32775	32795	32763	32573	
859	0	32790	32807	32629	32711	32663	32719	32703	32723	
860	0	32841	32802	32647	32747	32745	32723	32803	32674	
861	0	32759	32786	32711	32707	32827	32797	32775	32599	
862	0	32782	32715	32751	32687	32791	32711	32717	32703	
863	0	32775	32807	32700	32551	32775	32822	32749	32711	
864	0	32784	32789	32667	32583	32758	32759	32711	32693	
865	0	32775	32783	32743	32607	32762	32818	32727	32785	
866	0	32810	32713	32739	32757	32823	32815	32835	32711	
867	0	32745	32759	32599	32763	32763	32831	32855	32735	
868	0	32751	32775	32655	32533	32796	32721	32855	32665	
869	0	32745	32807	32708	32711	32740	32807	32786	32717	
870	0	32756	32731	32711	32739	32783	32743	32706	32535	
871	0	32726	32791	32579	32745	32711	32674	32611	32647	
872	0	32726	32807	32703	32745	32791	32739	32723	32797	
873	0	32749	32807	32765	32759	32747	32817	32790	32596	
874	0	32720	32742	32663	32477	32741	32759	32871	32661	
875	0	32721	32701	32743	32735	32759	32839	32719	32623	
876	0	32715	32719	32675	32590	32785	32743	32613	32699	
877	0	32708	32731	32756	32679	32854	32669	32783	32735	
878	0	32669	32697	32813	32471	32751	32687	32775	32555	
879	0	32681	32751	32743	32671	32759	32775	32871	32655	
880	0	32681	32747	32773	32662	32743	32791	32655	32700	
881	0	32767	32747	32767	32719	32902	32764	32743	32485	
882	0	32821	32775	32767	32454	32790	32791	32871	32734	
883	0	32810	32783	32766	32679	32699	32828	32723	32745	
884	0	32836	32823	32707	32705	32687	32796	32599	32635	
885	0	32832	32771	32747	32695	32698	32711	32699	32685	
886	0	32842	32759	32719	32566	32639	32811	32719	32786	
887	0	32769	32789	32628	32717	32675	32765	32803	32613	
888	0	32748	32785	32679	32749	32663	32803	32775	32657	
889	0	32788	32751	32677	32583	32627	32690	32614	32543	
890	0	32818	32765	32628	32645	32647	32796	32571	32711	
891	0	32775	32757	32751	32723	32580	32735	32711	32759	
892	0	32747	32847	32759	32598	32597	32767	32727	32551	
893	0	32754	32843	32634	32759	32643	32645	32871	32629	
894	0	32743	32804	32813	32819	32658	32846	32703	32679	
895	0	32705	32836	32711	32596	32678	32802	32567	32604	
896	0	32749	32799	32594	32719	32671	32819	32695	32770	
897	0	32735	32763	32855	32675	32615	32799	32733	32703	
898	0	32769	32807	32767	32547	32647	32703	32757	32597	
899	0	32736	32749	32549	32663	32703	32733	32829	32667	
900	0	32743	32716	32695	32753	32801	32847	32639	32747	
901	0	32764	32823	32717	32530	32783	32831	32803	32671	
902	0	32740	32775	32613	32735	32858	32775	32754	32751	
903	0	32804	32819	32687	32621	32815	32759	32818	32726	
904	0	32844	32797	32631	32589	32795	32662	32703	32487	
905	0	32761	32703	32673	32674	32838	32767	32607	32658	
906	0	32758	32758	32669	32706	32831	32711	32836	32815	
907	0	32751	32782	32614	32557	32863	32711	32791	32733	
908	0	32751	32803	32669	32695	32797	32787	32789	32694	
909	0	32764	32743	32743	32663	32799	32758	32935	32559	
910	0	32799	32786	32788	32460	32615	32743	32885	32613	
911	0	32731	32775	32619	32647	32658	32705	32775	32545	
912	0	32730	32803	32709	32617	32692	32939	32706	32647	
913	0	32690	32807	32722	32808	32807	32855	32596	32819	
914	0	32756	32783	32809	32676	32786	32775	32597	32669	
915	0	32765	32753	32671	32683	32783	32839	32751	32636	
916	0	32748	32743	32796	32715	32639	32869	32719	32615	
917	0	32738	32739	32795	32627	32711	32741	32751	32686	
918	0	32679	32703	32693	32728	32679	32711	32762	32527	
919	0	32769	32677	32679	32691	32727	32789	32815	32662	
920	0	32716	32823	32804	32503	32732	32751	32740	32745	
921	0	32704	32815	32731	32633	32729	32767	32593	32589	
922	0	32729	32871	32707	32603	32660	32613	32773	32678	
923	0	32742	32815	32755	32683	32798	32727	32755	32615	
924	0	32813	32715	32743	32806	32815	32756	32751	32705	
925	0	32808	32723	32597	32583	32863	32655	32749	32736	
926	0	32827	32773	32666	32639	32847	32775	32764	32605	
927	0	32797	32796	32743	32578	32642	32812	32869	32612	
928	0	32765	32745	32691	32599	32711	32733	32846	32655	
929	0	32781	32676	32623	32681	32646	32851	32644	32691	
930	0	32756	32739	32703	32581	32675	32813	32578	32677	
931	0	32769	32789	32731	32695	32832	32855	32775	32763	
932	0	32759	32815	32581	32676	32847	32803	32806	32633	
933	0	32741	32709	32677	32471	32669	32735	32839	32690	
934	0	32755	32803	32711	32557	32647	32775	32847	32541	
935	0	32762	32807	32727	32453	32797	32759	32844	32647	
936	0	32763	32858	32775	32757	32871	32639	32918	32559	
937	0	32822	32827	32663	32819	32877	32817	32799	32669	
938	0	32806	32798	32727	32803	32791	32810	32725	32559	
939	0	32732	32727	32737	32647	32767	32796	32609	32643	
940	0	32704	32669	32663	32641	32715	32759	32775	32663	
941	0	32781	32775	32631	32839	32719	32822	32743	32699	
942	0	32804	32807	32711	32839	32719	32734	32723	32823	
943	0	32754	32791	32688	32839	32771	32623	32807	32795	
944	0	32798	32751	32685	32799	32827	32787	32854	32727	
945	0	32827	32703	32643	32697	32756	32786	32879	32727	
946	0	32820	32862	32729	32742	32839	32673	32879	32715	
947	0	32847	32788	32679	32573	32695	32774	32887	32663	
948	0	32791	32844	32687	32727	32685	32775	32794	32727	
949	0	32820	32775	32644	32659	32759	32699	32587	32633	
950	0	32831	32759	32767	32639	32659	32727	32745	32711	
951	0	32735	32751	32731	32679	32671	32759	32797	32564	
952	0	32767	32767	32599	32700	32748	32787	32789	32741	
953	0	32733	32711	32739	32575	32775	32695	32847	32740	
954	0	32772	32709	32647	32607	32836	32734	32581	32499	
955	0	32733	32791	32605	32678	32811	32733	32615	32637	
956	0	32757	32751	32749	32507	32674	32773	32615	32557	
957	0	32825	32797	32775	32631	32611	32759	32735	32759	
958	0	32757	32775	32662	32581	32594	32783	32737	32783	
959	0	32762	32787	32647	32500	32633	32775	32791	32775	
960	0	32748	32732	32767	32719	32579	32747	32833	32765	
961	0	32740	32731	32758	32703	32703	32739	32805	32723	
962	0	32801	32763	32743	32727	32818	32831	32727	32802	
963	0	32833	32789	32675	32737	32747	32869	32683	32772	
964	0	32812	32694	32613	32667	32751	32679	32671	32563	
965	0	32812	32743	32807	32670	32871	32784	32675	32621	
966	0	32826	32786	32810	32431	32763	32748	32823	32525	
967	0	32801	32775	32687	32679	32807	32704	32799	32663	
968	0	32749	32815	32726	32703	32773	32823	32775	32791	
969	0	32797	32791	32758	32786	32831	32847	32863	32659	
970	0	32786	32749	32773	32732	32895	32693	32882	32751	
971	0	32804	32743	32647	32495	32863	32743	32709	32690	
972	0	32724	32743	32759	32679	32745	32832	32615	32727	
973	0	32687	32883	32753	32786	32666	32773	32598	32719	
974	0	32711	32805	32741	32647	32647	32770	32721	32739	
975	0	32695	32785	32607	32692	32639	32855	32743	32588	
976	0	32699	32775	32714	32711	32709	32783	32775	32695	
977	0	32673	32751	32743	32622	32721	32815	32885	32573	
978	0	32663	32767	32611	32647	32825	32709	32715	32683	
979	0	32698	32741	32719	32525	32803	32769	32615	32583	
980	0	32731	32677	32740	32627	32826	32759	32574	32645	
981	0	32727	32749	32731	32590	32709	32683	32603	32535	
982	0	32717	32742	32708	32637	32751	32711	32739	32623	
983	0	32740	32717	32615	32703	32804	32775	32767	32557	
984	0	32781	32755	32647	32786	32663	32727	32775	32685	
985	0	32773	32791	32785	32719	32685	32772	32791	32677	
986	0	32733	32863	32667	32495	32681	32732	32871	32679	
987	0	32745	32804	32723	32571	32823	32783	32735	32647	
988	0	32814	32753	32647	32539	32751	32821	32895	32711	
989	0	32775	32838	32647	32492	32727	32742	32719	32695	
990	0	32797	32775	32747	32567	32801	32759	32785	32679	
991	0	32783	32807	32751	32717	32749	32788	32791	32639	
992	0	32780	32769	32663	32647	32662	32785	32700	32647	
993	0	32717	32847	32663	32659	32775	32743	32811	32751	
994	0	32781	32671	32679	32747	32847	32679	32613	32647	
995	0	32774	32801	32687	32732	32681	32647	32767	32626	
996	0	32809	32833	32573	32719	32745	32755	32570	32647	
997	0	32865	32787	32663	32722	32719	32759	32750	32647	
998	0	32827	32861	32709	32736	32598	32725	32658	32678	
999	0	32807	32773	32674	32742	32829	32775	32807	32721	
1000	0	32767	32773	32615	32685	32782	32727	32671	32740	
1001	0	32784	32823	32767	32593	32775	32743	32773	32771	
1002	0	32802	32785	32751	32637	32699	32831	32541	32765	
1003	0	32766	32801	32662	32551	32742	32879	32783	32863	
1004	0	32807	32751	32601	32643	32834	32799	32751	32775	
1005	0	32752	32815	32739	32749	32859	32769	32751	32735	
1006	0	32796	32791	32726	32751	32658	32791	32823	32732	
1007	0	32749	32769	32621	32737	32839	32797	32830	32695	
1008	0	32743	32723	32742	32725	32797	32815	32775	32775	
1009	0	32735	32677	32741	32604	32676	32757	32753	32719	
1010	0	32764	32713	32788	32675	32839	32727	32811	32829	
1011	0	32768	32789	32679	32715	32883	32751	32684	32647	
1012	0	32720	32735	32819	32647	32621	32759	32799	32566	
1013	0	32738	32775	32690	32647	32775	32807	32645	32535	
1014	0	32725	32743	32659	32634	32829	32843	32759	32535	
1015	0	32711	32749	32701	32647	32701	32668	32551	32591	
1016	0	32688	32815	32790	32615	32775	32683	32748	32558	
1017	0	32783	32753	32815	32743	32847	32695	32647	32647	
1018	0	32743	32775	32639	32615	32795	32763	32720	32555	
1019	0	32769	32766	32703	32579	32671	32845	32583	32513	
1020	0	32775	32723	32725	32562	32733	32701	32763	32639	
1021	0	32786	32775	32595	32645	32799	32707	32583	32675	
1022	0	32770	32751	32669	32647	32642	32749	32818	32519	
1023	0	32750	32831	32784	32661	32679	32775	32595	32527	
1024	0	32757	32742	32731	32690	32823	32806	32788	32687	
1025	0	32781	32811	32671	32687	32743	32723	32663	32607	
1026	0	32748	32863	32701	32635	32722	32685	32819	32707	
1027	0	32807	32700	32681	32711	32815	32769	32642	32685	
1028	0	32807	32775	32599	32753	32701	32801	32815	32655	
1029	0	32787	32806	32723	32722	32763	32859	32614	32667	
1030	0	32790	32787	32647	32758	32806	32767	32823	32721	
1031	0	32775	32827	32629	32761	32799	32699	32613	32662	
1032	0	32708	32855	32743	32803	32699	32671	32775	32740	
1033	0	32758	32854	32721	32655	32739	32758	32575	32871	
1034	0	32700	32811	32631	32711	32786	32923	32815	32830	
1035	0	32729	32885	32678	32799	32605	32983	32701	32727	
1036	0	32751	32815	32679	32775	32734	32851	32791	32787	
1037	0	32723	32847	32634	32715	32835	32794	32559	32717	
1038	0	32711	32807	32667	32717	32611	32807	32732	32756	
1039	0	32698	32674	32749	32698	32679	32821	32511	32743	
1040	0	32761	32717	32647	32659	32735	32807	32709	32703	
1041	0	32737	32751	32815	32699	32591	32799	32581	32808	
1042	0	32669	32845	32838	32731	32775	32826	32695	32829	
1043	0	32762	32759	32690	32775	32807	32747	32577	32755	
1044	0	32679	32775	32770	32669	32580	32751	32747	32771	
1045	0	32712	32695	32775	32622	32807	32706	32603	32662	
1046	0	32672	32701	32803	32539	32692	32807	32653	32588	
1047	0	32677	32763	32775	32611	32575	32821	32562	32623	
1048	0	32631	32695	32879	32563	32707	32707	32703	32703	
1049	0	32623	32735	32855	32626	32805	32640	32499	32707	
1050	0	32704	32693	32775	32462	32711	32621	32598	32723	
1051	0	32666	32694	32903	32482	32679	32759	32391	32774	
1052	0	32644	32725	32927	32483	32663	32805	32562	32583	
1053	0	32615	32710	32845	32511	32497	32754	32412	32615	
1054	0	32612	32631	32947	32479	32647	32790	32499	32647	
1055	0	32623	32613	32751	32415	32662	32715	32532	32570	
1056	0	32614	32627	32918	32391	32607	32727	32461	32639	
1057	0	32661	32583	32747	32387	32703	32686	32565	32564	
1058	0	32620	32595	32879	32411	32611	32753	32726	32442	
1059	0	32720	32562	32839	32452	32775	32623	32549	32382	
1060	0	32745	32666	32789	32521	32715	32549	32839	32431	
1061	0	32736	32662	32757	32519	32799	32587	32599	32427	
1062	0	32781	32594	32815	32583	32831	32727	32820	32601	
1063	0	32819	32629	32871	32647	32825	32767	32623	32484	
1064	0	32850	32663	32679	32642	32734	32747	32980	32415	
1065	0	32818	32660	32695	32743	32935	32623	33027	32382	
1066	0	32784	32785	32676	32816	32834	32635	33159	32463	
1067	0	32831	32871	32501	32841	32889	32699	32973	32514	
1068	0	32930	32804	32644	32876	32827	32775	33139	32487	
1069	0	32937	32945	32551	32927	32865	32887	33107	32509	
1070	0	32948	32973	32491	32991	32903	32861	33199	32551	
1071	0	32950	32943	32349	32941	32969	32767	33103	32599	
1072	0	33053	32924	32469	33107	33027	32793	33155	32483	
1073	0	33042	32962	32455	33069	33049	32798	33237	32483	
1074	0	33111	32987	32315	33095	33151	32677	33303	32543	
1075	0	33176	32983	32381	33087	33083	32759	33402	32497	
1076	0	33196	32947	32407	33125	33181	32677	33549	32489	
1077	0	33207	32887	32375	33063	33303	32607	33451	32463	
1078	0	33170	32829	32307	32903	33238	32679	33465	32433	
1079	0	33101	32847	32507	32795	32995	32761	33219	32519	
1080	0	33124	32785	32507	32949	33031	32731	33151	32595	
1081	0	33097	32827	32457	33143	32946	32803	33223	32533	
1082	0	33068	32807	32357	33075	33133	32831	33210	32495	
1083	0	33061	32831	32420	32947	33047	32839	33154	32595	
1084	0	32928	32770	32494	33030	32973	32775	32871	32755	
1085	0	32816	32859	32535	32887	32903	32839	32847	32790	
1086	0	32705	32802	32679	32709	32610	32871	32571	32831	
1087	0	32670	32823	32647	32559	32727	32757	32623	32866	
1088	0	32600	32758	32886	32479	32583	32711	32445	32924	
1089	0	32584	32727	32899	32470	32599	32847	32548	32943	
1090	0	32531	32743	32911	32463	32679	32855	32333	32911	
1091	0	32541	32647	32735	32513	32303	32890	32399	32841	
1092	0	32486	32759	32911	32420	32551	32807	32327	32939	
1093	0	32431	32771	32903	32563	32499	32815	32277	32967	
1094	0	32436	32822	32847	32388	32469	32895	32227	32879	
1095	0	32460	32815	32902	32391	32407	32853	32318	32711	
1096	0	32419	32833	33012	32399	32369	32860	32199	32873	
1097	0	32452	32775	32979	32443	32501	32765	32313	32834	
1098	0	32426	32834	32863	32501	32500	32861	32295	32839	
1099	0	32476	32845	32967	32495	32391	32839	32357	32705	
1100	0	32529	32829	32903	32595	32579	32839	32311	32663	
1101	0	32526	32867	32993	32566	32660	32783	32407	32732	
1102	0	32584	32820	32841	32471	32595	32839	32339	32927	
1103	0	32616	32863	32847	32527	32549	32887	32569	32822	
1104	0	32639	32871	32851	32559	32538	32829	32375	32834	
1105	0	32673	32875	32839	32716	32701	32858	32663	32775	
1106	0	32647	32882	32623	32721	32759	32890	32411	32847	
1107	0	32695	32749	32789	32719	32599	32843	32647	32827	
1108	0	32767	32811	32735	32627	32701	32839	32539	32903	
1109	0	32816	32766	32658	32631	32765	32833	32796	32731	
1110	0	32715	32763	32708	32623	32669	32713	32577	32583	
1111	0	32750	32764	32687	32647	32739	32807	32903	32513	
1112	0	32781	32701	32731	32647	32764	32751	32858	32581	
1113	0	32828	32751	32679	32633	32883	32763	32929	32646	
1114	0	32842	32735	32795	32729	32811	32775	32671	32583	
1115	0	32853	32673	32711	32742	32731	32621	32903	32551	
1116	0	32785	32733	32571	32703	32867	32684	32804	32671	
1117	0	32769	32726	32563	32567	32854	32751	32790	32535	
1118	0	32775	32733	32707	32571	32711	32707	32859	32631	
1119	0	32804	32703	32743	32557	32862	32773	32773	32673	
1120	0	32834	32751	32703	32540	32898	32679	32880	32588	
1121	0	32817	32734	32727	32565	32747	32703	32860	32687	
1122	0	32818	32765	32695	32605	32804	32765	32819	32684	
1123	0	32823	32799	32711	32581	32763	32780	32783	32679	
1124	0	32819	32739	32599	32639	32851	32759	32847	32622	
1125	0	32807	32737	32647	32741	32831	32723	32705	32647	
1126	0	32792	32769	32759	32615	32860	32811	32943	32723	
1127	0	32775	32701	32687	32771	32797	32739	32877	32701	
1128	0	32723	32804	32727	32775	32687	32809	32783	32623	
1129	0	32743	32759	32773	32749	32807	32775	32684	32727	
1130	0	32782	32791	32673	32579	32653	32775	32615	32631	
1131	0	32700	32726	32702	32671	32679	32692	32766	32709	
1132	0	32720	32759	32757	32663	32667	32846	32786	32551	
1133	0	32677	32753	32793	32595	32756	32799	32771	32695	
1134	0	32726	32719	32725	32647	32815	32707	32810	32671	
1135	0	32695	32771	32687	32591	32791	32791	32791	32638	
1136	0	32692	32769	32731	32701	32787	32749	32797	32627	
1137	0	32695	32827	32691	32739	32764	32676	32791	32722	
1138	0	32751	32787	32671	32654	32699	32804	32785	32647	
1139	0	32742	32711	32647	32676	32893	32775	32759	32711	
1140	0	32803	32775	32751	32539	32854	32679	32955	32655	
1141	0	32746	32859	32737	32703	32833	32859	32799	32807	
1142	0	32764	32797	32742	32685	32785	32767	32773	32567	
1143	0	32788	32726	32731	32647	32801	32762	32549	32670	
1144	0	32820	32747	32669	32493	32785	32759	32789	32692	
1145	0	32815	32735	32644	32735	32775	32775	32775	32582	
1146	0	32855	32711	32701	32655	32762	32671	32883	32701	
1147	0	32852	32707	32684	32541	32814	32755	32831	32720	
1148	0	32788	32775	32643	32723	32838	32813	32733	32554	
1149	0	32791	32763	32775	32701	32775	32819	32707	32669	
1150	0	32751	32754	32694	32662	32798	32795	32687	32570	
1151	0	32802	32797	32761	32743	32839	32839	32617	32654	
1152	0	32773	32749	32575	32535	32775	32724	32591	32515	
1153	0	32733	32738	32627	32647	32647	32807	32599	32615	
1154	0	32743	32829	32738	32541	32708	32761	32655	32559	
1155	0	32772	32748	32745	32679	32766	32695	32707	32640	
1156	0	32751	32763	32791	32687	32802	32790	32787	32595	
1157	0	32728	32847	32661	32487	32775	32763	32865	32731	
1158	0	32739	32775	32721	32743	32774	32775	32891	32745	
1159	0	32740	32815	32743	32783	32813	32719	32793	32679	
1160	0	32758	32709	32647	32611	32871	32849	32645	32607	
1161	0	32797	32705	32823	32655	32815	32765	32583	32492	
1162	0	32736	32717	32763	32757	32858	32809	32701	32620	
1163	0	32745	32775	32767	32679	32788	32764	32754	32550	
1164	0	32759	32819	32663	32771	32795	32775	32711	32647	
1165	0	32775	32829	32693	32581	32727	32748	32763	32559	
1166	0	32759	32757	32775	32671	32743	32681	32751	32689	
1167	0	32786	32772	32749	32765	32797	32731	32820	32763	
1168	0	32712	32771	32636	32749	32877	32751	32903	32754	
1169	0	32750	32786	32685	32759	32804	32703	32835	32765	
1170	0	32786	32786	32725	32550	32677	32685	32734	32676	
1171	0	32775	32743	32711	32668	32641	32809	32607	32711	
1172	0	32743	32759	32647	32455	32789	32813	32623	32727	
1173	0	32695	32771	32615	32713	32775	32703	32620	32742	
1174	0	32729	32743	32695	32705	32647	32775	32756	32571	
1175	0	32726	32715	32699	32623	32658	32790	32821	32669	
1176	0	32767	32659	32639	32711	32639	32759	32869	32835	
1177	0	32753	32631	32695	32692	32811	32843	32831	32743	
1178	0	32750	32721	32691	32519	32775	32719	32852	32695	
1179	0	32765	32771	32677	32583	32775	32717	32853	32662	
1180	0	32737	32787	32667	32612	32679	32767	32883	32663	
1181	0	32738	32775	32775	32733	32769	32727	32863	32615	
1182	0	32802	32770	32759	32787	32789	32711	32788	32759	
1183	0	32770	32797	32767	32660	32805	32775	32871	32551	
1184	0	32811	32850	32676	32727	32626	32723	32871	32679	
1185	0	32775	32879	32674	32551	32623	32783	32891	32623	
1186	0	32687	32799	32732	32641	32659	32868	32861	32679	
1187	0	32738	32764	32771	32685	32709	32719	32829	32607	
1188	0	32775	32683	32722	32559	32727	32813	32751	32707	
1189	0	32758	32772	32705	32775	32806	32821	32605	32769	
1190	0	32758	32775	32683	32726	32851	32839	32607	32748	
1191	0	32721	32783	32732	32717	32770	32719	32541	32703	
1192	0	32780	32763	32631	32660	32702	32801	32679	32597	
1193	0	32684	32819	32723	32513	32799	32775	32807	32619	
1194	0	32719	32802	32703	32615	32775	32703	32793	32557	
1195	0	32687	32775	32741	32535	32783	32785	32819	32640	
1196	0	32749	32875	32666	32748	32647	32818	32783	32581	
1197	0	32759	32775	32585	32677	32723	32671	32783	32733	
1198	0	32788	32821	32623	32813	32823	32711	32765	32734	
1199	0	32772	32775	32690	32692	32763	32645	32775	32743	
1200	0	32820	32719	32643	32687	32812	32828	32773	32719	
1201	0	32854	32763	32669	32718	32806	32775	32692	32775	
1202	0	32767	32749	32601	32583	32631	32700	32775	32719	
1203	0	32808	32743	32631	32668	32628	32799	32759	32807	
1204	0	32722	32698	32751	32579	32678	32789	32759	32698	
1205	0	32788	32820	32738	32643	32853	32742	32791	32707	
1206	0	32756	32855	32683	32609	32733	32762	32747	32555	
1207	0	32754	32801	32676	32713	32799	32809	32791	32698	
1208	0	32769	32719	32807	32686	32739	32783	32819	32691	
1209	0	32799	32702	32687	32555	32743	32783	32861	32722	
1210	0	32781	32727	32718	32687	32815	32667	32897	32762	
1211	0	32771	32772	32593	32455	32891	32723	32883	32663	
1212	0	32746	32807	32703	32615	32815	32802	32834	32771	
1213	0	32754	32807	32771	32461	32719	32811	32839	32771	
1214	0	32768	32740	32761	32671	32690	32855	32623	32835	
1215	0	32760	32799	32679	32743	32679	32799	32595	32679	
1216	0	32712	32719	32823	32707	32745	32785	32757	32715	
1217	0	32752	32801	32782	32666	32821	32807	32532	32647	
1218	0	32758	32754	32758	32597	32719	32838	32587	32734	
1219	0	32738	32773	32775	32819	32791	32681	32561	32713	
1220	0	32702	32764	32695	32879	32638	32799	32631	32695	
1221	0	32734	32791	32747	32863	32761	32783	32775	32691	
1222	0	32736	32797	32775	32787	32807	32671	32643	32727	
1223	0	32714	32765	32658	32607	32800	32711	32859	32709	
1224	0	32775	32802	32636	32596	32675	32646	32583	32711	
1225	0	32764	32735	32743	32687	32629	32735	32847	32739	
1226	0	32704	32817	32743	32769	32839	32729	32631	32639	
1227	0	32711	32786	32749	32727	32819	32855	32831	32647	
1228	0	32775	32815	32661	32647	32647	32830	32757	32637	
1229	0	32818	32758	32722	32679	32837	32831	32851	32671	
1230	0	32775	32841	32725	32687	32791	32707	32767	32671	
1231	0	32789	32743	32690	32687	32854	32807	32623	32681	
1232	0	32758	32825	32734	32610	32855	32749	32767	32722	
1233	0	32743	32741	32626	32535	32599	32799	32639	32743	
1234	0	32759	32847	32727	32436	32783	32769	32751	32701	
1235	0	32806	32831	32681	32543	32794	32833	32583	32564	
1236	0	32703	32735	32623	32564	32647	32775	32763	32685	
1237	0	32743	32823	32703	32596	32647	32677	32759	32661	
1238	0	32756	32843	32762	32504	32811	32767	32626	32711	
1239	0	32765	32831	32668	32497	32773	32797	32818	32725	
1240	0	32735	32727	32743	32523	32647	32763	32807	32807	
1241	0	32822	32775	32807	32547	32775	32793	32711	32591	
1242	0	32814	32771	32659	32563	32715	32710	32775	32837	
1243	0	32793	32839	32795	32535	32693	32673	32717	32740	
1244	0	32775	32797	32713	32671	32811	32793	32783	32735	
1245	0	32841	32775	32647	32671	32775	32900	32775	32743	
1246	0	32801	32799	32694	32765	32600	32863	32798	32791	
1247	0	32741	32728	32751	32844	32803	32725	32789	32587	
1248	0	32708	32687	32655	32740	32909	32685	32846	32463	
1249	0	32741	32786	32698	32756	32668	32711	32757	32623	
1250	0	32734	32702	32735	32731	32767	32775	32805	32623	
1251	0	32719	32795	32822	32695	32815	32731	32775	32498	
1252	0	32727	32710	32674	32705	32827	32774	32721	32583	
1253	0	32699	32763	32662	32759	32669	32821	32737	32694	
1254	0	32719	32771	32735	32665	32749	32685	32775	32687	
1255	0	32658	32775	32835	32655	32640	32679	32799	32671	
1256	0	32749	32794	32669	32535	32683	32711	32858	32585	
1257	0	32788	32822	32835	32463	32775	32735	32738	32623	
1258	0	32775	32736	32694	32615	32799	32775	32775	32563	
1259	0	32699	32871	32748	32799	32775	32669	32799	32675	
1260	0	32765	32767	32577	32739	32717	32713	32726	32697	
1261	0	32816	32773	32687	32726	32775	32796	32803	32703	
1262	0	32837	32769	32673	32612	32820	32799	32626	32720	
1263	0	32814	32711	32647	32541	32687	32877	32747	32705	
1264	0	32828	32847	32709	32575	32795	32830	32583	32679	
1265	0	32831	32813	32775	32647	32787	32709	32766	32671	
1266	0	32796	32791	32813	32765	32775	32743	32564	32723	
1267	0	32809	32804	32671	32845	32858	32795	32773	32709	
1268	0	32788	32799	32725	32799	32829	32843	32767	32591	
1269	0	32763	32775	32737	32562	32699	32738	32844	32623	
1270	0	32804	32749	32743	32565	32773	32763	32726	32713	
1271	0	32807	32791	32659	32695	32789	32773	32773	32655	
1272	0	32806	32737	32607	32846	32815	32775	32787	32553	
1273	0	32769	32784	32628	32757	32804	32859	32694	32551	
1274	0	32734	32715	32615	32738	32711	32789	32772	32564	
1275	0	32734	32769	32643	32722	32775	32655	32802	32663	
1276	0	32742	32835	32754	32647	32799	32663	32741	32788	
1277	0	32717	32813	32699	32667	32775	32683	32918	32682	
1278	0	32802	32854	32663	32693	32615	32759	32706	32599	
1279	0	32741	32819	32668	32687	32799	32831	32839	32659	
1280	0	32716	32775	32766	32632	32839	32715	32621	32684	
1281	0	32754	32773	32637	32662	32755	32743	32743	32713	
1282	0	32701	32802	32703	32701	32795	32730	32611	32822	
1283	0	32711	32756	32671	32775	32795	32681	32742	32533	
1284	0	32727	32799	32743	32575	32793	32711	32799	32684	
1285	0	32755	32799	32675	32542	32671	32719	32611	32647	
1286	0	32763	32833	32671	32589	32703	32797	32759	32708	
1287	0	32791	32735	32799	32637	32775	32775	32588	32667	
1288	0	32718	32775	32745	32719	32799	32775	32811	32733	
1289	0	32748	32707	32793	32686	32646	32687	32679	32730	
1290	0	32771	32853	32639	32615	32828	32739	32805	32807	
1291	0	32751	32815	32754	32612	32873	32789	32683	32699	
1292	0	32757	32725	32720	32637	32727	32749	32789	32668	
1293	0	32692	32823	32663	32749	32825	32803	32659	32679	
1294	0	32711	32743	32607	32631	32751	32687	32738	32611	
1295	0	32711	32877	32811	32533	32807	32725	32583	32511	
1296	0	32685	32773	32751	32564	32821	32775	32821	32556	
1297	0	32722	32805	32739	32751	32642	32810	32667	32560	
1298	0	32730	32789	32631	32739	32821	32723	32797	32587	
1299	0	32735	32758	32711	32765	32817	32687	32561	32549	
1300	0	32775	32823	32735	32713	32617	32775	32799	32685	
1301	0	32756	32831	32663	32686	32799	32802	32611	32609	
1302	0	32754	32796	32721	32631	32799	32743	32751	32663	
1303	0	32692	32847	32715	32695	32839	32710	32621	32647	
1304	0	32817	32775	32707	32687	32811	32679	32748	32663	
1305	0	32757	32839	32663	32694	32791	32831	32637	32719	
1306	0	32794	32743	32636	32519	32607	32756	32753	32597	
1307	0	32835	32775	32743	32531	32823	32835	32658	32701	
1308	0	32775	32902	32739	32493	32838	32690	32794	32763	
1309	0	32823	32805	32683	32639	32717	32790	32667	32679	
1310	0	32751	32807	32647	32769	32825	32803	32818	32683	
1311	0	32754	32743	32735	32647	32751	32726	32637	32622	
1312	0	32727	32775	32694	32635	32850	32788	32855	32631	
1313	0	32727	32755	32639	32715	32804	32801	32729	32635	
1314	0	32752	32748	32607	32738	32694	32845	32835	32707	
1315	0	32756	32771	32690	32735	32822	32813	32615	32727	
1316	0	32771	32721	32739	32742	32663	32759	32822	32684	
1317	0	32798	32743	32671	32615	32645	32801	32623	32671	
1318	0	32775	32811	32790	32533	32756	32799	32775	32635	
1319	0	32738	32771	32737	32557	32712	32731	32605	32640	
1320	0	32797	32807	32698	32620	32721	32807	32807	32713	
1321	0	32772	32775	32766	32655	32815	32767	32623	32727	
1322	0	32781	32687	32741	32583	32775	32852	32834	32577	
1323	0	32788	32671	32847	32702	32796	32709	32613	32487	
1324	0	32775	32710	32638	32679	32703	32695	32806	32647	
1325	0	32817	32742	32751	32679	32701	32702	32617	32707	
1326	0	32730	32827	32751	32702	32775	32804	32807	32765	
1327	0	32759	32785	32589	32710	32647	32766	32628	32612	
1328	0	32765	32775	32679	32706	32875	32694	32804	32722	
1329	0	32724	32869	32719	32767	32844	32807	32685	32748	
1330	0	32736	32775	32698	32783	32715	32771	32751	32775	
1331	0	32703	32771	32815	32748	32847	32829	32847	32637	
1332	0	32712	32731	32765	32695	32869	32821	32751	32639	
1333	0	32804	32723	32663	32715	32829	32741	32875	32613	
1334	0	32731	32739	32677	32751	32663	32730	32583	32535	
1335	0	32742	32771	32738	32751	32735	32766	32763	32739	
1336	0	32782	32708	32695	32717	32742	32783	32691	32694	
1337	0	32716	32739	32692	32669	32604	32791	32775	32647	
1338	0	32756	32787	32701	32579	32667	32693	32647	32677	
1339	0	32769	32727	32717	32583	32679	32762	32798	32749	
1340	0	32764	32759	32669	32775	32876	32836	32631	32717	
1341	0	32838	32671	32573	32707	32827	32807	32883	32695	
1342	0	32815	32823	32587	32671	32856	32699	32773	32669	
1343	0	32818	32741	32735	32710	32743	32735	32791	32687	
1344	0	32781	32757	32773	32541	32773	32721	32818	32679	
1345	0	32766	32775	32775	32629	32775	32719	32663	32611	
1346	0	32703	32822	32695	32735	32807	32772	32795	32698	
1347	0	32781	32819	32639	32683	32869	32775	32622	32679	
1348	0	32713	32795	32747	32621	32759	32764	32903	32669	
1349	0	32711	32719	32706	32655	32767	32659	32764	32637	
1350	0	32781	32751	32623	32751	32791	32692	32831	32647	
1351	0	32711	32837	32699	32735	32803	32791	32647	32815	
1352	0	32757	32775	32661	32711	32755	32838	32945	32639	
1353	0	32796	32890	32679	32527	32866	32615	32751	32686	
1354	0	32700	32869	32575	32551	32796	32748	32799	32730	
1355	0	32701	32823	32709	32637	32694	32807	32763	32703	
1356	0	32717	32871	32658	32762	32903	32775	32679	32700	
1357	0	32711	32871	32685	32695	32791	32727	32756	32663	
1358	0	32675	32839	32669	32702	32807	32821	32628	32743	
1359	0	32716	32805	32683	32626	32759	32798	32791	32647	
1360	0	32742	32803	32743	32729	32719	32669	32605	32659	
1361	0	32768	32775	32695	32575	32754	32705	32775	32647	
1362	0	32767	32829	32743	32466	32661	32807	32766	32679	
1363	0	32720	32735	32642	32682	32788	32815	32625	32727	
1364	0	32769	32787	32717	32743	32703	32807	32811	32690	
1365	0	32737	32719	32726	32754	32564	32786	32598	32722	
1366	0	32736	32663	32815	32711	32797	32811	32846	32695	
1367	0	32750	32807	32646	32711	32830	32819	32607	32727	
1368	0	32773	32756	32751	32762	32673	32798	32863	32767	
1369	0	32800	32775	32700	32743	32823	32773	32629	32671	
1370	0	32818	32773	32607	32730	32839	32711	32815	32718	
1371	0	32826	32699	32756	32678	32679	32821	32629	32663	
1372	0	32767	32759	32739	32671	32831	32719	32871	32610	
1373	0	32762	32731	32775	32631	32830	32780	32631	32543	
1374	0	32763	32783	32637	32566	32652	32799	32863	32573	
1375	0	32758	32865	32767	32533	32811	32725	32598	32535	
1376	0	32771	32735	32765	32591	32807	32575	32853	32586	
1377	0	32763	32765	32773	32692	32807	32773	32734	32575	
1378	0	32727	32719	32711	32673	32723	32877	32791	32647	
1379	0	32766	32749	32767	32677	32642	32671	32748	32675	
1380	0	32738	32787	32791	32742	32818	32716	32735	32741	
1381	0	32755	32711	32707	32811	32725	32811	32825	32695	
1382	0	32701	32799	32607	32772	32594	32759	32633	32675	
1383	0	32701	32775	32783	32580	32743	32815	32807	32694	
1384	0	32742	32839	32751	32525	32769	32691	32601	32647	
1385	0	32750	32785	32635	32491	32815	32827	32771	32695	
1386	0	32804	32717	32748	32610	32743	32767	32551	32701	
1387	0	32775	32823	32775	32695	32791	32788	32853	32694	
1388	0	32855	32679	32743	32701	32833	32711	32696	32663	
1389	0	32790	32759	32663	32675	32788	32810	32765	32731	
1390	0	32741	32719	32621	32685	32685	32789	32799	32687	
1391	0	32801	32863	32762	32699	32843	32806	32647	32671	
1392	0	32767	32871	32711	32703	32799	32786	32783	32685	
1393	0	32720	32751	32579	32543	32655	32725	32564	32743	
1394	0	32659	32749	32575	32501	32767	32791	32773	32663	
1395	0	32761	32771	32739	32603	32647	32836	32735	32631	
1396	0	32713	32769	32775	32791	32775	32742	32803	32665	
1397	0	32755	32860	32716	32775	32797	32750	32751	32605	
1398	0	32775	32775	32665	32695	32739	32756	32643	32637	
1399	0	32831	32867	32683	32687	32687	32791	32699	32628	
1400	0	32751	32822	32754	32751	32743	32697	32605	32663	
1401	0	32781	32819	32759	32655	32839	32807	32887	32663	
1402	0	32783	32731	32839	32587	32855	32715	32628	32615	
1403	0	32773	32765	32797	32511	32711	32815	32839	32647	
1404	0	32797	32782	32799	32510	32751	32703	32794	32639	
1405	0	32761	32743	32637	32643	32687	32806	32711	32662	
1406	0	32725	32789	32629	32694	32725	32791	32799	32694	
1407	0	32769	32679	32721	32639	32671	32807	32684	32700	
1408	0	32788	32771	32751	32631	32645	32708	32767	32663	
1409	0	32746	32751	32791	32719	32813	32743	32555	32671	
1410	0	32715	32835	32685	32617	32719	32775	32829	32740	
1411	0	32732	32711	32698	32412	32841	32683	32759	32676	
1412	0	32735	32775	32773	32491	32802	32781	32843	32659	
1413	0	32744	32829	32801	32564	32639	32767	32749	32658	
1414	0	32743	32743	32615	32707	32814	32807	32754	32775	
1415	0	32769	32729	32701	32647	32825	32759	32775	32823	
1416	0	32760	32719	32701	32659	32675	32725	32643	32762	
1417	0	32796	32671	32639	32629	32759	32757	32738	32763	
1418	0	32732	32767	32719	32683	32789	32775	32627	32627	
1419	0	32689	32671	32754	32663	32599	32799	32758	32703	
1420	0	32731	32765	32759	32717	32783	32755	32596	32676	
1421	0	32743	32775	32667	32759	32751	32719	32830	32759	
1422	0	32713	32767	32591	32515	32627	32783	32733	32669	
1423	0	32751	32839	32677	32683	32754	32862	32831	32676	
1424	0	32706	32711	32701	32710	32772	32679	32749	32687	
1425	0	32797	32759	32677	32665	32855	32694	32857	32615	
1426	0	32740	32714	32660	32756	32755	32766	32847	32575	
1427	0	32749	32795	32665	32711	32807	32860	32843	32716	
1428	0	32698	32823	32659	32667	32655	32699	32768	32683	
1429	0	32751	32759	32607	32706	32775	32735	32794	32715	
1430	0	32703	32791	32633	32815	32845	32745	32787	32709	
1431	0	32742	32758	32711	32877	32683	32819	32763	32639	
1432	0	32768	32773	32615	32812	32843	32711	32749	32606	
1433	0	32742	32791	32822	32723	32771	32723	32933	32621	
1434	0	32815	32773	32890	32815	32713	32686	32797	32533	
1435	0	32778	32709	32791	32707	32751	32709	32797	32589	
1436	0	32785	32806	32755	32730	32675	32743	32599	32635	
1437	0	32794	32867	32697	32695	32829	32644	32756	32729	
1438	0	32815	32727	32679	32719	32647	32809	32607	32755	
1439	0	32815	32767	32745	32726	32679	32804	32797	32775	
1440	0	32870	32854	32734	32633	32795	32871	32587	32839	
1441	0	32829	32748	32639	32671	32789	32799	32758	32703	
1442	0	32807	32787	32734	32647	32819	32706	32631	32623	
1443	0	32816	32803	32735	32697	32853	32771	32775	32597	
1444	0	32782	32709	32647	32647	32732	32867	32691	32599	
1445	0	32843	32775	32723	32571	32685	32759	32719	32588	
1446	0	32847	32767	32620	32567	32687	32795	32739	32615	
1447	0	32861	32748	32658	32647	32725	32757	32791	32591	
1448	0	32826	32807	32673	32603	32677	32647	32743	32529	
1449	0	32765	32717	32727	32583	32613	32759	32692	32584	
1450	0	32739	32813	32727	32579	32822	32846	32748	32579	
1451	0	32761	32773	32621	32557	32839	32871	32711	32565	
1452	0	32719	32751	32775	32547	32677	32764	32686	32627	
1453	0	32696	32788	32742	32499	32775	32796	32775	32623	
1454	0	32786	32754	32719	32607	32767	32821	32709	32673	
1455	0	32772	32738	32635	32709	32815	32775	32813	32750	
1456	0	32676	32743	32775	32637	32822	32802	32609	32673	
1457	0	32758	32711	32743	32677	32751	32711	32767	32706	
1458	0	32768	32819	32751	32598	32767	32763	32739	32660	
1459	0	32742	32679	32679	32671	32751	32671	32795	32646	
1460	0	32765	32723	32823	32662	32710	32756	32759	32711	
1461	0	32786	32821	32860	32699	32791	32852	32885	32775	
1462	0	32698	32719	32675	32759	32851	32711	32714	32711	
1463	0	32715	32903	32735	32773	32791	32743	32807	32741	
1464	0	32679	32879	32637	32722	32695	32785	32742	32733	
1465	0	32743	32767	32565	32615	32795	32783	32823	32815	
1466	0	32701	32823	32599	32553	32647	32797	32789	32743	
1467	0	32743	32749	32755	32519	32804	32740	32683	32734	
1468	0	32697	32789	32811	32466	32812	32719	32767	32708	
1469	0	32665	32802	32671	32599	32791	32751	32599	32667	
1470	0	32710	32756	32563	32699	32730	32787	32749	32623	
1471	0	32700	32831	32747	32743	32700	32773	32646	32671	
1472	0	32725	32719	32717	32668	32797	32803	32743	32711	
1473	0	32757	32690	32567	32769	32831	32743	32631	32759	
1474	0	32778	32807	32789	32723	32717	32734	32862	32741	
1475	0	32716	32715	32747	32717	32795	32795	32606	32771	
1476	0	32733	32755	32673	32679	32829	32751	32855	32695	
1477	0	32808	32765	32733	32659	32806	32879	32599	32713	
1478	0	32751	32806	32754	32647	32735	32707	32843	32655	
1479	0	32736	32833	32677	32735	32804	32655	32588	32711	
1480	0	32703	32784	32679	32811	32847	32796	32860	32709	
1481	0	32766	32823	32743	32749	32797	32775	32607	32682	
1482	0	32791	32823	32815	32697	32726	32851	32838	32647	
1483	0	32749	32732	32655	32615	32819	32837	32771	32647	
1484	0	32860	32771	32799	32655	32887	32756	32917	32727	
1485	0	32813	32831	32753	32685	32647	32727	32599	32673	
1486	0	32759	32783	32631	32641	32771	32789	32813	32763	
1487	0	32751	32794	32703	32567	32767	32771	32605	32797	
1488	0	32808	32853	32694	32493	32629	32821	32743	32673	
1489	0	32770	32783	32765	32593	32738	32698	32751	32620	
1490	0	32775	32724	32644	32647	32607	32791	32854	32679	
1491	0	32788	32747	32627	32717	32708	32775	32793	32703	
1492	0	32775	32775	32675	32734	32793	32738	32827	32679	
1493	0	32770	32765	32692	32659	32709	32711	32804	32686	
1494	0	32679	32833	32665	32668	32862	32783	32891	32647	
1495	0	32740	32775	32695	32591	32837	32787	32711	32709	
1496	0	32761	32837	32734	32543	32639	32742	32852	32691	
1497	0	32788	32831	32699	32549	32847	32765	32759	32573	
1498	0	32788	32763	32647	32599	32775	32695	32861	32635	
1499	0	32765	32839	32663	32567	32663	32723	32619	32719	
1500	0	32811	32815	32566	32707	32729	32729	32798	32694	
1501	0	32743	32823	32621	32655	32786	32809	32703	32647	
1502	0	32775	32759	32711	32412	32887	32759	32775	32799	
1503	0	32807	32679	32743	32607	32771	32733	32878	32671	
1504	0	32822	32715	32581	32693	32725	32903	32723	32743	
1505	0	32740	32738	32756	32493	32692	32823	32629	32550	
1506	0	32799	32791	32743	32677	32821	32679	32562	32685	
1507	0	32789	32749	32787	32574	32807	32852	32647	32607	
1508	0	32758	32739	32771	32603	32621	32788	32767	32639	
1509	0	32694	32767	32671	32494	32858	32670	32615	32683	
1510	0	32765	32789	32775	32749	32852	32759	32775	32575	
1511	0	32734	32831	32823	32719	32885	32807	32786	32731	
1512	0	32730	32807	32681	32591	32837	32798	32850	32789	
1513	0	32754	32786	32759	32735	32821	32773	32707	32710	
1514	0	32773	32743	32751	32819	32765	32703	32661	32685	
1515	0	32751	32733	32751	32821	32807	32838	32647	32687	
1516	0	32730	32806	32710	32749	32815	32787	32575	32748	
1517	0	32719	32854	32694	32595	32803	32823	32647	32583	
1518	0	32757	32845	32804	32667	32837	32796	32733	32615	
1519	0	32748	32815	32771	32703	32663	32749	32756	32644	
1520	0	32729	32751	32720	32747	32751	32692	32759	32677	
1521	0	32802	32751	32679	32789	32863	32723	32745	32695	
1522	0	32770	32823	32663	32671	32829	32647	32791	32535	
1523	0	32748	32855	32703	32727	32739	32703	32854	32621	
1524	0	32847	32797	32647	32575	32691	32743	32854	32731	
1525	0	32791	32758	32635	32685	32687	32735	32635	32647	
1526	0	32831	32725	32757	32669	32794	32708	32571	32629	
1527	0	32766	32732	32668	32571	32747	32775	32749	32606	
1528	0	32826	32711	32679	32657	32756	32786	32765	32721	
1529	0	32834	32727	32632	32733	32695	32695	32790	32695	
1530	0	32797	32759	32580	32679	32757	32875	32770	32739	
1531	0	32756	32767	32681	32711	32863	32795	32789	32705	
1532	0	32790	32742	32751	32543	32831	32740	32875	32582	
1533	0	32791	32710	32607	32663	32695	32719	32865	32661	
1534	0	32791	32692	32655	32725	32743	32726	32851	32775	
1535	0	32729	32750	32685	32543	32773	32743	32647	32543	
1536	0	32759	32775	32679	32659	32751	32697	32613	32633	
1537	0	32740	32845	32671	32598	32739	32743	32729	32757	
1538	0	32716	32831	32755	32645	32775	32817	32765	32675	
1539	0	32727	32831	32748	32679	32837	32822	32766	32775	
1540	0	32732	32818	32575	32683	32775	32735	32861	32638	
1541	0	32736	32775	32671	32591	32775	32775	32791	32663	
1542	0	32711	32807	32817	32673	32694	32775	32815	32563	
1543	0	32749	32759	32743	32727	32657	32759	32661	32706	
1544	0	32795	32802	32819	32500	32717	32819	32715	32783	
1545	0	32831	32794	32655	32685	32763	32854	32631	32684	
1546	0	32755	32699	32775	32717	32788	32711	32599	32604	
1547	0	32767	32727	32739	32589	32773	32787	32595	32559	
1548	0	32742	32775	32767	32591	32757	32775	32715	32727	
1549	0	32759	32804	32639	32647	32751	32695	32751	32659	
1550	0	32698	32813	32639	32647	32679	32827	32795	32711	
1551	0	32759	32773	32775	32700	32645	32807	32759	32885	
1552	0	32728	32671	32775	32560	32751	32710	32815	32694	
1553	0	32722	32807	32669	32730	32695	32791	32807	32759	
1554	0	32748	32775	32769	32633	32831	32757	32817	32749	
1555	0	32748	32775	32703	32711	32847	32703	32879	32727	
1556	0	32733	32751	32767	32753	32815	32756	32719	32615	
1557	0	32701	32717	32735	32859	32877	32887	32586	32709	
1558	0	32773	32749	32690	32655	32887	32859	32802	32695	
1559	0	32804	32746	32686	32759	32839	32783	32739	32535	
1560	0	32722	32753	32806	32655	32697	32813	32784	32708	
1561	0	32749	32693	32765	32754	32825	32775	32783	32554	
1562	0	32753	32775	32705	32679	32734	32647	32765	32671	
1563	0	32786	32823	32692	32731	32707	32783	32789	32503	
1564	0	32769	32807	32831	32686	32759	32743	32831	32700	
1565	0	32831	32754	32699	32719	32685	32723	32751	32690	
1566	0	32762	32791	32751	32711	32895	32733	32815	32642	
1567	0	32773	32767	32775	32673	32775	32703	32751	32677	
1568	0	32738	32799	32667	32575	32629	32749	32807	32642	
1569	0	32757	32812	32647	32581	32765	32820	32775	32687	
1570	0	32738	32655	32727	32623	32839	32747	32631	32684	
1571	0	32743	32775	32677	32631	32839	32813	32759	32695	
1572	0	32784	32695	32791	32647	32759	32795	32599	32703	
1573	0	32715	32839	32613	32518	32691	32707	32815	32549	
1574	0	32767	32738	32583	32567	32713	32753	32831	32573	
1575	0	32740	32831	32727	32747	32742	32771	32679	32659	
1576	0	32799	32827	32762	32735	32823	32719	32747	32843	
1577	0	32769	32863	32751	32791	32821	32719	32621	32791	
1578	0	32754	32807	32661	32641	32729	32807	32807	32785	
1579	0	32780	32748	32703	32473	32845	32813	32727	32828	
1580	0	32782	32871	32694	32515	32811	32799	32853	32743	
1581	0	32736	32742	32581	32487	32683	32675	32750	32799	
1582	0	32782	32815	32727	32463	32839	32793	32815	32709	
1583	0	32711	32846	32708	32669	32773	32791	32767	32711	
1584	0	32694	32743	32694	32727	32655	32820	32797	32647	
1585	0	32737	32815	32642	32759	32737	32638	32797	32668	
1586	0	32792	32723	32669	32717	32837	32775	32637	32583	
1587	0	32718	32765	32699	32775	32839	32783	32802	32694	
1588	0	32703	32759	32713	32551	32801	32671	32775	32663	
1589	0	32727	32723	32681	32647	32783	32743	32884	32708	
1590	0	32739	32765	32799	32687	32743	32823	32599	32703	
1591	0	32722	32663	32751	32751	32711	32767	32901	32641	
1592	0	32743	32727	32621	32767	32707	32765	32615	32714	
1593	0	32746	32821	32671	32711	32689	32747	32813	32733	
1594	0	32761	32799	32673	32709	32687	32727	32739	32811	
1595	0	32757	32791	32641	32708	32667	32799	32893	32729	
1596	0	32767	32731	32667	32717	32723	32726	32707	32662	
1597	0	32748	32775	32703	32647	32734	32839	32615	32647	
1598	0	32796	32866	32699	32615	32646	32817	32597	32699	
1599	0	32775	32749	32583	32462	32763	32725	32707	32607	
1600	0	32708	32791	32663	32733	32769	32843	32751	32695	
1601	0	32756	32731	32757	32646	32790	32795	32804	32559	
1602	0	32741	32733	32735	32507	32823	32807	32751	32643	
1603	0	32775	32795	32766	32729	32714	32743	32787	32603	
1604	0	32692	32819	32721	32711	32695	32823	32857	32719	
1605	0	32703	32711	32775	32495	32646	32687	32731	32710	
1606	0	32730	32740	32759	32527	32615	32635	32604	32516	
1607	0	32815	32738	32717	32647	32621	32721	32567	32631	
1608	0	32783	32749	32721	32667	32739	32791	32615	32513	
1609	0	32781	32835	32672	32599	32863	32796	32749	32634	
1610	0	32824	32759	32718	32541	32725	32795	32695	32581	
1611	0	32760	32767	32671	32783	32791	32759	32775	32669	
1612	0	32738	32747	32682	32719	32701	32823	32583	32671	
1613	0	32768	32783	32631	32631	32839	32855	32845	32665	
1614	0	32732	32755	32631	32623	32679	32853	32815	32647	
1615	0	32770	32775	32703	32774	32829	32735	32863	32645	
1616	0	32778	32845	32710	32791	32847	32655	32807	32647	
1617	0	32800	32692	32615	32681	32703	32772	32838	32812	
1618	0	32815	32807	32662	32675	32807	32813	32775	32739	
1619	0	32760	32785	32691	32519	32721	32719	32639	32659	
1620	0	32703	32863	32701	32655	32775	32863	32867	32706	
1621	0	32753	32807	32813	32749	32797	32812	32831	32670	
1622	0	32769	32813	32791	32735	32863	32722	32827	32583	
1623	0	32804	32731	32663	32659	32798	32791	32775	32596	
1624	0	32745	32797	32626	32514	32631	32893	32668	32775	
1625	0	32727	32731	32785	32567	32795	32773	32801	32775	
1626	0	32708	32775	32715	32583	32887	32679	32599	32647	
1627	0	32759	32847	32711	32727	32701	32655	32755	32775	
1628	0	32730	32847	32747	32723	32827	32790	32705	32701	
1629	0	32692	32863	32771	32719	32771	32733	32751	32773	
1630	0	32731	32769	32655	32695	32861	32743	32759	32748	
1631	0	32739	32735	32739	32619	32599	32731	32747	32743	
1632	0	32710	32795	32751	32685	32771	32647	32655	32711	
1633	0	32745	32793	32775	32743	32774	32757	32730	32751	
1634	0	32751	32749	32623	32697	32631	32775	32641	32721	
1635	0	32748	32807	32739	32535	32835	32772	32775	32726	
1636	0	32720	32766	32751	32450	32735	32705	32621	32667	
1637	0	32741	32807	32669	32787	32626	32739	32751	32711	
1638	0	32728	32719	32609	32719	32771	32797	32631	32695	
1639	0	32809	32765	32729	32661	32822	32775	32823	32647	
1640	0	32791	32707	32727	32687	32775	32762	32647	32673	
1641	0	32765	32699	32721	32711	32749	32739	32823	32620	
1642	0	32797	32821	32759	32617	32811	32831	32647	32631	
1643	0	32767	32759	32766	32519	32687	32811	32788	32699	
1644	0	32744	32799	32699	32545	32781	32788	32647	32757	
1645	0	32801	32758	32687	32751	32719	32617	32763	32701	
1646	0	32840	32807	32819	32820	32887	32827	32615	32639	
1647	0	32756	32868	32718	32763	32847	32793	32815	32668	
1648	0	32783	32813	32630	32743	32757	32820	32687	32543	
1649	0	32809	32791	32687	32703	32842	32639	32829	32567	
1650	0	32783	32775	32733	32567	32835	32823	32615	32505	
1651	0	32775	32797	32783	32583	32663	32764	32857	32620	
1652	0	32711	32787	32597	32757	32758	32743	32810	32788	
1653	0	32799	32807	32727	32723	32745	32747	32854	32763	
1654	0	32771	32807	32681	32711	32757	32775	32826	32765	
1655	0	32759	32736	32751	32711	32755	32847	32759	32674	
1656	0	32775	32802	32621	32661	32629	32715	32739	32692	
1657	0	32735	32758	32773	32559	32758	32757	32615	32615	
1658	0	32800	32813	32615	32721	32707	32647	32755	32748	
1659	0	32827	32839	32695	32683	32743	32769	32773	32574	
1660	0	32806	32725	32695	32591	32878	32692	32795	32679	
1661	0	32754	32775	32571	32701	32791	32703	32801	32588	
1662	0	32788	32767	32783	32703	32751	32643	32821	32667	
1663	0	32743	32721	32737	32639	32868	32730	32631	32646	
1664	0	32759	32741	32631	32599	32685	32775	32551	32607	
1665	0	32772	32775	32643	32811	32751	32837	32693	32767	
1666	0	32780	32790	32707	32671	32711	32757	32791	32765	
1667	0	32770	32747	32679	32583	32845	32791	32767	32647	
1668	0	32775	32763	32613	32662	32823	32820	32800	32638	
1669	0	32745	32687	32663	32639	32863	32811	32802	32727	
1670	0	32741	32763	32775	32703	32799	32745	32619	32687	
1671	0	32740	32775	32785	32587	32775	32729	32617	32683	
1672	0	32682	32799	32660	32669	32775	32797	32751	32721	
1673	0	32698	32791	32644	32683	32775	32815	32783	32723	
1674	0	32761	32759	32695	32463	32735	32749	32763	32762	
1675	0	32673	32747	32756	32645	32811	32765	32765	32694	
1676	0	32761	32818	32734	32548	32783	32740	32757	32722	
1677	0	32817	32903	32707	32783	32660	32742	32844	32707	
1678	0	32784	32789	32775	32739	32667	32694	32847	32711	
1679	0	32725	32791	32786	32575	32595	32817	32765	32551	
1680	0	32767	32734	32787	32690	32646	32758	32647	32634	
1681	0	32788	32735	32663	32771	32876	32677	32597	32615	
1682	0	32799	32749	32671	32519	32774	32790	32591	32756	
1683	0	32797	32815	32723	32814	32765	32781	32731	32668	
1684	0	32790	32799	32711	32733	32775	32797	32755	32711	
1685	0	32714	32789	32669	32647	32799	32719	32804	32659	
1686	0	32807	32775	32799	32662	32751	32759	32871	32708	
1687	0	32801	32787	32734	32791	32683	32876	32859	32581	
1688	0	32799	32670	32775	32713	32837	32807	32858	32612	
1689	0	32821	32749	32663	32551	32733	32787	32647	32631	
1690	0	32863	32807	32631	32726	32701	32687	32808	32647	
1691	0	32796	32815	32799	32679	32829	32743	32637	32671	
1692	0	32743	32719	32717	32623	32775	32647	32769	32719	
1693	0	32784	32815	32597	32623	32735	32743	32709	32749	
1694	0	32751	32775	32726	32807	32829	32789	32759	32671	
1695	0	32724	32819	32719	32735	32751	32846	32723	32686	
1696	0	32718	32807	32561	32678	32759	32759	32743	32645	
1697	0	32729	32743	32759	32511	32757	32756	32869	32720	
1698	0	32748	32837	32703	32436	32705	32743	32763	32738	
1699	0	32680	32890	32647	32557	32626	32775	32850	32718	
1700	0	32742	32767	32615	32679	32853	32787	32787	32679	
1701	0	32736	32797	32733	32719	32847	32838	32831	32685	
1702	0	32758	32751	32671	32767	32583	32762	32743	32719	
1703	0	32701	32829	32629	32613	32764	32695	32773	32733	
1704	0	32753	32819	32593	32495	32726	32775	32767	32637	
1705	0	32754	32791	32762	32605	32743	32783	32773	32622	
1706	0	32683	32823	32743	32642	32831	32686	32863	32753	
1707	0	32676	32811	32725	32775	32839	32743	32813	32715	
1708	0	32756	32834	32719	32581	32775	32835	32733	32763	
1709	0	32761	32775	32775	32701	32796	32775	32600	32615	
1710	0	32703	32703	32677	32638	32847	32754	32709	32667	
1711	0	32711	32679	32659	32493	32759	32759	32719	32719	
1712	0	32731	32751	32757	32674	32725	32831	32747	32567	
1713	0	32780	32831	32775	32743	32791	32775	32749	32647	
1714	0	32745	32802	32677	32541	32839	32783	32845	32844	
1715	0	32718	32711	32701	32805	32738	32839	32764	32727	
1716	0	32751	32711	32711	32767	32782	32807	32749	32701	
1717	0	32786	32733	32675	32511	32849	32723	32679	32567	
1718	0	32794	32773	32605	32662	32775	32743	32590	32583	
1719	0	32748	32737	32685	32684	32701	32690	32579	32573	
1720	0	32774	32775	32719	32753	32720	32701	32745	32645	
1721	0	32775	32732	32635	32743	32811	32627	32669	32691	
1722	0	32769	32762	32761	32583	32811	32659	32583	32637	
1723	0	32743	32831	32695	32743	32775	32767	32686	32405	
1724	0	32781	32772	32775	32685	32758	32743	32759	32628	
1725	0	32783	32855	32765	32715	32708	32759	32783	32729	
1726	0	32780	32805	32645	32479	32775	32741	32804	32644	
1727	0	32793	32815	32698	32739	32718	32770	32871	32594	
1728	0	32718	32839	32775	32759	32801	32927	32707	32737	
1729	0	32799	32775	32638	32615	32663	32799	32719	32775	
1730	0	32767	32683	32585	32711	32719	32705	32746	32669	
1731	0	32801	32793	32607	32745	32807	32842	32708	32743	
1732	0	32738	32759	32663	32612	32835	32727	32727	32556	
1733	0	32731	32796	32655	32679	32761	32706	32679	32587	
1734	0	32764	32775	32583	32559	32807	32615	32807	32583	
1735	0	32743	32735	32639	32638	32887	32749	32676	32676	
1736	0	32751	32727	32756	32671	32825	32775	32767	32588	
1737	0	32775	32766	32727	32665	32690	32615	32647	32660	
1738	0	32716	32754	32685	32515	32847	32764	32823	32668	
1739	0	32706	32804	32799	32615	32916	32749	32609	32679	
1740	0	32735	32743	32749	32703	32821	32687	32915	32647	
1741	0	32760	32709	32869	32703	32755	32771	32587	32581	
1742	0	32781	32786	32719	32695	32718	32783	32804	32615	
1743	0	32775	32763	32775	32645	32759	32863	32530	32623	
1744	0	32809	32730	32743	32598	32847	32722	32791	32645	
1745	0	32756	32757	32783	32491	32787	32887	32724	32775	
1746	0	32730	32799	32713	32717	32811	32850	32639	32687	
1747	0	32791	32761	32717	32719	32675	32689	32943	32647	
1748	0	32727	32831	32631	32675	32630	32850	32514	32719	
1749	0	32706	32791	32687	32674	32717	32893	32823	32605	
1750	0	32759	32831	32759	32695	32736	32711	32549	32603	
1751	0	32715	32831	32723	32711	32698	32683	32803	32591	
1752	0	32743	32747	32773	32579	32738	32733	32585	32607	
1753	0	32803	32812	32791	32603	32821	32796	32871	32659	
1754	0	32749	32795	32766	32697	32791	32693	32790	32775	
1755	0	32669	32854	32671	32631	32639	32759	32879	32757	
1756	0	32735	32766	32772	32691	32773	32775	32647	32775	
1757	0	32769	32815	32673	32719	32799	32815	32854	32807	
1758	0	32720	32793	32647	32781	32663	32735	32614	32615	
1759	0	32780	32721	32647	32699	32783	32732	32775	32765	
1760	0	32846	32762	32661	32611	32775	32870	32729	32775	
1761	0	32799	32806	32675	32647	32662	32843	32839	32749	
1762	0	32798	32753	32676	32759	32795	32775	32732	32743	
1763	0	32854	32785	32679	32660	32726	32731	32745	32679	
1764	0	32826	32823	32695	32775	32829	32775	32871	32705	
1765	0	32765	32890	32828	32741	32743	32827	32738	32719	
1766	0	32836	32795	32615	32563	32679	32759	32798	32751	
1767	0	32862	32861	32727	32576	32791	32725	32589	32709	
1768	0	32797	32785	32567	32691	32791	32791	32570	32671	
1769	0	32801	32775	32727	32655	32789	32702	32669	32765	
1770	0	32772	32708	32732	32743	32674	32749	32722	32743	
1771	0	32727	32795	32687	32557	32663	32722	32822	32547	
1772	0	32745	32727	32618	32729	32818	32821	32831	32796	
1773	0	32708	32805	32729	32791	32852	32831	32823	32612	
1774	0	32741	32877	32749	32671	32823	32771	32903	32647	
1775	0	32743	32807	32743	32695	32743	32827	32795	32603	
1776	0	32768	32775	32639	32798	32771	32722	32647	32655	
1777	0	32722	32723	32671	32759	32810	32623	32583	32671	
1778	0	32775	32751	32791	32733	32791	32722	32559	32612	
1779	0	32794	32829	32735	32639	32757	32791	32773	32647	
1780	0	32765	32756	32638	32741	32717	32703	32775	32541	
1781	0	32762	32695	32621	32700	32663	32771	32825	32621	
1782	0	32773	32655	32687	32475	32735	32711	32826	32517	
1783	0	32743	32763	32798	32636	32813	32711	32815	32610	
1784	0	32742	32727	32717	32706	32775	32701	32807	32775	
1785	0	32780	32694	32775	32655	32775	32676	32795	32690	
1786	0	32722	32641	32642	32729	32749	32807	32839	32706	
1787	0	32672	32626	32774	32738	32797	32811	32734	32607	
1788	0	32764	32723	32751	32743	32775	32807	32667	32706	
1789	0	32716	32751	32754	32679	32809	32735	32645	32521	
1790	0	32742	32687	32590	32636	32743	32815	32795	32695	
1791	0	32729	32613	32633	32709	32593	32767	32738	32647	
1792	0	32713	32591	32647	32655	32743	32931	32773	32719	
1793	0	32700	32763	32783	32639	32837	32763	32790	32783	
1794	0	32758	32700	32646	32743	32683	32871	32807	32711	
1795	0	32727	32751	32711	32547	32863	32863	32724	32825	
1796	0	32698	32733	32641	32703	32858	32694	32767	32735	
1797	0	32658	32791	32666	32755	32719	32823	32791	32735	
1798	0	32719	32775	32767	32527	32747	32731	32827	32659	
1799	0	32762	32767	32647	32434	32855	32724	32615	32615	
1800	0	32793	32727	32727	32622	32751	32647	32791	32631	
1801	0	32797	32817	32740	32687	32633	32769	32647	32692	
1802	0	32795	32833	32671	32679	32789	32867	32683	32615	
1803	0	32820	32885	32613	32758	32773	32844	32758	32635	
1804	0	32764	32833	32725	32718	32675	32757	32769	32725	
1805	0	32837	32932	32767	32527	32757	32726	32705	32679	
1806	0	32863	32847	32647	32615	32815	32718	32643	32637	
1807	0	32832	32919	32655	32679	32843	32743	32801	32591	
1808	0	32852	32875	32647	32742	32839	32725	32711	32721	
1809	0	32810	32865	32731	32607	32655	32747	32628	32743	
1810	0	32820	32875	32821	32515	32708	32791	32743	32767	
1811	0	32775	32881	32711	32498	32839	32759	32758	32643	
1812	0	32748	32919	32727	32605	32615	32687	32775	32770	
1813	0	32765	32854	32718	32731	32791	32819	32661	32705	
1814	0	32743	32927	32703	32718	32810	32807	32775	32731	
1815	0	32775	32831	32677	32692	32851	32708	32605	32740	
1816	0	32791	32851	32717	32679	32727	32783	32851	32639	
1817	0	32797	32765	32679	32542	32735	32850	32791	32660	
1818	0	32775	32803	32738	32474	32823	32775	32831	32699	
1819	0	32695	32749	32615	32580	32876	32740	32847	32669	
1820	0	32756	32771	32694	32705	32843	32751	32575	32540	
1821	0	32759	32751	32783	32685	32756	32749	32839	32561	
1822	0	32759	32830	32791	32714	32647	32667	32583	32595	
1823	0	32751	32863	32719	32710	32786	32763	32749	32573	
1824	0	32756	32775	32655	32615	32793	32821	32703	32604	
1825	0	32820	32775	32791	32719	32647	32726	32594	32759	
1826	0	32757	32716	32751	32711	32834	32775	32765	32727	
1827	0	32784	32850	32698	32660	32867	32791	32647	32686	
1828	0	32724	32835	32647	32711	32819	32737	32901	32727	
1829	0	32725	32767	32679	32727	32756	32735	32807	32725	
1830	0	32750	32853	32647	32609	32711	32775	32869	32668	
1831	0	32748	32815	32675	32589	32807	32803	32755	32607	
1832	0	32790	32855	32621	32647	32807	32683	32749	32659	
1833	0	32727	32788	32591	32693	32811	32767	32845	32705	
1834	0	32738	32871	32701	32682	32735	32811	32787	32723	
1835	0	32806	32791	32727	32706	32715	32813	32851	32775	
1836	0	32759	32821	32775	32579	32771	32717	32771	32658	
1837	0	32725	32771	32653	32491	32695	32867	32790	32727	
1838	0	32715	32775	32759	32623	32711	32795	32730	32711	
1839	0	32736	32759	32695	32745	32733	32775	32799	32667	
1840	0	32708	32771	32669	32750	32772	32715	32759	32551	
1841	0	32801	32767	32580	32693	32751	32739	32742	32514	
1842	0	32777	32756	32775	32775	32683	32743	32761	32621	
1843	0	32839	32742	32821	32631	32588	32743	32605	32825	
1844	0	32773	32751	32743	32660	32759	32825	32855	32783	
1845	0	32735	32807	32629	32775	32782	32853	32736	32699	
1846	0	32775	32854	32799	32735	32617	32879	32819	32762	
1847	0	32807	32782	32795	32687	32817	32714	32715	32727	
1848	0	32775	32823	32759	32671	32647	32763	32580	32675	
1849	0	32733	32803	32692	32519	32804	32884	32809	32685	
1850	0	32724	32829	32733	32581	32849	32727	32775	32702	
1851	0	32750	32773	32679	32711	32660	32751	32821	32690	
1852	0	32765	32775	32719	32690	32869	32743	32756	32734	
1853	0	32703	32875	32609	32674	32735	32829	32839	32719	
1854	0	32743	32751	32721	32638	32863	32753	32783	32723	
1855	0	32698	32815	32663	32623	32764	32731	32961	32723	
1856	0	32743	32853	32647	32725	32844	32841	32860	32807	
1857	0	32738	32771	32671	32667	32834	32740	32742	32727	
1858	0	32744	32836	32645	32579	32835	32827	32773	32691	
1859	0	32686	32795	32519	32590	32815	32755	32647	32707	
1860	0	32745	32805	32722	32643	32823	32807	32723	32803	
1861	0	32793	32805	32747	32763	32621	32837	32695	32869	
1862	0	32812	32740	32534	32747	32818	32847	32735	32834	
1863	0	32879	32735	32718	32743	32748	32823	32773	32775	
1864	0	32846	32686	32797	32719	32667	32790	32789	32827	
1865	0	32839	32642	32643	32692	32735	32750	32623	32758	
1866	0	32813	32705	32748	32713	32759	32821	32751	32697	
1867	0	32766	32666	32748	32805	32679	32743	32578	32695	
1868	0	32750	32722	32645	32743	32738	32815	32749	32702	
1869	0	32769	32775	32647	32589	32755	32775	32541	32711	
1870	0	32757	32742	32647	32607	32775	32719	32807	32678	
1871	0	32735	32815	32687	32671	32802	32837	32550	32647	
1872	0	32729	32691	32775	32710	32775	32687	32733	32703	
1873	0	32711	32695	32787	32647	32691	32721	32517	32647	
1874	0	32625	32663	32847	32587	32637	32761	32763	32551	
1875	0	32639	32676	32807	32543	32723	32825	32635	32791	
1876	0	32569	32677	32845	32391	32702	32793	32460	32767	
1877	0	32564	32722	32887	32357	32659	32647	32607	32643	
1878	0	32594	32735	32935	32463	32609	32758	32553	32599	
1879	0	32594	32707	32923	32495	32527	32791	32565	32519	
1880	0	32583	32791	32951	32532	32659	32733	32532	32567	
1881	0	32575	32739	32971	32443	32613	32639	32503	32657	
1882	0	32647	32799	32838	32487	32579	32693	32553	32673	
1883	0	32665	32725	32831	32489	32711	32715	32564	32751	
1884	0	32647	32638	32879	32413	32679	32759	32573	32647	
1885	0	32765	32667	32964	32429	32643	32717	32595	32577	
1886	0	32793	32646	32867	32463	32793	32678	32695	32455	
1887	0	32788	32701	32822	32491	32767	32693	32575	32391	
1888	0	32766	32636	32773	32630	32775	32707	32791	32559	
1889	0	32775	32685	32835	32645	32801	32595	32737	32671	
1890	0	32764	32623	32759	32628	32847	32647	32927	32674	
1891	0	32751	32719	32794	32687	32873	32631	32902	32551	
1892	0	32809	32719	32661	32807	32791	32629	32989	32543	
1893	0	32751	32812	32645	32715	32948	32714	33055	32607	
1894	0	32751	32733	32751	32635	32998	32753	32981	32609	
1895	0	32797	32861	32645	32893	33021	32763	33123	32623	
1896	0	32847	32903	32540	33047	33055	32809	32989	32702	
1897	0	32862	32900	32631	32927	32979	32823	33300	32647	
1898	0	32896	32939	32375	32948	32956	32867	33175	32647	
1899	0	32982	32947	32415	32955	33126	32806	33343	32638	
1900	0	32985	33019	32335	32979	33133	32826	33199	32601	
1901	0	33096	32974	32380	32943	33159	32751	33213	32738	
1902	0	33180	32900	32366	32791	33039	32749	33391	32519	
1903	0	33235	32775	32391	32795	33131	32798	33323	32507	
1904	0	33225	32821	32412	32851	33200	32735	33323	32640	
1905	0	33194	32838	32423	32835	33039	32687	33090	32583	
1906	0	33135	32817	32527	32839	32966	32695	33030	32636	
1907	0	33159	32839	32423	33061	32983	32743	32939	32799	
1908	0	33133	32927	32373	33065	32996	32850	33107	32797	
1909	0	33089	32847	32388	33017	32924	32855	32919	32859	
1910	0	32997	32819	32535	32969	32855	32781	32919	32943	
1911	0	32887	32801	32647	32963	32935	32803	32711	32919	
1912	0	32826	32783	32763	32742	32815	32846	32837	32898	
1913	0	32735	32911	32756	32741	32543	32903	32556	32775	
1914	0	32715	32807	32764	32822	32692	32813	32727	32799	
1915	0	32655	32786	32794	32669	32711	32733	32663	32767	
1916	0	32571	32806	32855	32619	32546	32759	32591	32796	
1917	0	32502	32679	32923	32453	32547	32775	32359	32723	
1918	0	32493	32699	32789	32365	32588	32787	32623	32693	
1919	0	32519	32655	32747	32335	32660	32673	32487	32667	
1920	0	32535	32636	32770	32355	32589	32719	32540	32762	
1921	0	32538	32735	32791	32511	32460	32873	32436	32718	
1922	0	32541	32719	32754	32407	32578	32837	32451	32759	
1923	0	32514	32775	32839	32469	32487	32823	32378	32663	
1924	0	32487	32773	32823	32343	32508	32788	32431	32701	
1925	0	32471	32743	32939	32417	32551	32815	32463	32773	
1926	0	32541	32771	32916	32481	32495	32727	32457	32775	
1927	0	32516	32749	32877	32359	32487	32823	32631	32583	
1928	0	32576	32801	32811	32570	32503	32759	32511	32803	
1929	0	32561	32823	32823	32526	32508	32807	32402	32806	
1930	0	32598	32869	32739	32423	32527	32759	32332	32615	
1931	0	32647	32829	32887	32623	32585	32759	32495	32751	
1932	0	32644	32903	32763	32647	32627	32853	32559	32839	
1933	0	32638	32951	32847	32519	32677	32864	32543	32749	
1934	0	32670	32895	32843	32695	32547	32846	32595	32818	
1935	0	32677	32843	32783	32614	32540	32759	32615	32611	
1936	0	32783	32839	32820	32655	32647	32795	32658	32731	
1937	0	32744	32879	32660	32675	32679	32783	32723	32799	
1938	0	32775	32826	32713	32581	32751	32719	32821	32612	
1939	0	32804	32812	32599	32791	32790	32775	32785	32681	
1940	0	32812	32787	32669	32756	32759	32833	32687	32643	
1941	0	32828	32765	32578	32775	32789	32772	32637	32559	
1942	0	32820	32701	32685	32709	32807	32743	32791	32723	
1943	0	32826	32723	32599	32719	32945	32679	32811	32693	
1944	0	32850	32706	32742	32727	32941	32740	32837	32549	
1945	0	32854	32799	32625	32518	32941	32821	32919	32703	
1946	0	32835	32831	32705	32690	32883	32805	32895	32790	
1947	0	32850	32845	32775	32575	32945	32747	32893	32583	
1948	0	32788	32769	32662	32791	32914	32708	32869	32611	
1949	0	32796	32771	32724	32700	32919	32804	32751	32693	
1950	0	32793	32715	32575	32503	32903	32661	32647	32655	
1951	0	32786	32703	32711	32735	32827	32775	32671	32727	
1952	0	32775	32759	32658	32619	32689	32727	32711	32563	
1953	0	32810	32759	32743	32549	32726	32849	32812	32743	
1954	0	32790	32730	32767	32690	32775	32854	32793	32581	
1955	0	32719	32775	32718	32666	32663	32759	32855	32556	
1956	0	32769	32745	32736	32647	32775	32724	32770	32798	
1957	0	32723	32855	32786	32711	32839	32647	32862	32559	
1958	0	32726	32807	32645	32770	32763	32671	32663	32582	
1959	0	32793	32823	32647	32645	32853	32745	32828	32514	
1960	0	32775	32831	32647	32668	32830	32735	32703	32447	
1961	0	32684	32773	32765	32671	32875	32799	32807	32507	
1962	0	32724	32827	32703	32655	32718	32747	32871	32549	
1963	0	32735	32785	32711	32531	32810	32647	32723	32579	
1964	0	32775	32735	32725	32479	32871	32757	32871	32500	
1965	0	32767	32711	32722	32600	32673	32718	32805	32499	
1966	0	32785	32813	32689	32599	32797	32743	32863	32493	
1967	0	32765	32731	32743	32643	32674	32735	32589	32581	
1968	0	32719	32757	32687	32607	32772	32737	32757	32703	
1969	0	32752	32807	32721	32711	32748	32818	32607	32597	
1970	0	32780	32738	32709	32759	32628	32807	32831	32684	
1971	0	32811	32839	32692	32764	32751	32933	32647	32788	
1972	0	32893	32799	32753	32821	32633	32847	32743	32745	
1973	0	32810	32775	32635	32723	32766	32799	32833	32677	
1974	0	32830	32729	32643	32743	32687	32671	32599	32647	
1975	0	32831	32825	32709	32727	32734	32647	32807	32669	
1976	0	32783	32881	32621	32743	32783	32719	32679	32663	
1977	0	32842	32687	32687	32731	32807	32765	32810	32735	
1978	0	32824	32747	32727	32679	32819	32763	32862	32749	
1979	0	32791	32805	32711	32655	32749	32807	32807	32738	
1980	0	32803	32756	32773	32763	32846	32708	32787	32759	
1981	0	32724	32783	32711	32841	32825	32691	32714	32759	
1982	0	32766	32845	32715	32834	32631	32743	32863	32583	
1983	0	32750	32769	32667	32751	32823	32795	32786	32613	
1984	0	32742	32845	32751	32655	32827	32833	32841	32631	
1985	0	32758	32723	32799	32555	32691	32711	32658	32622	
1986	0	32801	32770	32715	32459	32835	32713	32865	32639	
1987	0	32743	32775	32806	32535	32835	32796	32621	32611	
1988	0	32799	32771	32719	32555	32636	32775	32839	32543	
1989	0	32732	32786	32636	32564	32820	32786	32615	32732	
1990	0	32657	32729	32655	32669	32835	32679	32803	32749	
1991	0	32663	32771	32713	32631	32687	32661	32735	32709	
1992	0	32671	32787	32615	32647	32843	32655	32715	32775	
1993	0	32668	32796	32662	32671	32811	32773	32805	32647	
1994	0	32734	32711	32711	32679	32679	32815	32642	32615	
1995	0	32737	32743	32575	32626	32847	32826	32811	32583	
1996	0	32794	32731	32748	32687	32783	32807	32647	32503	
1997	0	32750	32726	32647	32677	32855	32774	32735	32505	
1998	0	32743	32751	32757	32719	32625	32759	32784	32541	
1999	0	32787	32797	32735	32773	32758	32743	32799	32661	
2000	0	32743	32695	32663	32709	32706	32691	32871	32719	
2001	0	32814	32751	32749	32723	32877	32742	32607	32685	
2002	0	32772	32839	32647	32723	32639	32747	32799	32679	
2003	0	32719	32807	32719	32775	32774	32818	32621	32703	
2004	0	32740	32787	32735	32722	32707	32815	32775	32749	
2005	0	32759	32823	32703	32671	32687	32843	32583	32694	
2006	0	32791	32775	32727	32575	32767	32847	32823	32749	
2007	0	32704	32839	32759	32485	32751	32815	32639	32707	
2008	0	32723	32863	32679	32461	32803	32773	32773	32719	
2009	0	32791	32765	32761	32455	32626	32706	32733	32683	
2010	0	32775	32742	32765	32599	32807	32775	32833	32647	
2011	0	32773	32813	32621	32687	32721	32725	32601	32706	
2012	0	32711	32751	32807	32673	32761	32797	32802	32661	
2013	0	32756	32829	32775	32663	32647	32775	32679	32599	
2014	0	32847	32813	32711	32487	32786	32851	32839	32655	
2015	0	32805	32771	32725	32479	32797	32730	32823	32742	
2016	0	32793	32715	32655	32519	32815	32671	32729	32797	
2017	0	32775	32807	32743	32633	32610	32647	32746	32790	
2018	0	32751	32820	32692	32844	32834	32795	32726	32748	
2019	0	32743	32739	32647	32884	32775	32811	32787	32613	
2020	0	32743	32798	32719	32873	32727	32791	32747	32548	
2021	0	32734	32791	32722	32887	32738	32807	32865	32525	
2022	0	32824	32699	32629	32759	32843	32775	32757	32749	
2023	0	32855	32733	32751	32641	32863	32695	32775	32692	
2024	0	32870	32724	32733	32663	32783	32719	32761	32703	
2025	0	32790	32815	32674	32735	32771	32775	32711	32711	
2026	0	32850	32815	32647	32703	32711	32758	32799	32711	
2027	0	32810	32769	32647	32614	32835	32791	32687	32683	
2028	0	32825	32799	32634	32675	32796	32785	32738	32724	
2029	0	32780	32834	32707	32589	32827	32775	32742	32787	
2030	0	32831	32775	32775	32613	32621	32698	32743	32732	
2031	0	32822	32748	32690	32567	32791	32743	32765	32819	
2032	0	32820	32799	32775	32590	32737	32823	32709	32822	
2033	0	32805	32757	32791	32647	32775	32795	32799	32645	
2034	0	32831	32745	32647	32743	32703	32773	32734	32835	
2035	0	32766	32803	32796	32751	32791	32775	32897	32789	
2036	0	32783	32810	32743	32819	32862	32747	32791	32677	
2037	0	32748	32804	32719	32769	32679	32663	32913	32615	
2038	0	32793	32815	32750	32738	32705	32687	32613	32511	
2039	0	32775	32743	32639	32645	32725	32714	32787	32572	
2040	0	32804	32755	32751	32586	32871	32829	32709	32679	
2041	0	32793	32751	32775	32620	32727	32806	32837	32691	
2042	0	32758	32762	32604	32685	32861	32751	32876	32687	
2043	0	32745	32671	32615	32632	32855	32847	32605	32731	
2044	0	32727	32745	32655	32695	32692	32775	32869	32759	
2045	0	32796	32743	32575	32690	32767	32732	32629	32743	
2046	0	32775	32727	32668	32687	32807	32775	32750	32711	
2047	0	32830	32773	32677	32575	32647	32794	32556	32559	
2048	0	32711	32791	32646	32487	32815	32815	32811	32579	
2049	0	32742	32799	32687	32519	32791	32846	32687	32583	
2050	0	32771	32854	32764	32559	32635	32687	32775	32559	
2051	0	32765	32831	32679	32587	32815	32705	32717	32532	
2052	0	32757	32823	32767	32662	32807	32827	32805	32563	
2053	0	32743	32883	32759	32685	32647	32815	32813	32561	
2054	0	32711	32847	32635	32663	32830	32838	32802	32567	
2055	0	32708	32807	32725	32667	32735	32754	32863	32643	
2056	0	32743	32783	32692	32695	32671	32783	32578	32598	
2057	0	32745	32771	32807	32717	32789	32735	32785	32591	
2058	0	32708	32746	32873	32713	32767	32753	32583	32628	
2059	0	32770	32803	32711	32725	32726	32768	32775	32717	
2060	0	32766	32886	32703	32647	32621	32827	32852	32623	
2061	0	32766	32787	32747	32587	32836	32839	32789	32647	
2062	0	32729	32735	32749	32683	32797	32757	32787	32660	
2063	0	32775	32817	32787	32742	32821	32799	32615	32711	
2064	0	32703	32818	32609	32714	32873	32807	32810	32734	
2065	0	32742	32758	32739	32583	32841	32767	32628	32684	
2066	0	32743	32795	32733	32563	32647	32676	32787	32647	
2067	0	32708	32831	32647	32595	32765	32633	32711	32687	
2068	0	32749	32731	32691	32487	32749	32583	32751	32717	
2069	0	32735	32771	32799	32555	32709	32712	32631	32711	
2070	0	32751	32815	32647	32671	32827	32735	32731	32762	
2071	0	32803	32755	32809	32775	32879	32775	32692	32820	
2072	0	32813	32767	32835	32645	32717	32790	32803	32751	
2073	0	32759	32773	32655	32615	32785	32723	32721	32679	
2074	0	32773	32695	32739	32590	32875	32740	32775	32687	
2075	0	32788	32803	32647	32631	32679	32791	32759	32737	
2076	0	32794	32728	32591	32751	32775	32808	32739	32711	
2077	0	32807	32818	32673	32797	32757	32839	32715	32645	
2078	0	32775	32871	32703	32751	32629	32835	32757	32645	
2079	0	32764	32855	32635	32877	32751	32775	32887	32639	
2080	0	32806	32764	32669	32885	32773	32748	32775	32621	
2081	0	32775	32786	32605	32839	32749	32719	32814	32683	
2082	0	32782	32761	32572	32757	32677	32775	32659	32699	
2083	0	32792	32638	32679	32665	32855	32721	32836	32703	
2084	0	32782	32759	32663	32662	32871	32751	32751	32721	
2085	0	32818	32797	32763	32684	32671	32635	32791	32754	
2086	0	32844	32786	32740	32639	32807	32431	32822	32557	
2087	0	32834	32751	32642	32543	32783	32397	32717	32619	
2088	0	32813	32775	32759	32470	32653	32525	32786	32599	
2089	0	32717	32738	32769	32577	32791	32545	32743	32767	
2090	0	32745	32711	32737	32643	32725	32709	32745	32621	
2091	0	32753	32846	32879	32676	32813	32745	32759	32633	
2092	0	32740	32757	32645	32567	32657	32847	32853	32631	
2093	0	32797	32739	32663	32757	32767	32743	32767	32597	
2094	0	32751	32726	32695	32805	32799	32775	32918	32723	
2095	0	32745	32829	32615	32775	32647	32788	32615	32589	
2096	0	32756	32767	32662	32647	32817	32787	32868	32593	
2097	0	32728	32759	32687	32607	32801	32943	32613	32789	
2098	0	32758	32767	32642	32589	32703	32858	32830	32753	
2099	0	32698	32708	32753	32599	32812	32751	32647	32764	
2100	0	32757	32767	32684	32519	32727	32883	32623	32805	
2101	0	32804	32813	32727	32620	32871	32806	32795	32775	
2102	0	32818	32859	32717	32702	32807	32739	32613	32727	
2103	0	32787	32767	32628	32742	32655	32791	32729	32749	
2104	0	32775	32775	32761	32701	32823	32890	32575	32719	
2105	0	32804	32762	32756	32769	32799	32975	32804	32769	
2106	0	32837	32787	32677	32812	32687	32823	32637	32809	
2107	0	32815	32775	32742	32621	32818	32763	32815	32711	
2108	0	32767	32775	32719	32558	32703	32887	32562	32637	
2109	0	32775	32812	32697	32519	32719	32827	32804	32775	
2110	0	32756	32879	32697	32607	32791	32901	32714	32709	
2111	0	32763	32772	32821	32799	32887	32751	32711	32658	
2112	0	32811	32887	32815	32751	32647	32717	32739	32659	
2113	0	32775	32834	32709	32711	32742	32759	32713	32715	
2114	0	32794	32775	32734	32647	32794	32831	32809	32679	
2115	0	32807	32787	32762	32685	32711	32767	32657	32611	
2116	0	32833	32687	32743	32564	32717	32756	32791	32679	
2117	0	32743	32775	32598	32591	32604	32830	32607	32703	
2118	0	32751	32659	32731	32806	32811	32767	32786	32719	
2119	0	32783	32788	32675	32711	32699	32799	32737	32599	
2120	0	32769	32726	32754	32639	32687	32727	32817	32517	
2121	0	32739	32751	32635	32693	32821	32789	32799	32525	
2122	0	32717	32815	32823	32725	32727	32767	32841	32541	
2123	0	32617	32754	32797	32660	32831	32841	32861	32598	
2124	0	32690	32781	32743	32541	32827	32771	32726	32739	
2125	0	32694	32699	32727	32535	32715	32700	32819	32732	
2126	0	32687	32683	32735	32565	32876	32707	32671	32741	
2127	0	32694	32811	32743	32527	32692	32830	32743	32775	
2128	0	32742	32817	32588	32578	32807	32815	32754	32795	
2129	0	32755	32751	32695	32655	32791	32805	32775	32767	
2130	0	32711	32850	32679	32748	32671	32775	32739	32825	
2131	0	32684	32756	32639	32783	32807	32719	32788	32797	
2132	0	32719	32791	32675	32671	32827	32719	32615	32721	
2133	0	32735	32775	32647	32694	32687	32804	32795	32748	
2134	0	32844	32739	32623	32697	32775	32831	32613	32775	
2135	0	32815	32775	32679	32643	32845	32842	32806	32726	
2136	0	32756	32743	32700	32572	32803	32738	32594	32666	
2137	0	32775	32731	32645	32569	32791	32751	32795	32655	
2138	0	32783	32791	32703	32607	32891	32819	32623	32719	
2139	0	32812	32743	32697	32594	32787	32772	32903	32603	
2140	0	32813	32821	32724	32711	32801	32788	32797	32490	
2141	0	32814	32875	32726	32663	32807	32677	32799	32556	
2142	0	32759	32798	32658	32694	32847	32717	32755	32564	
2143	0	32751	32801	32663	32607	32715	32697	32740	32514	
2144	0	32743	32797	32639	32607	32862	32734	32759	32493	
2145	0	32818	32775	32695	32675	32701	32716	32845	32621	
2146	0	32855	32786	32740	32663	32859	32722	32602	32693	
2147	0	32874	32803	32626	32727	32711	32759	32815	32673	
