# OpenSignals Text File Format
# {"00:07:80:64:6D:DA": {"sensor": ["CUSTOM/0.5/1.0/V", "CUSTOM/0.5/1.0/V", "CUSTOM/0.5/1.0/V", "CUSTOM/0.5/1.0/V"], "device name": "Plataforma", "column": ["nSeq", "DI", "CH1", "CH2", "CH3", "CH4"], "sync interval": 2, "time": "11:20:23.521", "comments": "", "device connection": "BTH00:07:80:64:6D:DA", "channels": [1, 2, 3, 4], "date": "2017-6-2", "mode": 0, "digital IO": [0, 1], "firmware version": 772, "device": "biosignalsplux", "position": 0, "sampling rate": 1000, "label": ["CH1", "CH2", "CH3", "CH4"], "resolution": [16, 16, 16, 16], "special": [{}, {}, {}, {}]}, "00:07:80:3B:46:38": {"sensor": ["CUSTOM/0.5/1.0/V", "CUSTOM/0.5/1.0/V", "CUSTOM/0.5/1.0/V", "CUSTOM/0.5/1.0/V", "CUSTOM/0.5/1.0/V", "CUSTOM/0.5/1.0/V", "CUSTOM/0.5/1.0/V", "CUSTOM/0.5/1.0/V"], "device name": "EMGs", "column": ["nSeq", "DI", "RA_L", "RA_R", "OE_L", "OE:R", "IL_L", "IL_R", "MF_L", "MF_R"], "sync interval": 2, "time": "11:20:23.521", "comments": "", "device connection": "BTH00:07:80:3B:46:38", "channels": [1, 2, 3, 4, 5, 6, 7, 8], "date": "2017-6-2", "mode": 0, "digital IO": [0, 1], "firmware version": 772, "device": "biosignalsplux", "position": 1, "sampling rate": 1000, "label": ["RA_L", "RA_R", "OE_L", "OE:R", "IL_L", "IL_R", "MF_L", "MF_R"], "resolution": [16, 16, 16, 16, 16, 16, 16, 16], "special": [{}, {}, {}, {}, {}, {}, {}, {}]}}
# EndOfHeader
2045	0	3191	5224	4200	6846	0	0	32759	32755	32402	32827	32756	32787	32655	32781	
2046	0	3180	5270	4219	6838	1	0	32688	32763	32565	32725	32703	32743	32743	32775	
2047	0	3185	5290	4232	6856	2	0	32761	32715	32629	32750	32759	32607	32635	32709	
2048	0	3185	5226	4184	6794	3	0	32823	32717	32640	32717	32733	32727	32706	32799	
2049	0	3160	5273	4221	6822	4	0	32794	32606	32532	32598	32819	32800	32555	32767	
2050	0	3141	5256	4136	6833	5	0	32833	32623	32592	32427	32722	32715	32615	32763	
2051	0	3173	5258	4182	6860	6	0	32749	32628	32431	32462	32715	32749	32709	32623	
2052	0	3177	5233	4154	6806	7	0	32729	32639	32227	32374	32765	32761	32734	32674	
2053	0	3168	5268	4186	6812	8	0	32725	32679	32345	32283	32765	32759	32599	32732	
2054	0	3161	5267	4155	6840	9	0	32699	32803	32245	32177	32687	32690	32676	32725	
2055	0	3179	5260	4187	6823	10	0	32613	32900	32330	32519	32765	32573	32759	32729	
2056	0	3138	5255	4198	6874	11	0	32767	32815	32439	32775	32830	32598	32767	32743	
2057	0	3144	5251	4200	6829	12	0	32676	32783	32591	32643	32747	32596	32532	32749	
2058	0	3186	5258	4221	6832	13	0	32663	32845	32755	32551	32662	32811	32676	32895	
2059	0	3178	5274	4140	6858	14	0	32711	32765	32691	32951	32686	32767	32709	32759	
2060	0	3155	5272	4152	6796	15	0	32719	32679	32503	33235	32805	32809	32714	32789	
2061	0	3192	5249	4172	6820	16	0	32744	32539	32527	33207	32733	32866	32707	32775	
2062	0	3173	5286	4166	6882	17	0	32741	32598	32403	33383	32748	32709	32543	32714	
2063	0	3180	5237	4206	6834	18	0	32740	32679	32635	33495	32755	32633	32689	32751	
2064	0	3173	5298	4149	6854	19	0	32784	32735	32885	33527	32721	32634	32729	32732	
2065	0	3156	5269	4167	6827	20	0	32841	32670	32903	33031	32708	32543	32789	32807	
2066	0	3192	5253	4173	6749	21	0	32799	32669	32895	32867	32695	32715	32547	32747	
2067	0	3150	5270	4195	6774	22	0	32805	32631	32805	32719	32711	32754	32679	32731	
2068	0	3159	5252	4227	6812	23	0	32836	32679	32930	32539	32685	32743	32636	32821	
2069	0	3150	5252	4194	6816	24	0	32775	32675	32823	32519	32691	32756	32658	32832	
2070	0	3174	5232	4182	6787	25	0	32783	32743	32669	32362	32755	32838	32525	32815	
2071	0	3166	5257	4153	6797	26	0	32869	32807	32919	32203	32767	32850	32743	32755	
2072	0	3175	5268	4162	6790	27	0	32821	32837	32733	32143	32807	32821	32788	32703	
2073	0	3176	5288	4187	6820	28	0	32719	32811	32941	32254	32775	32717	32631	32750	
2074	0	3140	5290	4158	6780	29	0	32674	32903	32954	32423	32711	32735	32721	32757	
2075	0	3170	5284	4184	6798	30	0	32694	32847	33009	32821	32759	32605	32755	32835	
2076	0	3156	5297	4188	6766	31	0	32763	32833	32893	33159	32762	32628	32607	32799	
2077	0	3204	5246	4172	6816	32	0	32742	32723	32502	33565	32703	32637	32711	32843	
2078	0	3141	5245	4161	6792	33	0	32706	32743	32687	33607	32684	32607	32827	32749	
2079	0	3131	5280	4200	6821	34	0	32775	32687	32518	33523	32655	32813	32587	32682	
2080	0	3152	5278	4178	6826	35	0	32769	32602	32435	33641	32735	32807	32692	32735	
2081	0	3135	5323	4211	6837	36	0	32758	32622	32390	33393	32627	32735	32683	32793	
2082	0	3140	5313	4230	6790	37	0	32727	32646	32343	33101	32612	32771	32647	32807	
2083	0	3161	5292	4233	6780	38	0	32743	32626	32685	32903	32805	32799	32699	32719	
2084	0	3190	5353	4250	6825	39	0	32731	32486	32543	32771	32747	32799	32663	32791	
2085	0	3162	5311	4225	6800	40	0	32703	32711	32421	32570	32697	32775	32559	32755	
2086	0	3186	5320	4243	6810	41	0	32759	32767	32507	32347	32727	32793	32687	32749	
2087	0	3133	5312	4238	6823	42	0	32781	32679	32303	32495	32781	32807	32758	32775	
2088	0	3172	5291	4201	6796	43	0	32736	32537	32365	32515	32798	32890	32527	32903	
2089	0	3134	5332	4228	6820	44	0	32749	32487	32485	32420	32767	32839	32677	32871	
2090	0	3192	5344	4274	6820	45	0	32726	32592	32734	32435	32786	32663	32647	32747	
2091	0	3148	5348	4212	6801	46	0	32730	32694	32771	32518	32681	32590	32731	32679	
2092	0	3150	5316	4268	6789	47	0	32873	32788	32693	32461	32677	32609	32583	32667	
2093	0	3163	5306	4225	6742	48	0	32839	32791	32837	32553	32695	32759	32693	32796	
2094	0	3210	5318	4258	6825	49	0	32781	32725	32671	32695	32698	32809	32647	32786	
2095	0	3147	5294	4264	6820	50	0	32818	32659	32765	32738	32655	32843	32690	32679	
2096	0	3123	5320	4264	6802	51	0	32818	32667	32683	32799	32727	32883	32510	32663	
2097	0	3172	5380	4256	6789	52	0	32743	32647	32903	32930	32719	32723	32679	32767	
2098	0	3110	5284	4257	6776	53	0	32727	32655	32933	32863	32717	32623	32647	32815	
2099	0	3161	5337	4265	6816	54	0	32814	32719	33047	32722	32692	32596	32775	32771	
2100	0	3160	5322	4219	6788	55	0	32726	32807	33031	32820	32731	32791	32603	32773	
2101	0	3187	5363	4233	6800	56	0	32705	32845	32946	32771	32806	32772	32695	32807	
2102	0	3188	5345	4284	6822	57	0	32694	32818	32903	32543	32749	32742	32775	32789	
2103	0	3168	5310	4234	6761	58	0	32762	32811	32892	32529	32784	32839	32699	32753	
2104	0	3204	5364	4268	6777	59	0	32827	32775	32671	32370	32795	32685	32674	32818	
2105	0	3108	5380	4258	6804	60	0	32788	32809	32602	32539	32715	32576	32519	32813	
2106	0	3172	5307	4274	6812	61	0	32748	32787	32404	32450	32667	32783	32695	32763	
2107	0	3132	5356	4257	6764	62	0	32660	32727	32655	32525	32689	32850	32630	32749	
2108	0	3202	5328	4289	6788	63	0	32716	32619	32487	32482	32703	32815	32743	32735	
2109	0	3224	5360	4259	6760	64	0	32806	32623	32507	32231	32703	32893	32643	32799	
2110	0	3140	5320	4230	6798	65	0	32748	32775	32391	32323	32708	32804	32735	32815	
2111	0	3188	5323	4280	6778	66	0	32783	32731	32525	32509	32855	32713	32719	32817	
2112	0	3180	5348	4242	6823	67	0	32835	32727	32487	32881	32732	32621	32727	32815	
2113	0	3186	5326	4254	6760	68	0	32861	32739	32335	33089	32715	32559	32517	32817	
2114	0	3169	5320	4232	6756	69	0	32711	32671	32378	33231	32785	32759	32642	32793	
2115	0	3160	5317	4223	6758	70	0	32681	32607	32391	33127	32819	32735	32829	32713	
2116	0	3166	5320	4266	6819	71	0	32681	32647	32683	32943	32801	32713	32743	32629	
2117	0	3136	5360	4275	6762	72	0	32743	32647	32729	32845	32735	32719	32711	32671	
2118	0	3192	5319	4237	6757	73	0	32814	32775	32679	32623	32695	32712	32715	32689	
2119	0	3163	5356	4277	6755	74	0	32856	32743	32647	32519	32731	32767	32501	32757	
2120	0	3147	5331	4284	6774	75	0	32823	32621	32426	32543	32753	32773	32759	32725	
2121	0	3118	5285	4289	6766	76	0	32775	32639	32644	32709	32775	32631	32659	32714	
2122	0	3175	5331	4218	6737	77	0	32781	32564	32423	32693	32711	32591	32715	32713	
2123	0	3171	5317	4268	6738	78	0	32813	32591	32503	32703	32683	32655	32570	32695	
2124	0	3152	5354	4290	6754	79	0	32863	32658	32319	32631	32701	32807	32738	32743	
2125	0	3109	5328	4261	6769	80	0	32835	32647	32527	32707	32663	32775	32647	32732	
2126	0	3136	5343	4212	6766	81	0	32807	32703	32434	32549	32694	32765	32730	32745	
2127	0	3123	5337	4254	6776	82	0	32827	32647	32573	32719	32694	32903	32613	32775	
2128	0	3197	5342	4282	6744	83	0	32840	32767	32609	32797	32637	32887	32719	32835	
2129	0	3157	5342	4255	6737	84	0	32775	32773	32775	32833	32687	32869	32832	32751	
2130	0	3144	5304	4240	6754	85	0	32796	32759	32756	32823	32787	32891	32633	32694	
2131	0	3125	5351	4254	6758	86	0	32715	32716	32631	32826	32751	32822	32767	32738	
2132	0	3126	5361	4284	6763	87	0	32751	32709	32855	32803	32799	32823	32771	32727	
2133	0	3144	5334	4244	6741	88	0	32745	32695	32727	32815	32775	32699	32565	32739	
2134	0	3122	5302	4201	6745	89	0	32806	32711	32436	32850	32742	32751	32675	32796	
2135	0	3146	5352	4216	6773	90	0	32739	32663	32567	32898	32626	32714	32685	32854	
2136	0	3137	5373	4260	6749	91	0	32758	32711	32431	32797	32647	32635	32453	32842	
2137	0	3125	5347	4276	6760	92	0	32674	32834	32611	32829	32699	32583	32671	32726	
2138	0	3174	5328	4241	6734	93	0	32663	32725	32399	32803	32679	32783	32661	32692	
2139	0	3106	5320	4214	6758	94	0	32607	32687	32483	32679	32711	32751	32530	32756	
2140	0	3114	5331	4296	6746	95	0	32660	32783	32508	32644	32726	32749	32717	32775	
2141	0	3157	5335	4281	6752	96	0	32696	32751	32663	32591	32700	32775	32657	32759	
2142	0	3134	5340	4208	6726	97	0	32658	32647	32955	32775	32647	32843	32549	32815	
2143	0	3143	5384	4245	6734	98	0	32650	32699	33151	32695	32747	32735	32731	32759	
2144	0	3127	5336	4251	6754	99	0	32716	32614	33159	32547	32647	32791	32703	32739	
2145	0	3150	5304	4260	6730	100	0	32694	32574	33019	32683	32727	32804	32807	32819	
2146	0	3115	5360	4199	6752	101	0	32719	32667	32719	32647	32729	32679	32631	32845	
2147	0	3129	5318	4224	6792	102	0	32791	32743	32662	32594	32671	32647	32875	32791	
2148	0	3117	5343	4248	6732	103	0	32778	32743	32517	32631	32719	32655	32767	32711	
2149	0	3080	5361	4248	6718	104	0	32818	32763	32474	32927	32695	32799	32603	32692	
2150	0	3140	5364	4255	6779	105	0	32839	32946	32417	32981	32623	32713	32727	32749	
2151	0	3131	5356	4268	6729	106	0	32831	32938	32451	32910	32630	32711	32716	32775	
2152	0	3098	5322	4272	6732	107	0	32807	32821	32739	32947	32635	32767	32519	32743	
2153	0	3148	5372	4255	6712	108	0	32848	32775	32739	33043	32655	32819	32678	32763	
2154	0	3116	5384	4244	6701	109	0	32717	32695	32511	33063	32647	32821	32715	32821	
2155	0	3096	5339	4253	6701	110	0	32725	32621	32470	33106	32615	32877	32589	32711	
2156	0	3120	5363	4288	6733	111	0	32740	32647	32270	32903	32726	32871	32759	32791	
2157	0	3152	5341	4260	6745	112	0	32761	32679	32391	32639	33207	32734	32735	32797	
2158	0	3176	5371	4260	6699	113	0	32772	32787	32381	32682	33107	32631	32796	32815	
2159	0	3124	5352	4296	6680	114	0	32791	32751	32590	32743	32775	32681	32545	32775	
2160	0	3107	5378	4296	6738	115	0	32715	32714	32571	32791	32759	32702	32583	32748	
2161	0	3161	5366	4256	6711	116	0	32692	32638	32674	32763	32767	32703	32619	32785	
2162	0	3140	5379	4263	6743	117	0	32805	32805	32829	32706	32775	32757	32626	32795	
2163	0	3136	5389	4284	6688	118	0	32765	32775	32738	32674	32694	32782	32679	32775	
2164	0	3124	5389	4313	6720	119	0	32754	32775	33079	32681	32617	32863	32663	32749	
2165	0	3131	5363	4260	6708	120	0	32834	32804	33287	32595	32705	32775	32703	32799	
2166	0	3118	5338	4283	6706	121	0	32965	32804	33309	32710	32692	32885	32630	32748	
2167	0	3083	5368	4297	6701	122	0	33018	32799	33258	32806	32667	32917	32751	32689	
2168	0	3113	5342	4284	6755	123	0	32903	32731	32857	32772	32732	32859	32685	32749	
2169	0	3125	5361	4325	6697	124	0	32769	32769	32431	32643	32825	32924	32787	32691	
2170	0	3117	5408	4329	6672	125	0	32719	32787	32370	32636	32717	32903	32706	32683	
2171	0	3122	5358	4268	6736	126	0	32764	32867	32391	32766	32612	32711	32655	32742	
2172	0	3079	5372	4325	6677	127	0	32751	32846	32203	32827	32607	32694	32679	32845	
2173	0	3126	5384	4325	6735	128	0	32724	32743	32505	32735	32703	32723	32731	32860	
2174	0	3093	5406	4263	6725	129	0	32740	32743	32734	32727	32748	32695	32551	32847	
2175	0	3190	5342	4307	6682	130	0	32727	32802	32847	32663	32804	32612	32719	32775	
2176	0	3153	5422	4309	6690	131	0	32679	32749	32551	32630	32735	32615	32669	32791	
2177	0	3104	5392	4321	6744	132	0	32678	32629	32333	32783	32766	32551	32551	32767	
2178	0	3090	5398	4341	6709	133	0	32733	32677	32439	32708	32811	32799	32579	32738	
2179	0	3119	5424	4325	6724	134	0	32767	32853	32211	32636	32749	32823	32743	32635	
2180	0	3102	5364	4308	6641	135	0	32725	32847	32301	32739	32787	32823	32749	32697	
2181	0	3113	5386	4375	6686	136	0	32709	32797	32405	32835	32788	32915	32641	32805	
2182	0	3085	5395	4359	6707	137	0	32782	32802	32391	32751	32723	32887	32684	32799	
2183	0	3132	5405	4291	6697	138	0	32716	32765	32613	32735	32725	32610	32748	32711	
2184	0	3086	5384	4299	6697	139	0	32674	32719	32619	32679	32647	32621	32743	32759	
2185	0	3109	5372	4314	6678	140	0	32766	32739	32647	32586	32743	32607	32562	32759	
2186	0	3101	5376	4332	6693	141	0	32759	32775	32570	32647	32775	32631	32767	32731	
2187	0	3138	5388	4318	6696	142	0	32716	32763	32793	32814	32797	32844	32795	32751	
2188	0	3120	5421	4318	6734	143	0	32667	32575	32775	32815	32711	32567	32647	32775	
2189	0	3140	5398	4316	6676	144	0	32682	32615	32683	32827	32738	32721	32775	32799	
2190	0	3083	5400	4300	6688	145	0	32730	32643	32831	32739	32673	32799	32775	32820	
2191	0	3142	5431	4344	6708	146	0	32692	32647	32754	32731	32695	32725	32467	32747	
2192	0	3123	5360	4251	6698	147	0	32709	32615	32438	32686	32719	32774	32625	32782	
2193	0	3096	5356	4304	6710	148	0	32791	32727	32720	32640	32771	32775	32595	32732	
2194	0	3110	5401	4366	6689	149	0	32836	32646	32723	32610	32743	32751	32621	32775	
2195	0	3116	5379	4300	6691	150	0	32824	32735	32647	32647	32775	32835	32747	32738	
2196	0	3112	5392	4310	6653	151	0	32839	32663	32498	32557	32797	32806	32710	32673	
2197	0	3117	5416	4374	6693	152	0	32895	32623	32462	32605	32743	32737	32572	32769	
2198	0	3122	5386	4349	6692	153	0	32798	32671	32639	32743	32643	32703	32767	32765	
2199	0	3057	5402	4377	6714	154	0	32650	32639	32623	32976	32605	32669	32723	32679	
2200	0	3149	5370	4313	6682	155	0	32603	32759	32662	32967	32669	32708	32559	32739	
2201	0	3106	5408	4339	6693	156	0	32722	32772	32871	32855	32717	32827	32631	32775	
2202	0	3089	5408	4284	6699	157	0	32773	32775	32722	32805	32748	32789	32699	32790	
2203	0	3095	5449	4348	6709	158	0	32790	32801	32551	32763	32807	32775	32646	32749	
2204	0	3072	5422	4333	6722	159	0	32797	32867	32685	32518	32717	32903	32717	32683	
2205	0	3115	5373	4339	6696	160	0	32735	32791	32635	32487	32835	32879	32605	32765	
2206	0	3103	5410	4289	6677	161	0	32679	32681	32463	32665	32847	32866	32887	32820	
2207	0	3111	5405	4320	6666	162	0	32652	32596	32695	32714	32754	32873	32842	32773	
2208	0	3114	5396	4357	6646	163	0	32720	32615	32639	32855	32686	32862	32677	32771	
2209	0	3090	5419	4311	6648	164	0	32771	32711	32458	32831	32558	32775	32732	32767	
2210	0	3112	5411	4332	6690	165	0	32807	32740	32863	32865	32597	32759	32702	32759	
2211	0	3095	5393	4326	6708	166	0	32844	32623	32887	32985	32590	32835	32735	32747	
2212	0	3040	5412	4368	6659	167	0	32848	32569	32755	33045	32711	32881	32685	32758	
2213	0	3126	5411	4353	6685	168	0	32860	32605	32871	33147	32900	32875	32575	32798	
2214	0	3124	5432	4368	6691	169	0	32850	32795	32775	33047	32895	32791	32683	32773	
2215	0	3060	5368	4362	6706	170	0	32788	32767	32807	32863	32893	32754	32695	32756	
2216	0	3100	5447	4352	6712	171	0	32836	32839	32769	32851	32989	32663	32763	32763	
2217	0	3100	5416	4313	6674	172	0	32788	32815	32631	32671	32916	32827	32551	32841	
2218	0	3103	5431	4326	6664	173	0	32804	32815	32507	32655	32803	32755	32733	32858	
2219	0	3061	5374	4381	6691	174	0	32812	32819	32655	32690	32653	32719	32647	32765	
2220	0	3080	5432	4295	6689	175	0	32802	32742	32587	32715	32708	32834	32647	32786	
2221	0	3100	5446	4351	6698	176	0	32722	32775	32668	32807	32738	32667	32516	32743	
2222	0	3076	5416	4324	6725	177	0	32828	32759	32519	32807	32698	32550	32709	32739	
2223	0	3119	5436	4306	6669	178	0	32852	32631	32663	32749	32693	32733	32703	32717	
2224	0	3045	5392	4330	6668	179	0	32818	32687	32410	32782	32685	32813	32743	32767	
2225	0	3128	5389	4353	6621	180	0	32773	32639	32442	32615	32641	32858	32775	32743	
2226	0	3098	5424	4354	6661	181	0	32686	32591	32459	32676	32679	32914	32579	32693	
2227	0	3114	5416	4298	6646	182	0	32730	32719	32746	32803	32647	32823	32791	32631	
2228	0	3085	5398	4320	6670	183	0	32802	32799	32663	32775	32687	32719	32747	32737	
2229	0	3106	5439	4330	6691	184	0	32788	32805	32583	32599	32815	32636	32575	32775	
2230	0	3131	5413	4375	6611	185	0	32717	32775	32559	32683	32772	32767	32755	32829	
2231	0	3045	5419	4368	6707	186	0	32767	32735	32500	32583	32797	32795	32695	32807	
2232	0	3094	5407	4331	6674	187	0	32775	32647	32557	32751	32797	32775	32733	32862	
2233	0	3097	5404	4288	6645	188	0	32758	32692	32576	32771	32747	32759	32587	32831	
2234	0	3074	5400	4335	6645	189	0	32754	32941	32420	32595	32710	32806	32582	32814	
2235	0	3062	5430	4382	6706	190	0	32792	32855	32635	32669	32597	32829	32571	32683	
2236	0	3095	5396	4364	6637	191	0	32745	32836	32747	32727	32687	32871	32636	32683	
2237	0	3064	5428	4360	6661	192	0	32740	32714	32676	32679	32621	32859	32679	32766	
2238	0	3027	5412	4374	6673	193	0	32698	32711	32695	32583	32581	32773	32679	32802	
2239	0	3090	5386	4336	6676	194	0	32773	32812	32610	32655	32620	32718	32562	32772	
2240	0	3069	5417	4368	6650	195	0	32721	32626	32735	32677	32764	32662	32631	32769	
2241	0	3052	5447	4346	6620	196	0	32671	32659	32676	32838	32783	32647	32703	32771	
2242	0	3047	5442	4374	6666	197	0	32700	32831	32601	32782	32802	32623	32492	32773	
2243	0	3048	5398	4376	6678	198	0	32735	32687	32775	32725	32807	32559	32743	32790	
2244	0	3041	5434	4369	6669	199	0	32783	32660	32807	32726	32831	32743	32769	32821	
2245	0	3059	5459	4356	6674	200	0	32861	32681	32587	32647	32724	32767	32605	32791	
2246	0	3048	5425	4352	6669	201	0	32831	32685	32666	32742	32711	32787	32787	32767	
2247	0	3077	5393	4341	6662	202	0	32811	32775	32641	32638	32644	32775	32788	32655	
2248	0	3025	5451	4396	6672	203	0	32775	32730	32775	32574	32748	32773	32631	32662	
2249	0	3090	5442	4356	6644	204	0	32697	32697	32694	32599	32756	32795	32813	32717	
2250	0	3043	5393	4360	6645	205	0	32775	32742	32443	32591	32741	32764	32834	32775	
2251	0	3085	5434	4388	6634	206	0	32775	32831	32671	32701	32718	32786	32623	32679	
2252	0	3028	5418	4329	6692	207	0	32818	32795	32647	32818	32731	32799	32803	32739	
2253	0	3047	5412	4354	6682	208	0	32822	32799	32534	32935	32629	32857	32711	32799	
2254	0	3073	5436	4385	6648	209	0	32775	32863	32605	32951	32687	32903	32493	32767	
2255	0	3087	5384	4368	6650	210	0	32734	32791	32583	32983	32692	32796	32757	32741	
2256	0	3014	5447	4348	6684	211	0	32742	32743	32551	32910	32742	32730	32747	32765	
2257	0	3053	5434	4410	6671	212	0	32782	32745	32563	32850	32839	32676	32516	32761	
2258	0	3080	5442	4376	6674	213	0	32740	32735	32515	32887	32845	32647	32671	32741	
2259	0	3045	5416	4341	6670	214	0	32713	32724	32519	32795	32775	32573	32687	32830	
2260	0	3051	5438	4420	6660	215	0	32726	32711	32476	32751	32703	32579	32567	32730	
2261	0	3062	5448	4368	6641	216	0	32724	32775	32566	32495	32647	32679	32623	32731	
2262	0	3058	5441	4343	6651	217	0	32783	32742	32519	32477	32615	32691	32690	32807	
2263	0	3090	5412	4385	6665	218	0	32737	32775	32439	32533	32775	32843	32647	32803	
2264	0	3044	5444	4376	6684	219	0	32718	32631	32787	32546	32789	32807	32690	32727	
2265	0	3085	5446	4423	6717	220	0	32711	32609	32839	32637	32683	32830	32783	32789	
2266	0	3066	5455	4368	6685	221	0	32804	32607	32665	32733	32702	32849	32603	32743	
2267	0	3052	5459	4349	6681	222	0	32688	32594	32519	32743	32711	32948	32703	32727	
2268	0	3071	5392	4414	6628	223	0	32647	32628	32296	32766	32659	32937	32678	32686	
2269	0	3026	5438	4389	6668	224	0	32718	32607	32429	32811	32751	32870	32628	32743	
2270	0	3045	5418	4404	6675	225	0	32700	32647	32525	33031	32735	32823	32732	32705	
2271	0	3041	5443	4383	6654	226	0	32800	32722	32562	33090	32769	32639	32701	32691	
2272	0	3051	5482	4383	6672	227	0	32742	32787	32655	33061	32733	32659	32623	32767	
2273	0	3048	5414	4376	6714	228	0	32715	32815	32599	33104	32796	32607	32725	32815	
2274	0	3063	5436	4389	6660	229	0	32759	32767	32659	32901	32639	32626	32615	32799	
2275	0	3066	5389	4356	6692	230	0	32814	32743	32896	32783	32679	32702	32619	32839	
2276	0	3038	5466	4418	6682	231	0	32861	32851	32834	32715	32699	32807	32647	32797	
2277	0	3036	5461	4414	6673	232	0	32851	32749	32658	32631	32723	32805	32590	32785	
2278	0	3048	5416	4360	6627	233	0	32784	32641	32944	32645	32742	32845	32751	32771	
2279	0	3054	5438	4358	6684	234	0	32795	32535	32735	32685	32665	32791	32759	32775	
2280	0	3046	5436	4328	6676	235	0	32791	32698	32681	32738	32731	32894	32695	32767	
2281	0	3067	5408	4355	6713	236	0	32839	32731	32621	32783	32739	32911	32709	32697	
2282	0	3088	5462	4440	6709	237	0	32838	32735	32679	32765	32711	32910	32589	32678	
2283	0	3046	5488	4382	6646	238	0	32829	32663	32635	32806	32741	32756	32686	32615	
2284	0	3049	5454	4425	6683	239	0	32719	32594	32627	32795	32691	32834	32551	32703	
2285	0	3067	5447	4380	6706	240	0	32647	32627	32999	32647	32661	32799	32770	32691	
2286	0	3072	5418	4372	6676	241	0	32743	32770	32902	32515	32789	32810	32623	32743	
2287	0	3088	5444	4409	6674	242	0	32751	32902	32763	32577	32769	32775	32785	32692	
2288	0	3061	5416	4413	6690	243	0	32662	32855	32724	32663	32831	32845	32863	32685	
2289	0	3046	5412	4411	6660	244	0	32741	32735	32671	32626	32802	32763	32681	32725	
2290	0	3090	5420	4355	6628	245	0	32727	32735	32437	32551	32722	32771	32751	32775	
2291	0	3073	5405	4372	6696	246	0	32780	32739	32739	32495	32723	32767	32709	32743	
2292	0	3045	5421	4395	6678	247	0	32759	32612	32566	32479	32698	32775	32711	32807	
2293	0	3066	5433	4375	6696	248	0	32748	32711	32599	32647	32756	32793	32735	32750	
2294	0	3086	5436	4380	6622	249	0	32805	32731	32636	32647	32771	32795	32611	32753	
2295	0	3055	5424	4394	6666	250	0	32822	32706	32525	32594	32697	32731	32711	32732	
2296	0	3080	5466	4372	6683	251	0	32765	32647	32636	32615	32713	32733	32759	32836	
2297	0	3064	5483	4437	6710	252	0	32847	32765	32599	32711	32748	32711	32570	32806	
2298	0	3045	5418	4405	6698	253	0	32817	32735	32415	32805	32676	32775	32607	32839	
2299	0	3068	5436	4399	6702	254	0	32846	32782	32423	32729	32679	32855	32695	32871	
2300	0	3066	5466	4381	6681	255	0	32711	32803	32351	32783	32694	32887	32676	32914	
2301	0	3115	5444	4393	6685	256	0	32655	32873	32485	33031	32700	32877	32699	32831	
2302	0	3040	5446	4438	6680	257	0	32646	32859	32717	33089	32709	32895	32619	32705	
2303	0	3062	5393	4418	6686	258	0	32726	32807	32535	33117	32679	32925	32669	32774	
2304	0	3079	5485	4388	6718	259	0	32799	32735	32807	33199	32647	32829	32716	32775	
2305	0	3070	5454	4419	6693	260	0	32738	32711	32863	33149	32748	32847	32667	32735	
2306	0	2993	5406	4398	6690	261	0	32687	32559	32695	33114	32685	32875	32719	32775	
2307	0	3033	5456	4400	6704	262	0	32679	32595	32666	32973	32739	32852	32599	32727	
2308	0	3065	5423	4374	6686	263	0	32719	32580	32527	32957	32751	32743	32631	32761	
2309	0	3051	5438	4413	6666	264	0	32835	32638	32647	32835	32791	32629	32740	32757	
2310	0	3084	5456	4395	6723	265	0	32780	32615	32361	32742	32655	32603	32725	32737	
2311	0	3029	5459	4394	6688	266	0	32743	32714	32533	32783	32663	32762	32698	32751	
2312	0	3084	5420	4418	6730	267	0	32807	32708	32511	32619	32676	32751	32561	32766	
2313	0	3031	5461	4446	6693	268	0	32801	32717	32685	32476	32659	32719	32713	32751	
2314	0	3113	5435	4425	6678	269	0	32742	32687	32674	32257	32707	32843	32639	32711	
2315	0	3069	5442	4408	6692	270	0	32759	32759	32955	32346	32647	32790	32603	32722	
2316	0	3056	5432	4446	6691	271	0	32827	32624	33039	32604	32767	32771	32723	32676	
2317	0	3029	5454	4400	6656	272	0	32818	32607	33077	32748	32845	32731	32686	32765	
2318	0	3028	5458	4384	6704	273	0	32767	32611	32817	32743	32795	32739	32577	32801	
2319	0	3076	5412	4454	6689	274	0	32815	32591	32811	32691	32735	32751	32681	32775	
2320	0	3128	5442	4364	6683	275	0	32797	32679	32581	32642	32751	32635	32623	32807	
2321	0	3069	5444	4411	6693	276	0	32807	32811	32525	32559	32759	32567	32586	32823	
2322	0	3069	5458	4346	6668	277	0	32838	32947	32263	32499	32659	32588	32701	32804	
2323	0	3084	5457	4386	6672	278	0	32753	32900	32251	32418	32631	32647	32549	32738	
2324	0	3062	5402	4398	6712	279	0	32674	32751	32245	32470	32738	32655	32631	32695	
2325	0	3072	5423	4436	6700	280	0	32679	32799	32427	32479	32685	32743	32668	32725	
2326	0	3039	5449	4452	6680	281	0	32662	32634	32425	32384	32759	32785	32725	32773	
2327	0	3031	5450	4351	6725	282	0	32711	32658	32607	32415	32775	32710	32772	32708	
2328	0	3071	5416	4378	6656	283	0	32767	32647	32527	32457	32739	32791	32679	32726	
2329	0	3057	5420	4433	6661	284	0	32679	32621	32879	32727	32641	32871	32787	32743	
2330	0	3084	5402	4399	6652	285	0	32692	32763	32855	32727	32785	32727	32737	32743	
2331	0	3074	5424	4406	6736	286	0	32783	32810	32764	32879	32763	32695	32720	32795	
2332	0	3053	5429	4366	6658	287	0	32828	32827	32725	32959	32745	32855	32675	32799	
2333	0	3022	5444	4382	6713	288	0	32858	32773	33082	33058	32573	32894	32623	32791	
2334	0	3060	5417	4384	6708	289	0	32898	32742	32903	33100	32757	32775	32765	32743	
2335	0	3024	5441	4373	6666	290	0	32973	32802	32658	32983	32693	32783	32559	32703	
2336	0	3047	5426	4419	6737	291	0	32966	32811	32763	32797	32683	32775	32711	32775	
2337	0	3041	5452	4394	6682	292	0	32873	32775	32475	32479	32775	32773	32567	32734	
2338	0	3032	5418	4401	6720	293	0	32748	32799	32419	32492	32663	32817	32705	32705	
2339	0	3075	5454	4405	6718	294	0	32756	32692	32311	32415	32671	32820	32711	32707	
2340	0	3040	5440	4399	6649	295	0	32819	32726	32051	32353	32767	32775	32571	32733	
2341	0	3038	5440	4423	6668	296	0	32789	32671	32031	32350	32751	32802	32663	32758	
2342	0	3055	5436	4386	6685	297	0	32644	32635	32063	32559	32763	32830	32535	32759	
2343	0	3031	5445	4419	6724	298	0	32660	32679	32489	32665	32635	32810	32698	32751	
2344	0	3048	5443	4424	6720	299	0	32632	32789	32712	32951	32711	32742	32775	32711	
2345	0	3060	5392	4415	6672	300	0	32685	32756	32587	33154	32685	32801	32553	32751	
2346	0	3081	5435	4413	6693	301	0	32662	32743	32725	33383	32783	32779	32669	32714	
2347	0	3059	5468	4443	6678	302	0	32660	32763	32727	33407	32747	32751	32564	32700	
2348	0	3058	5406	4419	6680	303	0	32598	32703	32775	33333	32694	32775	32751	32775	
2349	0	3004	5454	4441	6705	304	0	32595	32677	32705	33306	32775	32815	32839	32769	
2350	0	3028	5400	4416	6700	305	0	32608	32695	32811	33247	32701	32795	32715	32831	
2351	0	3079	5424	4455	6669	306	0	32696	32614	32845	33303	32647	32773	32755	32820	
2352	0	3085	5452	4360	6684	307	0	32689	32686	32891	33286	32741	32562	32639	32759	
2353	0	3032	5419	4412	6696	308	0	32722	32698	32922	33111	32831	32605	32763	32807	
2354	0	3094	5446	4420	6692	309	0	32741	32655	32775	32823	32785	32537	32699	32770	
2355	0	3064	5388	4394	6694	310	0	32786	32599	32718	32743	32745	32735	32417	32767	
2356	0	3075	5407	4444	6722	311	0	32745	32545	32615	32700	32795	32722	32613	32775	
2357	0	3071	5425	4422	6662	312	0	32732	32543	32503	32647	32749	32719	32699	32825	
2358	0	3092	5476	4399	6701	313	0	32742	32626	32647	32655	32643	32739	32542	32867	
2359	0	3043	5440	4373	6701	314	0	32806	32566	32575	32775	32615	32703	32655	32819	
2360	0	3025	5412	4402	6697	315	0	32855	32628	32405	32831	32731	32727	32564	32783	
2361	0	3029	5434	4392	6694	316	0	32775	32692	32647	32813	32691	32587	32839	32839	
2362	0	3038	5471	4390	6712	317	0	32865	32727	32634	32807	32812	32545	32683	32813	
2363	0	3048	5424	4387	6720	318	0	32895	32747	32691	32818	32783	32615	32823	32735	
2364	0	3071	5424	4390	6676	319	0	32918	32657	32969	32759	32724	32623	32747	32855	
2365	0	3061	5437	4383	6745	320	0	32903	32603	32687	32715	32793	32683	32636	32795	
2366	0	3042	5450	4424	6722	321	0	32873	32567	32759	32731	32699	32726	32663	32822	
2367	0	3055	5444	4413	6680	322	0	32788	32581	32558	32662	32743	32753	32511	32822	
2368	0	3066	5406	4342	6693	323	0	32854	32791	32687	32783	32763	32899	32676	32811	
2369	0	3041	5458	4394	6694	324	0	32783	32823	32559	32775	32703	32887	32595	32745	
2370	0	3003	5442	4450	6692	325	0	32738	32795	32551	32642	32631	32807	32743	32722	
2371	0	3063	5433	4364	6698	326	0	32630	32767	32463	32684	32606	32871	32703	32739	
2372	0	3100	5394	4396	6694	327	0	32647	32851	32371	32623	32719	32807	32577	32755	
2373	0	3044	5426	4436	6675	328	0	32710	32855	32663	32659	32743	32819	32703	32756	
2374	0	3067	5444	4366	6699	329	0	32700	32911	32786	32623	32749	32799	32690	32731	
2375	0	3032	5421	4402	6737	330	0	32766	32789	32741	32565	32756	32861	32711	32775	
2376	0	3041	5463	4427	6722	331	0	32806	32799	32783	32440	32695	32850	32749	32763	
2377	0	3050	5404	4373	6705	332	0	32791	32831	32731	32466	32714	32815	32683	32718	
2378	0	3024	5406	4410	6681	333	0	32795	33041	32822	32249	32738	32767	32797	32753	
2379	0	3010	5424	4376	6697	334	0	32775	32967	32687	32143	32732	32823	32626	32813	
2380	0	3045	5434	4386	6696	335	0	32837	32903	32655	32327	32715	32775	32754	32805	
2381	0	3020	5442	4371	6682	336	0	32739	32925	32607	32493	32707	32820	32679	32769	
2382	0	3027	5399	4406	6722	337	0	32775	32791	32453	32597	32679	32781	32669	32791	
2383	0	3066	5479	4392	6681	338	0	32866	32634	32603	32711	32647	32799	32727	32809	
2384	0	3034	5417	4392	6713	339	0	32790	32615	32732	32708	32727	32835	32503	32743	
2385	0	3058	5376	4405	6691	340	0	32793	32759	32659	32607	32683	32551	32643	32755	
2386	0	3027	5463	4353	6674	341	0	32792	32711	32626	32701	32741	32631	32491	32726	
2387	0	3032	5416	4386	6696	342	0	32818	32695	32703	32839	32759	32739	32613	32698	
2388	0	3053	5412	4429	6676	343	0	32881	32708	32731	32887	32775	32838	32735	32695	
2389	0	3068	5411	4420	6712	344	0	32726	32679	32462	32892	32707	32775	32657	32730	
2390	0	3057	5414	4377	6736	345	0	32759	32661	32581	32874	32703	32877	32743	32707	
2391	0	3004	5393	4412	6720	346	0	32759	32671	32493	32847	32791	32811	32587	32727	
2392	0	2997	5411	4376	6730	347	0	32735	32824	32591	32903	32727	32783	32643	32711	
2393	0	3020	5436	4400	6724	348	0	32698	32635	32535	32915	32683	32923	32690	32773	
2394	0	3013	5438	4426	6665	349	0	32592	32706	32578	33071	32751	32815	32702	32769	
2395	0	3014	5366	4369	6693	350	0	32640	32711	32955	32956	32644	32791	32719	32783	
2396	0	3024	5418	4422	6663	351	0	32655	32711	32983	32815	32671	32755	32564	32843	
2397	0	3090	5399	4411	6706	352	0	32729	32793	33003	32946	32691	32759	32795	32771	
2398	0	3016	5430	4398	6727	353	0	32750	32809	32898	32943	32711	32764	32770	32787	
2399	0	3016	5398	4387	6681	354	0	32856	32763	32641	32837	32727	32731	32738	32815	
2400	0	3035	5409	4421	6732	355	0	32911	32719	32771	32797	32743	32799	32663	32799	
2401	0	3053	5382	4400	6709	356	0	32903	32677	32615	32836	32687	32738	32523	32757	
2402	0	3008	5373	4358	6720	357	0	32712	32647	32431	32815	32767	32749	32727	32815	
2403	0	3060	5402	4377	6704	358	0	32737	32603	32719	32603	32683	32811	32739	32819	
2404	0	3056	5419	4436	6701	359	0	32806	32715	32565	32602	32701	32746	32727	32813	
2405	0	3060	5405	4418	6684	360	0	32807	32671	32614	32567	32829	32736	32757	32819	
2406	0	2997	5384	4433	6696	361	0	32719	32831	32535	32615	32808	32711	32630	32775	
2407	0	3038	5401	4408	6674	362	0	32789	32736	32527	32839	32767	32703	32723	32767	
2408	0	2982	5410	4368	6706	363	0	32796	32658	32487	32786	32738	32687	32775	32775	
2409	0	3006	5354	4381	6698	364	0	32806	32599	32679	32829	32786	32721	32695	32783	
2410	0	3002	5379	4406	6704	365	0	32730	32669	32564	32807	32629	32715	32751	32757	
2411	0	3057	5422	4391	6712	366	0	32747	32791	32775	32879	32623	32891	32559	32751	
2412	0	3014	5399	4446	6702	367	0	32804	32663	32527	32761	32751	32647	32699	32789	
2413	0	2982	5396	4422	6716	368	0	32728	32647	32660	32692	32860	32644	32758	32767	
2414	0	3018	5411	4400	6742	369	0	32766	32719	32645	32583	32726	32679	32738	32811	
2415	0	3038	5381	4433	6723	370	0	32717	32796	32491	32765	32723	32867	32623	32758	
2416	0	3009	5432	4398	6676	371	0	32656	32751	32293	32811	32738	32858	32767	32795	
2417	0	3024	5461	4390	6701	372	0	32702	32700	32493	32669	32591	32823	32687	32735	
2418	0	3034	5412	4418	6723	373	0	32741	32685	32515	32694	32647	32621	32559	32783	
2419	0	2978	5387	4400	6676	374	0	32716	32707	32677	32677	32619	32561	32671	32798	
2420	0	3050	5418	4406	6722	375	0	32728	32767	32726	32719	32641	32559	32695	32820	
2421	0	3033	5412	4390	6742	376	0	32759	32767	32647	32751	32695	32583	32671	32846	
2422	0	3035	5467	4367	6720	377	0	32779	32759	32919	32764	32763	32590	32687	32805	
2423	0	3045	5414	4418	6690	378	0	32716	32690	32667	32738	32731	32647	32727	32811	
2424	0	3016	5432	4379	6710	379	0	32727	32631	32725	32715	32745	32749	32687	32715	
2425	0	3043	5368	4381	6691	380	0	32727	32706	32737	32775	32825	32817	32671	32659	
2426	0	3038	5395	4428	6722	381	0	32769	32775	32837	32820	32631	32873	32517	32707	
2427	0	3053	5349	4404	6666	382	0	32762	32771	32759	32844	32679	32877	32685	32669	
2428	0	3035	5435	4380	6740	383	0	32818	32711	32591	32935	32783	32835	32669	32671	
2429	0	3039	5424	4334	6725	384	0	32775	32734	32583	32918	32801	32923	32804	32681	
2430	0	3037	5399	4363	6684	385	0	32884	32813	32573	32943	32759	32811	32795	32710	
2431	0	3023	5366	4366	6711	386	0	32870	32669	32459	32830	32693	32791	32703	32679	
2432	0	3022	5418	4370	6739	387	0	32806	32673	32175	32704	32683	32879	32725	32699	
2433	0	3055	5357	4379	6722	388	0	32703	32731	32423	32673	32627	32797	32543	32685	
2434	0	3014	5389	4420	6696	389	0	32663	32759	32464	32605	32607	32717	32691	32782	
2435	0	3069	5380	4367	6715	390	0	32700	32731	32663	32407	32725	32807	32717	32807	
2436	0	2980	5376	4399	6760	391	0	32742	32765	32429	32374	32751	32815	32605	32767	
2437	0	3077	5388	4395	6725	392	0	32695	32831	32607	32391	32725	32827	32647	32773	
2438	0	3008	5406	4369	6709	393	0	32582	32773	32543	32311	32640	32791	32556	32805	
2439	0	3042	5359	4372	6720	394	0	32603	32821	32698	32587	32635	32631	32710	32823	
2440	0	3008	5378	4450	6654	395	0	32796	32710	32725	32775	32735	32590	32527	32861	
2441	0	3032	5378	4388	6718	396	0	32863	32670	32577	32727	32775	32583	32705	32763	
2442	0	3036	5386	4377	6741	397	0	32793	32700	32827	32799	32788	32589	32743	32759	
2443	0	3049	5376	4420	6672	398	0	32781	32698	32679	32821	32724	32583	32601	32775	
2444	0	3020	5383	4447	6669	399	0	32730	32645	32546	32851	32684	32630	32639	32775	
2445	0	3084	5411	4414	6746	400	0	32729	32647	32719	32921	32704	32647	32527	32835	
2446	0	3046	5354	4384	6716	401	0	32797	32739	32503	33063	32646	32741	32707	32759	
2447	0	3018	5393	4380	6728	402	0	32795	32757	32587	33071	32819	32694	32563	32758	
2448	0	2998	5342	4398	6717	403	0	32770	32739	32487	33143	32839	32703	32775	32799	
2449	0	3047	5389	4444	6700	404	0	32703	32729	32563	33020	32727	32669	32807	32703	
2450	0	3020	5408	4417	6728	405	0	32745	32607	32525	32809	32843	32711	32711	32667	
2451	0	3030	5352	4420	6691	406	0	32836	32527	32699	32596	32743	32647	32873	32734	
2452	0	3006	5396	4374	6696	407	0	32869	32493	32660	32647	32843	32695	32799	32743	
2453	0	3047	5386	4416	6723	408	0	32871	32525	32605	32645	32758	32719	32706	32705	
2454	0	2993	5386	4436	6745	409	0	32847	32647	32799	32562	32637	32813	32735	32757	
2455	0	3078	5376	4411	6720	410	0	32751	32711	32619	32543	32736	32815	32527	32757	
2456	0	3021	5384	4390	6709	411	0	32775	32837	32507	32391	32786	32851	32783	32764	
2457	0	3017	5378	4396	6699	412	0	32743	32829	32692	32455	32839	32743	32732	32669	
2458	0	3036	5390	4461	6698	413	0	32767	32987	32795	32654	32813	32831	32553	32719	
2459	0	3016	5371	4401	6728	414	0	32750	32927	32865	32743	32799	32775	32764	32726	
2460	0	3026	5404	4389	6730	415	0	32788	32893	33061	32981	32828	32747	32732	32813	
2461	0	3034	5386	4392	6700	416	0	32796	32918	33202	33107	32787	32773	32503	32767	
2462	0	3044	5410	4417	6742	417	0	32793	32918	32967	33139	32743	32775	32679	32831	
2463	0	2996	5366	4410	6744	418	0	32762	32789	32900	32997	32724	32723	32699	32835	
2464	0	3026	5359	4407	6752	419	0	32811	32677	32859	32898	32749	32647	32631	32823	
2465	0	3015	5365	4361	6713	420	0	32758	32647	32845	32877	32719	32595	32647	32775	
2466	0	3014	5379	4434	6764	421	0	32823	32555	32683	32827	32644	32643	32617	32765	
2467	0	3037	5359	4399	6713	422	0	32710	32583	32675	32701	32611	32679	32711	32738	
2468	0	3015	5389	4377	6744	423	0	32718	32503	32762	32719	32711	32699	32699	32829	
2469	0	3020	5351	4360	6736	424	0	32808	32483	32603	32599	32711	32735	32567	32797	
2470	0	3018	5411	4412	6721	425	0	32902	32635	32567	32582	32775	32751	32669	32684	
2471	0	3005	5391	4406	6724	426	0	32852	32671	32471	32535	32766	32717	32711	32674	
2472	0	3009	5318	4466	6769	427	0	32704	32707	32167	32499	32743	32668	32631	32679	
2473	0	2996	5366	4367	6720	428	0	32745	32847	32319	32169	32693	32667	32797	32686	
2474	0	3034	5388	4417	6731	429	0	32820	32810	32391	32059	32743	32717	32563	32687	
2475	0	2989	5370	4374	6740	430	0	32738	32837	32457	32135	32647	32770	32703	32714	
2476	0	3012	5377	4439	6723	431	0	32685	32767	32363	32343	32625	32838	32655	32771	
2477	0	3001	5382	4398	6754	432	0	32713	32601	32509	32627	32676	32871	32755	32839	
2478	0	3018	5381	4413	6728	433	0	32758	32567	32547	32679	32748	32885	32699	32775	
2479	0	3014	5370	4453	6751	434	0	32790	32603	32407	32875	32684	32773	32687	32871	
2480	0	2984	5329	4364	6751	435	0	32767	32747	32647	33203	32754	32749	32673	32823	
2481	0	3005	5388	4408	6734	436	0	32718	32903	32589	33351	32702	32727	32531	32835	
2482	0	2999	5345	4416	6742	437	0	32736	32887	32603	33553	32719	32775	32671	32799	
2483	0	3041	5343	4414	6733	438	0	32710	32857	32450	33503	32676	32745	32572	32799	
2484	0	3037	5422	4393	6728	439	0	32682	32823	32693	33484	32667	32715	32701	32791	
2485	0	2995	5324	4394	6731	440	0	32686	32839	32679	33335	32805	32683	32675	32903	
2486	0	3012	5392	4432	6752	441	0	32679	32851	32762	33351	32829	32716	32524	32775	
2487	0	3022	5368	4460	6769	442	0	32708	32775	32755	33305	32903	32703	32722	32748	
2488	0	3006	5378	4372	6742	443	0	32733	32551	32679	33182	32703	32567	32615	32743	
2489	0	2999	5341	4350	6738	444	0	32751	32487	32978	32935	32767	32601	32749	32747	
2490	0	2995	5362	4420	6749	445	0	32797	32452	32903	32803	32751	32519	32685	32751	
2491	0	2974	5350	4393	6725	446	0	32812	32495	33017	32695	32731	32549	32599	32765	
2492	0	3018	5360	4421	6725	447	0	32759	32602	32811	32678	32703	32587	32755	32847	
2493	0	3015	5344	4427	6754	448	0	32806	32694	32613	32640	32647	32583	32719	32796	
2494	0	3025	5390	4446	6756	449	0	32812	32711	32763	32598	32655	32743	32623	32734	
2495	0	2989	5393	4415	6744	450	0	32814	32815	32767	32642	32674	32781	32743	32805	
2496	0	2976	5345	4405	6776	451	0	32805	32885	32655	32647	32847	32639	32743	32764	
2497	0	2987	5371	4408	6778	452	0	32786	32847	32700	32583	32789	32619	32703	32785	
2498	0	3021	5349	4452	6720	453	0	32799	32802	32435	32621	32671	32594	32738	32731	
2499	0	2971	5337	4436	6756	454	0	32799	32765	32292	32591	32659	32700	32647	32717	
2500	0	3010	5370	4378	6784	455	0	32778	32868	32583	32423	32671	32753	32707	32724	
2501	0	3008	5333	4429	6741	456	0	32775	32758	32735	32338	32647	32711	32559	32801	
2502	0	3025	5324	4420	6766	457	0	32751	32715	32847	32199	32647	32741	32645	32782	
2503	0	3009	5350	4406	6784	458	0	32699	32617	32893	32199	32676	32646	32646	32697	
2504	0	3011	5378	4395	6785	459	0	32767	32667	32735	32209	32666	32679	32583	32740	
2505	0	2991	5364	4464	6757	460	0	32775	32685	32739	32284	32711	32591	32767	32717	
2506	0	2944	5329	4413	6752	461	0	32734	32679	32715	32135	32763	32631	32773	32681	
2507	0	3002	5354	4470	6762	462	0	32701	32858	32543	32074	32695	32673	32661	32699	
2508	0	2975	5331	4412	6757	463	0	32738	32935	32579	32089	32687	32630	32755	32723	
2509	0	3012	5348	4400	6786	464	0	32611	32882	32663	32351	32709	32756	32566	32683	
2510	0	2993	5340	4398	6749	465	0	32495	32931	32293	32391	32695	32865	32698	32719	
2511	0	2997	5358	4376	6776	466	0	32553	32867	32335	32309	32676	32749	32647	32692	
2512	0	3007	5354	4420	6796	467	0	32658	32711	32319	32330	32711	32741	32663	32669	
2513	0	2958	5378	4429	6794	468	0	32545	32578	32191	32413	32647	32817	32759	32717	
2514	0	3011	5291	4432	6820	469	0	32669	32591	32399	32775	32727	32913	32743	32738	
2515	0	2998	5285	4405	6748	470	0	32766	32675	32222	33046	32708	32967	32769	32738	
2516	0	3032	5306	4432	6791	471	0	32829	32742	32564	33323	32758	32879	32615	32739	
2517	0	3011	5357	4436	6739	472	0	32938	32767	32659	33551	32743	32813	32707	32742	
2518	0	3000	5346	4402	6754	473	0	33092	32796	32722	33575	32704	32771	32707	32823	
2519	0	2992	5312	4441	6814	474	0	33077	32741	32698	33447	32663	32797	32593	32854	
2520	0	3036	5352	4407	6804	475	0	32989	32747	32951	33345	32793	32797	32699	32803	
2521	0	2992	5371	4459	6776	476	0	32910	32850	33015	33193	32710	32735	32727	32787	
2522	0	3028	5320	4456	6776	477	0	32900	32823	32791	32903	32758	32711	32575	32877	
2523	0	2974	5350	4414	6788	478	0	32844	32666	32839	32935	32717	32663	32668	32847	
2524	0	3012	5321	4393	6832	479	0	32775	32603	32836	32807	32755	32762	32644	32786	
2525	0	3000	5305	4439	6770	480	0	32748	32608	32803	32749	32747	32674	32647	32815	
2526	0	3008	5346	4414	6785	481	0	32740	32581	32798	32723	32697	32615	32709	32759	
2527	0	3030	5306	4480	6755	482	0	32694	32558	32615	32717	32749	32635	32769	32747	
2528	0	3017	5315	4424	6784	483	0	32709	32519	32645	32831	32727	32647	32691	32757	
2529	0	2994	5344	4458	6800	484	0	32694	32647	32497	32927	32710	32663	32702	32749	
2530	0	2970	5296	4454	6771	485	0	32711	32639	32626	33051	32751	32658	32617	32771	
2531	0	2988	5320	4423	6786	486	0	32718	32708	32604	33215	32719	32647	32687	32797	
2532	0	2978	5332	4462	6792	487	0	32759	32692	32717	33235	32679	32751	32615	32845	
2533	0	2979	5342	4477	6808	488	0	32767	32724	32598	33014	32724	32771	32710	32815	
2534	0	3043	5309	4400	6773	489	0	32740	32804	32709	32789	32789	32724	32732	32807	
2535	0	2992	5287	4468	6823	490	0	32769	32831	32687	32772	32743	32658	32623	32775	
2536	0	2976	5294	4404	6841	491	0	32835	32863	32796	32845	32690	32639	32679	32732	
2537	0	2994	5321	4424	6792	492	0	32788	32762	32677	32751	32719	32514	32679	32799	
2538	0	3014	5339	4501	6784	493	0	32838	32719	32359	32583	32695	32579	32557	32753	
2539	0	2979	5316	4420	6753	494	0	32762	32515	32565	32620	32775	32587	32615	32867	
2540	0	2957	5294	4493	6778	495	0	32796	32639	32543	32631	32711	32623	32591	32871	
2541	0	2999	5298	4433	6817	496	0	32692	32637	32557	32620	32647	32637	32646	32819	
2542	0	2932	5324	4449	6835	497	0	32675	32625	32803	32511	32742	32743	32647	32877	
2543	0	2996	5308	4430	6841	498	0	32662	32663	32637	32510	32660	32782	32610	32865	
2544	0	2967	5266	4453	6802	499	0	32600	32804	32629	32390	32655	32727	32604	32892	
2545	0	2986	5290	4420	6764	500	0	32582	32813	32755	32391	32647	32623	32529	32749	
2546	0	2984	5304	4412	6833	501	0	32583	32860	32609	32483	32740	32644	32591	32719	
2547	0	3002	5296	4474	6837	502	0	32639	32747	32375	32461	32757	32679	32644	32719	
2548	0	2957	5312	4466	6834	503	0	32567	32791	32463	32457	32661	32687	32434	32761	
2549	0	3021	5236	4443	6819	504	0	32671	32797	32535	32495	32613	32587	32619	32791	
2550	0	2957	5326	4436	6842	505	0	32748	32898	32551	32374	32711	32557	32603	32841	
2551	0	2991	5281	4437	6832	506	0	32628	32999	32509	32378	32683	32565	32717	32797	
2552	0	3000	5285	4458	6783	507	0	32725	32993	32623	32447	32749	32679	32642	32699	
2553	0	2985	5324	4420	6815	508	0	32873	33005	32627	32565	32717	32683	32499	32731	
2554	0	2962	5293	4462	6823	509	0	32887	33013	32619	32623	32775	32859	32623	32699	
2555	0	2948	5273	4446	6829	510	0	32863	32941	32387	32719	32811	32903	32715	32623	
2556	0	2937	5301	4432	6852	511	0	32771	32935	32582	32631	32775	32871	32565	32692	
2557	0	2987	5287	4442	6844	512	0	32815	32903	32562	32615	32727	32887	32727	32663	
2558	0	3016	5297	4446	6837	513	0	32830	32815	32668	32631	32734	32837	32689	32690	
2559	0	2984	5276	4456	6828	514	0	32879	32723	32591	32757	32887	32753	32818	32659	
2560	0	2980	5311	4472	6819	515	0	32925	32644	32576	32839	32903	32771	32828	32674	
2561	0	2940	5284	4410	6788	516	0	32895	32793	32703	32791	32835	32829	32717	32707	
2562	0	2973	5314	4461	6824	517	0	32886	32847	32705	32839	32751	32791	32799	32679	
2563	0	2980	5312	4484	6793	518	0	32807	32877	32511	32876	32759	32863	32775	32727	
2564	0	2957	5321	4416	6856	519	0	32806	32839	32679	32731	32797	32971	32579	32682	
2565	0	2991	5294	4514	6844	520	0	32824	32749	32689	32695	32807	32845	32805	32726	
2566	0	3007	5274	4498	6870	521	0	32820	32815	32612	32698	32767	32767	32727	32831	
2567	0	2971	5288	4446	6877	522	0	32820	32804	32581	32765	32727	32647	32630	32724	
2568	0	2949	5240	4460	6840	523	0	32828	32706	32567	32815	32791	32635	32878	32627	
2569	0	2966	5282	4419	6834	524	0	32863	32612	32711	32878	32797	32574	32923	32615	
2570	0	2976	5310	4503	6840	525	0	32892	32551	32861	32935	32903	32582	32879	32557	
2571	0	2938	5316	4425	6876	526	0	32848	32465	33023	32948	32911	32607	33082	32550	
2572	0	2964	5296	4425	6857	527	0	32860	32494	33047	32895	32935	32658	32967	32471	
2573	0	2993	5244	4462	6846	528	0	32889	32474	33279	32941	32843	32629	33226	32428	
2574	0	2992	5278	4465	6817	529	0	32941	32426	33503	32973	32775	32573	33255	32489	
2575	0	2990	5252	4457	6834	530	0	32937	32389	33342	33030	32764	32543	33115	32519	
2576	0	3002	5246	4458	6829	531	0	33018	32541	33443	32965	32824	32587	33131	32503	
2577	0	2981	5307	4474	6852	532	0	32966	32431	33281	33079	32813	32627	33031	32615	
2578	0	2968	5343	4508	6877	533	0	32891	32439	33189	32954	32814	32534	33141	32638	
2579	0	2996	5280	4447	6835	534	0	32839	32559	32810	32903	32735	32515	33068	32647	
2580	0	2978	5316	4453	6842	535	0	32855	32670	32986	32807	32647	32541	32879	32647	
2581	0	2921	5297	4504	6892	536	0	32861	32567	32874	32703	32739	32539	32841	32810	
2582	0	2941	5253	4470	6879	537	0	32732	32599	32686	32687	32671	32585	32647	32877	
2583	0	2960	5274	4434	6844	538	0	32585	32711	32695	32677	32667	32603	32663	32903	
2584	0	2943	5280	4515	6896	539	0	32551	32711	32729	32775	32659	32567	32506	32885	
2585	0	2925	5256	4472	6873	540	0	32589	32635	32346	32895	32575	32537	32601	32967	
2586	0	2987	5255	4474	6869	541	0	32601	32663	32334	32823	32571	32621	32453	33047	
2587	0	2938	5244	4472	6866	542	0	32514	32603	32199	32765	32559	32597	32226	33063	
2588	0	2964	5269	4504	6853	543	0	32464	32757	31942	32669	32614	32751	32358	33103	
2589	0	3001	5308	4504	6870	544	0	32679	32727	32159	32711	32595	32562	32253	33062	
2590	0	2963	5283	4488	6882	545	0	32639	32773	32099	32735	32628	32569	32367	33139	
2591	0	2993	5238	4453	6864	546	0	32610	32679	31866	32585	32631	32509	32295	33074	
2592	0	2947	5277	4500	6860	547	0	32630	32795	31874	32713	32519	32455	32221	33081	
2593	0	2994	5217	4477	6896	548	0	32645	32891	32133	32711	32487	32485	32287	33035	
2594	0	2960	5233	4512	6869	549	0	32626	32871	32263	32692	32599	32559	32255	32946	
2595	0	2948	5313	4452	6923	550	0	32500	32935	32461	32716	32611	32662	32389	32958	
2596	0	2959	5254	4486	6853	551	0	32535	32837	32639	32783	32655	32623	32259	32987	
2597	0	2963	5285	4501	6868	552	0	32543	32769	32555	32815	32499	32565	32421	32871	
2598	0	2934	5234	4474	6902	553	0	32490	32646	32547	32747	32415	32615	32449	32865	
2599	0	2969	5248	4508	6922	554	0	32483	32714	32343	32607	32595	32626	32479	32859	
2600	0	2953	5289	4492	6864	555	0	32519	32835	32479	32487	32713	32666	32577	32773	
2601	0	2996	5262	4472	6900	556	0	32609	32851	32415	32563	32815	32679	32535	32775	
2602	0	2981	5240	4470	6905	557	0	32634	32887	32107	32690	32797	32671	32611	32763	
2603	0	2959	5282	4430	6866	558	0	32684	32973	32366	32927	32871	32597	32483	32794	
2604	0	2940	5252	4465	6923	559	0	32759	32787	32407	32925	32827	32565	32813	32783	
2605	0	2945	5254	4502	6908	560	0	32726	32667	32435	32927	32855	32606	32711	32775	
2606	0	2961	5206	4422	6888	561	0	32738	32591	32439	33125	32805	32783	32662	32723	
2607	0	2942	5231	4490	6909	562	0	32804	32519	32687	33206	32830	32646	32757	32742	
2608	0	2964	5264	4453	6911	563	0	32758	32508	32563	33319	32737	32641	32574	32704	
2609	0	2983	5258	4472	6889	564	0	32712	32535	32591	33299	32831	32635	32727	32638	
2610	0	2946	5265	4534	6894	565	0	32817	32598	32949	33202	32807	32644	32687	32607	
2611	0	2924	5276	4480	6931	566	0	32831	32626	32949	33010	32761	32799	32775	32676	
2612	0	2957	5255	4508	6888	567	0	32852	32647	32811	32687	32700	32735	32839	32655	
2613	0	2931	5278	4483	6904	568	0	32815	32633	32923	32507	32739	32807	32723	32683	
2614	0	2885	5253	4522	6916	569	0	32815	32721	32884	32415	32679	32819	32787	32750	
2615	0	2928	5252	4534	6926	570	0	32887	32660	32811	32399	32775	32802	32705	32812	
2616	0	2946	5251	4524	6901	571	0	32855	32782	33022	32399	32717	32813	32783	32843	
2617	0	2920	5234	4492	6872	572	0	32856	32711	32929	32487	32743	32811	32789	32711	
2618	0	2920	5252	4474	6924	573	0	32884	32717	32831	32486	32719	32719	32567	32661	
2619	0	2892	5219	4502	6906	574	0	32869	32731	32955	32489	32665	32694	32629	32660	
2620	0	2926	5201	4496	6937	575	0	32879	32743	32835	32621	32673	32775	32663	32635	
2621	0	2933	5242	4494	6903	576	0	32897	32879	32641	32555	32751	32838	32735	32757	
2622	0	2918	5240	4521	6896	577	0	32908	32883	32762	32662	32717	32759	32731	32711	
2623	0	2951	5259	4555	6928	578	0	32847	32911	32703	32595	32691	32836	32637	32727	
2624	0	2963	5267	4524	6895	579	0	32852	32879	32687	32628	32701	32822	32700	32804	
2625	0	2914	5287	4531	6904	580	0	32822	32727	32589	32534	32796	32789	32839	32796	
2626	0	2945	5257	4518	6929	581	0	32747	32736	32541	32607	32694	32866	32695	32775	
2627	0	2953	5246	4500	6938	582	0	32730	32791	32775	32663	32731	32787	32795	32723	
2628	0	2916	5292	4547	6933	583	0	32767	32615	32751	32867	32755	32783	32767	32676	
2629	0	2917	5281	4526	6884	584	0	32722	32699	32687	32871	32719	32644	32691	32733	
2630	0	2923	5262	4522	6918	585	0	32745	32655	32722	32683	32746	32692	32799	32759	
2631	0	2925	5296	4504	6902	586	0	32788	32735	32613	32606	32749	32703	32719	32726	
2632	0	2953	5254	4520	6896	587	0	32775	32647	32675	32775	32740	32839	32599	32621	
2633	0	2931	5229	4548	6916	588	0	32770	32647	32549	32829	32815	32797	32564	32667	
2634	0	2954	5226	4545	6926	589	0	32807	32715	32471	32587	32822	32766	32661	32679	
2635	0	2916	5196	4564	6908	590	0	32871	32764	32807	32679	32729	32758	32529	32718	
2636	0	2942	5198	4462	6890	591	0	32805	32790	32690	32727	32786	32771	32699	32757	
2637	0	2904	5246	4573	6916	592	0	32758	32831	32511	32676	32758	32807	32748	32743	
2638	0	2830	5252	4576	6979	593	0	32792	32846	32534	32718	32681	32823	32610	32775	
2639	0	2888	5180	4514	6960	594	0	32812	32791	32539	32823	32586	32774	32750	32781	
2640	0	2925	5199	4525	6950	595	0	32847	32706	32802	32789	32633	32823	32773	32709	
2641	0	2916	5258	4537	6936	596	0	32794	32751	33031	32775	32647	32880	32605	32743	
2642	0	2924	5240	4553	6909	597	0	32727	32679	32962	32731	32681	32773	32738	32836	
2643	0	2910	5258	4574	6934	598	0	32765	32717	32917	32719	32695	32734	32751	32791	
2644	0	2914	5236	4497	6960	599	0	32806	32679	33039	32751	32724	32733	32545	32767	
2645	0	2914	5218	4539	6912	600	0	32720	32729	32759	32799	32775	32689	32690	32729	
2646	0	2898	5248	4539	6960	601	0	32772	32805	32677	32742	32775	32647	32695	32695	
2647	0	2914	5188	4563	6935	602	0	32903	32903	32719	32551	32663	32579	32608	32740	
2648	0	2884	5223	4519	6957	603	0	32825	32829	32724	32305	32639	32820	32735	32751	
2649	0	2921	5210	4542	6912	604	0	32802	32847	32695	32207	32671	32790	32717	32757	
2650	0	2862	5224	4533	6936	605	0	32807	32770	32417	32161	32719	32715	32540	32771	
2651	0	2888	5189	4499	6905	606	0	32743	32679	32391	32348	32775	32718	32749	32871	
2652	0	2916	5226	4539	6900	607	0	32690	32710	32507	32535	32797	32762	32663	32775	
2653	0	2945	5203	4557	6938	608	0	32738	32667	32474	32721	32738	32751	32573	32755	
2654	0	2850	5196	4577	6928	609	0	32647	32690	32643	32783	32719	32857	32687	32734	
2655	0	2899	5198	4560	6962	610	0	32666	32687	32538	32964	32806	32793	32724	32757	
2656	0	2929	5259	4532	6967	611	0	32702	32707	32314	33010	32754	32642	32807	32796	
2657	0	2895	5215	4520	6952	612	0	32593	32749	32457	32991	32864	32609	32575	32770	
2658	0	2916	5153	4560	6924	613	0	32559	32702	32507	33031	32831	32549	32670	32763	
2659	0	2888	5198	4570	6942	614	0	32683	32755	32735	33199	32745	32752	32674	32722	
2660	0	2905	5203	4564	6918	615	0	32783	32732	32605	33247	32695	32743	32571	32723	
2661	0	2906	5176	4524	6914	616	0	32810	32711	32657	33223	32711	32759	32613	32845	
2662	0	2893	5183	4525	6919	617	0	32771	32605	32503	32854	32679	32783	32663	32796	
2663	0	2902	5194	4540	6921	618	0	32741	32663	32462	32631	32727	32911	32687	32799	
2664	0	2891	5193	4552	6948	619	0	32718	32678	32299	32431	32775	32890	32519	32695	
2665	0	2850	5193	4550	6902	620	0	32735	32755	32463	32263	32807	32859	32677	32731	
2666	0	2873	5187	4533	6940	621	0	32790	32805	33010	32363	32767	32749	32711	32743	
2667	0	2878	5204	4560	6934	622	0	32825	32807	33383	32342	32615	32663	32594	32798	
2668	0	2872	5220	4530	6925	623	0	32797	32876	33492	32595	32690	32551	32822	32742	
2669	0	2847	5210	4528	6916	624	0	32887	32915	33579	32815	32708	32757	32771	32727	
2670	0	2858	5208	4555	6934	625	0	32853	32900	33609	32901	32767	32757	32621	32727	
2671	0	2859	5152	4568	6946	626	0	32757	32901	33595	33151	32683	32804	32679	32763	
2672	0	2867	5164	4558	6895	627	0	32769	32897	33527	33379	32683	32709	32709	32717	
2673	0	2886	5186	4548	6927	628	0	32799	32903	32999	33255	32797	32732	32783	32791	
2674	0	2921	5162	4553	6947	629	0	32872	32695	32355	33043	32839	32789	32749	32746	
2675	0	2820	5168	4568	6896	630	0	32868	32551	32037	32991	32753	32845	32613	32786	
2676	0	2880	5211	4594	6952	631	0	32959	32423	31687	32883	32791	32802	32767	32865	
2677	0	2833	5176	4572	6938	632	0	32860	32415	31495	32843	32708	32738	32733	32875	
2678	0	2844	5190	4552	6946	633	0	32861	32519	31415	32710	32685	32799	32487	32823	
2679	0	2896	5183	4566	6932	634	0	32751	32441	31529	32626	32791	32871	32629	32773	
2680	0	2834	5178	4568	6937	635	0	32597	32382	31556	32802	32801	32915	32543	32753	
2681	0	2838	5135	4596	6944	636	0	32630	32607	31851	32791	32671	32892	32685	32733	
2682	0	2846	5156	4538	6940	637	0	32567	32603	31803	32871	32661	32826	32659	32753	
2683	0	2868	5160	4568	6910	638	0	32662	32553	32014	33103	32751	32719	32823	32751	
2684	0	2877	5184	4556	6921	639	0	32612	32645	32277	33268	32791	32709	32759	32773	
2685	0	2842	5180	4535	6980	640	0	32632	32711	32211	33185	32761	32719	32639	32791	
2686	0	2811	5190	4535	6923	641	0	32703	32572	32576	32982	32729	32713	32699	32782	
2687	0	2823	5146	4550	6981	642	0	32753	32647	32675	32895	32667	32791	32603	32796	
2688	0	2816	5181	4576	6934	643	0	32762	32695	32715	32939	32647	32631	32540	32827	
2689	0	2827	5184	4547	6923	644	0	32741	32751	32730	32887	32647	32607	32711	32827	
2690	0	2835	5160	4539	6928	645	0	32769	32820	32757	32759	32679	32647	32731	32701	
2691	0	2812	5167	4589	6924	646	0	32782	32869	32999	32709	32611	32765	32550	32748	
2692	0	2834	5171	4553	6974	647	0	32833	32782	33170	32755	32646	32717	32695	32903	
2693	0	2857	5169	4626	6958	648	0	32718	32766	33026	32685	32731	32743	32715	32795	
2694	0	2839	5128	4584	6916	649	0	32695	32813	33123	32589	32758	32817	32484	32711	
2695	0	2844	5138	4568	6948	650	0	32676	32807	33158	32561	32740	32715	32645	32723	
2696	0	2856	5196	4576	6952	651	0	32729	32879	33321	32519	32759	32717	32615	32759	
2697	0	2866	5178	4605	6938	652	0	32740	32941	33245	32487	32787	32721	32775	32723	
2698	0	2855	5178	4593	6950	653	0	32771	32919	32937	32391	32727	32647	32839	32727	
2699	0	2818	5157	4556	6976	654	0	32855	32875	33143	32263	32633	32642	32669	32764	
2700	0	2841	5127	4588	6929	655	0	32854	32770	33020	32131	32667	32613	32751	32803	
2701	0	2860	5116	4557	6942	656	0	32884	32791	32775	32159	32815	32799	32690	32775	
2702	0	2830	5149	4578	6986	657	0	32809	32631	32796	32469	32806	32775	32668	32775	
2703	0	2821	5101	4592	6898	658	0	32867	32634	32722	32647	32767	32855	32655	32679	
2704	0	2847	5142	4552	6914	659	0	32853	32679	32715	32655	32763	32846	32589	32655	
2705	0	2847	5146	4606	6986	660	0	32807	32567	32687	32771	32759	32828	32765	32639	
2706	0	2822	5115	4605	6944	661	0	32751	32563	32492	32743	32631	32836	32775	32726	
2707	0	2821	5129	4602	6962	662	0	32704	32591	32533	32893	32658	32813	32572	32767	
2708	0	2825	5154	4582	7006	663	0	32695	32711	32367	32895	32613	32764	32786	32855	
2709	0	2860	5091	4639	6944	664	0	32674	32815	32372	32837	32711	32803	32759	32791	
2710	0	2851	5150	4574	6949	665	0	32508	32823	32316	32759	32692	32751	32747	32785	
2711	0	2862	5116	4547	6946	666	0	32583	32831	32467	32739	32754	32740	32721	32775	
2712	0	2841	5149	4575	6976	667	0	32690	32839	32471	32719	32767	32639	32621	32791	
2713	0	2798	5154	4584	6990	668	0	32748	32903	32636	32735	32809	32775	32838	32687	
2714	0	2842	5173	4622	6980	669	0	32784	32805	32511	32645	32763	32741	32758	32707	
2715	0	2802	5184	4531	6984	670	0	32759	32815	32731	32683	32686	32786	32735	32742	
2716	0	2789	5118	4588	6938	671	0	32839	32789	32731	32787	32751	32903	32473	32750	
2717	0	2837	5134	4660	6949	672	0	32855	32741	32805	32724	32719	32827	32687	32739	
2718	0	2859	5147	4603	6947	673	0	32861	32734	32683	32567	32711	32659	32675	32806	
2719	0	2831	5124	4572	6942	674	0	32994	32645	32799	32527	32687	32621	32558	32801	
2720	0	2851	5122	4584	6959	675	0	33062	32743	32789	32481	32795	32635	32662	32781	
2721	0	2806	5083	4574	6986	676	0	32917	32671	32807	32529	32697	32647	32561	32835	
2722	0	2753	5098	4630	6944	677	0	32802	32661	32692	32303	32727	32635	32743	32915	
2723	0	2798	5139	4608	6957	678	0	32743	32637	32786	32259	32748	32771	32631	32871	
2724	0	2786	5076	4587	6946	679	0	32820	32749	32659	32333	32787	32751	32571	32747	
2725	0	2833	5119	4625	6952	680	0	32858	32869	32743	32405	32775	32727	32725	32711	
2726	0	2793	5148	4660	6960	681	0	32823	32835	32626	32443	32686	32731	32738	32687	
2727	0	2787	5110	4620	6977	682	0	32762	32775	32576	32667	32679	32759	32759	32647	
2728	0	2828	5125	4677	6976	683	0	32709	32894	32463	32895	32827	32659	32809	32623	
2729	0	2790	5131	4583	6974	684	0	32660	32839	32404	33019	32799	32677	32690	32613	
2730	0	2808	5127	4584	6952	685	0	32546	32807	32251	33242	32796	32604	32863	32629	
2731	0	2836	5120	4650	6964	686	0	32593	32671	32231	33231	32663	32559	32731	32723	
2732	0	2825	5128	4604	6939	687	0	32642	32644	31993	33159	32668	32573	32694	32739	
2733	0	2787	5073	4584	6986	688	0	32626	32707	32358	33123	32711	32646	32565	32775	
2734	0	2785	5092	4597	6910	689	0	32775	32543	32551	32982	32749	32662	32677	32830	
2735	0	2840	5074	4584	6964	690	0	32779	32453	32797	33087	32786	32699	32527	32823	
2736	0	2797	5110	4624	6944	691	0	32743	32593	32715	33191	32601	32690	32655	32791	
2737	0	2800	5118	4624	6956	692	0	32731	32629	32860	33227	32647	32711	32691	32775	
2738	0	2800	5084	4648	6955	693	0	32694	32567	32655	33129	32688	32703	32660	32769	
2739	0	2760	5141	4580	6979	694	0	32697	32519	32471	33101	32743	32671	32677	32791	
2740	0	2758	5100	4640	7000	695	0	32681	32679	32567	33039	32799	32635	32628	32789	
2741	0	2756	5080	4594	6977	696	0	32716	32703	32487	33010	32763	32735	32645	32831	
2742	0	2840	5105	4604	7006	697	0	32770	32787	32563	32903	32727	32781	32717	32850	
2743	0	2767	5122	4646	6969	698	0	32841	32811	32605	32786	32695	32806	32730	32791	
2744	0	2784	5130	4639	6973	699	0	32868	32855	32541	32828	32773	32794	32559	32771	
2745	0	2732	5028	4663	6974	700	0	32838	32823	32399	32674	32829	32767	32677	32751	
2746	0	2788	5112	4662	7003	701	0	32775	32851	32503	32493	32647	32738	32495	32615	
2747	0	2777	5107	4653	6969	702	0	32759	32791	32325	32511	32772	32819	32627	32621	
2748	0	2787	5085	4664	6948	703	0	32815	32845	32591	32531	32703	32758	32571	32699	
2749	0	2788	5092	4667	6969	704	0	32820	32617	32437	32573	32679	32589	32766	32718	
2750	0	2782	5089	4637	6984	705	0	32767	32551	32579	32423	32714	32559	32647	32671	
2751	0	2802	5151	4621	6947	706	0	32671	32583	32495	32301	32775	32565	32759	32662	
2752	0	2803	5122	4666	6995	707	0	32680	32647	32818	32359	32758	32647	32689	32728	
2753	0	2794	5116	4598	6967	708	0	32771	32790	32867	32435	32729	32795	32549	32759	
2754	0	2755	5094	4667	6950	709	0	32875	32787	32718	32507	32783	32535	32755	32807	
2755	0	2827	5094	4655	6931	710	0	32781	32789	32858	32595	32795	32703	32727	32854	
2756	0	2761	5112	4621	6994	711	0	32793	32805	32729	32757	32742	32783	32775	32831	
2757	0	2790	5078	4652	6974	712	0	32862	32830	32475	32839	32723	32783	32721	32812	
2758	0	2788	5087	4617	7010	713	0	32839	32759	32605	32775	32701	32775	32519	32775	
2759	0	2740	5078	4686	6964	714	0	32833	32703	32663	32775	32775	32865	32733	32774	
2760	0	2812	5028	4657	6992	715	0	32739	32675	32805	32967	32809	32877	32719	32749	
2761	0	2723	5083	4630	6989	716	0	32742	32580	32759	32982	32797	32839	32583	32727	
2762	0	2794	5094	4690	6946	717	0	32735	32621	32757	32933	32747	32788	32631	32739	
2763	0	2760	5113	4651	7012	718	0	32775	32717	33015	32831	32668	32775	32449	32710	
2764	0	2779	5092	4653	6982	719	0	32764	32658	32719	32879	32690	32815	32700	32685	
2765	0	2781	5092	4675	7020	720	0	32732	32591	32725	32789	32647	32809	32681	32711	
2766	0	2771	5136	4674	7016	721	0	32790	32710	32807	32719	32698	32811	32625	32723	
2767	0	2788	5123	4699	7005	722	0	32749	32665	32595	32683	32711	32801	32669	32731	
2768	0	2776	5064	4682	6966	723	0	32737	32807	32675	32707	32677	32823	32583	32745	
2769	0	2791	5069	4677	6949	724	0	32725	32815	32613	32525	32731	32742	32756	32817	
2770	0	2777	5101	4672	6990	725	0	32753	32877	32828	32506	32851	32802	32801	32797	
2771	0	2753	5104	4681	6984	726	0	32762	32756	32807	32491	32646	32795	32518	32807	
2772	0	2777	5108	4675	7010	727	0	32839	32719	32930	32519	32621	32839	32710	32831	
2773	0	2741	5067	4669	6973	728	0	32854	32801	32919	32501	32675	32773	32743	32762	
2774	0	2728	5088	4710	6994	729	0	32854	32794	32647	32425	32631	32719	32530	32797	
2775	0	2820	5056	4706	7028	730	0	32828	32807	32787	32391	32715	32654	32711	32839	
2776	0	2757	5079	4713	7012	731	0	32845	32839	32644	32455	32775	32539	32647	32745	
2777	0	2776	5080	4650	7016	732	0	32804	32863	32641	32511	32787	32557	32647	32743	
2778	0	2773	5084	4682	7033	733	0	32817	32817	32541	32695	32775	32727	32687	32727	
2779	0	2758	5060	4667	7015	734	0	32725	32749	32692	32807	32762	32710	32665	32740	
2780	0	2801	5110	4696	7000	735	0	32711	32715	32766	32743	32739	32751	32677	32763	
2781	0	2768	5091	4676	6982	736	0	32605	32767	32701	32959	32694	32877	32583	32807	
2782	0	2755	5094	4668	7019	737	0	32599	32526	32959	32971	32738	32839	32711	32703	
2783	0	2771	5110	4669	6970	738	0	32626	32583	33001	32885	32723	32743	32727	32694	
2784	0	2805	5117	4717	6976	739	0	32713	32636	33043	32811	32699	32733	32667	32685	
2785	0	2739	5082	4660	7020	740	0	32737	32839	32745	32647	32631	32663	32747	32757	
2786	0	2804	5050	4677	7020	741	0	32899	33005	32555	32579	32705	32660	32514	32890	
2787	0	2783	5052	4701	7042	742	0	33028	32919	32578	32625	32711	32633	32693	32807	
2788	0	2740	5090	4685	7020	743	0	32993	32579	32636	32679	32775	32593	32732	32855	
2789	0	2713	5104	4689	6999	744	0	32918	32609	32607	32819	32749	32627	32662	32838	
2790	0	2772	5098	4656	7015	745	0	32660	32628	32587	33043	32785	32827	32717	32787	
2791	0	2742	5097	4742	7012	746	0	32491	32595	32359	33195	32826	32842	32638	32727	
2792	0	2765	5082	4696	6994	747	0	32357	32455	32195	33287	32785	32783	32735	32773	
2793	0	2820	5064	4712	7029	748	0	32413	32509	32453	33431	32700	32775	32717	32846	
2794	0	2798	5048	4708	7013	749	0	32508	32642	32483	33377	32661	32735	32617	32829	
2795	0	2768	5058	4694	7012	750	0	32598	32773	32222	33151	32734	32759	32751	32775	
2796	0	2773	5061	4692	7017	751	0	32732	32775	32334	33134	32699	32735	32679	32747	
2797	0	2741	5041	4645	6988	752	0	32738	32797	32263	33059	32814	32735	32610	32735	
2798	0	2754	5074	4720	6998	753	0	32823	32757	32327	33094	32769	32802	32703	32724	
2799	0	2735	5079	4709	7026	754	0	32914	32607	32343	33047	32786	32843	32691	32679	
2800	0	2757	5080	4727	6986	755	0	32864	32567	32301	33014	32735	32758	32596	32775	
2801	0	2770	5091	4717	7040	756	0	32767	32499	32300	33060	32679	32615	32735	32775	
2802	0	2811	5129	4732	7012	757	0	32813	32468	32191	32991	32708	32629	32660	32759	
2803	0	2762	5075	4725	7033	758	0	32802	32531	32233	32807	32679	32613	32618	32729	
2804	0	2737	5028	4728	6998	759	0	32694	32647	32506	32681	32706	32615	32764	32719	
2805	0	2778	5048	4742	7000	760	0	32767	32676	32685	32499	32677	32718	32765	32709	
2806	0	2759	5043	4700	7012	761	0	32678	32921	32604	32373	32671	32743	32655	32751	
2807	0	2712	5083	4705	7022	762	0	32756	33005	32924	32486	32804	32766	32731	32759	
2808	0	2770	5098	4747	7037	763	0	32754	32847	32852	32375	32721	32754	32729	32751	
2809	0	2749	5082	4725	7012	764	0	32766	32835	32677	32439	32765	32758	32619	32743	
2810	0	2783	5080	4658	7014	765	0	32806	32871	32967	32685	32695	32740	32691	32687	
2811	0	2737	5065	4744	7008	766	0	32817	32901	33055	32727	32783	32722	32623	32723	
2812	0	2740	5120	4736	7034	767	0	32770	32993	32983	32855	32769	32695	32687	32807	
2813	0	2741	5056	4730	7021	768	0	32834	32815	33255	32977	32631	32787	32679	32819	
2814	0	2739	5088	4738	7056	769	0	32910	32743	32941	32839	32659	32644	32591	32810	
2815	0	2746	5085	4733	7028	770	0	32875	32823	33062	32775	32763	32647	32655	32767	
2816	0	2750	5084	4767	7002	771	0	32914	32771	32951	32722	32863	32711	32587	32791	
2817	0	2750	5076	4746	7028	772	0	32869	32698	33135	32701	32724	32859	32694	32805	
2818	0	2760	5026	4728	7022	773	0	32844	32740	32795	32827	32663	32805	32551	32834	
2819	0	2708	5079	4721	7004	774	0	32793	32773	32567	32833	32677	32791	32801	32766	
2820	0	2736	5058	4723	7048	775	0	32775	32703	32677	32863	32699	32801	32799	32771	
2821	0	2714	5034	4749	7020	776	0	32810	32659	32619	32707	32757	32762	32551	32757	
2822	0	2759	5025	4728	6980	777	0	32879	32685	32643	32591	32723	32875	32595	32749	
2823	0	2763	5100	4724	7001	778	0	32864	32747	32775	32493	32734	32835	32661	32803	
2824	0	2708	5061	4712	6993	779	0	32810	32709	32754	32615	32819	32815	32639	32737	
2825	0	2742	5065	4726	7064	780	0	32814	32717	32563	32677	32807	32746	32855	32701	
2826	0	2762	5083	4721	7040	781	0	32895	32766	32723	32725	32690	32675	32730	32733	
2827	0	2705	5089	4726	7024	782	0	32850	32787	32667	32611	32633	32690	32679	32743	
2828	0	2727	5065	4731	7017	783	0	32762	32803	32555	32559	32655	32662	32714	32735	
2829	0	2706	5056	4747	7064	784	0	32751	32703	32771	32647	32803	32642	32629	32715	
2830	0	2747	5049	4742	7032	785	0	32751	32698	32847	32694	32837	32775	32540	32751	
2831	0	2759	5065	4727	7033	786	0	32759	32671	32647	32678	32820	32775	32621	32719	
2832	0	2737	5059	4756	7040	787	0	32773	32723	32767	32550	32803	32817	32615	32665	
2833	0	2796	5092	4768	7064	788	0	32762	32725	32587	32531	32629	32833	32749	32735	
2834	0	2751	5069	4770	6992	789	0	32742	32826	32585	32671	32727	32766	32762	32748	
2835	0	2776	5046	4740	7022	790	0	32767	32895	32429	32935	32756	32749	32665	32748	
2836	0	2732	5091	4768	7012	791	0	32719	32634	32599	33075	32743	32820	32703	32767	
2837	0	2733	5074	4713	7043	792	0	32695	32659	32510	32941	32711	32857	32655	32745	
2838	0	2766	5070	4711	7020	793	0	32655	32640	32356	32863	32647	32885	32762	32775	
2839	0	2740	5067	4776	7064	794	0	32666	32636	32549	32711	32635	32919	32668	32726	
2840	0	2701	5029	4722	7016	795	0	32663	32583	32533	32767	32665	32775	32789	32767	
2841	0	2728	5039	4757	7008	796	0	32733	32622	32439	32679	32647	32765	32534	32749	
2842	0	2744	5046	4744	7037	797	0	32758	32647	32485	32623	32685	32715	32735	32839	
2843	0	2758	5073	4767	7052	798	0	32802	32591	32811	32671	32647	32711	32841	32805	
2844	0	2761	5064	4734	7036	799	0	32775	32558	32763	32823	32700	32731	32637	32793	
2845	0	2765	5072	4740	7047	800	0	32727	32589	32985	32871	32681	32699	32799	32758	
2846	0	2758	5040	4791	7061	801	0	32747	32708	33157	32771	32721	32735	32775	32789	
2847	0	2781	5080	4768	7044	802	0	32769	32735	32975	32843	32787	32739	32775	32751	
2848	0	2717	5080	4796	7024	803	0	32769	32647	32999	32841	32691	32850	32764	32755	
2849	0	2727	5074	4764	7038	804	0	32798	32820	32807	32747	32749	32866	32587	32775	
2850	0	2731	5048	4735	7034	805	0	32744	32859	32483	32594	32850	32828	32642	32731	
2851	0	2763	5063	4831	7039	806	0	32717	32992	32403	32435	32797	32785	32577	32763	
2852	0	2784	5043	4758	7035	807	0	32794	32871	32349	32203	32795	32767	32731	32748	
2853	0	2745	5060	4762	7015	808	0	32855	32967	32027	32082	32711	32725	32621	32742	
2854	0	2765	5056	4738	7022	809	0	32790	33095	32243	32135	32647	32751	32719	32634	
2855	0	2717	5110	4768	7016	810	0	32569	33167	32215	32329	32747	32804	32775	32711	
2856	0	2756	5043	4738	7024	811	0	32553	33126	32164	32487	32754	32756	32501	32759	
2857	0	2759	5068	4748	7052	812	0	32506	32951	32212	32695	32775	32818	32658	32695	
2858	0	2772	5048	4750	7021	813	0	32594	32775	32477	32855	32759	32807	32739	32758	
2859	0	2741	5063	4758	7042	814	0	32605	32511	32607	32986	32804	32786	32671	32774	
2860	0	2742	5073	4722	7005	815	0	32713	32259	32493	33262	32703	32753	32693	32820	
2861	0	2720	5052	4714	7001	816	0	32967	32390	32808	33338	32671	32722	32562	32900	
2862	0	2705	5018	4784	7025	817	0	32972	32647	32701	33327	32703	32793	32685	32789	
2863	0	2756	5086	4740	7019	818	0	32990	32647	32645	33263	32731	32571	32525	32831	
2864	0	2748	5039	4729	7027	819	0	32946	32503	32719	33283	32695	32590	32703	32745	
2865	0	2753	5062	4779	7012	820	0	33084	32603	32847	33221	32711	32599	32548	32773	
2866	0	2726	5091	4755	7032	821	0	32963	32479	32851	32995	32822	32658	32731	32783	
2867	0	2703	5043	4775	7010	822	0	32895	32357	32661	32979	32775	32772	32559	32812	
2868	0	2735	5044	4782	7012	823	0	32783	32323	32611	32933	32820	32871	32679	32773	
2869	0	2718	5083	4727	7054	824	0	32426	32353	32727	32863	32727	32732	32623	32743	
2870	0	2734	5075	4805	7043	825	0	32213	32325	32575	32950	32807	32729	32775	32727	
2871	0	2729	5040	4791	7042	826	0	32402	32337	32839	32820	32790	32669	32663	32775	
2872	0	2716	5056	4769	7040	827	0	32574	32493	32947	32791	32855	32819	32758	32775	
2873	0	2744	5057	4776	7019	828	0	32671	32726	32708	32887	32677	32571	32574	32738	
2874	0	2740	5041	4813	7036	829	0	32862	32871	32743	32887	32677	32596	32631	32711	
2875	0	2744	5078	4760	7028	830	0	32880	33063	32553	32955	32729	32647	32749	32699	
2876	0	2706	5078	4756	7039	831	0	32743	33191	32438	33094	32727	32615	32647	32809	
2877	0	2724	5060	4749	7056	832	0	32702	33250	32687	33003	32666	32745	32685	32799	
2878	0	2723	5044	4757	7028	833	0	32786	33413	32747	32903	32612	32643	32603	32766	
2879	0	2807	5100	4804	7008	834	0	32819	33273	32671	32847	32543	32595	32727	32863	
2880	0	2732	5060	4760	7029	835	0	32825	32996	32775	32742	32647	32644	32775	32773	
2881	0	2757	5087	4756	7036	836	0	32881	32825	32722	32687	32675	32647	32599	32763	
2882	0	2694	5064	4794	7071	837	0	32903	32671	32495	32591	32706	32655	32639	32710	
2883	0	2703	5015	4801	7029	838	0	32842	32475	32447	32365	32719	32658	32548	32767	
2884	0	2664	5080	4771	6946	839	0	32754	32521	32411	32423	32767	32599	32634	32755	
2885	0	2708	5054	4796	6976	840	0	32680	32641	32250	32235	32727	32637	32773	32655	
2886	0	2736	5028	4789	7030	841	0	32707	32698	32457	32263	32767	32647	32667	32716	
2887	0	2678	5098	4772	7034	842	0	32761	32813	32307	32493	32839	32619	32638	32772	
2888	0	2688	5044	4765	7013	843	0	32840	32823	32451	32599	32695	32591	32583	32796	
2889	0	2756	5061	4796	7039	844	0	32853	32849	32630	32548	32821	32591	32764	32811	
2890	0	2726	5060	4798	6984	845	0	32769	32765	32473	32548	32807	32775	32699	32835	
2891	0	2733	5034	4794	7001	846	0	32775	32759	32530	32495	32743	32805	32500	32828	
2892	0	2722	5072	4803	6993	847	0	32757	32615	32551	32535	32681	32775	32694	32858	
2893	0	2729	5048	4745	6986	848	0	32788	32567	32807	32562	32751	32847	32530	32823	
2894	0	2693	5056	4789	7022	849	0	32836	32715	32841	32503	32743	32747	32639	32743	
2895	0	2720	5071	4834	7034	850	0	32810	32787	32609	32567	32710	32785	32791	32683	
2896	0	2680	5054	4778	7035	851	0	32698	32831	32739	32654	32695	32751	32603	32703	
2897	0	2706	5029	4803	7059	852	0	32617	32791	32827	32767	32693	32742	32735	32659	
2898	0	2697	5078	4776	7022	853	0	32632	32701	32879	32836	32673	32761	32749	32691	
2899	0	2677	5058	4780	7012	854	0	32741	32677	32815	32859	32677	32759	32655	32711	
2900	0	2728	5063	4775	7020	855	0	32769	32766	32817	32797	32663	32807	32711	32698	
2901	0	2722	5046	4792	7009	856	0	32810	32775	32669	32845	32687	32831	32551	32739	
2902	0	2721	5066	4757	7068	857	0	32799	32743	33022	32812	32702	32775	32641	32788	
2903	0	2732	5046	4754	7027	858	0	32783	32690	33052	32695	32738	32753	32660	32749	
2904	0	2681	5088	4773	7016	859	0	32790	32729	32851	32532	32647	32799	32716	32699	
2905	0	2705	5065	4787	7024	860	0	32877	32845	32976	32514	32691	32789	32660	32733	
2906	0	2703	5070	4791	7022	861	0	32819	32765	32615	32591	32743	32827	32679	32783	
2907	0	2743	5041	4804	7037	862	0	32775	32775	32557	32727	32769	32815	32725	32757	
2908	0	2754	5075	4816	7030	863	0	32770	32647	32381	32931	32821	32811	32614	32763	
2909	0	2710	5043	4773	6997	864	0	32768	32567	32423	32789	32783	32739	32823	32733	
2910	0	2730	5031	4794	7025	865	0	32703	32615	32415	32671	32739	32689	32821	32771	
2911	0	2724	5062	4793	7050	866	0	32702	32687	32687	32639	32727	32677	32701	32775	
2912	0	2702	5069	4744	6979	867	0	32738	32802	32623	32533	32741	32723	32767	32735	
2913	0	2698	5058	4803	7086	868	0	32726	32742	32583	32429	32803	32708	32647	32759	
2914	0	2725	5076	4792	7064	869	0	32743	32868	32633	32434	32719	32785	32791	32763	
2915	0	2666	5056	4792	7035	870	0	32807	32967	32694	32370	32711	32837	32775	32788	
2916	0	2716	5069	4836	7025	871	0	32765	33047	32749	32438	32639	32785	32716	32739	
2917	0	2696	5026	4771	7028	872	0	32775	32919	32703	32479	32670	32781	32690	32805	
2918	0	2733	5076	4830	7073	873	0	32679	32863	32821	32450	32815	32765	32578	32775	
2919	0	2719	5043	4762	6995	874	0	32729	32722	32775	32486	32820	32706	32669	32855	
2920	0	2692	5028	4770	7045	875	0	32692	32749	32673	32527	32789	32709	32557	32860	
2921	0	2722	5027	4794	7040	876	0	32794	32735	32836	32735	32775	32789	32681	32783	
2922	0	2718	5024	4747	7041	877	0	32758	32607	32809	32851	32639	32731	32687	32775	
2923	0	2697	5017	4792	7035	878	0	32727	32575	32639	33122	32690	32731	32642	32791	
2924	0	2692	5050	4783	7048	879	0	32711	32575	32817	33343	32765	32607	32694	32733	
2925	0	2703	5052	4801	7042	880	0	32795	32583	32691	33151	32687	32591	32695	32727	
2926	0	2670	5043	4797	7031	881	0	32847	32715	32549	33133	32663	32638	32815	32775	
2927	0	2691	5013	4778	7024	882	0	32806	32679	32627	33047	32695	32676	32671	32837	
2928	0	2663	5036	4747	7008	883	0	32775	32647	32527	32862	32721	32548	32635	32803	
2929	0	2696	5038	4797	7016	884	0	32808	32636	32331	32855	32759	32559	32595	32850	
2930	0	2740	5028	4792	7035	885	0	32722	32669	32549	32900	32815	32563	32775	32775	
2931	0	2683	5016	4787	7052	886	0	32739	32709	32487	32855	32677	32587	32711	32715	
2932	0	2691	5066	4798	7032	887	0	32791	32723	32423	33095	32676	32553	32609	32823	
2933	0	2705	5024	4790	7028	888	0	32759	32647	32551	33215	32687	32743	32588	32836	
2934	0	2693	5035	4820	6987	889	0	32738	32607	32637	33207	32775	32806	32674	32839	
2935	0	2711	5027	4792	7038	890	0	32837	32661	32587	33191	32835	32804	32575	32831	
2936	0	2678	5082	4782	7003	891	0	32814	32660	32581	33357	32789	32706	32695	32871	
2937	0	2700	5044	4794	7083	892	0	32758	32647	32669	33330	32833	32711	32582	32839	
2938	0	2682	5013	4781	7008	893	0	32796	32467	32527	32833	32636	32775	32719	32773	
2939	0	2698	4999	4778	7062	894	0	32794	32630	32666	32689	32572	32902	32807	32609	
2940	0	2704	5048	4813	7034	895	0	32783	32601	32604	32700	32749	32903	32637	32660	
2941	0	2658	5016	4768	7030	896	0	32740	32605	32398	32656	32767	32837	32663	32735	
2942	0	2700	5035	4788	7006	897	0	32710	32677	32434	32540	32727	32769	32637	32735	
2943	0	2716	5014	4760	7053	898	0	32689	32758	32543	32503	32722	32765	32623	32789	
2944	0	2727	4996	4817	7017	899	0	32700	32681	32666	32573	32783	32799	32647	32819	
2945	0	2707	5030	4791	7053	900	0	32783	32609	32605	32663	32788	32876	32807	32769	
2946	0	2720	5090	4737	7047	901	0	32810	32730	32570	32601	32835	32862	32600	32758	
2947	0	2684	5013	4806	7066	902	0	32791	32837	32615	32599	32679	32858	32749	32751	
2948	0	2654	5010	4814	7032	903	0	32710	32855	32645	32743	32686	32772	32757	32762	
2949	0	2716	4986	4836	6987	904	0	32674	32775	32633	32726	32710	32866	32715	32791	
2950	0	2697	5043	4764	7056	905	0	32634	32759	32535	32715	32737	32703	32703	32769	
2951	0	2667	5039	4782	7079	906	0	32564	32647	32599	32706	32751	32763	32506	32775	
2952	0	2699	5013	4809	7099	907	0	32533	32686	32735	32639	32745	32724	32767	32734	
2953	0	2682	4982	4800	7047	908	0	32603	32735	32636	32583	32706	32621	32807	32598	
2954	0	2652	5011	4760	7018	909	0	32665	32831	32614	32485	32644	32535	32617	32647	
2955	0	2659	5058	4816	7059	910	0	32789	32879	32865	32637	32667	32711	32599	32713	
2956	0	2690	5012	4730	7022	911	0	32775	32823	33095	32751	32647	32713	32715	32743	
2957	0	2621	4994	4808	7056	912	0	32831	32863	32797	32758	32731	32773	32539	32750	
2958	0	2654	5038	4771	7022	913	0	32893	32901	32829	32847	32701	32738	32724	32822	
2959	0	2713	4987	4815	7048	914	0	32934	32799	32741	32903	32723	32775	32671	32791	
2960	0	2662	5013	4769	7032	915	0	32914	32687	32691	32903	32723	32743	32555	32788	
2961	0	2656	5008	4825	7066	916	0	32933	32559	32943	32807	32695	32796	32671	32818	
2962	0	2697	5004	4777	7000	917	0	32929	32599	32935	32775	32647	32823	32557	32749	
2963	0	2656	4997	4841	7032	918	0	32825	32611	32677	32643	32658	32839	32613	32857	
2964	0	2682	5036	4784	7058	919	0	32861	32623	32509	32729	32677	32678	32691	32794	
2965	0	2628	5016	4810	7033	920	0	32844	32583	32180	32583	32647	32626	32660	32815	
2966	0	2686	4968	4831	7044	921	0	32681	32639	32503	32647	32732	32655	32703	32838	
2967	0	2678	5004	4754	7062	922	0	32636	32804	32583	32675	32663	32635	32700	32775	
2968	0	2694	4958	4776	7012	923	0	32578	32762	32623	32731	32767	32599	32621	32764	
2969	0	2650	4971	4828	7076	924	0	32679	32785	32548	32663	32806	32607	32726	32734	
2970	0	2645	5010	4824	7073	925	0	32834	32805	32834	32607	32671	32676	32695	32775	
2971	0	2685	5000	4803	7048	926	0	32940	32767	32735	32627	32679	32733	32539	32794	
2972	0	2676	5049	4817	7063	927	0	32910	32827	32535	32642	32716	32731	32645	32807	
2973	0	2664	4995	4766	7049	928	0	32835	32835	32617	32628	32738	32739	32807	32767	
2974	0	2664	4976	4800	7052	929	0	32775	32841	32601	32794	32719	32783	32687	32775	
2975	0	2644	4960	4836	7042	930	0	32732	32767	32183	32988	32679	32903	32785	32713	
2976	0	2683	4970	4786	7030	931	0	32765	32677	32427	32903	32775	32815	32621	32683	
2977	0	2631	5002	4801	7043	932	0	32636	32573	32547	32862	32718	32843	32687	32607	
2978	0	2656	5005	4830	7073	933	0	32629	32607	32411	32903	32640	32799	32795	32610	
2979	0	2642	4992	4821	7069	934	0	32669	32607	32429	32997	32709	32833	32607	32685	
2980	0	2650	5005	4798	7088	935	0	32822	32601	32343	32967	32715	32859	32647	32647	
2981	0	2621	4990	4841	7064	936	0	32821	32772	32586	32836	32783	32863	32676	32670	
2982	0	2653	4960	4854	7036	937	0	32834	32717	32751	32824	32782	32865	32643	32654	
2983	0	2674	4984	4834	7045	938	0	32697	32689	32607	32827	32855	32703	32687	32687	
2984	0	2648	4935	4813	7063	939	0	32602	32715	32591	32858	32789	32603	32742	32807	
2985	0	2661	5004	4824	7097	940	0	32711	32758	32600	32859	32743	32602	32571	32763	
2986	0	2664	4976	4848	7102	941	0	32702	32833	32676	32813	32755	32559	32757	32821	
2987	0	2630	5004	4823	7075	942	0	32696	32839	32612	32578	32703	32541	32639	32790	
2988	0	2658	4985	4779	7092	943	0	32773	32839	32716	32531	32711	32553	32749	32823	
2989	0	2693	4979	4816	7099	944	0	32827	32871	32502	32567	32647	32745	32691	32786	
2990	0	2700	4948	4839	7104	945	0	32730	32917	32611	32667	32687	32751	32578	32799	
2991	0	2647	4984	4817	7118	946	0	32690	32901	32759	32668	32716	32751	32679	32788	
2992	0	2681	4976	4832	7088	947	0	32771	32683	32606	32611	32791	32749	32615	32789	
2993	0	2669	4984	4838	7092	948	0	32749	32630	32811	32566	32734	32783	32663	32771	
2994	0	2635	4971	4843	7109	949	0	32783	32607	32802	32647	32647	32771	32594	32869	
2995	0	2672	5000	4785	7080	950	0	32759	32663	32965	32629	32818	32751	32637	32803	
2996	0	2689	4964	4838	7086	951	0	32764	32673	32806	32543	32847	32773	32727	32814	
2997	0	2656	5005	4820	7108	952	0	32782	32673	32740	32647	32775	32754	32731	32773	
2998	0	2652	4964	4864	7054	953	0	32788	32655	32869	32647	32775	32759	32615	32815	
2999	0	2667	4996	4848	7112	954	0	32768	32647	32819	32605	32747	32833	32759	32775	
3000	0	2680	4993	4858	7080	955	0	32704	32654	32565	32655	32679	32914	32747	32783	
3001	0	2646	4944	4786	7088	956	0	32824	32723	32691	32683	32647	32861	32590	32791	
3002	0	2638	4977	4810	7096	957	0	32866	32723	32635	32683	32791	32851	32759	32787	
3003	0	2706	4960	4802	7102	958	0	32813	32749	32663	32795	32747	32767	32559	32787	
3004	0	2616	4970	4833	7114	959	0	32808	32807	32410	32758	32703	32755	32823	32773	
3005	0	2670	4978	4817	7093	960	0	32740	32807	32591	32829	32749	32816	32705	32735	
3006	0	2638	4990	4829	7084	961	0	32802	32753	32598	33011	32775	32783	32575	32749	
3007	0	2629	4980	4813	7086	962	0	32731	32753	32538	33013	32674	32843	32737	32799	
3008	0	2667	4985	4835	7074	963	0	32768	32659	32615	32997	32647	32829	32834	32743	
3009	0	2700	4952	4832	7118	964	0	32749	32647	32535	32899	32706	32885	32578	32764	
3010	0	2650	5008	4822	7108	965	0	32745	32679	32609	32774	32775	32887	32721	32719	
3011	0	2616	5004	4821	7064	966	0	32764	32612	32629	32692	32799	32851	32620	32719	
3012	0	2653	4993	4840	7032	967	0	32793	32657	32470	32679	32669	32826	32699	32723	
3013	0	2648	4970	4851	7114	968	0	32820	32658	32633	32654	32550	32804	32695	32790	
3014	0	2659	4986	4862	7114	969	0	32791	32599	32679	32575	32759	32935	32685	32749	
3015	0	2680	4948	4842	7114	970	0	32751	32647	32558	32613	32756	32847	32663	32740	
3016	0	2625	4953	4816	7086	971	0	32794	32821	32736	32629	32711	32747	32516	32708	
3017	0	2670	4986	4830	7124	972	0	32806	32731	32811	32598	32721	32797	32609	32725	
3018	0	2640	4962	4833	7104	973	0	32790	32719	32892	32518	32645	32831	32509	32775	
3019	0	2564	4964	4885	7149	974	0	32824	32816	32795	32564	32711	32787	32619	32751	
3020	0	2622	4934	4867	7145	975	0	32863	32919	32715	32665	32775	32735	32575	32802	
3021	0	2621	4920	4883	7100	976	0	32794	32855	32775	32727	32743	32741	32719	32775	
3022	0	2643	4970	4817	7116	977	0	32749	32895	32886	32727	32677	32702	32687	32802	
3023	0	2660	4950	4864	7085	978	0	32713	32725	33063	32692	32709	32707	32661	32807	
3024	0	2671	5013	4881	7075	979	0	32714	32766	32743	32743	32749	32743	32727	32835	
3025	0	2653	5001	4828	7130	980	0	32769	32775	32511	32813	32659	32836	32525	32862	
3026	0	2627	4979	4876	7081	981	0	32800	32807	32571	32948	32734	32807	32711	32876	
3027	0	2620	4945	4856	7087	982	0	32754	32837	32447	33029	32724	32788	32791	32826	
3028	0	2615	4961	4832	7094	983	0	32741	32807	32415	33037	32687	32769	32614	32775	
3029	0	2614	4981	4840	7104	984	0	32692	32745	32577	33025	32709	32751	32741	32753	
3030	0	2627	4900	4859	7109	985	0	32624	32671	32455	33007	32685	32767	32793	32775	
3031	0	2665	4926	4834	7126	986	0	32630	32532	32321	32966	32775	32807	32669	32762	
3032	0	2635	4936	4862	7107	987	0	32604	32404	32449	32939	32791	32919	32729	32708	
3033	0	2666	4935	4866	7116	988	0	32524	32598	32475	32881	32746	32927	32662	32807	
3034	0	2663	4952	4846	7125	989	0	32545	32503	32559	32801	32738	32876	32671	32775	
3035	0	2650	4996	4872	7088	990	0	32588	32598	32747	32839	32603	32911	32710	32788	
3036	0	2652	4932	4848	7141	991	0	32669	32767	32763	32691	32631	32847	32717	32791	
3037	0	2645	4919	4821	7108	992	0	32737	32747	32818	32713	32735	32843	32735	32812	
3038	0	2606	4931	4859	7154	993	0	32806	32706	32775	32797	32743	32775	32655	32785	
3039	0	2648	4964	4834	7157	994	0	32913	32647	32884	32819	32711	32722	32741	32789	
3040	0	2633	4984	4865	7113	995	0	32962	32641	32767	32939	32693	32775	32668	32791	
3041	0	2619	4954	4884	7101	996	0	32854	32738	32698	32922	32828	32806	32588	32805	
3042	0	2618	4929	4809	7138	997	0	32840	32775	32851	32775	32820	32820	32679	32723	
3043	0	2551	4928	4868	7139	998	0	32852	32775	32689	32763	32795	32830	32733	32728	
3044	0	2606	4964	4882	7100	999	0	32817	32863	32855	32879	32731	32789	32647	32740	
3045	0	2620	4957	4835	7134	1000	0	32791	32796	32687	32801	32759	32787	32732	32767	
3046	0	2645	4931	4885	7140	1001	0	32745	32734	32487	32735	32898	32631	32581	32754	
3047	0	2652	4902	4827	7098	1002	0	32773	32741	32135	32511	32787	32538	32708	32703	
3048	0	2649	4946	4872	7110	1003	0	32731	32812	32203	32534	32775	32591	32615	32723	
3049	0	2603	4954	4829	7130	1004	0	32686	32797	32103	32487	32743	32847	32822	32701	
3050	0	2600	4940	4874	7116	1005	0	32663	32766	32111	32423	32757	32884	32775	32707	
3051	0	2646	4939	4855	7106	1006	0	32707	32711	31943	32351	32751	32839	32551	32787	
3052	0	2644	4932	4896	7111	1007	0	32784	32775	32347	32271	32684	32617	32727	32813	
3053	0	2622	4944	4852	7147	1008	0	32816	32804	32324	32306	32655	32582	32671	32757	
3054	0	2593	4921	4898	7115	1009	0	32754	32799	32379	32402	32710	32647	32693	32728	
3055	0	2644	4989	4863	7138	1010	0	32644	32817	32487	32499	32763	32737	32727	32802	
3056	0	2650	4944	4867	7140	1011	0	32596	32641	32607	32559	32711	32791	32583	32707	
3057	0	2603	4916	4846	7160	1012	0	32709	32717	32679	32623	32685	32571	32724	32708	
3058	0	2650	4946	4848	7128	1013	0	32709	32732	32716	32751	32659	32615	32556	32694	
3059	0	2617	4966	4835	7136	1014	0	32711	32895	32797	32775	32639	32566	32663	32741	
3060	0	2621	4910	4830	7094	1015	0	32806	32780	32911	32828	32735	32611	32621	32708	
3061	0	2605	4958	4871	7132	1016	0	32690	32773	32820	32966	32703	32603	32787	32727	
3062	0	2626	4932	4932	7130	1017	0	32743	32887	32834	32807	32719	32599	32703	32806	
3063	0	2638	4954	4844	7088	1018	0	32801	32857	32974	32733	32734	32623	32635	32775	
3064	0	2645	4921	4876	7152	1019	0	32690	32806	33075	32635	32667	32550	32719	32869	
3065	0	2637	4918	4874	7156	1020	0	32719	32799	33083	32703	32663	32743	32700	32861	
3066	0	2641	4930	4890	7145	1021	0	32788	32735	32957	32567	32631	32733	32562	32843	
3067	0	2629	4960	4877	7138	1022	0	32839	32749	32863	32391	32591	32735	32679	32935	
3068	0	2642	4919	4837	7127	1023	0	32823	32660	32765	32331	32647	32763	32642	32867	
3069	0	2633	4911	4864	7116	1024	0	32782	32743	32564	32487	32668	32797	32470	32883	
3070	0	2633	4913	4876	7073	1025	0	32773	32662	32698	32476	32742	32839	32647	32903	
3071	0	2613	4980	4890	7144	1026	0	32822	32673	32645	32527	32771	32869	32707	32743	
3072	0	2635	4913	4880	7120	1027	0	32796	32679	32407	32623	32759	32747	32697	32627	
3073	0	2616	4820	4865	7117	1028	0	32788	32647	32711	32738	32717	32754	32732	32575	
3074	0	2628	4944	4894	7099	1029	0	32791	32708	32741	32722	32775	32613	32635	32628	
3075	0	2595	4872	4900	7132	1030	0	32850	32811	32629	32570	32767	32589	32645	32703	
3076	0	2637	4922	4830	7115	1031	0	32799	32821	32775	32767	32749	32754	32661	32731	
3077	0	2642	4933	4856	7142	1032	0	32810	32863	32718	33031	32743	32765	32739	32609	
3078	0	2660	4915	4804	7131	1033	0	32795	32839	32638	33295	32719	32727	32718	32681	
3079	0	2616	4930	4852	7125	1034	0	32801	32725	32623	33555	32725	32699	32807	32724	
3080	0	2593	4910	4868	7161	1035	0	32763	32679	32564	33703	32757	32765	32763	32751	
3081	0	2623	4931	4869	7141	1036	0	32808	32535	32899	33658	32832	32693	32538	32785	
3082	0	2674	4933	4858	7148	1037	0	32844	32524	32799	33671	32873	32724	32703	32851	
3083	0	2635	4920	4860	7118	1038	0	32835	32470	32751	33579	32677	32717	32575	32814	
3084	0	2644	4896	4904	7132	1039	0	32824	32365	32678	33355	32811	32757	32775	32839	
3085	0	2635	4907	4882	7156	1040	0	32723	32354	32567	33045	32755	32711	32819	32749	
3086	0	2590	4908	4880	7147	1041	0	32713	32451	32484	32749	32847	32695	32612	32766	
3087	0	2605	4942	4900	7162	1042	0	32716	32518	32366	32578	32839	32671	32655	32759	
3088	0	2615	4899	4857	7118	1043	0	32714	32718	32460	32543	32773	32799	32735	32763	
3089	0	2625	4900	4850	7149	1044	0	32761	32772	32543	32450	32787	32773	32607	32784	
3090	0	2647	4910	4852	7165	1045	0	32775	32602	32883	32391	32758	32806	32710	32829	
3091	0	2643	4945	4857	7128	1046	0	32701	32639	32695	32495	32647	32839	32551	32818	
3092	0	2651	4913	4837	7129	1047	0	32773	32667	32645	32643	32647	32827	32735	32791	
3093	0	2642	4924	4837	7168	1048	0	32807	32726	32679	32751	32615	32775	32660	32718	
3094	0	2634	4900	4839	7136	1049	0	32753	32790	32623	32767	32715	32783	32581	32717	
3095	0	2600	4932	4855	7170	1050	0	32663	32850	32519	32787	32677	32773	32702	32772	
3096	0	2658	4939	4878	7134	1051	0	32657	32804	32785	32775	32758	32751	32715	32710	
3097	0	2610	4943	4864	7148	1052	0	32749	32786	32751	32578	32795	32747	32507	32815	
3098	0	2641	4925	4881	7159	1053	0	32695	32838	32550	32501	32691	32772	32719	32753	
3099	0	2636	4932	4842	7126	1054	0	32775	32909	32831	32469	32715	32761	32665	32679	
3100	0	2613	4915	4826	7128	1055	0	32766	32873	32705	32519	32756	32805	32839	32637	
3101	0	2648	4905	4844	7134	1056	0	32766	32887	32591	32513	32775	32839	32693	32731	
3102	0	2583	4897	4873	7150	1057	0	32793	32899	32718	32502	32773	32820	32582	32798	
3103	0	2633	4857	4804	7132	1058	0	32818	32903	32515	32501	32775	32807	32644	32836	
3104	0	2653	4877	4819	7168	1059	0	32742	32891	32623	32375	32700	32810	32639	32893	
3105	0	2619	4901	4832	7140	1060	0	32767	32799	32447	32406	32738	32802	32514	32783	
3106	0	2612	4901	4836	7128	1061	0	32788	32850	32692	32558	32714	32804	32644	32807	
3107	0	2624	4910	4861	7128	1062	0	32762	32770	32647	32542	32708	32841	32772	32715	
3108	0	2587	4909	4843	7140	1063	0	32733	32699	32511	32661	32799	32839	32667	32759	
3109	0	2608	4905	4859	7120	1064	0	32770	32734	32713	32833	32711	32828	32743	32775	
3110	0	2600	4898	4826	7149	1065	0	32808	32719	32642	32807	32771	32943	32635	32803	
3111	0	2614	4920	4821	7152	1066	0	32786	32807	32719	32902	32620	32895	32831	32766	
3112	0	2630	4904	4812	7140	1067	0	32863	32879	32682	32871	32700	32789	32669	32801	
3113	0	2612	4902	4810	7169	1068	0	32875	32879	32885	33055	32707	32823	32598	32749	
3114	0	2602	4900	4828	7154	1069	0	32836	32775	32698	32939	32731	32819	32639	32719	
3115	0	2664	4904	4840	7202	1070	0	32862	32810	32413	32871	32736	32819	32615	32694	
3116	0	2636	4936	4804	7150	1071	0	32805	32751	32453	32935	32726	32774	32647	32805	
3117	0	2636	4892	4849	7139	1072	0	32669	32723	32246	32924	32719	32787	32647	32775	
3118	0	2659	4903	4821	7156	1073	0	32590	32640	32159	32818	32719	32859	32677	32797	
3119	0	2606	4907	4836	7144	1074	0	32596	32647	32461	32655	32749	32820	32591	32819	
3120	0	2640	4890	4841	7158	1075	0	32628	32655	32519	32703	32694	32714	32764	32719	
3121	0	2617	4881	4841	7170	1076	0	32726	32699	32559	32692	32743	32674	32711	32740	
3122	0	2636	4915	4824	7138	1077	0	32684	32735	32687	32626	32826	32660	32551	32801	
3123	0	2642	4894	4846	7176	1078	0	32722	32740	32823	32543	32868	32655	32775	32863	
3124	0	2651	4926	4831	7161	1079	0	32739	32741	32797	32525	32759	32647	32727	32862	
3125	0	2629	4879	4803	7123	1080	0	32786	32743	32885	32551	32837	32791	32789	32710	
3126	0	2658	4933	4818	7168	1081	0	32786	32758	32635	32677	32707	32871	32687	32607	
3127	0	2572	4886	4808	7154	1082	0	32775	32711	32775	32767	32757	32787	32687	32726	
3128	0	2642	4891	4890	7116	1083	0	32705	32695	32675	32711	32734	32749	32594	32679	
3129	0	2610	4936	4868	7170	1084	0	32765	32595	32793	32743	32739	32767	32743	32735	
3130	0	2636	4908	4823	7206	1085	0	32823	32631	32535	32738	32711	32821	32613	32767	
3131	0	2622	4874	4820	7139	1086	0	32781	32694	32638	32842	32739	32789	32601	32692	
3132	0	2595	4890	4814	7138	1087	0	32726	32751	32740	32871	32716	32870	32615	32709	
3133	0	2627	4853	4833	7146	1088	0	32775	32639	32534	32829	32711	32847	32561	32839	
3134	0	2593	4899	4835	7160	1089	0	32724	32690	32839	32733	32815	32719	32727	32894	
3135	0	2602	4876	4872	7137	1090	0	32841	32743	32710	32791	32713	32727	32796	32829	
3136	0	2607	4912	4833	7166	1091	0	32779	32767	32706	32764	32607	32687	32663	32854	
3137	0	2672	4889	4803	7139	1092	0	32772	32815	32813	32795	32632	32633	32775	32767	
3138	0	2638	4907	4810	7131	1093	0	32725	32831	32673	32771	32666	32607	32647	32727	
3139	0	2579	4898	4830	7118	1094	0	32772	32681	32659	32731	32709	32557	32791	32724	
3140	0	2586	4907	4850	7143	1095	0	32749	32807	32543	32823	32709	32615	32708	32705	
3141	0	2649	4844	4846	7146	1096	0	32805	32655	32695	32699	32677	32765	32551	32775	
3142	0	2618	4872	4826	7164	1097	0	32773	32658	32819	32799	32671	32723	32690	32863	
3143	0	2587	4860	4849	7092	1098	0	32749	32670	32601	32707	32734	32732	32639	32847	
3144	0	2567	4932	4833	7176	1099	0	32756	32633	32700	32715	32686	32737	32463	32791	
3145	0	2561	4915	4827	7151	1100	0	32821	32749	32671	32742	32673	32739	32694	32775	
3146	0	2589	4900	4869	7173	1101	0	32812	32810	32531	32751	32703	32708	32677	32743	
3147	0	2642	4900	4828	7131	1102	0	32812	32879	32607	32677	32635	32758	32511	32727	
3148	0	2640	4906	4835	7184	1103	0	32771	32813	32587	32767	32852	32784	32692	32801	
3149	0	2653	4886	4782	7170	1104	0	32748	32818	32467	32725	32839	32786	32631	32807	
3150	0	2597	4932	4888	7153	1105	0	32814	32862	32620	32725	32807	32847	32701	32855	
3151	0	2622	4886	4857	7173	1106	0	32768	32727	32593	32738	32815	32759	32787	32811	
3152	0	2654	4908	4856	7130	1107	0	32748	32671	32411	32725	32763	32757	32569	32715	
3153	0	2651	4881	4839	7152	1108	0	32673	32671	32639	32726	32739	32638	32815	32663	
3154	0	2618	4918	4849	7158	1109	0	32664	32595	32611	32791	32735	32631	32819	32671	
3155	0	2670	4920	4844	7145	1110	0	32690	32606	32486	32903	32713	32635	32617	32711	
3156	0	2627	4883	4839	7180	1111	0	32765	32610	32647	32821	32709	32663	32767	32755	
3157	0	2627	4872	4812	7152	1112	0	32800	32731	32551	32861	32694	32623	32655	32765	
3158	0	2623	4918	4831	7162	1113	0	32775	32701	32565	32833	32679	32622	32732	32775	
3159	0	2602	4946	4856	7180	1114	0	32732	32735	32549	32806	32775	32791	32700	32743	
3160	0	2634	4884	4808	7168	1115	0	32737	32731	32581	32826	32767	32837	32583	32806	
3161	0	2617	4870	4855	7160	1116	0	32759	32727	32599	32839	32775	32818	32647	32773	
3162	0	2648	4875	4837	7193	1117	0	32727	32671	32619	32813	32751	32805	32572	32820	
3163	0	2642	4871	4834	7154	1118	0	32745	32719	32705	32823	32735	32767	32450	32854	
3164	0	2615	4895	4803	7180	1119	0	32722	32695	32710	32742	32619	32863	32585	32895	
3165	0	2642	4885	4840	7192	1120	0	32729	32727	32730	32703	32639	32855	32635	32919	
3166	0	2650	4873	4839	7189	1121	0	32679	32685	32646	32683	32594	32806	32413	32923	
3167	0	2638	4924	4836	7176	1122	0	32743	32731	32690	32707	32615	32820	32565	32862	
3168	0	2661	4871	4851	7140	1123	0	32712	32775	32487	32659	32667	32789	32587	32775	
3169	0	2624	4874	4862	7194	1124	0	32717	32838	32578	32635	32719	32743	32561	32831	
3170	0	2610	4922	4819	7161	1125	0	32674	32677	32567	32567	32775	32611	32629	32887	
3171	0	2627	4912	4843	7178	1126	0	32647	32707	32587	32609	32703	32599	32596	32831	
3172	0	2602	4842	4843	7128	1127	0	32615	32751	32423	32639	32690	32535	32507	32775	
3173	0	2640	4876	4837	7156	1128	0	32730	32787	32577	32684	32611	32588	32557	32761	
3174	0	2642	4878	4865	7108	1129	0	32654	32831	32451	32726	32635	32662	32507	32807	
3175	0	2593	4909	4863	7173	1130	0	32716	32868	32551	32677	32583	32695	32711	32722	
3176	0	2650	4910	4855	7144	1131	0	32738	32854	32471	32710	32758	32659	32754	32725	
3177	0	2615	4858	4860	7122	1132	0	32754	32887	32531	32591	32791	32815	32615	32690	
3178	0	2633	4895	4828	7177	1133	0	32799	32949	32447	32597	32749	32690	32763	32687	
3179	0	2596	4901	4854	7204	1134	0	32849	32851	32543	32582	32666	32713	32569	32614	
3180	0	2644	4885	4790	7147	1135	0	32830	32799	32471	32607	32655	32709	32690	32614	
3181	0	2596	4870	4816	7158	1136	0	32788	32766	32421	32678	32713	32647	32663	32679	
3182	0	2601	4905	4856	7198	1137	0	32835	32927	32805	32627	32735	32738	32787	32679	
3183	0	2608	4900	4826	7202	1138	0	32854	32876	32791	32667	32759	32662	32784	32631	
3184	0	2611	4900	4794	7150	1139	0	32923	32903	32865	32598	32823	32631	32710	32597	
3185	0	2596	4900	4809	7169	1140	0	32844	32943	32775	32705	32743	32695	32775	32599	
3186	0	2674	4912	4835	7214	1141	0	32852	32917	32659	32749	32735	32655	32670	32639	
3187	0	2619	4896	4808	7153	1142	0	32870	32878	32725	32806	32764	32847	32727	32642	
3188	0	2630	4872	4817	7184	1143	0	32873	32743	32699	32799	32837	32806	32791	32621	
3189	0	2600	4900	4849	7142	1144	0	32892	32717	32753	32755	32871	32796	32671	32701	
3190	0	2616	4942	4884	7120	1145	0	32834	32699	32769	32647	32831	32775	32875	32735	
3191	0	2614	4818	4808	7126	1146	0	32952	32687	32818	32684	32901	32799	32845	32707	
3192	0	2688	4845	4810	7142	1147	0	32909	32661	32699	32847	32866	32757	32791	32599	
3193	0	2616	4901	4788	7194	1148	0	32915	32574	32903	32927	32850	32756	33005	32535	
3194	0	2595	4885	4827	7194	1149	0	32970	32591	32879	32967	32891	32722	32883	32503	
3195	0	2680	4861	4827	7195	1150	0	32940	32633	32827	32954	32833	32677	33156	32501	
3196	0	2617	4889	4792	7164	1151	0	32935	32634	33063	33021	32815	32647	33133	32527	
3197	0	2650	4870	4783	7158	1152	0	32884	32501	33010	33102	32893	32695	32982	32567	
3198	0	2644	4893	4809	7192	1153	0	32902	32423	33031	33135	32811	32787	33157	32555	
3199	0	2608	4900	4856	7173	1154	0	32852	32447	32894	33029	32794	32835	33008	32553	
3200	0	2679	4900	4848	7140	1155	0	32848	32503	32843	33031	32874	32747	33055	32573	
3201	0	2628	4876	4836	7152	1156	0	32884	32455	33063	33043	32802	32795	32876	32643	
3202	0	2630	4923	4841	7200	1157	0	32838	32460	32948	32998	32865	32807	32922	32663	
3203	0	2628	4906	4818	7160	1158	0	32761	32431	32966	33043	32692	32743	32751	32821	
3204	0	2654	4859	4813	7117	1159	0	32738	32477	32677	33055	32717	32732	32789	32758	
3205	0	2630	4862	4836	7230	1160	0	32663	32471	32733	32956	32735	32691	32705	32918	
3206	0	2658	4869	4836	7129	1161	0	32629	32519	32647	32959	32695	32733	32431	32966	
3207	0	2631	4907	4808	7190	1162	0	32558	32653	32399	32771	32572	32661	32493	32933	
3208	0	2641	4910	4838	7154	1163	0	32543	32758	32535	32800	32669	32738	32356	32971	
3209	0	2632	4890	4836	7169	1164	0	32507	32731	32403	32678	32531	32707	32441	32979	
3210	0	2625	4926	4812	7182	1165	0	32495	32797	32183	32695	32559	32506	32409	32967	
3211	0	2670	4926	4832	7201	1166	0	32483	32763	32282	32567	32558	32539	32195	33023	
3212	0	2634	4883	4819	7177	1167	0	32507	32831	32349	32543	32487	32545	32223	33151	
3213	0	2633	4877	4889	7234	1168	0	32485	32798	32495	32623	32495	32662	32199	33159	
3214	0	2624	4893	4822	7156	1169	0	32479	32679	32459	32623	32633	32698	32354	33185	
3215	0	2632	4896	4893	7190	1170	0	32569	32683	32295	32605	32535	32786	32319	33117	
3216	0	2618	4882	4856	7195	1171	0	32581	32791	32383	32585	32587	32823	32367	33055	
3217	0	2674	4909	4860	7205	1172	0	32620	32797	32459	32615	32637	32795	32251	32959	
3218	0	2666	4906	4857	7205	1173	0	32605	32607	32413	32551	32675	32842	32427	32962	
3219	0	2614	4880	4861	7194	1174	0	32639	32662	32463	32581	32719	32871	32315	32967	
3220	0	2632	4897	4809	7201	1175	0	32641	32670	32420	32679	32667	32790	32525	32903	
3221	0	2635	4898	4865	7176	1176	0	32697	32663	32565	32695	32647	32765	32565	32819	
3222	0	2594	4895	4851	7195	1177	0	32766	32645	32515	32794	32715	32786	32540	32831	
3223	0	2672	4914	4823	7219	1178	0	32769	32804	32679	32833	32807	32823	32630	32705	
3224	0	2604	4873	4858	7217	1179	0	32742	32817	32540	32822	32771	32861	32538	32749	
3225	0	2611	4935	4844	7185	1180	0	32775	32871	32790	32831	32851	32895	32703	32667	
3226	0	2609	4876	4904	7163	1181	0	32756	32903	32643	32926	32679	32973	32535	32677	
3227	0	2652	4916	4835	7168	1182	0	32731	32949	32653	32846	32655	32860	32729	32739	
3228	0	2627	4887	4857	7184	1183	0	32805	32786	32725	32774	32735	32729	32691	32823	
3229	0	2639	4884	4860	7179	1184	0	32774	32695	32596	32769	32815	32690	32820	32693	
3230	0	2656	4906	4843	7177	1185	0	32774	32749	32607	32852	32765	32640	32837	32597	
3231	0	2636	4916	4849	7154	1186	0	32785	32749	32775	32750	32687	32587	32791	32613	
3232	0	2621	4906	4858	7199	1187	0	32751	32742	32667	32623	32731	32647	32855	32689	
3233	0	2672	4855	4787	7145	1188	0	32839	32647	32655	32675	32783	32847	32775	32655	
3234	0	2614	4908	4817	7214	1189	0	32828	32711	32711	32725	32732	32797	32793	32775	
3235	0	2622	4884	4849	7178	1190	0	32807	32734	32679	32702	32635	32759	32790	32807	
3236	0	2651	4918	4864	7198	1191	0	32884	32751	32836	32668	32671	32814	32647	32759	
3237	0	2688	4893	4818	7256	1192	0	32826	32789	32677	32535	32756	32799	32732	32717	
3238	0	2654	4920	4821	7205	1193	0	32787	32755	32739	32703	32988	32799	32775	32743	
3239	0	2634	4850	4882	7167	1194	0	32814	32671	32599	32775	32863	32827	32703	32719	
3240	0	2629	4910	4805	7164	1195	0	32797	32818	32845	32839	32855	32807	32770	32700	
3241	0	2673	4942	4892	7161	1196	0	32790	32791	32719	32819	32690	32843	32674	32684	
3242	0	2659	4915	4852	7196	1197	0	32819	32689	32723	32801	32619	32815	32762	32647	
3243	0	2648	4887	4834	7188	1198	0	32754	32685	32503	32825	32707	32747	32587	32619	
3244	0	2661	4903	4833	7196	1199	0	32716	32740	32759	32815	32749	32759	32787	32633	
3245	0	2652	4892	4859	7217	1200	0	32727	32807	32815	32803	32773	32767	32647	32667	
3246	0	2634	4913	4862	7193	1201	0	32781	32807	32727	32826	32695	32627	32812	32663	
3247	0	2681	4892	4820	7197	1202	0	32743	32804	32759	32646	32674	32583	32714	32687	
3248	0	2656	4910	4844	7216	1203	0	32796	32735	32571	32630	32719	32625	32759	32693	
3249	0	2631	4900	4867	7188	1204	0	32792	32691	32469	32655	32743	32695	32694	32727	
3250	0	2666	4907	4882	7189	1205	0	32731	32749	32569	32639	32765	32647	32575	32757	
3251	0	2621	4873	4888	7213	1206	0	32761	32827	32527	32679	32743	32630	32766	32735	
3252	0	2629	4915	4845	7166	1207	0	32762	32811	32527	32647	32727	32687	32647	32721	
3253	0	2684	4906	4831	7212	1208	0	32733	32754	32751	32775	32831	32743	32807	32717	
3254	0	2665	4887	4779	7178	1209	0	32742	32695	32639	32815	32719	32763	32783	32811	
3255	0	2659	4902	4858	7196	1210	0	32760	32703	32645	32959	32687	32759	32485	32835	
3256	0	2685	4894	4804	7141	1211	0	32791	32573	32481	32727	32694	32743	32635	32759	
3257	0	2628	4904	4853	7204	1212	0	32743	32647	32767	32787	32645	32720	32515	32802	
3258	0	2680	4890	4806	7244	1213	0	32858	32747	32639	32775	32759	32645	32609	32807	
3259	0	2644	4900	4857	7174	1214	0	32775	32759	32647	32830	32767	32647	32703	32831	
3260	0	2654	4871	4838	7185	1215	0	32833	32711	32565	32807	32698	32637	32591	32797	
3261	0	2646	4920	4837	7191	1216	0	32789	32727	32647	32714	32743	32543	32715	32885	
3262	0	2610	4924	4812	7192	1217	0	32786	32813	32519	32793	32734	32535	32673	32850	
3263	0	2631	4890	4846	7179	1218	0	32767	32815	32679	32742	32669	32714	32660	32879	
3264	0	2647	4880	4816	7200	1219	0	32700	32839	32759	32775	32711	32702	32703	32879	
3265	0	2635	4915	4825	7167	1220	0	32737	32763	32491	32767	32813	32775	32583	32813	
3266	0	2692	4873	4828	7210	1221	0	32723	32744	32583	32743	32701	32637	32683	32759	
3267	0	2647	4898	4855	7204	1222	0	32731	32743	32647	32711	32775	32681	32679	32700	
3268	0	2645	4889	4804	7202	1223	0	32805	32817	32487	32656	32732	32655	32775	32683	
3269	0	2676	4890	4804	7204	1224	0	32832	32775	32667	32679	32703	32659	32749	32643	
3270	0	2624	4873	4837	7174	1225	0	32745	32804	32695	32739	32718	32849	32665	32642	
3271	0	2656	4920	4834	7221	1226	0	32687	32722	32615	32787	32729	32749	32743	32645	
3272	0	2635	4893	4822	7158	1227	0	32695	32743	32603	32683	32871	32751	32767	32659	
3273	0	2642	4897	4860	7171	1228	0	32718	32769	32510	32586	32797	32548	32751	32711	
3274	0	2684	4874	4816	7152	1229	0	32647	32679	32871	32599	32767	32629	32740	32659	
3275	0	2694	4924	4832	7176	1230	0	32715	32751	32667	32800	32655	32754	32670	32695	
3276	0	2633	4893	4864	7196	1231	0	32722	32719	32607	32763	32727	32758	32661	32773	
3277	0	2627	4906	4791	7161	1232	0	32759	32742	32491	32816	32765	32845	32570	32773	
3278	0	2611	4922	4815	7227	1233	0	32755	32723	32609	32853	32727	32903	32679	32791	
3279	0	2590	4905	4820	7131	1234	0	32832	32799	32563	32797	32671	32797	32679	32813	
3280	0	2641	4904	4823	7220	1235	0	32807	32642	32607	32831	32660	32832	32731	32895	
3281	0	2588	4900	4814	7171	1236	0	32830	32679	32727	32807	32627	32807	32725	32839	
3282	0	2666	4901	4863	7164	1237	0	32738	32687	32687	32844	32637	32775	32530	32775	
3283	0	2657	4899	4796	7174	1238	0	32820	32775	32687	32772	32677	32743	32713	32839	
3284	0	2594	4906	4829	7144	1239	0	32799	32731	32663	32751	32671	32829	32783	32771	
3285	0	2648	4865	4802	7172	1240	0	32813	32735	32635	32732	32711	32773	32620	32724	
3286	0	2691	4924	4830	7174	1241	0	32759	32787	32647	32647	32753	32764	32757	32726	
3287	0	2640	4908	4856	7162	1242	0	32784	32807	32527	32647	32829	32783	32762	32737	
3288	0	2610	4891	4832	7196	1243	0	32689	32775	32600	32643	32725	32802	32647	32775	
3289	0	2666	4946	4830	7201	1244	0	32758	32834	32666	32666	32695	32798	32813	32765	
3290	0	2652	4864	4846	7184	1245	0	32794	32746	32623	32739	32895	32719	32727	32803	
3291	0	2664	4861	4846	7186	1246	0	32782	32693	32895	32719	32805	32775	32711	32737	
3292	0	2642	4941	4815	7140	1247	0	32815	32759	32743	32767	32732	32719	32763	32663	
3293	0	2606	4879	4782	7169	1248	0	32770	32733	32790	32743	32667	32805	32571	32722	
3294	0	2666	4895	4778	7205	1249	0	32833	32711	32638	32815	32581	32791	32711	32801	
3295	0	2650	4868	4776	7140	1250	0	32842	32815	32685	32834	32679	32807	32699	32762	
3296	0	2661	4849	4800	7156	1251	0	32815	32786	32701	32845	32507	32759	32499	32860	
3297	0	2599	4862	4850	7152	1252	0	32782	32815	32445	32799	32567	32785	32679	32863	
3298	0	2629	4907	4862	7153	1253	0	32723	32739	32684	32865	32700	32815	32726	32826	
3299	0	2672	4866	4722	7148	1254	0	32694	32823	32671	32903	32759	32849	32573	32739	
3300	0	2625	4916	4814	7178	1255	0	32766	32663	32547	32859	32709	32804	32662	32775	
3301	0	2623	4870	4796	7146	1256	0	32711	32735	32610	32746	32679	32647	32646	32866	
3302	0	2682	4896	4828	7210	1257	0	32694	32703	32543	32775	32799	32643	32613	32887	
3303	0	2652	4905	4827	7188	1258	0	32682	32626	32439	32773	32831	32662	32762	32771	
3304	0	2649	4857	4856	7147	1259	0	32759	32694	32611	32775	32870	32663	32713	32728	
3305	0	2622	4878	4813	7154	1260	0	32785	32703	32631	32823	32796	32642	32557	32734	
3306	0	2656	4889	4832	7135	1261	0	32796	32742	32534	32751	32764	32743	32581	32815	
3307	0	2619	4833	4812	7146	1262	0	32783	32693	32655	32769	32787	32841	32707	32791	
3308	0	2632	4821	4842	7158	1263	0	32759	32655	32663	32775	32735	32828	32794	32747	
3309	0	2633	4912	4836	7187	1264	0	32767	32639	32498	32775	32694	32890	32547	32717	
3310	0	2613	4889	4816	7223	1265	0	32807	32617	32647	32733	32679	32919	32751	32727	
3311	0	2629	4889	4817	7148	1266	0	32807	32629	32663	32687	32775	32895	32740	32726	
3312	0	2723	4902	4838	7172	1267	0	32885	32623	32539	32790	32911	32831	32533	32775	
3313	0	2632	4894	4773	7130	1268	0	32839	32677	32723	32745	32775	32833	32709	32791	
3314	0	2647	4889	4826	7170	1269	0	32759	32675	32669	32747	32647	32835	32755	32837	
3315	0	2613	4920	4830	7180	1270	0	32823	32726	32623	32759	32820	32743	32631	32775	
3316	0	2639	4888	4835	7149	1271	0	32868	32795	32671	32750	32834	32723	32753	32775	
3317	0	2615	4868	4792	7174	1272	0	32845	32717	32637	32742	32715	32815	32553	32667	
3318	0	2641	4914	4852	7162	1273	0	32853	32807	32575	32655	32669	32605	32761	32663	
3319	0	2653	4847	4846	7184	1274	0	32813	32670	32533	32775	32783	32639	32811	32723	
3320	0	2655	4884	4788	7147	1275	0	32783	32689	32631	32653	32718	32623	32711	32811	
3321	0	2677	4912	4822	7142	1276	0	32751	32671	32591	32734	32713	32615	32734	32842	
3322	0	2618	4896	4804	7158	1277	0	32729	32765	32493	32815	32683	32605	32545	32790	
3323	0	2656	4898	4815	7156	1278	0	32650	32823	32551	32801	32679	32594	32628	32745	
3324	0	2634	4866	4833	7186	1279	0	32662	32775	32467	32863	32583	32799	32519	32727	
3325	0	2681	4871	4796	7170	1280	0	32598	32727	32540	32835	32559	32799	32719	32750	
3326	0	2693	4872	4836	7156	1281	0	32724	32719	32783	32805	32623	32763	32775	32771	
3327	0	2677	4904	4789	7179	1282	0	32708	32795	32693	32817	32839	32806	32647	32767	
3328	0	2625	4849	4840	7165	1283	0	32730	32823	32583	32847	32823	32803	32767	32759	
3329	0	2627	4842	4803	7179	1284	0	32667	32743	32701	32675	32763	32763	32698	32707	
3330	0	2621	4903	4856	7166	1285	0	32751	32725	32621	32799	32717	32823	32609	32742	
3331	0	2602	4886	4829	7144	1286	0	32783	32685	32578	32706	32773	32831	32698	32742	
3332	0	2642	4880	4862	7184	1287	0	32770	32693	32571	32639	32692	32822	32578	32743	
3333	0	2654	4864	4784	7225	1288	0	32681	32663	32631	32655	32723	32837	32751	32750	
3334	0	2657	4896	4818	7130	1289	0	32797	32671	32647	32671	32639	32823	32716	32743	
3335	0	2640	4888	4850	7164	1290	0	32775	32677	32573	32759	32763	32811	32599	32773	
3336	0	2646	4893	4845	7175	1291	0	32764	32749	32628	32716	32715	32747	32759	32787	
3337	0	2631	4864	4797	7172	1292	0	32723	32719	32781	32706	32699	32797	32727	32834	
3338	0	2640	4915	4811	7152	1293	0	32767	32735	32659	32756	32773	32821	32647	32862	
3339	0	2594	4893	4836	7193	1294	0	32774	32679	32615	32770	32711	32854	32655	32891	
3340	0	2633	4899	4805	7201	1295	0	32757	32727	32666	32767	32703	32739	32533	32814	
3341	0	2605	4920	4912	7184	1296	0	32788	32731	32703	32757	32767	32771	32695	32851	
3342	0	2621	4902	4801	7170	1297	0	32831	32682	32543	32839	32631	32807	32533	32818	
3343	0	2606	4893	4870	7200	1298	0	32831	32677	32740	32823	32660	32695	32771	32799	
3344	0	2640	4864	4811	7167	1299	0	32718	32719	32661	32775	32671	32607	32647	32809	
3345	0	2633	4836	4847	7179	1300	0	32828	32677	32703	32765	32703	32725	32603	32799	
3346	0	2598	4837	4850	7210	1301	0	32748	32655	32578	32797	32769	32786	32709	32627	
3347	0	2615	4876	4854	7162	1302	0	32708	32623	32505	32829	32799	32807	32655	32594	
3348	0	2618	4823	4901	7167	1303	0	32735	32727	32671	32783	32807	32763	32503	32607	
3349	0	2640	4914	4879	7162	1304	0	32770	32710	32718	32879	32691	32740	32749	32679	
3350	0	2660	4901	4842	7199	1305	0	32775	32685	32765	32817	32725	32765	32693	32747	
3351	0	2662	4876	4849	7185	1306	0	32656	32687	32569	32717	32693	32790	32775	32754	
3352	0	2632	4863	4816	7158	1307	0	32698	32749	32647	32667	32727	32765	32740	32787	
3353	0	2652	4876	4823	7170	1308	0	32764	32711	32591	32692	32813	32820	32546	32703	
3354	0	2648	4844	4820	7154	1309	0	32772	32837	32807	32879	32687	32823	32690	32710	
3355	0	2630	4865	4848	7183	1310	0	32748	32839	32757	32973	32773	32749	32669	32743	
3356	0	2626	4885	4868	7216	1311	0	32713	32804	32470	32959	32782	32635	32587	32756	
3357	0	2677	4829	4865	7144	1312	0	32722	32691	32615	32943	32755	32642	32771	32805	
3358	0	2660	4830	4842	7160	1313	0	32793	32687	32743	32863	32706	32629	32703	32745	
3359	0	2651	4893	4832	7204	1314	0	32813	32739	32679	32759	32671	32807	32822	32710	
3360	0	2668	4829	4865	7206	1315	0	32887	32723	32703	32756	32703	32841	32679	32711	
3361	0	2646	4868	4866	7165	1316	0	32919	32735	32530	32811	32703	32775	32679	32831	
3362	0	2612	4864	4866	7194	1317	0	32810	32685	32687	32845	32695	32807	32471	32929	
3363	0	2630	4823	4811	7182	1318	0	32820	32711	32676	32745	32695	32833	32659	32903	
3364	0	2626	4843	4833	7173	1319	0	32744	32660	32463	32749	32683	32773	32601	32863	
3365	0	2611	4852	4875	7205	1320	0	32684	32683	32615	32765	32598	32813	32845	32711	
3366	0	2596	4884	4824	7193	1321	0	32738	32839	32557	32783	32738	32791	32887	32703	
3367	0	2617	4882	4877	7212	1322	0	32754	32807	32559	32804	32727	32692	32751	32771	
3368	0	2634	4888	4856	7208	1323	0	32825	32667	32514	32742	32647	32695	32731	32814	
3369	0	2617	4897	4829	7200	1324	0	32690	32751	32573	32671	32629	32727	32633	32813	
3370	0	2628	4862	4859	7192	1325	0	32694	32775	32681	32646	32679	32811	32727	32743	
3371	0	2627	4901	4835	7194	1326	0	32763	32811	32666	32674	32831	32918	32669	32723	
3372	0	2641	4871	4861	7227	1327	0	32791	32775	32625	32583	33141	32855	32541	32751	
3373	0	2632	4890	4823	7186	1328	0	32758	32775	32594	32603	32950	32810	32682	32751	
3374	0	2656	4905	4897	7192	1329	0	32782	32765	32773	32711	32775	32775	32727	32743	
3375	0	2671	4860	4898	7210	1330	0	32772	32647	32695	32786	32686	32695	32679	32787	
3376	0	2698	4880	4862	7209	1331	0	32717	32725	32621	32815	32694	32628	32727	32807	
3377	0	2621	4868	4860	7216	1332	0	32768	32659	32789	32817	32721	32573	32675	32844	
3378	0	2676	4861	4862	7150	1333	0	32760	32635	32709	32767	32603	32763	32605	32797	
3379	0	2637	4864	4850	7218	1334	0	32756	32617	32775	32627	32716	32743	32594	32773	
3380	0	2598	4868	4848	7213	1335	0	32810	32647	32574	32679	32745	32731	32599	32766	
3381	0	2640	4884	4850	7180	1336	0	32756	32645	32647	32687	32711	32783	32603	32807	
3382	0	2637	4857	4878	7205	1337	0	32764	32602	32444	32703	32725	32758	32588	32754	
3383	0	2613	4885	4885	7222	1338	0	32720	32634	32607	32626	32751	32795	32751	32862	
3384	0	2630	4866	4848	7233	1339	0	32708	32719	32567	32654	32797	32743	32804	32751	
3385	0	2668	4861	4865	7182	1340	0	32716	32628	32735	32661	32783	32813	32607	32660	
3386	0	2560	4866	4872	7194	1341	0	32716	32646	32663	32710	32812	32847	32737	32671	
3387	0	2607	4835	4858	7234	1342	0	32738	32646	32447	32703	32746	32787	32743	32749	
3388	0	2640	4848	4872	7260	1343	0	32806	32703	32597	32725	32743	32724	32495	32755	
3389	0	2629	4881	4898	7216	1344	0	32781	32603	32543	32715	32743	32639	32681	32721	
3390	0	2610	4891	4900	7234	1345	0	32660	32621	32574	32753	32749	32770	32692	32643	
3391	0	2627	4833	4901	7214	1346	0	32662	32695	32620	32787	32731	32727	32663	32727	
3392	0	2596	4841	4806	7159	1347	0	32702	32642	32407	32823	32731	32839	32606	32775	
3393	0	2668	4885	4852	7209	1348	0	32780	32647	32668	32748	32763	32727	32707	32756	
3394	0	2686	4869	4863	7228	1349	0	32756	32669	32627	32833	32791	32763	32815	32710	
3395	0	2641	4849	4881	7209	1350	0	32775	32687	32571	32901	32795	32836	32623	32757	
3396	0	2614	4850	4853	7216	1351	0	32751	32751	32727	32823	32736	32879	32791	32791	
3397	0	2587	4869	4857	7179	1352	0	32771	32719	32623	32775	32775	32701	32787	32717	
3398	0	2609	4807	4872	7212	1353	0	32773	32695	32679	32833	32731	32703	32482	32697	
3399	0	2678	4832	4820	7220	1354	0	32808	32623	32657	32775	32557	32668	32687	32683	
3400	0	2609	4854	4835	7244	1355	0	32871	32708	32527	32711	32583	32663	32691	32767	
3401	0	2692	4859	4868	7251	1356	0	32873	32717	32559	32621	32701	32657	32539	32855	
3402	0	2629	4854	4898	7221	1357	0	32782	32681	32631	32603	32721	32815	32703	32867	
3403	0	2661	4881	4896	7268	1358	0	32809	32747	32783	32591	32694	32725	32691	32738	
3404	0	2632	4867	4872	7211	1359	0	32791	32711	32623	32501	32662	32767	32787	32733	
3405	0	2634	4817	4870	7248	1360	0	32694	32687	32780	32335	32663	32695	32591	32755	
3406	0	2603	4847	4862	7211	1361	0	32773	32637	32791	32359	32669	32773	32787	32807	
3407	0	2610	4829	4879	7209	1362	0	32704	32551	32625	32391	32703	32789	32763	32771	
3408	0	2646	4812	4872	7208	1363	0	32621	32647	32666	32434	32749	32837	32613	32839	
3409	0	2597	4876	4871	7203	1364	0	32687	32719	32597	32615	32681	32895	32647	32838	
3410	0	2657	4843	4877	7204	1365	0	32708	32767	32486	32863	32695	32894	32767	32763	
3411	0	2635	4874	4838	7214	1366	0	32748	32723	32621	33012	32707	32879	32551	32811	
3412	0	2648	4880	4804	7203	1367	0	32780	32771	32594	33047	32775	32859	32672	32818	
3413	0	2607	4883	4836	7196	1368	0	32677	32567	32566	33090	32791	32793	32707	32765	
3414	0	2640	4817	4878	7244	1369	0	32703	32617	32675	33159	32749	32762	32615	32791	
3415	0	2664	4851	4835	7229	1370	0	32775	32703	32663	33069	32767	32621	32605	32772	
3416	0	2672	4866	4872	7208	1371	0	32782	32676	32844	33019	32749	32665	32646	32743	
3417	0	2650	4808	4880	7213	1372	0	32781	32675	32577	33012	32669	32621	32670	32753	
3418	0	2679	4824	4818	7204	1373	0	32701	32748	32647	33045	32743	32635	32783	32797	
3419	0	2631	4865	4905	7196	1374	0	32773	32723	32519	33015	32717	32571	32647	32710	
3420	0	2583	4852	4869	7221	1375	0	32775	32831	32637	32959	32711	32594	32670	32719	
3421	0	2636	4896	4906	7209	1376	0	32757	32745	32519	32846	32756	32773	32548	32731	
3422	0	2628	4836	4857	7229	1377	0	32767	32727	32713	32735	32711	32774	32749	32743	
3423	0	2603	4844	4861	7252	1378	0	32736	32639	32599	32640	32703	32855	32728	32708	
3424	0	2636	4860	4853	7193	1379	0	32745	32597	32466	32669	32719	32797	32477	32790	
3425	0	2641	4838	4844	7253	1380	0	32807	32623	32684	32601	32647	32782	32737	32804	
3426	0	2593	4856	4856	7248	1381	0	32829	32647	32763	32645	32743	32727	32743	32743	
3427	0	2639	4886	4852	7213	1382	0	32815	32727	32501	32677	32770	32791	32572	32863	
3428	0	2611	4821	4880	7248	1383	0	32756	32695	32698	32669	32749	32794	32791	32879	
3429	0	2620	4833	4879	7224	1384	0	32755	32699	32771	32577	32745	32795	32795	32839	
3430	0	2596	4840	4847	7234	1385	0	32743	32662	32607	32423	32755	32826	32679	32719	
3431	0	2630	4840	4825	7223	1386	0	32742	32742	32835	32443	32747	32847	32737	32647	
3432	0	2618	4825	4845	7234	1387	0	32734	32876	32765	32562	32663	32823	32677	32665	
3433	0	2586	4864	4835	7257	1388	0	32687	32927	32743	32551	32708	32951	32767	32698	
3434	0	2609	4822	4875	7241	1389	0	32696	32933	32870	32643	32663	32831	32739	32826	
3435	0	2630	4845	4838	7181	1390	0	32706	32883	32724	32773	32630	32715	32719	32903	
3436	0	2623	4875	4825	7249	1391	0	32745	32850	32622	32703	32661	32605	32631	32935	
3437	0	2638	4854	4824	7205	1392	0	32729	32838	32794	32823	32727	32535	32666	32877	
3438	0	2616	4822	4866	7224	1393	0	32808	32871	32756	32930	32719	32582	32627	32805	
3439	0	2620	4805	4858	7222	1394	0	32751	32813	32623	33063	32723	32604	32727	32799	
3440	0	2639	4845	4872	7247	1395	0	32678	32747	32743	33003	32692	32599	32726	32862	
3441	0	2619	4815	4860	7240	1396	0	32745	32735	32581	32966	32719	32567	32468	32791	
3442	0	2608	4831	4880	7225	1397	0	32736	32607	32481	32895	32711	32721	32679	32684	
3443	0	2640	4824	4843	7248	1398	0	32743	32519	32647	32995	32773	32591	32663	32641	
3444	0	2596	4864	4853	7267	1399	0	32707	32545	32607	32957	32694	32605	32637	32703	
3445	0	2585	4837	4856	7201	1400	0	32727	32619	32486	32842	32759	32823	32742	32738	
3446	0	2614	4832	4868	7243	1401	0	32806	32615	32687	32927	32806	32785	32746	32711	
3447	0	2651	4806	4842	7212	1402	0	32732	32555	32692	32895	32813	32803	32603	32723	
3448	0	2614	4896	4846	7242	1403	0	32795	32631	32476	32763	32757	32775	32735	32820	
3449	0	2660	4821	4856	7200	1404	0	32815	32617	32647	32701	32775	32775	32695	32868	
3450	0	2652	4847	4885	7231	1405	0	32863	32756	32710	32643	32647	32727	32724	32833	
3451	0	2626	4848	4855	7250	1406	0	32878	32775	32463	32479	32655	32756	32671	32826	
3452	0	2631	4836	4842	7254	1407	0	32867	32775	32583	32513	32775	32790	32606	32699	
3453	0	2580	4832	4884	7227	1408	0	32879	32789	32597	32635	32791	32787	32751	32627	
3454	0	2631	4769	4834	7247	1409	0	32796	32743	32695	32691	32732	32755	32789	32727	
3455	0	2636	4818	4819	7252	1410	0	32788	32668	32564	32711	32754	32787	32527	32735	
3456	0	2597	4823	4835	7208	1411	0	32791	32677	32525	32703	32663	32663	32679	32717	
3457	0	2622	4828	4830	7214	1412	0	32851	32675	32669	32732	32739	32667	32737	32701	
3458	0	2599	4798	4840	7248	1413	0	32812	32751	32682	32845	32751	32563	32581	32703	
3459	0	2606	4790	4862	7269	1414	0	32783	32797	32743	33021	32677	32655	32663	32687	
3460	0	2652	4797	4810	7248	1415	0	32768	32775	32557	32983	32658	32663	32647	32761	
3461	0	2591	4828	4827	7226	1416	0	32690	32775	32624	33100	32679	32807	32557	32751	
3462	0	2611	4821	4836	7239	1417	0	32769	32709	32555	33055	32681	32810	32717	32684	
3463	0	2611	4812	4862	7253	1418	0	32769	32723	32767	32903	32711	32775	32714	32711	
3464	0	2552	4817	4835	7248	1419	0	32745	32711	32747	32869	32722	32899	32543	32819	
3465	0	2650	4839	4816	7200	1420	0	32804	32706	32551	32685	32727	32813	32738	32810	
3466	0	2666	4828	4867	7228	1421	0	32764	32732	32658	32583	32689	32715	32718	32738	
3467	0	2612	4826	4831	7229	1422	0	32738	32767	32603	32532	32658	32626	32807	32730	
3468	0	2622	4838	4847	7273	1423	0	32732	32763	32715	32471	32687	32643	32610	32790	
3469	0	2636	4867	4835	7238	1424	0	32744	32825	32724	32431	32660	32771	32814	32715	
3470	0	2571	4834	4833	7252	1425	0	32686	32775	32646	32443	32668	32827	32786	32716	
3471	0	2565	4833	4831	7211	1426	0	32758	32829	32719	32527	32640	32831	32647	32751	
3472	0	2595	4798	4821	7228	1427	0	32728	32835	32623	32587	32676	32831	32758	32871	
3473	0	2604	4842	4869	7208	1428	0	32716	32795	32837	32599	32692	32885	32765	32747	
3474	0	2621	4788	4830	7251	1429	0	32773	32758	32807	32679	32647	32823	32755	32774	
3475	0	2600	4812	4842	7242	1430	0	32748	32796	32644	32615	32667	32775	32629	32743	
3476	0	2597	4838	4833	7248	1431	0	32740	32775	32643	32594	32783	32815	32735	32756	
3477	0	2572	4824	4846	7242	1432	0	32750	32735	32609	32705	32783	32767	32755	32787	
3478	0	2687	4830	4824	7296	1433	0	32716	32805	32492	32836	32748	32674	32559	32789	
3479	0	2616	4793	4806	7233	1434	0	32754	32827	32555	32913	32765	32557	32733	32719	
3480	0	2642	4856	4832	7244	1435	0	32793	32829	32525	32706	32734	32823	32681	32791	
3481	0	2618	4786	4829	7283	1436	0	32839	32679	32643	32756	32663	32791	32701	32843	
3482	0	2606	4835	4826	7236	1437	0	32807	32681	32581	32839	32723	32802	32647	32767	
3483	0	2616	4808	4845	7234	1438	0	32786	32694	32711	32783	32727	32903	32631	32841	
3484	0	2634	4800	4848	7222	1439	0	32811	32677	32711	32911	32694	32751	32764	32838	
3485	0	2635	4850	4805	7236	1440	0	32788	32669	32887	32887	32662	32647	32735	32793	
3486	0	2626	4816	4850	7236	1441	0	32735	32667	32755	32765	32695	32587	32522	32748	
