# OpenSignals Text File Format
# {"00:07:80:3B:46:38": {"sensor": ["CUSTOM/0.5/1.0/V", "CUSTOM/0.5/1.0/V", "CUSTOM/0.5/1.0/V", "CUSTOM/0.5/1.0/V", "CUSTOM/0.5/1.0/V", "CUSTOM/0.5/1.0/V", "CUSTOM/0.5/1.0/V", "CUSTOM/0.5/1.0/V"], "device name": "EMGs", "column": ["nSeq", "DI", "RA_L", "RA_R", "OE_L", "OE:R", "IL_L", "IL_R", "MF_L", "MF_R"], "sync interval": 2, "time": "16:17:6.803", "comments": "", "device connection": "BTH00:07:80:3B:46:38", "channels": [1, 2, 3, 4, 5, 6, 7, 8], "date": "2017-6-1", "mode": 0, "digital IO": [0, 1], "firmware version": 772, "device": "biosignalsplux", "position": 0, "sampling rate": 1000, "label": ["RA_L", "RA_R", "OE_L", "OE:R", "IL_L", "IL_R", "MF_L", "MF_R"], "resolution": [16, 16, 16, 16, 16, 16, 16, 16], "special": [{}, {}, {}, {}, {}, {}, {}, {}]}}
# EndOfHeader
0	0	32732	32567	32811	32771	32692	32759	32517	32747	
1	0	32716	32843	32661	32831	32707	32646	32754	32839	
2	0	32762	32803	32747	32801	32754	32733	32626	32688	
3	0	32751	32551	32671	32671	32705	32621	32566	32834	
4	0	32766	32773	32871	32703	32723	32731	32700	32743	
5	0	32801	32734	32775	32711	32607	32644	32629	32867	
6	0	32823	32581	32741	32747	32683	32757	32555	32575	
7	0	32801	32743	32767	32789	32735	32773	32615	32754	
8	0	32767	32775	32781	32687	32794	32743	32663	32599	
9	0	32793	32599	32747	32681	32758	32739	32716	32756	
10	0	32709	32671	32724	32713	32706	32679	32506	32678	
11	0	32692	32735	32739	32775	32659	32761	32619	32725	
12	0	32774	32551	32825	32813	32679	32598	32647	32751	
13	0	32763	32717	32859	32771	32723	32756	32598	32775	
14	0	32720	32693	32615	32753	32698	32622	32725	32835	
15	0	32754	32543	32762	32749	32727	32708	32771	32815	
16	0	32764	32707	32755	32780	32693	32738	32623	32877	
17	0	32806	32666	32743	32775	32767	32667	32759	32575	
18	0	32839	32647	32691	32790	32703	32730	32685	32837	
19	0	32730	32575	32701	32668	32775	32713	32597	32567	
20	0	32804	32775	32798	32692	32661	32771	32685	32839	
21	0	32711	32670	32710	32767	32739	32711	32699	32583	
22	0	32711	32738	32797	32775	32685	32647	32599	32803	
23	0	32749	32555	32759	32703	32755	32724	32679	32563	
24	0	32792	32711	32703	32663	32751	32637	32775	32787	
25	0	32740	32735	32783	32694	32713	32759	32541	32663	
26	0	32708	32583	32807	32731	32647	32694	32692	32793	
27	0	32731	32749	32756	32758	32739	32783	32667	32731	
28	0	32773	32754	32673	32719	32679	32701	32626	32721	
29	0	32752	32685	32671	32823	32774	32769	32755	32829	
30	0	32716	32706	32775	32807	32755	32695	32647	32703	
31	0	32724	32613	32762	32834	32642	32683	32726	32775	
32	0	32787	32742	32750	32807	32735	32615	32591	32850	
33	0	32754	32718	32719	32714	32671	32743	32715	32669	
34	0	32821	32795	32655	32727	32741	32635	32647	32819	
35	0	32801	32716	32775	32735	32669	32721	32723	32863	
36	0	32749	32535	32807	32679	32695	32605	32559	32615	
37	0	32736	32767	32773	32764	32727	32699	32726	32825	
38	0	32798	32775	32687	32823	32639	32655	32623	32599	
39	0	32791	32551	32743	32825	32711	32743	32715	32775	
40	0	32790	32675	32811	32758	32775	32647	32492	32791	
41	0	32773	32617	32677	32713	32695	32683	32566	32703	
42	0	32763	32738	32775	32735	32722	32634	32685	32761	
43	0	32760	32731	32775	32759	32731	32679	32671	32646	
44	0	32820	32587	32685	32690	32758	32671	32736	32767	
45	0	32790	32620	32794	32722	32707	32763	32587	32894	
46	0	32751	32534	32742	32719	32675	32740	32507	32587	
47	0	32846	32749	32715	32698	32723	32727	32727	32755	
48	0	32771	32775	32635	32709	32727	32641	32631	32765	
49	0	32703	32631	32738	32821	32791	32801	32746	32570	
50	0	32775	32723	32708	32775	32727	32710	32507	32732	
51	0	32750	32803	32791	32813	32722	32671	32705	32555	
52	0	32730	32703	32787	32741	32719	32669	32687	32723	
53	0	32742	32697	32839	32761	32662	32727	32642	32783	
54	0	32756	32555	32786	32718	32763	32716	32698	32629	
55	0	32749	32759	32705	32691	32799	32743	32646	32694	
56	0	32748	32749	32823	32711	32705	32619	32591	32831	
57	0	32727	32554	32843	32686	32738	32743	32635	32594	
58	0	32735	32698	32807	32735	32620	32633	32657	32753	
59	0	32732	32751	32839	32771	32707	32784	32599	32590	
60	0	32727	32599	32733	32827	32727	32683	32514	32751	
61	0	32703	32673	32829	32809	32695	32774	32646	32756	
62	0	32800	32635	32691	32786	32775	32687	32751	32751	
63	0	32823	32751	32699	32813	32735	32775	32684	32583	
64	0	32733	32773	32743	32759	32801	32727	32751	32789	
65	0	32782	32585	32810	32687	32770	32724	32599	32759	
66	0	32773	32711	32699	32751	32790	32711	32663	32783	
67	0	32720	32754	32757	32735	32804	32813	32629	32788	
68	0	32787	32591	32719	32747	32703	32743	32479	32673	
69	0	32756	32615	32622	32746	32758	32807	32751	32763	
70	0	32694	32663	32743	32790	32734	32703	32636	32863	
71	0	32713	32751	32769	32785	32711	32815	32675	32589	
72	0	32807	32741	32773	32796	32759	32739	32559	32727	
73	0	32817	32551	32679	32787	32626	32718	32613	32815	
74	0	32759	32679	32894	32738	32775	32679	32639	32743	
75	0	32714	32647	32814	32677	32695	32727	32679	32847	
76	0	32760	32643	32807	32727	32735	32683	32582	32627	
77	0	32758	32685	32695	32749	32749	32737	32807	32799	
78	0	32769	32559	32687	32759	32662	32685	32731	32883	
79	0	32801	32775	32839	32819	32738	32708	32685	32595	
80	0	32799	32710	32593	32757	32645	32663	32615	32743	
81	0	32725	32562	32799	32697	32738	32695	32541	32715	
82	0	32732	32743	32773	32719	32741	32663	32783	32759	
83	0	32783	32791	32796	32812	32739	32698	32666	32842	
84	0	32726	32511	32639	32754	32759	32589	32647	32739	
85	0	32735	32647	32743	32807	32701	32707	32639	32818	
86	0	32748	32612	32743	32757	32771	32633	32518	32754	
87	0	32775	32722	32627	32789	32727	32771	32659	32734	
88	0	32784	32759	32751	32735	32831	32679	32727	32805	
89	0	32793	32701	32759	32771	32731	32638	32549	32738	
90	0	32789	32647	32669	32786	32711	32711	32739	32787	
91	0	32790	32635	32785	32767	32775	32685	32602	32868	
92	0	32786	32775	32794	32790	32765	32789	32678	32647	
93	0	32754	32775	32575	32802	32646	32623	32546	32797	
94	0	32795	32613	32751	32775	32762	32751	32751	32863	
95	0	32829	32739	32751	32797	32661	32743	32661	32807	
96	0	32805	32751	32803	32761	32791	32683	32575	32935	
97	0	32730	32647	32667	32751	32787	32678	32795	32791	
98	0	32774	32823	32751	32807	32707	32679	32660	32842	
99	0	32767	32799	32788	32748	32695	32805	32699	32631	
100	0	32759	32583	32685	32736	32719	32629	32583	32797	
101	0	32810	32743	32751	32764	32739	32671	32667	32827	
102	0	32772	32743	32807	32786	32743	32658	32706	32582	
103	0	32741	32653	32630	32749	32666	32699	32701	32815	
104	0	32751	32734	32764	32715	32748	32637	32670	32593	
105	0	32719	32557	32743	32767	32711	32673	32615	32767	
106	0	32768	32717	32835	32812	32663	32687	32549	32815	
107	0	32781	32739	32655	32749	32755	32732	32671	32562	
108	0	32775	32615	32755	32693	32803	32734	32711	32787	
109	0	32815	32741	32707	32751	32764	32726	32575	32742	
110	0	32774	32763	32811	32773	32695	32812	32749	32703	
111	0	32801	32519	32626	32815	32703	32631	32699	32791	
112	0	32756	32647	32631	32759	32775	32717	32605	32763	
113	0	32775	32677	32775	32711	32745	32703	32631	32749	
114	0	32775	32562	32797	32749	32643	32772	32703	32523	
115	0	32819	32615	32746	32743	32763	32699	32631	32759	
116	0	32746	32739	32647	32818	32754	32749	32645	32586	
117	0	32758	32767	32775	32759	32719	32709	32628	32710	
118	0	32727	32707	32743	32753	32683	32655	32547	32751	
119	0	32772	32751	32670	32717	32735	32775	32742	32771	
120	0	32748	32550	32763	32717	32659	32701	32599	32839	
121	0	32725	32686	32810	32734	32775	32750	32759	32623	
122	0	32719	32567	32640	32657	32711	32766	32547	32767	
123	0	32722	32711	32810	32734	32633	32647	32476	32758	
124	0	32754	32711	32791	32730	32771	32747	32691	32747	
125	0	32766	32637	32659	32723	32867	32711	32607	32631	
126	0	32834	32735	32814	32766	32767	32737	32637	32769	
127	0	32791	32543	32801	32793	32751	32679	32679	32869	
128	0	32775	32769	32709	32823	32729	32759	32519	32605	
129	0	32810	32789	32798	32726	32695	32707	32583	32813	
130	0	32758	32533	32743	32763	32783	32807	32723	32771	
131	0	32812	32715	32831	32807	32685	32583	32735	32721	
132	0	32818	32639	32683	32735	32706	32723	32727	32762	
133	0	32726	32695	32761	32719	32631	32659	32531	32682	
134	0	32748	32733	32735	32771	32757	32671	32763	32711	
135	0	32745	32516	32807	32739	32745	32735	32678	32749	
136	0	32763	32731	32578	32771	32703	32773	32691	32795	
137	0	32732	32751	32791	32743	32711	32730	32598	32759	
138	0	32782	32698	32749	32694	32699	32725	32719	32834	
139	0	32740	32647	32827	32739	32775	32613	32655	32748	
140	0	32734	32687	32791	32679	32763	32751	32655	32877	
141	0	32763	32743	32767	32789	32739	32641	32559	32593	
142	0	32719	32703	32747	32788	32701	32705	32773	32769	
143	0	32757	32733	32755	32719	32771	32639	32647	32889	
144	0	32756	32521	32666	32775	32686	32743	32723	32579	
145	0	32731	32693	32707	32743	32797	32643	32498	32813	
146	0	32715	32703	32743	32713	32716	32826	32749	32748	
147	0	32702	32631	32751	32711	32748	32647	32722	32775	
148	0	32703	32743	32803	32722	32793	32695	32551	32855	
149	0	32743	32543	32791	32769	32671	32647	32493	32594	
150	0	32775	32685	32735	32853	32708	32759	32703	32763	
151	0	32761	32555	32847	32709	32743	32671	32575	32805	
152	0	32740	32767	32771	32795	32727	32711	32727	32561	
153	0	32736	32787	32805	32827	32747	32646	32485	32803	
154	0	32747	32663	32642	32775	32763	32695	32657	32615	
155	0	32775	32685	32773	32675	32745	32749	32675	32767	
156	0	32745	32676	32731	32765	32801	32757	32517	32671	
157	0	32780	32671	32821	32755	32822	32775	32622	32759	
158	0	32789	32715	32585	32730	32715	32743	32703	32831	
159	0	32805	32713	32773	32733	32727	32655	32647	32627	
160	0	32742	32491	32820	32799	32725	32759	32643	32742	
161	0	32726	32671	32642	32827	32762	32671	32565	32839	
162	0	32750	32758	32850	32799	32756	32755	32641	32583	
163	0	32826	32749	32812	32738	32738	32671	32762	32717	
164	0	32749	32685	32741	32799	32767	32685	32615	32797	
165	0	32775	32589	32759	32687	32823	32669	32727	32644	
166	0	32821	32662	32775	32732	32686	32735	32667	32751	
167	0	32795	32701	32646	32705	32743	32646	32672	32743	
168	0	32795	32658	32799	32703	32711	32727	32527	32802	
169	0	32762	32699	32703	32738	32803	32603	32645	32839	
170	0	32784	32663	32791	32771	32773	32726	32688	32591	
171	0	32812	32710	32626	32855	32687	32655	32639	32757	
172	0	32756	32726	32671	32815	32724	32765	32661	32843	
173	0	32748	32647	32767	32795	32747	32679	32771	32662	
174	0	32836	32679	32759	32735	32643	32799	32637	32759	
175	0	32741	32594	32687	32791	32677	32727	32751	32869	
176	0	32733	32767	32797	32762	32749	32724	32669	32647	
177	0	32789	32640	32847	32742	32695	32703	32698	32735	
178	0	32678	32745	32801	32741	32675	32683	32666	32751	
179	0	32759	32751	32595	32711	32607	32742	32603	32708	
180	0	32758	32685	32839	32692	32719	32647	32662	32795	
181	0	32798	32750	32743	32705	32743	32685	32715	32825	
182	0	32775	32647	32775	32711	32692	32615	32495	32643	
183	0	32751	32803	32717	32791	32743	32719	32714	32702	
184	0	32783	32775	32743	32738	32645	32628	32638	32855	
185	0	32743	32566	32795	32775	32743	32717	32523	32555	
186	0	32771	32738	32679	32753	32797	32643	32595	32709	
187	0	32710	32815	32742	32627	32718	32742	32687	32775	
188	0	32762	32603	32805	32767	32823	32757	32741	32749	
189	0	32770	32763	32775	32831	32801	32683	32487	32838	
190	0	32803	32731	32675	32821	32775	32775	32771	32594	
191	0	32767	32623	32773	32861	32699	32647	32660	32762	
192	0	32770	32758	32751	32835	32676	32701	32731	32739	
193	0	32786	32743	32731	32767	32598	32591	32527	32839	
194	0	32791	32525	32675	32791	32708	32753	32804	32834	
195	0	32762	32703	32775	32767	32719	32607	32753	32631	
196	0	32831	32663	32707	32818	32782	32724	32743	32923	
197	0	32811	32749	32735	32724	32711	32631	32642	32773	
198	0	32841	32775	32583	32751	32605	32734	32635	32790	
199	0	32807	32751	32700	32751	32667	32670	32805	32902	
200	0	32823	32748	32685	32795	32641	32671	32755	32702	
201	0	32797	32773	32730	32728	32738	32610	32759	32903	
202	0	32854	32835	32725	32727	32690	32695	32638	32743	
203	0	32793	32815	32763	32700	32642	32674	32831	32861	
204	0	32821	32669	32647	32670	32724	32799	32763	32837	
205	0	32772	32685	32831	32724	32773	32775	32761	32759	
206	0	32808	32543	32823	32710	32717	32690	32619	32787	
207	0	32799	32724	32703	32678	32756	32771	32631	32860	
208	0	32807	32661	32827	32706	32701	32689	32841	32714	
209	0	32808	32611	32826	32711	32831	32771	32919	32751	
210	0	32871	32661	32766	32647	32903	32647	32770	32802	
211	0	32852	32559	32869	32661	32775	32786	32647	32598	
212	0	32786	32687	32836	32740	32812	32679	32749	32775	
213	0	32711	32647	32933	32801	32726	32795	32607	32679	
214	0	32830	32579	32863	32789	32813	32775	32631	32503	
215	0	32752	32615	32937	32757	32790	32693	32461	32715	
216	0	32752	32495	32967	32711	32871	32714	32671	32567	
217	0	32780	32645	32978	32687	32855	32852	32574	32639	
218	0	32756	32622	32934	32639	32807	32863	32637	32687	
219	0	32708	32455	32855	32671	32892	32734	32431	32391	
220	0	32669	32595	32955	32731	32847	32829	32663	32630	
221	0	32652	32516	32923	32775	32914	32738	32583	32727	
222	0	32697	32644	32883	32699	32927	32844	32708	32509	
223	0	32661	32639	33051	32775	32887	32796	32567	32634	
224	0	32713	32465	32925	32687	32970	32871	32767	32551	
225	0	32684	32660	32997	32687	32881	32807	32767	32643	
226	0	32700	32613	32995	32598	32925	32876	32583	32617	
227	0	32713	32595	32995	32615	32845	32883	32786	32713	
228	0	32652	32491	32754	32598	32913	32783	32766	32738	
229	0	32684	32539	32847	32703	32823	32847	32438	32506	
230	0	32617	32557	32671	32773	32789	32763	32549	32533	
231	0	32493	32671	32674	32830	32729	32743	32274	32347	
232	0	32447	32675	32507	32939	32533	32615	32083	32407	
233	0	32455	32514	32407	32965	32519	32555	31803	32391	
234	0	32464	32717	32391	33025	32391	32444	31911	32361	
235	0	32404	32787	32207	33019	32391	32495	31933	32499	
236	0	32391	32629	32230	33005	32407	32417	31903	32423	
237	0	32415	32807	32319	33019	32359	32512	31959	32603	
238	0	32511	32797	32263	32903	32444	32511	32162	32628	
239	0	32551	32687	32339	32879	32484	32563	32196	32711	
240	0	32567	32735	32383	32859	32471	32587	32447	32775	
241	0	32545	32718	32483	32855	32444	32549	32423	32769	
242	0	32615	32539	32383	32850	32521	32710	32631	32804	
243	0	32606	32791	32478	32802	32483	32600	32487	32663	
244	0	32679	32783	32551	32819	32587	32663	32562	32759	
245	0	32678	32645	32609	32743	32623	32685	32647	32810	
246	0	32719	32743	32551	32787	32557	32663	32751	32775	
247	0	32751	32631	32716	32749	32611	32632	32703	32879	
248	0	32790	32805	32711	32710	32663	32711	32742	32903	
249	0	32819	32796	32687	32719	32643	32658	32823	32883	
250	0	32860	32791	32715	32747	32738	32725	32839	32903	
251	0	32861	32748	32751	32821	32659	32631	32743	32921	
252	0	32762	32587	32670	32838	32742	32683	32711	32757	
253	0	32768	32756	32819	32929	32751	32647	32858	32797	
254	0	32711	32839	32833	32871	32693	32673	32763	32857	
255	0	32676	32727	32687	32861	32743	32579	32731	32643	
256	0	32716	32737	32839	32807	32687	32662	32592	32833	
257	0	32775	32863	32823	32827	32742	32603	32835	32711	
258	0	32840	32686	32815	32813	32662	32667	32844	33008	
259	0	32922	32815	32675	32758	32716	32583	32767	32967	
260	0	33013	32839	32685	32787	32671	32740	33027	32959	
261	0	33018	32730	32887	32783	32791	32647	33063	33125	
262	0	33061	32738	32887	32694	32727	32791	33024	32827	
263	0	33060	32563	32767	32670	32671	32719	32883	33001	
264	0	33100	32742	32927	32558	32756	32773	33159	33039	
265	0	33076	32687	32854	32567	32731	32838	33141	32985	
266	0	33062	32543	32895	32590	32815	32811	33031	33071	
267	0	33106	32695	32790	32627	32743	32871	33082	32839	
268	0	33124	32699	32974	32549	32900	32759	33070	32983	
269	0	33130	32519	32900	32514	32850	32863	32979	32775	
270	0	33090	32734	32989	32607	32875	32783	33047	32967	
271	0	33055	32775	32951	32615	32813	32838	33095	32887	
272	0	33036	32688	32830	32671	32914	32837	32910	32927	
273	0	33032	32871	32902	32677	32951	32803	33127	33047	
274	0	33040	32841	32943	32687	32747	32827	33031	32804	
275	0	32989	32708	32725	32643	32829	32831	32983	32998	
276	0	32924	32827	32911	32647	32734	32709	32826	32955	
277	0	32866	32750	32839	32708	32839	32706	32711	32689	
278	0	32894	32767	32851	32722	32811	32747	32807	32851	
279	0	32851	32791	32631	32759	32821	32687	32695	32593	
280	0	32793	32852	32811	32759	32794	32831	32543	32699	
281	0	32743	32666	32795	32685	32829	32727	32692	32623	
282	0	32758	32703	32809	32723	32851	32751	32565	32739	
283	0	32748	32811	32679	32662	32717	32727	32503	32732	
284	0	32727	32775	32659	32691	32771	32818	32448	32547	
285	0	32711	32724	32807	32743	32663	32711	32522	32717	
286	0	32662	32551	32713	32795	32759	32751	32519	32586	
287	0	32654	32746	32758	32797	32791	32657	32423	32684	
288	0	32728	32757	32799	32799	32641	32763	32613	32711	
289	0	32669	32691	32621	32786	32719	32678	32495	32487	
290	0	32656	32727	32769	32795	32786	32733	32547	32700	
291	0	32690	32647	32805	32759	32765	32623	32437	32647	
292	0	32638	32547	32775	32807	32729	32765	32562	32711	
293	0	32656	32614	32691	32769	32758	32775	32566	32615	
294	0	32690	32695	32781	32858	32727	32643	32484	32581	
295	0	32653	32479	32731	32838	32711	32687	32647	32753	
296	0	32710	32639	32775	32845	32707	32573	32539	32487	
297	0	32692	32551	32719	32771	32645	32711	32583	32671	
298	0	32712	32695	32709	32805	32823	32674	32463	32727	
299	0	32701	32675	32791	32765	32715	32746	32611	32721	
300	0	32670	32519	32595	32699	32807	32642	32571	32789	
301	0	32682	32710	32845	32743	32827	32740	32639	32563	
302	0	32719	32707	32811	32771	32711	32631	32524	32719	
303	0	32734	32546	32783	32775	32715	32732	32655	32743	
304	0	32710	32660	32699	32823	32692	32727	32607	32567	
305	0	32710	32692	32747	32810	32789	32701	32549	32751	
306	0	32705	32538	32797	32807	32716	32691	32702	32599	
307	0	32751	32662	32623	32859	32719	32743	32615	32703	
308	0	32713	32593	32807	32815	32787	32731	32590	32807	
309	0	32706	32738	32760	32748	32647	32733	32631	32607	
310	0	32688	32754	32607	32749	32759	32748	32615	32707	
311	0	32726	32591	32735	32719	32766	32617	32615	32875	
312	0	32736	32726	32679	32735	32728	32717	32659	32615	
313	0	32664	32644	32827	32739	32762	32658	32723	32767	
314	0	32700	32757	32677	32769	32703	32767	32615	32791	
315	0	32761	32738	32679	32711	32751	32626	32551	32566	
316	0	32743	32553	32718	32735	32775	32702	32611	32721	
317	0	32727	32699	32635	32823	32679	32749	32725	32708	
318	0	32748	32813	32843	32788	32791	32775	32647	32759	
319	0	32679	32621	32740	32789	32645	32707	32593	32814	
320	0	32713	32695	32829	32765	32722	32733	32519	32575	
321	0	32782	32577	32677	32748	32775	32655	32541	32767	
322	0	32742	32699	32822	32727	32686	32743	32674	32755	
323	0	32748	32783	32775	32727	32758	32667	32548	32599	
324	0	32738	32723	32615	32724	32767	32725	32747	32811	
325	0	32703	32717	32709	32737	32682	32727	32562	32749	
326	0	32765	32545	32805	32710	32695	32644	32615	32705	
327	0	32734	32731	32639	32771	32714	32715	32663	32802	
328	0	32775	32735	32633	32769	32722	32706	32713	32559	
329	0	32786	32607	32855	32738	32699	32623	32535	32775	
330	0	32858	32636	32747	32747	32723	32727	32732	32621	
331	0	32794	32617	32785	32667	32662	32707	32677	32804	
332	0	32818	32678	32763	32731	32735	32729	32543	32599	
333	0	32808	32563	32661	32743	32667	32749	32699	32775	
334	0	32775	32782	32747	32757	32749	32633	32631	32747	
335	0	32722	32678	32815	32759	32703	32732	32614	32791	
336	0	32724	32717	32775	32743	32738	32647	32670	32839	
337	0	32747	32537	32793	32747	32635	32671	32687	32762	
338	0	32729	32721	32668	32799	32679	32751	32661	32855	
339	0	32780	32751	32791	32775	32684	32639	32507	32629	
340	0	32724	32487	32687	32723	32702	32764	32736	32749	
341	0	32771	32637	32765	32705	32695	32671	32662	32751	
342	0	32748	32745	32615	32723	32749	32699	32715	32767	
343	0	32735	32647	32731	32767	32735	32631	32501	32791	
344	0	32791	32743	32719	32796	32766	32745	32655	32609	
345	0	32792	32742	32847	32813	32807	32806	32629	32821	
346	0	32780	32622	32647	32775	32693	32775	32727	32847	
347	0	32775	32708	32775	32794	32727	32775	32487	32598	
348	0	32803	32669	32727	32749	32686	32742	32527	32756	
349	0	32794	32759	32796	32775	32738	32743	32703	32743	
350	0	32805	32742	32643	32775	32756	32647	32615	32782	
351	0	32771	32451	32787	32687	32671	32749	32698	32791	
352	0	32719	32679	32783	32703	32718	32757	32647	32722	
353	0	32695	32647	32695	32735	32726	32773	32591	32727	
354	0	32762	32735	32847	32697	32695	32807	32753	32707	
355	0	32765	32763	32805	32747	32756	32685	32629	32751	
356	0	32766	32711	32694	32783	32758	32703	32655	32630	
357	0	32804	32775	32819	32775	32690	32655	32707	32750	
358	0	32750	32566	32733	32756	32765	32751	32587	32795	
359	0	32797	32701	32723	32775	32658	32690	32655	32787	
360	0	32754	32743	32625	32724	32759	32785	32695	32797	
361	0	32740	32615	32727	32731	32709	32639	32519	32647	
362	0	32783	32733	32669	32735	32683	32669	32640	32802	
363	0	32813	32795	32773	32802	32707	32711	32701	32707	
364	0	32755	32575	32625	32850	32757	32614	32495	32805	
365	0	32743	32683	32783	32803	32781	32711	32701	32871	
366	0	32771	32602	32813	32802	32668	32637	32594	32587	
367	0	32764	32713	32647	32767	32735	32729	32711	32825	
368	0	32734	32695	32839	32686	32759	32665	32563	32791	
369	0	32756	32690	32763	32693	32837	32756	32707	32743	
370	0	32846	32679	32828	32743	32811	32667	32706	32833	
371	0	32728	32578	32701	32731	32647	32711	32699	32549	
372	0	32830	32723	32823	32786	32743	32658	32595	32756	
373	0	32807	32742	32775	32764	32748	32667	32718	32687	
374	0	32753	32604	32839	32739	32733	32599	32639	32722	
375	0	32708	32726	32833	32794	32743	32690	32686	32767	
376	0	32742	32599	32747	32805	32695	32767	32588	32670	
377	0	32730	32686	32636	32771	32617	32685	32535	32583	
378	0	32756	32642	32796	32685	32719	32684	32522	32791	
379	0	32773	32735	32807	32750	32743	32669	32591	32852	
380	0	32779	32631	32598	32735	32647	32727	32775	32692	
381	0	32731	32703	32805	32751	32729	32668	32631	32747	
382	0	32737	32581	32838	32775	32703	32719	32731	32833	
383	0	32711	32690	32693	32791	32722	32663	32566	32591	
384	0	32706	32583	32878	32775	32703	32671	32745	32749	
385	0	32787	32647	32811	32759	32758	32757	32631	32835	
386	0	32716	32591	32705	32835	32685	32658	32659	32685	
387	0	32743	32754	32695	32823	32775	32686	32738	32685	
388	0	32679	32731	32735	32805	32748	32631	32583	32879	
389	0	32731	32607	32665	32839	32775	32735	32611	32626	
390	0	32775	32718	32703	32791	32723	32677	32577	32847	
391	0	32767	32617	32686	32775	32711	32775	32711	32873	
392	0	32751	32733	32746	32799	32767	32775	32646	32619	
393	0	32775	32535	32663	32783	32764	32802	32662	32751	
394	0	32787	32775	32815	32711	32685	32695	32551	32687	
395	0	32791	32805	32645	32751	32767	32743	32563	32731	
396	0	32810	32607	32703	32709	32693	32742	32675	32771	
397	0	32818	32701	32773	32809	32725	32631	32715	32611	
398	0	32756	32611	32615	32738	32775	32700	32656	32741	
399	0	32723	32647	32839	32735	32755	32719	32615	32759	
400	0	32767	32695	32717	32823	32757	32679	32714	32732	
401	0	32764	32790	32807	32783	32783	32775	32751	32823	
402	0	32765	32594	32843	32724	32751	32727	32550	32595	
403	0	32716	32715	32713	32727	32711	32739	32631	32731	
404	0	32751	32801	32802	32723	32689	32598	32726	32733	
405	0	32783	32599	32716	32731	32644	32707	32699	32811	
406	0	32755	32603	32775	32819	32710	32647	32599	32847	
407	0	32684	32647	32698	32733	32775	32775	32487	32647	
408	0	32736	32687	32799	32807	32738	32591	32807	32771	
409	0	32744	32723	32775	32710	32775	32785	32676	32821	
410	0	32796	32587	32655	32702	32694	32631	32565	32630	
411	0	32817	32718	32814	32671	32767	32693	32671	32775	
412	0	32794	32775	32775	32729	32739	32644	32447	32646	
413	0	32807	32783	32682	32719	32677	32797	32527	32717	
414	0	32841	32745	32807	32717	32723	32743	32695	32775	
415	0	32808	32573	32786	32795	32789	32759	32661	32655	
416	0	32736	32679	32887	32815	32730	32695	32723	32791	
417	0	32766	32675	32707	32757	32678	32754	32511	32853	
418	0	32753	32775	32887	32765	32683	32711	32551	32623	
419	0	32764	32756	32789	32839	32724	32647	32707	32783	
420	0	32762	32725	32677	32783	32714	32765	32671	32748	
421	0	32780	32765	32786	32796	32710	32676	32637	32887	
422	0	32737	32580	32719	32735	32741	32647	32675	32603	
423	0	32758	32735	32807	32807	32687	32673	32556	32721	
424	0	32740	32727	32623	32750	32797	32735	32603	32742	
425	0	32706	32674	32845	32705	32796	32591	32742	32583	
426	0	32758	32685	32793	32711	32676	32763	32681	32759	
427	0	32790	32607	32647	32722	32775	32771	32739	32817	
428	0	32817	32707	32817	32742	32759	32607	32669	32602	
429	0	32756	32597	32783	32745	32674	32770	32647	32821	
430	0	32775	32823	32788	32763	32717	32771	32567	32617	
431	0	32795	32751	32575	32743	32711	32764	32726	32755	
432	0	32770	32594	32765	32771	32759	32804	32695	32812	
433	0	32799	32754	32757	32775	32687	32609	32593	32708	
434	0	32813	32759	32786	32711	32818	32718	32613	32786	
435	0	32775	32679	32626	32742	32756	32703	32751	32583	
436	0	32731	32717	32794	32703	32741	32747	32643	32764	
437	0	32757	32626	32731	32732	32735	32662	32723	32775	
438	0	32738	32763	32748	32813	32767	32771	32823	32749	
439	0	32775	32775	32775	32699	32636	32715	32703	32635	
440	0	32799	32713	32807	32807	32773	32655	32571	32773	
441	0	32719	32663	32829	32759	32703	32732	32671	32621	
442	0	32738	32767	32783	32764	32827	32687	32687	32719	
443	0	32749	32740	32706	32803	32784	32719	32731	32797	
444	0	32797	32711	32835	32775	32695	32655	32647	32639	
445	0	32729	32695	32663	32743	32751	32731	32543	32763	
446	0	32764	32644	32807	32703	32735	32673	32790	32853	
447	0	32753	32699	32798	32742	32711	32727	32727	32690	
448	0	32823	32519	32803	32735	32729	32615	32759	32731	
449	0	32736	32695	32623	32668	32671	32722	32534	32815	
450	0	32708	32735	32805	32695	32821	32628	32724	32637	
451	0	32732	32701	32807	32694	32735	32711	32631	32711	
452	0	32717	32716	32627	32690	32679	32798	32707	32743	
453	0	32709	32591	32775	32751	32767	32818	32579	32685	
454	0	32749	32694	32663	32711	32647	32723	32564	32769	
455	0	32790	32731	32783	32775	32711	32694	32726	32807	
456	0	32759	32647	32773	32718	32658	32678	32647	32747	
457	0	32692	32621	32613	32711	32742	32719	32591	32815	
458	0	32695	32699	32739	32736	32742	32647	32710	32743	
459	0	32775	32643	32647	32774	32787	32720	32591	32593	
460	0	32797	32759	32807	32775	32741	32599	32675	32754	
461	0	32782	32738	32753	32818	32702	32743	32607	32639	
462	0	32757	32639	32637	32828	32767	32687	32735	32775	
463	0	32775	32756	32775	32829	32639	32731	32623	32863	
464	0	32772	32733	32759	32831	32766	32635	32703	32540	
465	0	32751	32548	32740	32767	32737	32787	32615	32765	
466	0	32790	32718	32687	32787	32822	32711	32563	32839	
467	0	32732	32565	32679	32717	32748	32668	32790	32623	
468	0	32749	32759	32751	32692	32670	32708	32742	32751	
469	0	32756	32751	32596	32679	32767	32653	32647	32843	
470	0	32764	32570	32763	32760	32815	32667	32627	32599	
471	0	32749	32703	32695	32663	32683	32662	32603	32799	
472	0	32764	32757	32861	32719	32673	32690	32573	32669	
473	0	32743	32605	32743	32750	32630	32662	32679	32772	
474	0	32724	32627	32737	32796	32730	32719	32591	32791	
475	0	32694	32767	32811	32739	32661	32646	32679	32559	
476	0	32770	32595	32723	32738	32719	32734	32751	32796	
477	0	32756	32711	32815	32735	32677	32789	32671	32540	
478	0	32762	32647	32653	32756	32677	32662	32681	32717	
479	0	32810	32685	32802	32759	32701	32763	32543	32875	
480	0	32789	32726	32730	32769	32711	32698	32759	32571	
481	0	32765	32559	32797	32811	32770	32722	32595	32786	
482	0	32775	32679	32694	32793	32671	32685	32515	32566	
483	0	32710	32727	32659	32739	32718	32719	32710	32725	
484	0	32685	32513	32845	32719	32727	32676	32647	32804	
485	0	32787	32646	32771	32720	32681	32759	32667	32605	
486	0	32760	32535	32662	32691	32702	32739	32609	32739	
487	0	32759	32742	32805	32775	32695	32663	32611	32782	
488	0	32709	32647	32767	32790	32769	32747	32711	32541	
489	0	32754	32645	32754	32831	32668	32692	32647	32775	
490	0	32794	32754	32711	32757	32807	32767	32719	32751	
491	0	32735	32527	32831	32743	32743	32633	32593	32729	
492	0	32768	32707	32719	32767	32674	32735	32546	32751	
493	0	32728	32555	32605	32721	32723	32611	32615	32807	
494	0	32751	32738	32810	32761	32804	32703	32693	32591	
495	0	32743	32587	32711	32677	32655	32663	32689	32807	
496	0	32773	32694	32669	32727	32789	32671	32675	32895	
497	0	32773	32669	32711	32775	32795	32727	32687	32631	
498	0	32705	32775	32707	32757	32698	32711	32571	32823	
499	0	32799	32749	32775	32775	32738	32751	32751	32863	
500	0	32773	32715	32683	32804	32703	32615	32691	32635	
501	0	32799	32799	32743	32839	32667	32719	32660	32735	
502	0	32791	32571	32671	32859	32775	32711	32766	32795	
503	0	32827	32640	32868	32815	32679	32759	32567	32703	
504	0	32764	32575	32793	32723	32749	32731	32575	32627	
505	0	32788	32711	32699	32747	32775	32607	32722	32775	
506	0	32714	32647	32745	32771	32694	32711	32732	32833	
507	0	32775	32703	32743	32749	32743	32633	32621	32629	
508	0	32772	32695	32737	32787	32763	32736	32661	32737	
509	0	32743	32731	32647	32745	32663	32727	32538	32803	
510	0	32657	32751	32763	32797	32702	32647	32754	32647	
511	0	32697	32660	32731	32767	32679	32671	32621	32791	
512	0	32735	32725	32725	32769	32707	32591	32655	32827	
513	0	32748	32595	32631	32773	32716	32722	32711	32743	
514	0	32762	32742	32807	32774	32645	32647	32599	32748	
515	0	32790	32636	32789	32772	32711	32684	32541	32791	
516	0	32747	32743	32763	32748	32668	32711	32666	32631	
517	0	32722	32756	32735	32723	32711	32615	32663	32723	
518	0	32725	32666	32707	32769	32723	32759	32639	32758	
519	0	32758	32698	32743	32767	32683	32691	32638	32607	
520	0	32734	32623	32751	32731	32749	32751	32683	32563	
521	0	32806	32759	32749	32735	32775	32746	32667	32745	
522	0	32784	32575	32612	32739	32660	32652	32557	32828	
523	0	32800	32691	32802	32775	32691	32719	32786	32593	
524	0	32756	32599	32732	32775	32674	32617	32773	32806	
525	0	32763	32715	32581	32743	32739	32775	32719	32838	
526	0	32791	32762	32751	32705	32775	32622	32663	32613	
527	0	32769	32637	32799	32762	32743	32732	32522	32722	
528	0	32736	32671	32684	32775	32763	32635	32711	32811	
529	0	32735	32592	32727	32739	32706	32738	32687	32595	
530	0	32759	32754	32747	32743	32756	32711	32621	32746	
531	0	32722	32813	32745	32743	32711	32767	32527	32847	
532	0	32775	32674	32681	32759	32804	32742	32773	32607	
533	0	32767	32739	32742	32769	32807	32655	32679	32763	
534	0	32709	32587	32819	32747	32691	32695	32655	32794	
535	0	32783	32677	32663	32799	32745	32647	32561	32799	
536	0	32748	32775	32759	32823	32679	32739	32555	32581	
537	0	32775	32731	32731	32775	32767	32619	32671	32751	
538	0	32773	32711	32647	32765	32735	32759	32669	32884	
539	0	32764	32759	32859	32722	32639	32775	32663	32627	
540	0	32767	32665	32807	32811	32723	32647	32503	32714	
541	0	32762	32615	32663	32803	32653	32771	32775	32747	
542	0	32770	32615	32726	32709	32739	32775	32645	32647	
543	0	32708	32613	32716	32693	32815	32751	32653	32683	
544	0	32722	32583	32742	32733	32716	32739	32487	32839	
545	0	32825	32647	32711	32673	32765	32701	32750	32615	
546	0	32806	32495	32848	32767	32738	32827	32726	32741	
547	0	32710	32723	32759	32809	32743	32754	32628	32855	
548	0	32760	32733	32726	32775	32711	32717	32661	32626	
549	0	32727	32671	32615	32687	32749	32647	32673	32838	
550	0	32780	32742	32693	32695	32691	32743	32631	32564	
551	0	32727	32719	32756	32749	32714	32757	32607	32819	
552	0	32791	32751	32775	32756	32703	32695	32595	32583	
553	0	32783	32614	32839	32727	32757	32719	32669	32767	
554	0	32758	32679	32667	32713	32737	32598	32713	32700	
555	0	32775	32829	32703	32755	32711	32748	32574	32799	
556	0	32783	32568	32723	32773	32814	32745	32749	32820	
557	0	32784	32759	32782	32806	32821	32743	32621	32759	
558	0	32789	32775	32836	32819	32742	32699	32703	32743	
559	0	32674	32765	32655	32829	32741	32783	32543	32835	
560	0	32715	32711	32739	32747	32677	32630	32855	32631	
561	0	32793	32557	32804	32759	32749	32687	32671	32791	
562	0	32726	32780	32791	32710	32755	32673	32709	32671	
563	0	32715	32759	32647	32727	32775	32731	32598	32721	
564	0	32754	32559	32837	32775	32807	32775	32711	32762	
565	0	32724	32719	32823	32759	32751	32823	32731	32763	
566	0	32698	32647	32863	32786	32775	32805	32557	32869	
567	0	32755	32569	32709	32738	32799	32623	32789	32571	
568	0	32749	32725	32773	32679	32748	32710	32661	32775	
569	0	32748	32667	32817	32679	32660	32643	32653	32588	
570	0	32743	32619	32732	32771	32775	32738	32588	32799	
571	0	32723	32654	32797	32817	32692	32623	32731	32899	
572	0	32800	32675	32647	32858	32799	32723	32723	32571	
573	0	32764	32606	32844	32821	32647	32802	32569	32798	
574	0	32725	32719	32701	32727	32687	32707	32719	32864	
575	0	32762	32647	32763	32711	32646	32666	32725	32567	
576	0	32765	32647	32800	32711	32699	32671	32525	32767	
577	0	32782	32527	32659	32767	32635	32775	32807	32655	
578	0	32730	32647	32681	32795	32706	32729	32679	32749	
579	0	32757	32731	32767	32791	32647	32721	32605	32886	
580	0	32838	32579	32773	32771	32743	32730	32703	32599	
581	0	32820	32733	32823	32729	32694	32631	32615	32773	
582	0	32723	32740	32668	32759	32786	32731	32647	32751	
583	0	32748	32631	32789	32716	32775	32680	32551	32529	
584	0	32813	32687	32775	32790	32836	32745	32667	32729	
585	0	32839	32543	32819	32789	32766	32614	32663	32755	
586	0	32801	32771	32759	32805	32635	32749	32709	32591	
587	0	32742	32724	32797	32770	32763	32693	32587	32767	
588	0	32737	32786	32659	32743	32765	32799	32551	32813	
589	0	32785	32804	32814	32751	32647	32715	32767	32757	
590	0	32799	32575	32834	32740	32711	32803	32663	32623	
591	0	32793	32759	32669	32742	32747	32775	32709	32745	
592	0	32782	32757	32761	32797	32791	32775	32635	32687	
593	0	32757	32555	32667	32685	32773	32757	32679	32742	
594	0	32694	32662	32751	32729	32642	32668	32701	32748	
595	0	32718	32541	32817	32759	32775	32767	32710	32863	
596	0	32772	32716	32834	32707	32748	32631	32551	32647	
597	0	32775	32561	32694	32727	32674	32699	32647	32783	
598	0	32751	32719	32843	32681	32739	32663	32663	32799	
599	0	32807	32567	32821	32694	32743	32643	32639	32820	
600	0	32783	32681	32731	32749	32707	32763	32683	32579	
601	0	32790	32695	32811	32719	32703	32639	32533	32773	
602	0	32834	32593	32791	32711	32751	32743	32679	32847	
603	0	32764	32773	32811	32787	32759	32642	32642	32603	
604	0	32734	32661	32647	32750	32619	32577	32535	32850	
605	0	32653	32652	32775	32727	32725	32751	32743	32611	
606	0	32751	32703	32775	32711	32757	32665	32666	32713	
607	0	32784	32703	32815	32775	32767	32675	32685	32767	
608	0	32791	32495	32726	32759	32751	32667	32583	32584	
609	0	32790	32775	32769	32758	32717	32750	32783	32793	
610	0	32806	32727	32713	32735	32763	32639	32602	32705	
611	0	32795	32605	32641	32791	32674	32718	32735	32751	
612	0	32786	32738	32677	32791	32767	32630	32610	32829	
613	0	32720	32767	32775	32788	32631	32743	32603	32615	
614	0	32758	32551	32762	32667	32784	32676	32742	32749	
615	0	32748	32711	32741	32681	32731	32710	32647	32805	
616	0	32734	32788	32711	32767	32799	32615	32717	32639	
617	0	32747	32761	32743	32731	32759	32733	32607	32789	
618	0	32763	32727	32742	32734	32685	32626	32766	32766	
619	0	32743	32647	32642	32758	32727	32735	32627	32773	
620	0	32738	32615	32771	32695	32731	32698	32583	32919	
621	0	32743	32702	32747	32687	32725	32701	32647	32607	
622	0	32765	32639	32807	32719	32681	32727	32661	32751	
623	0	32767	32739	32647	32720	32785	32791	32674	32775	
624	0	32767	32743	32768	32730	32775	32787	32527	32726	
625	0	32754	32655	32694	32747	32797	32791	32769	32791	
626	0	32754	32751	32783	32756	32747	32756	32662	32647	
627	0	32712	32713	32631	32823	32683	32751	32703	32775	
628	0	32741	32577	32839	32811	32747	32783	32527	32849	
629	0	32711	32685	32735	32810	32643	32679	32749	32788	
630	0	32765	32690	32786	32775	32790	32733	32727	32854	
631	0	32756	32487	32703	32754	32692	32693	32545	32786	
632	0	32711	32709	32759	32775	32747	32708	32595	32723	
633	0	32730	32703	32767	32903	32748	32685	32681	32591	
634	0	32716	32613	32831	32775	32681	32691	32715	32714	
635	0	32718	32699	32667	32771	32747	32615	32573	32823	
636	0	32779	32555	32834	32743	32796	32683	32767	32591	
637	0	32809	32795	32719	32703	32767	32659	32623	32825	
638	0	32828	32733	32774	32727	32745	32711	32635	32587	
639	0	32766	32575	32695	32743	32722	32671	32578	32751	
640	0	32714	32719	32759	32771	32717	32695	32670	32748	
641	0	32762	32706	32771	32763	32623	32647	32639	32751	
642	0	32804	32503	32660	32743	32738	32756	32601	32823	
643	0	32818	32739	32759	32731	32738	32751	32628	32567	
644	0	32772	32719	32735	32743	32775	32677	32631	32833	
645	0	32815	32810	32647	32746	32715	32715	32646	32601	
646	0	32789	32619	32851	32749	32773	32627	32751	32765	
647	0	32753	32707	32722	32739	32734	32687	32695	32577	
648	0	32731	32751	32854	32727	32743	32743	32511	32788	
649	0	32753	32519	32791	32811	32754	32666	32751	32621	
650	0	32743	32679	32647	32767	32655	32677	32727	32749	
651	0	32815	32711	32751	32799	32767	32695	32567	32668	
652	0	32749	32598	32743	32735	32767	32703	32775	32743	
653	0	32784	32722	32828	32739	32692	32754	32665	32838	
654	0	32807	32690	32668	32771	32797	32635	32635	32748	
655	0	32737	32765	32767	32791	32708	32749	32546	32791	
656	0	32813	32583	32819	32755	32807	32693	32623	32719	
657	0	32758	32794	32867	32738	32735	32734	32660	32859	
658	0	32671	32766	32887	32735	32748	32775	32531	32582	
659	0	32740	32557	32642	32711	32637	32687	32735	32793	
660	0	32742	32775	32738	32727	32734	32735	32605	32611	
661	0	32719	32655	32751	32713	32677	32643	32699	32740	
662	0	32731	32548	32775	32727	32726	32725	32533	32863	
663	0	32741	32694	32599	32791	32707	32668	32681	32618	
664	0	32783	32717	32775	32805	32807	32743	32621	32783	
665	0	32708	32623	32727	32731	32757	32633	32695	32691	
666	0	32774	32647	32839	32743	32843	32743	32554	32789	
667	0	32742	32733	32599	32743	32815	32695	32687	32783	
668	0	32799	32587	32807	32767	32687	32694	32679	32786	
669	0	32759	32690	32737	32787	32783	32599	32638	32790	
670	0	32800	32610	32756	32751	32727	32711	32745	32703	
671	0	32823	32741	32727	32843	32806	32698	32516	32738	
672	0	32783	32775	32742	32819	32775	32715	32815	32831	
673	0	32735	32578	32807	32679	32647	32623	32663	32718	
674	0	32805	32791	32751	32743	32759	32775	32635	32809	
675	0	32806	32687	32647	32757	32666	32735	32567	32740	
676	0	32796	32601	32759	32836	32815	32766	32671	32757	
677	0	32767	32711	32719	32754	32701	32620	32686	32615	
678	0	32723	32695	32831	32751	32771	32786	32583	32799	
679	0	32774	32787	32677	32749	32623	32771	32688	32687	
680	0	32769	32567	32786	32754	32734	32725	32569	32751	
681	0	32783	32685	32783	32789	32730	32601	32685	32859	
682	0	32793	32635	32713	32827	32763	32743	32629	32615	
683	0	32753	32647	32751	32847	32767	32743	32637	32775	
684	0	32737	32670	32603	32775	32786	32631	32719	32596	
685	0	32742	32691	32759	32714	32807	32821	32477	32775	
686	0	32756	32756	32767	32742	32671	32751	32613	32791	
687	0	32765	32775	32603	32763	32751	32671	32727	32599	
688	0	32727	32719	32815	32674	32783	32711	32604	32782	
689	0	32729	32691	32799	32683	32695	32591	32703	32871	
690	0	32758	32467	32679	32709	32709	32715	32508	32599	
691	0	32812	32687	32740	32757	32662	32647	32718	32775	
692	0	32773	32709	32839	32755	32754	32763	32679	32629	
693	0	32726	32535	32861	32751	32666	32647	32636	32766	
694	0	32769	32775	32773	32757	32771	32789	32807	32731	
695	0	32774	32731	32681	32699	32689	32747	32692	32719	
696	0	32790	32610	32803	32743	32723	32623	32698	32866	
697	0	32747	32715	32735	32771	32727	32735	32517	32626	
698	0	32713	32735	32807	32807	32667	32629	32731	32795	
699	0	32738	32565	32687	32737	32748	32734	32685	32860	
700	0	32734	32705	32801	32771	32743	32685	32695	32623	
701	0	32767	32570	32823	32834	32691	32671	32658	32783	
702	0	32805	32743	32597	32825	32743	32702	32725	32859	
703	0	32740	32660	32823	32796	32771	32639	32521	32643	
704	0	32758	32687	32679	32647	32784	32759	32716	32815	
705	0	32781	32711	32709	32698	32826	32685	32643	32775	
706	0	32757	32663	32630	32798	32639	32713	32725	32607	
707	0	32684	32743	32687	32762	32775	32645	32586	32743	
708	0	32746	32734	32755	32735	32741	32733	32643	32843	
709	0	32822	32679	32695	32759	32737	32627	32767	32539	
710	0	32786	32669	32754	32740	32751	32691	32647	32764	
711	0	32758	32615	32822	32787	32751	32647	32612	32695	
712	0	32793	32757	32647	32833	32674	32663	32511	32762	
713	0	32703	32735	32783	32826	32703	32575	32731	32783	
714	0	32725	32587	32801	32733	32647	32695	32607	32563	
715	0	32706	32783	32783	32775	32751	32635	32675	32797	
716	0	32796	32677	32629	32807	32623	32767	32534	32643	
717	0	32791	32629	32719	32767	32738	32674	32743	32742	
718	0	32800	32699	32680	32804	32743	32775	32660	32830	
719	0	32798	32759	32715	32786	32839	32676	32639	32579	
720	0	32775	32629	32583	32749	32738	32775	32646	32759	
721	0	32702	32556	32635	32797	32754	32751	32703	32593	
722	0	32736	32699	32755	32799	32743	32617	32623	32754	
723	0	32750	32720	32755	32721	32647	32719	32759	32739	
724	0	32744	32631	32847	32748	32805	32661	32535	32731	
725	0	32735	32803	32725	32759	32767	32747	32695	32821	
726	0	32754	32745	32895	32746	32786	32698	32671	32611	
727	0	32706	32567	32766	32747	32679	32677	32567	32741	
728	0	32727	32761	32831	32710	32719	32763	32581	32615	
729	0	32794	32711	32615	32709	32663	32758	32734	32748	
730	0	32782	32543	32814	32775	32711	32751	32635	32865	
731	0	32784	32699	32765	32749	32771	32805	32635	32575	
732	0	32732	32679	32639	32705	32694	32647	32563	32805	
733	0	32759	32697	32845	32727	32723	32727	32551	32743	
734	0	32810	32679	32799	32723	32692	32711	32712	32647	
735	0	32754	32509	32719	32717	32679	32751	32638	32829	
736	0	32782	32730	32735	32743	32686	32690	32655	32660	
737	0	32798	32710	32710	32735	32663	32733	32570	32739	
738	0	32746	32571	32743	32698	32722	32603	32742	32831	
739	0	32764	32675	32699	32775	32718	32799	32707	32629	
740	0	32769	32775	32839	32807	32773	32691	32678	32783	
741	0	32745	32543	32764	32751	32749	32713	32539	32679	
742	0	32792	32739	32811	32677	32692	32775	32731	32756	
743	0	32734	32679	32620	32687	32739	32613	32679	32747	
744	0	32796	32543	32715	32829	32658	32733	32487	32763	
745	0	32775	32745	32833	32790	32734	32639	32729	32790	
746	0	32812	32735	32775	32827	32667	32799	32677	32599	
747	0	32761	32751	32799	32757	32759	32746	32683	32853	
748	0	32753	32663	32685	32742	32683	32579	32575	32627	
749	0	32727	32733	32621	32787	32727	32673	32738	32751	
750	0	32700	32687	32805	32783	32647	32695	32647	32709	
751	0	32761	32599	32787	32833	32731	32775	32670	32711	
752	0	32755	32587	32790	32751	32692	32775	32511	32799	
753	0	32751	32687	32683	32771	32705	32723	32719	32623	
754	0	32791	32623	32831	32742	32791	32675	32685	32731	
755	0	32810	32647	32811	32721	32815	32723	32709	32647	
756	0	32742	32662	32699	32707	32765	32676	32647	32791	
757	0	32708	32543	32782	32775	32671	32791	32527	32813	
758	0	32775	32765	32751	32719	32694	32702	32728	32571	
759	0	32804	32711	32787	32738	32619	32802	32709	32794	
760	0	32717	32573	32623	32712	32703	32627	32677	32859	
761	0	32730	32775	32775	32807	32684	32791	32727	32598	
762	0	32714	32751	32713	32743	32667	32647	32476	32771	
763	0	32738	32731	32674	32787	32735	32725	32643	32847	
764	0	32745	32749	32784	32755	32693	32615	32741	32615	
765	0	32725	32587	32755	32765	32766	32723	32746	32759	
766	0	32750	32687	32838	32791	32710	32688	32647	32835	
767	0	32818	32628	32727	32839	32675	32717	32689	32661	
768	0	32726	32775	32687	32773	32742	32713	32561	32730	
769	0	32839	32775	32647	32763	32694	32675	32587	32775	
770	0	32760	32767	32819	32786	32727	32738	32732	32727	
771	0	32813	32735	32764	32723	32720	32615	32639	32739	
772	0	32775	32599	32606	32748	32695	32669	32671	32769	
773	0	32765	32703	32743	32706	32727	32626	32687	32812	
774	0	32743	32603	32727	32735	32807	32711	32605	32731	
775	0	32762	32694	32767	32768	32687	32667	32527	32790	
776	0	32735	32757	32721	32703	32742	32722	32723	32606	
777	0	32751	32594	32799	32742	32695	32727	32735	32716	
778	0	32779	32686	32839	32783	32714	32795	32647	32863	
779	0	32775	32735	32647	32813	32711	32727	32627	32567	
780	0	32752	32718	32821	32759	32820	32765	32538	32811	
781	0	32775	32687	32702	32791	32823	32703	32725	32743	
782	0	32743	32773	32871	32751	32719	32714	32717	32735	
783	0	32723	32714	32693	32751	32757	32669	32588	32759	
784	0	32799	32727	32799	32761	32647	32749	32607	32572	
785	0	32754	32639	32729	32769	32711	32642	32743	32762	
786	0	32804	32751	32745	32818	32754	32747	32684	32775	
787	0	32810	32722	32635	32813	32727	32719	32726	32743	
788	0	32856	32519	32775	32719	32775	32732	32540	32847	
789	0	32711	32803	32789	32721	32663	32703	32802	32647	
790	0	32745	32742	32709	32747	32772	32623	32767	32758	
791	0	32758	32647	32815	32775	32763	32724	32630	32783	
792	0	32756	32675	32796	32743	32757	32633	32678	32683	
793	0	32743	32565	32631	32737	32726	32727	32471	32708	
794	0	32774	32644	32814	32775	32686	32659	32621	32758	
795	0	32718	32685	32765	32747	32735	32759	32675	32718	
796	0	32722	32719	32703	32705	32739	32669	32706	32737	
797	0	32743	32699	32725	32681	32647	32751	32623	32791	
798	0	32758	32571	32735	32747	32701	32655	32559	32671	
799	0	32751	32764	32808	32775	32733	32743	32743	32623	
800	0	32743	32679	32634	32766	32699	32717	32719	32749	
801	0	32800	32807	32711	32775	32740	32775	32675	32847	
802	0	32810	32735	32807	32732	32721	32716	32695	32695	
803	0	32775	32559	32647	32775	32775	32671	32583	32750	
804	0	32762	32691	32809	32751	32766	32758	32535	32791	
805	0	32756	32708	32819	32751	32698	32644	32743	32801	
806	0	32756	32747	32706	32711	32762	32676	32727	32571	
807	0	32749	32734	32771	32747	32775	32635	32647	32749	
808	0	32751	32535	32770	32735	32623	32743	32615	32759	
809	0	32751	32694	32669	32763	32758	32739	32669	32827	
810	0	32746	32599	32757	32775	32763	32775	32534	32562	
811	0	32709	32809	32815	32775	32643	32679	32557	32807	
812	0	32726	32825	32647	32807	32734	32771	32699	32863	
813	0	32775	32573	32864	32695	32699	32723	32685	32575	
814	0	32737	32707	32726	32738	32797	32807	32547	32757	
815	0	32724	32559	32629	32751	32717	32772	32482	32775	
816	0	32787	32711	32763	32733	32663	32711	32703	32599	
817	0	32844	32691	32683	32727	32775	32743	32663	32742	
818	0	32814	32681	32711	32759	32735	32742	32662	32831	
819	0	32758	32765	32619	32771	32653	32793	32540	32599	
820	0	32703	32767	32735	32785	32743	32668	32683	32771	
821	0	32775	32726	32876	32807	32671	32741	32687	32797	
822	0	32862	32711	32708	32823	32749	32631	32767	32683	
823	0	32725	32570	32837	32765	32775	32703	32719	32599	
824	0	32775	32717	32859	32799	32687	32671	32527	32722	
825	0	32750	32737	32639	32839	32773	32714	32733	32719	
826	0	32750	32655	32794	32775	32647	32671	32655	32735	
827	0	32784	32710	32799	32711	32759	32701	32646	32819	
828	0	32870	32607	32762	32675	32767	32677	32740	32837	
829	0	32764	32765	32745	32691	32694	32733	32642	32579	
830	0	32750	32647	32783	32730	32726	32759	32553	32722	
831	0	32788	32698	32763	32741	32734	32674	32787	32770	
832	0	32813	32742	32791	32764	32647	32707	32758	32839	
833	0	32799	32731	32790	32719	32833	32710	32703	32614	
834	0	32778	32787	32677	32711	32756	32750	32679	32743	
835	0	32828	32564	32775	32718	32698	32723	32671	32775	
836	0	32804	32643	32826	32738	32751	32645	32692	32725	
837	0	32794	32559	32667	32729	32764	32711	32495	32765	
838	0	32705	32735	32717	32743	32625	32663	32509	32819	
839	0	32742	32535	32669	32715	32690	32615	32525	32903	
840	0	32775	32647	32775	32675	32687	32748	32575	32654	
841	0	32775	32570	32735	32726	32721	32599	32710	32775	
842	0	32751	32694	32681	32747	32694	32738	32727	32900	
843	0	32775	32729	32731	32695	32698	32790	32681	32631	
844	0	32738	32751	32769	32731	32713	32674	32671	32795	
845	0	32729	32757	32562	32767	32751	32691	32655	32827	
846	0	32773	32620	32757	32739	32694	32556	32583	32631	
847	0	32756	32726	32743	32765	32743	32829	32567	32607	
848	0	32769	32662	32695	32775	32685	32805	32590	32834	
849	0	32787	32759	32682	32727	32749	32719	32679	32695	
850	0	32733	32587	32775	32759	32717	32711	32643	32719	
851	0	32749	32709	32643	32735	32719	32679	32619	32807	
852	0	32756	32587	32787	32694	32703	32713	32709	32823	
853	0	32711	32738	32795	32765	32786	32659	32635	32562	
854	0	32710	32623	32663	32759	32647	32799	32532	32753	
855	0	32739	32669	32743	32775	32767	32767	32498	32743	
856	0	32698	32662	32815	32733	32775	32659	32612	32557	
857	0	32724	32754	32697	32712	32663	32751	32748	32761	
858	0	32754	32775	32749	32676	32703	32662	32715	32799	
859	0	32832	32755	32829	32687	32627	32799	32662	32628	
860	0	32814	32763	32647	32687	32738	32647	32675	32679	
861	0	32772	32495	32775	32727	32775	32773	32492	32844	
862	0	32758	32647	32773	32747	32615	32759	32534	32638	
863	0	32769	32521	32647	32682	32706	32731	32743	32727	
864	0	32729	32642	32643	32631	32709	32727	32805	32724	
865	0	32756	32673	32751	32699	32726	32603	32669	32854	
866	0	32757	32711	32773	32709	32793	32719	32674	32683	
867	0	32753	32748	32679	32723	32770	32743	32754	32743	
868	0	32751	32771	32787	32767	32727	32607	32725	32774	
869	0	32718	32738	32807	32699	32749	32706	32583	32831	
870	0	32768	32711	32751	32727	32775	32707	32559	32646	
871	0	32783	32706	32671	32745	32690	32822	32775	32775	
872	0	32828	32567	32837	32754	32813	32755	32679	32775	
873	0	32806	32717	32775	32762	32805	32639	32654	32807	
874	0	32821	32722	32639	32705	32655	32699	32667	32617	
875	0	32743	32705	32823	32731	32775	32662	32719	32762	
876	0	32745	32687	32726	32757	32747	32725	32548	32820	
877	0	32745	32716	32731	32773	32769	32731	32798	32619	
878	0	32742	32731	32799	32751	32711	32679	32743	32798	
879	0	32741	32773	32807	32687	32666	32711	32663	32774	
880	0	32773	32767	32791	32737	32759	32631	32736	32749	
881	0	32771	32621	32671	32801	32767	32708	32557	32754	
882	0	32802	32695	32775	32773	32695	32687	32583	32834	
883	0	32783	32612	32810	32775	32695	32727	32674	32703	
884	0	32794	32783	32735	32775	32660	32724	32602	32787	
885	0	32762	32725	32738	32717	32663	32791	32687	32775	
886	0	32765	32738	32807	32753	32738	32742	32532	32733	
887	0	32751	32743	32804	32722	32699	32685	32748	32789	
888	0	32807	32571	32685	32747	32701	32775	32692	32839	
889	0	32765	32711	32811	32731	32733	32647	32687	32791	
890	0	32763	32767	32783	32787	32747	32709	32629	32756	
891	0	32752	32751	32706	32724	32726	32634	32513	32745	
892	0	32798	32738	32823	32739	32711	32753	32745	32755	
893	0	32716	32711	32727	32717	32818	32803	32683	32549	
894	0	32772	32709	32798	32735	32827	32719	32683	32719	
895	0	32734	32605	32631	32743	32716	32732	32691	32815	
896	0	32760	32727	32714	32735	32703	32612	32561	32635	
897	0	32711	32567	32823	32771	32807	32743	32603	32790	
898	0	32711	32721	32759	32790	32709	32679	32715	32775	
899	0	32724	32761	32629	32735	32797	32703	32583	32775	
900	0	32761	32583	32711	32772	32690	32662	32673	32855	
901	0	32834	32671	32743	32715	32743	32742	32566	32596	
902	0	32732	32663	32821	32734	32715	32683	32775	32751	
903	0	32803	32694	32782	32787	32749	32830	32709	32687	
904	0	32771	32711	32647	32749	32738	32647	32611	32721	
905	0	32784	32558	32827	32710	32725	32751	32583	32790	
906	0	32768	32677	32756	32745	32796	32695	32631	32563	
907	0	32713	32519	32859	32807	32729	32743	32626	32640	
908	0	32727	32671	32773	32799	32677	32684	32663	32749	
909	0	32743	32595	32743	32754	32727	32711	32603	32703	
910	0	32773	32727	32843	32711	32691	32731	32743	32691	
911	0	32730	32727	32701	32719	32807	32811	32671	32809	
912	0	32766	32543	32775	32691	32775	32763	32679	32639	
913	0	32788	32666	32823	32735	32695	32687	32563	32717	
914	0	32720	32583	32663	32654	32762	32743	32561	32763	
915	0	32711	32722	32719	32703	32711	32669	32758	32647	
916	0	32783	32670	32791	32800	32775	32751	32669	32749	
917	0	32801	32547	32709	32769	32671	32743	32567	32738	
918	0	32725	32717	32756	32711	32785	32743	32775	32751	
919	0	32766	32799	32734	32705	32722	32727	32687	32799	
920	0	32748	32583	32641	32758	32771	32737	32725	32613	
921	0	32716	32708	32801	32762	32719	32713	32503	32731	
922	0	32806	32621	32767	32775	32643	32679	32682	32735	
923	0	32775	32679	32754	32831	32719	32771	32597	32759	
924	0	32807	32746	32647	32819	32644	32731	32662	32807	
925	0	32742	32731	32855	32775	32767	32647	32697	32811	
926	0	32803	32662	32883	32773	32749	32703	32687	32602	
927	0	32756	32725	32724	32827	32701	32663	32481	32787	
928	0	32719	32678	32699	32731	32711	32687	32711	32599	
929	0	32765	32527	32809	32737	32674	32647	32617	32748	
930	0	32802	32679	32733	32676	32775	32655	32599	32903	
931	0	32817	32647	32603	32769	32700	32663	32551	32695	
932	0	32807	32807	32774	32677	32621	32661	32614	32743	
933	0	32755	32737	32727	32703	32711	32709	32747	32854	
934	0	32714	32641	32786	32727	32751	32747	32679	32583	
935	0	32759	32705	32710	32679	32598	32727	32727	32735	
936	0	32681	32603	32663	32737	32737	32714	32710	32835	
937	0	32731	32711	32679	32711	32722	32717	32668	32772	
938	0	32772	32515	32747	32711	32635	32615	32508	32775	
939	0	32810	32751	32839	32722	32723	32751	32791	32799	
940	0	32795	32775	32843	32791	32666	32647	32669	32611	
941	0	32786	32583	32831	32793	32743	32775	32679	32837	
942	0	32728	32715	32804	32799	32739	32703	32603	32815	
943	0	32820	32575	32845	32827	32701	32710	32548	32581	
944	0	32803	32683	32615	32775	32758	32613	32767	32695	
945	0	32775	32658	32799	32757	32671	32705	32759	32798	
946	0	32738	32748	32767	32678	32786	32619	32764	32613	
947	0	32805	32731	32775	32719	32687	32714	32674	32795	
948	0	32785	32644	32639	32727	32751	32691	32541	32775	
949	0	32743	32789	32813	32755	32739	32761	32751	32590	
950	0	32815	32775	32751	32726	32695	32587	32699	32841	
951	0	32806	32756	32637	32815	32795	32719	32629	32775	
952	0	32743	32735	32823	32795	32765	32615	32669	32725	
953	0	32758	32538	32773	32783	32767	32718	32647	32786	
954	0	32763	32723	32732	32735	32787	32615	32646	32629	
955	0	32751	32671	32709	32695	32673	32715	32631	32807	
956	0	32750	32631	32759	32713	32647	32686	32547	32735	
957	0	32727	32687	32783	32747	32591	32731	32578	32743	
958	0	32711	32567	32571	32791	32755	32621	32759	32755	
959	0	32773	32743	32724	32850	32723	32677	32659	32591	
960	0	32709	32721	32679	32775	32669	32647	32667	32759	
961	0	32780	32735	32791	32759	32745	32711	32581	32827	
962	0	32783	32671	32619	32723	32663	32679	32575	32613	
963	0	32768	32511	32719	32741	32734	32717	32647	32771	
964	0	32809	32723	32743	32751	32726	32662	32647	32821	
965	0	32749	32614	32655	32711	32663	32765	32695	32607	
966	0	32696	32743	32769	32742	32727	32690	32679	32767	
967	0	32727	32751	32876	32711	32751	32791	32523	32742	
968	0	32733	32559	32773	32775	32743	32705	32742	32751	
969	0	32731	32658	32755	32759	32765	32711	32695	32775	
970	0	32782	32621	32751	32786	32720	32695	32679	32719	
971	0	32774	32711	32838	32747	32775	32711	32626	32759	
972	0	32717	32727	32659	32759	32707	32667	32582	32811	
973	0	32756	32628	32775	32733	32765	32751	32722	32615	
974	0	32744	32815	32687	32767	32671	32615	32639	32787	
975	0	32719	32766	32759	32787	32709	32679	32679	32721	
976	0	32718	32567	32665	32773	32637	32683	32477	32799	
977	0	32794	32636	32827	32759	32710	32739	32594	32839	
978	0	32739	32615	32855	32723	32757	32639	32743	32645	
979	0	32742	32757	32642	32747	32705	32719	32698	32757	
980	0	32756	32721	32767	32679	32795	32692	32679	32827	
981	0	32790	32599	32791	32723	32787	32711	32614	32602	
982	0	32783	32711	32759	32707	32671	32667	32543	32841	
983	0	32805	32723	32667	32711	32759	32757	32759	32709	
984	0	32789	32507	32807	32827	32671	32770	32669	32708	
985	0	32790	32682	32775	32727	32759	32655	32703	32831	
986	0	32803	32743	32801	32641	32663	32739	32519	32535	
987	0	32793	32563	32692	32710	32683	32623	32751	32765	
988	0	32742	32773	32775	32757	32674	32708	32675	32671	
989	0	32733	32711	32725	32775	32771	32732	32525	32739	
990	0	32729	32555	32796	32859	32714	32685	32647	32935	
991	0	32742	32671	32647	32817	32745	32647	32775	32647	
992	0	32756	32775	32751	32694	32759	32700	32694	32724	
993	0	32738	32703	32727	32717	32675	32667	32559	32815	
994	0	32781	32727	32743	32719	32769	32767	32575	32558	
995	0	32743	32565	32698	32758	32749	32647	32712	32735	
996	0	32765	32695	32699	32743	32775	32719	32679	32818	
997	0	32810	32589	32807	32809	32738	32709	32639	32592	
998	0	32773	32757	32673	32756	32683	32791	32745	32739	
999	0	32808	32702	32806	32735	32757	32639	32519	32771	
1000	0	32799	32538	32775	32801	32719	32703	32695	32775	
1001	0	32787	32695	32791	32775	32743	32679	32720	32791	
1002	0	32745	32719	32615	32701	32735	32738	32679	32559	
1003	0	32727	32562	32827	32715	32658	32631	32511	32711	
1004	0	32775	32733	32691	32739	32679	32707	32724	32775	
1005	0	32794	32715	32755	32758	32684	32638	32635	32734	
1006	0	32772	32623	32662	32694	32763	32735	32694	32719	
1007	0	32731	32685	32794	32719	32793	32615	32755	32783	
1008	0	32743	32495	32683	32737	32647	32769	32583	32583	
1009	0	32751	32669	32731	32694	32703	32666	32463	32756	
1010	0	32734	32501	32671	32666	32747	32637	32573	32789	
1011	0	32740	32695	32831	32731	32660	32733	32701	32741	
1012	0	32748	32719	32822	32693	32727	32647	32719	32748	
1013	0	32799	32577	32785	32759	32663	32706	32547	32829	
1014	0	32759	32663	32685	32813	32775	32762	32793	32643	
1015	0	32775	32604	32725	32716	32708	32775	32683	32739	
1016	0	32770	32663	32827	32735	32727	32713	32711	32843	
1017	0	32758	32663	32687	32754	32738	32687	32519	32775	
1018	0	32751	32687	32763	32790	32817	32703	32705	32851	
1019	0	32731	32692	32821	32834	32759	32647	32639	32593	
1020	0	32738	32759	32764	32727	32763	32773	32583	32851	
1021	0	32742	32727	32655	32671	32735	32700	32486	32631	
1022	0	32758	32551	32857	32719	32735	32686	32763	32821	
1023	0	32751	32667	32754	32748	32722	32643	32637	32887	
1024	0	32791	32719	32807	32763	32636	32687	32656	32593	
1025	0	32807	32828	32683	32754	32769	32684	32647	32767	
1026	0	32823	32775	32799	32771	32764	32710	32643	32698	
1027	0	32705	32639	32687	32826	32813	32643	32676	32749	
1028	0	32729	32749	32843	32756	32804	32772	32602	32794	
1029	0	32823	32766	32627	32802	32671	32735	32567	32591	
1030	0	32804	32571	32810	32751	32737	32726	32696	32783	
1031	0	32765	32685	32818	32771	32689	32637	32667	32718	
1032	0	32752	32644	32706	32759	32671	32659	32711	32713	
1033	0	32751	32732	32815	32773	32749	32685	32563	32749	
1034	0	32785	32775	32738	32759	32660	32711	32547	32817	
1035	0	32775	32775	32743	32727	32726	32725	32570	32663	
1036	0	32720	32775	32761	32727	32759	32668	32791	32795	
1037	0	32710	32586	32730	32751	32759	32818	32680	32789	
1038	0	32792	32711	32751	32742	32707	32679	32629	32611	
1039	0	32767	32593	32551	32734	32625	32767	32719	32759	
1040	0	32692	32769	32742	32749	32790	32670	32525	32879	
1041	0	32754	32709	32751	32791	32775	32707	32635	32637	
1042	0	32775	32606	32631	32751	32710	32631	32787	32594	
1043	0	32833	32706	32759	32740	32764	32767	32775	32755	
1044	0	32724	32551	32787	32743	32786	32703	32647	32879	
1045	0	32775	32738	32735	32806	32668	32741	32703	32619	
1046	0	32838	32830	32674	32758	32668	32749	32573	32790	
1047	0	32807	32841	32702	32726	32647	32638	32617	32919	
1048	0	32791	32827	32775	32751	32647	32711	32758	32817	
1049	0	32869	32647	32580	32799	32722	32647	32693	32823	
1050	0	32833	32732	32775	32799	32685	32643	32756	32886	
1051	0	32785	32644	32819	32845	32743	32594	32783	32899	
1052	0	32835	32823	32775	32721	32713	32695	32647	32692	
1053	0	32837	32791	32796	32714	32671	32715	32629	32758	
1054	0	32851	32735	32751	32727	32775	32775	32810	32815	
1055	0	32833	32721	32819	32679	32786	32733	32865	32903	
1056	0	32874	32642	32791	32690	32717	32643	32805	32743	
1057	0	32855	32727	32867	32673	32810	32796	32763	32815	
1058	0	32841	32603	32966	32647	32855	32725	32643	32822	
1059	0	32840	32695	32884	32647	32717	32794	32678	32815	
1060	0	32845	32555	32835	32646	32867	32826	32859	32575	
1061	0	32786	32647	32859	32659	32855	32715	32711	32743	
1062	0	32744	32694	32823	32711	32811	32807	32669	32698	
1063	0	32695	32591	32738	32751	32815	32759	32540	32671	
1064	0	32747	32701	32877	32793	32693	32792	32749	32691	
1065	0	32748	32743	32925	32753	32847	32715	32679	32791	
1066	0	32690	32639	32761	32751	32855	32766	32559	32541	
1067	0	32704	32631	32839	32743	32797	32731	32575	32606	
1068	0	32743	32504	33015	32724	32879	32870	32687	32647	
1069	0	32732	32595	32941	32767	32855	32742	32521	32495	
1070	0	32759	32659	32830	32722	32813	32767	32527	32595	
1071	0	32718	32519	32967	32671	32903	32690	32715	32690	
1072	0	32701	32567	32951	32679	32893	32821	32733	32565	
1073	0	32688	32435	32895	32613	32977	32807	32695	32611	
1074	0	32748	32639	32974	32603	32923	32859	32687	32695	
1075	0	32709	32647	32887	32615	32903	32799	32719	32551	
1076	0	32737	32435	32943	32578	32919	32903	32642	32671	
1077	0	32724	32629	32812	32639	32827	32852	32732	32737	
1078	0	32642	32662	32919	32711	32862	32903	32597	32452	
1079	0	32626	32612	32844	32723	32804	32887	32559	32548	
1080	0	32559	32659	32597	32847	32647	32647	32405	32599	
1081	0	32476	32479	32642	32975	32639	32695	32079	32439	
1082	0	32448	32623	32557	32999	32627	32499	31981	32430	
1083	0	32453	32621	32442	32927	32462	32514	32022	32455	
1084	0	32428	32731	32263	33005	32483	32455	32059	32404	
1085	0	32455	32759	32291	33019	32343	32506	31966	32583	
1086	0	32466	32643	32296	33027	32434	32447	32151	32647	
1087	0	32444	32834	32383	32891	32479	32503	32236	32487	
1088	0	32473	32694	32351	32971	32483	32498	32285	32677	
1089	0	32543	32602	32311	32951	32443	32555	32135	32623	
1090	0	32492	32796	32367	32846	32387	32479	32479	32697	
1091	0	32583	32762	32500	32775	32515	32553	32437	32884	
1092	0	32519	32579	32437	32738	32479	32611	32617	32583	
1093	0	32579	32807	32587	32846	32576	32647	32477	32719	
1094	0	32654	32766	32555	32751	32527	32535	32595	32668	
1095	0	32658	32607	32593	32771	32614	32655	32599	32739	
1096	0	32713	32756	32511	32855	32687	32611	32679	32871	
1097	0	32799	32713	32751	32879	32638	32679	32665	32748	
1098	0	32819	32647	32686	32743	32658	32574	32873	32869	
1099	0	32832	32751	32755	32725	32629	32717	32837	32863	
1100	0	32834	32827	32812	32748	32685	32723	32810	32901	
1101	0	32790	32599	32671	32831	32685	32679	32647	32964	
1102	0	32803	32659	32770	32895	32757	32663	32903	32685	
1103	0	32766	32707	32775	32813	32647	32617	32818	32861	
1104	0	32781	32751	32823	32831	32715	32629	32775	32861	
1105	0	32852	32722	32839	32855	32565	32587	32595	32871	
1106	0	32908	32723	32700	32843	32593	32719	32692	32988	
1107	0	32981	32775	32757	32805	32719	32579	32871	32845	
1108	0	33014	32814	32692	32829	32694	32634	32925	32983	
1109	0	33058	32695	32767	32711	32674	32631	32914	33011	
1110	0	33022	32767	32856	32635	32699	32750	32871	32877	
1111	0	32967	32743	32762	32628	32751	32646	33002	32979	
1112	0	33022	32759	32827	32691	32767	32842	33059	32823	
1113	0	33063	32583	32861	32631	32875	32858	33159	32974	
1114	0	33018	32798	32882	32612	32775	32717	32987	32798	
1115	0	33055	32839	32819	32586	32859	32818	33007	32895	
1116	0	33091	32591	32899	32593	32807	32733	32919	32983	
1117	0	33036	32791	32771	32567	32877	32823	33157	32791	
1118	0	33087	32749	32895	32643	32861	32737	33039	32979	
1119	0	33028	32667	32843	32636	32859	32826	33159	32815	
1120	0	33014	32847	32887	32535	32935	32727	32935	32919	
1121	0	32999	32809	32775	32574	32797	32803	32967	32933	
1122	0	33083	32663	32844	32612	32894	32787	33079	32761	
1123	0	33019	32756	32871	32615	32868	32839	33010	33006	
1124	0	32980	32738	32769	32658	32707	32703	32895	32974	
1125	0	32932	32817	32898	32619	32767	32775	32891	32983	
1126	0	32895	32797	32775	32711	32791	32662	32763	32943	
1127	0	32887	32591	32787	32791	32791	32819	32883	32675	
1128	0	32937	32743	32701	32687	32823	32707	32795	32852	
1129	0	32862	32743	32851	32697	32785	32817	32750	32765	
1130	0	32758	32709	32823	32677	32793	32699	32607	32711	
1131	0	32753	32732	32806	32743	32752	32795	32511	32743	
1132	0	32743	32527	32669	32823	32790	32719	32686	32575	
1133	0	32662	32759	32825	32799	32702	32868	32581	32643	
1134	0	32647	32711	32727	32702	32757	32731	32631	32642	
1135	0	32686	32525	32770	32766	32687	32747	32367	32703	
1136	0	32722	32725	32773	32783	32709	32822	32621	32719	
1137	0	32698	32707	32711	32797	32729	32742	32505	32555	
1138	0	32711	32570	32807	32833	32763	32749	32575	32759	
1139	0	32653	32643	32811	32823	32786	32756	32583	32645	
1140	0	32660	32519	32706	32783	32661	32707	32469	32636	
1141	0	32622	32621	32789	32729	32727	32743	32426	32751	
1142	0	32642	32647	32677	32791	32667	32757	32550	32482	
1143	0	32612	32627	32739	32816	32703	32663	32455	32703	
1144	0	32594	32647	32647	32775	32638	32709	32567	32631	
1145	0	32698	32619	32759	32839	32677	32615	32594	32607	
1146	0	32718	32722	32715	32845	32685	32709	32485	32669	
1147	0	32689	32756	32727	32828	32668	32673	32415	32697	
1148	0	32690	32705	32731	32775	32739	32595	32719	32578	
1149	0	32706	32708	32655	32767	32757	32691	32631	32739	
1150	0	32704	32476	32783	32711	32702	32631	32531	32693	
1151	0	32762	32665	32655	32703	32723	32743	32607	32703	
1152	0	32772	32691	32813	32743	32647	32663	32439	32815	
1153	0	32708	32439	32683	32743	32747	32788	32685	32570	
1154	0	32674	32562	32715	32793	32647	32647	32614	32775	
1155	0	32686	32726	32615	32799	32743	32662	32663	32599	
1156	0	32669	32495	32775	32673	32687	32709	32426	32743	
1157	0	32676	32617	32685	32719	32753	32603	32711	32727	
1158	0	32698	32607	32775	32695	32793	32699	32623	32548	
1159	0	32775	32614	32607	32739	32804	32663	32671	32693	
1160	0	32828	32663	32821	32813	32731	32727	32644	32809	
1161	0	32761	32479	32743	32859	32685	32592	32503	32599	
1162	0	32788	32725	32854	32802	32674	32751	32747	32739	
1163	0	32791	32754	32787	32735	32695	32623	32634	32783	
1164	0	32775	32477	32667	32818	32684	32774	32647	32755	
1165	0	32727	32763	32802	32810	32637	32658	32484	32773	
1166	0	32814	32758	32738	32759	32738	32692	32676	32523	
1167	0	32741	32607	32871	32791	32718	32786	32627	32736	
1168	0	32743	32717	32694	32751	32641	32769	32647	32786	
1169	0	32771	32599	32775	32739	32734	32655	32563	32611	
1170	0	32756	32698	32788	32699	32635	32735	32743	32757	
1171	0	32722	32611	32699	32723	32727	32702	32623	32860	
1172	0	32711	32809	32827	32767	32638	32669	32690	32731	
1173	0	32775	32615	32763	32751	32731	32719	32487	32812	
1174	0	32726	32747	32749	32787	32681	32622	32759	32631	
1175	0	32762	32693	32669	32695	32807	32730	32615	32759	
1176	0	32758	32727	32799	32660	32771	32701	32614	32836	
1177	0	32739	32710	32783	32709	32775	32775	32633	32562	
1178	0	32756	32596	32794	32748	32791	32691	32567	32750	
1179	0	32745	32775	32683	32751	32669	32687	32719	32685	
1180	0	32692	32675	32743	32799	32738	32743	32645	32727	
1181	0	32745	32571	32745	32874	32695	32711	32677	32839	
1182	0	32746	32647	32743	32790	32838	32784	32631	32591	
1183	0	32831	32663	32669	32731	32755	32711	32518	32787	
1184	0	32718	32743	32722	32719	32799	32749	32747	32831	
1185	0	32748	32685	32739	32759	32763	32693	32623	32617	
1186	0	32742	32593	32767	32821	32767	32721	32530	32814	
1187	0	32760	32719	32766	32799	32772	32583	32759	32591	
1188	0	32747	32763	32747	32797	32767	32717	32590	32751	
1189	0	32782	32719	32775	32775	32742	32642	32715	32754	
1190	0	32767	32764	32727	32764	32711	32759	32717	32575	
1191	0	32775	32549	32774	32743	32775	32633	32511	32727	
1192	0	32755	32711	32692	32734	32803	32681	32697	32647	
1193	0	32751	32687	32804	32703	32687	32687	32639	32531	
1194	0	32785	32771	32811	32743	32724	32734	32755	32759	
1195	0	32723	32751	32826	32679	32703	32690	32671	32814	
1196	0	32743	32663	32615	32767	32771	32775	32631	32589	
1197	0	32772	32703	32774	32729	32769	32743	32729	32837	
1198	0	32773	32639	32773	32853	32683	32767	32697	32637	
1199	0	32798	32804	32775	32827	32705	32742	32657	32735	
1200	0	32782	32753	32702	32765	32634	32734	32541	32754	
1201	0	32754	32751	32692	32799	32694	32783	32647	32775	
1202	0	32719	32811	32765	32825	32757	32597	32643	32601	
1203	0	32778	32749	32700	32751	32705	32749	32587	32755	
1204	0	32731	32719	32773	32723	32655	32679	32682	32815	
1205	0	32770	32543	32735	32647	32693	32698	32679	32609	
1206	0	32760	32669	32643	32751	32775	32751	32529	32707	
1207	0	32725	32553	32725	32722	32703	32658	32783	32805	
1208	0	32734	32735	32809	32727	32799	32723	32667	32529	
1209	0	32717	32687	32735	32739	32671	32681	32717	32748	
1210	0	32742	32621	32829	32739	32738	32657	32686	32794	
1211	0	32818	32727	32740	32715	32807	32695	32617	32829	
1212	0	32831	32551	32690	32735	32695	32740	32515	32631	
1213	0	32840	32663	32743	32766	32738	32775	32743	32804	
1214	0	32733	32711	32703	32765	32688	32775	32677	32775	
1215	0	32782	32721	32797	32801	32731	32773	32625	32611	
1216	0	32773	32727	32699	32823	32775	32643	32647	32781	
1217	0	32788	32717	32677	32748	32767	32575	32743	32594	
1218	0	32846	32647	32871	32759	32711	32733	32677	32734	
1219	0	32827	32738	32739	32715	32727	32751	32667	32813	
1220	0	32799	32607	32635	32743	32683	32623	32705	32605	
1221	0	32743	32775	32786	32757	32747	32719	32682	32727	
1222	0	32709	32567	32775	32767	32742	32647	32535	32772	
1223	0	32775	32647	32610	32782	32681	32743	32563	32738	
1224	0	32736	32519	32756	32679	32830	32753	32691	32623	
1225	0	32763	32694	32834	32748	32718	32647	32667	32795	
1226	0	32748	32559	32663	32751	32789	32715	32667	32771	
1227	0	32757	32735	32831	32743	32737	32694	32685	32607	
1228	0	32745	32743	32791	32732	32691	32763	32555	32762	
1229	0	32710	32775	32692	32789	32751	32775	32735	32845	
1230	0	32743	32647	32771	32734	32679	32615	32690	32659	
1231	0	32751	32743	32773	32731	32791	32702	32687	32813	
1232	0	32717	32723	32814	32771	32742	32735	32641	32860	
1233	0	32807	32771	32788	32767	32769	32709	32703	32797	
1234	0	32850	32791	32678	32739	32647	32687	32607	32599	
1235	0	32794	32799	32770	32839	32745	32731	32511	32775	
1236	0	32734	32743	32751	32807	32788	32685	32735	32815	
1237	0	32775	32711	32629	32747	32665	32743	32653	32578	
1238	0	32790	32706	32799	32791	32741	32685	32729	32775	
1239	0	32770	32603	32807	32775	32759	32735	32701	32803	
1240	0	32711	32731	32634	32815	32695	32719	32599	32639	
1241	0	32724	32634	32765	32775	32743	32759	32807	32811	
1242	0	32802	32727	32802	32687	32775	32711	32683	32813	
1243	0	32763	32715	32730	32711	32686	32727	32725	32753	
1244	0	32748	32533	32687	32711	32711	32754	32551	32825	
1245	0	32772	32699	32786	32773	32628	32743	32770	32684	
1246	0	32810	32711	32743	32799	32772	32647	32615	32841	
1247	0	32791	32511	32643	32775	32783	32758	32725	32851	
1248	0	32766	32669	32799	32795	32791	32761	32615	32659	
1249	0	32772	32607	32727	32787	32741	32629	32607	32739	
1250	0	32813	32706	32615	32799	32764	32710	32741	32775	
1251	0	32765	32727	32659	32743	32717	32611	32669	32599	
1252	0	32775	32543	32879	32723	32791	32687	32663	32764	
1253	0	32741	32710	32751	32742	32667	32647	32436	32730	
1254	0	32745	32743	32749	32711	32709	32731	32685	32570	
1255	0	32748	32547	32663	32755	32613	32659	32679	32791	
1256	0	32746	32690	32791	32857	32679	32687	32692	32631	
1257	0	32802	32662	32687	32727	32667	32647	32543	32743	
1258	0	32775	32719	32743	32703	32737	32740	32766	32852	
1259	0	32722	32692	32830	32751	32832	32719	32641	32724	
1260	0	32754	32636	32749	32762	32619	32767	32735	32719	
1261	0	32741	32789	32765	32687	32773	32661	32695	32847	
1262	0	32742	32775	32838	32733	32757	32761	32609	32755	
1263	0	32726	32692	32623	32749	32647	32627	32688	32803	
1264	0	32715	32710	32711	32791	32731	32677	32635	32685	
1265	0	32730	32543	32690	32751	32765	32677	32710	32732	
1266	0	32821	32687	32783	32807	32676	32787	32715	32722	
1267	0	32806	32543	32726	32738	32789	32735	32643	32839	
1268	0	32714	32743	32775	32751	32759	32643	32671	32594	
1269	0	32767	32743	32773	32821	32727	32775	32738	32758	
1270	0	32754	32751	32695	32807	32763	32591	32709	32818	
1271	0	32717	32751	32839	32751	32783	32735	32671	32579	
1272	0	32713	32533	32839	32751	32687	32593	32683	32748	
1273	0	32748	32631	32685	32731	32831	32722	32750	32799	
1274	0	32750	32543	32829	32765	32775	32783	32647	32598	
1275	0	32749	32625	32762	32759	32679	32701	32527	32743	
1276	0	32791	32527	32694	32724	32740	32719	32573	32847	
1277	0	32786	32743	32775	32677	32727	32635	32711	32639	
1278	0	32764	32571	32799	32743	32775	32749	32667	32775	
1279	0	32784	32754	32775	32819	32743	32786	32663	32786	
1280	0	32802	32749	32773	32809	32707	32638	32631	32766	
1281	0	32791	32703	32743	32715	32705	32735	32539	32615	
1282	0	32743	32631	32815	32719	32771	32658	32692	32803	
1283	0	32773	32647	32749	32719	32743	32706	32714	32631	
1284	0	32726	32789	32631	32767	32636	32647	32673	32703	
1285	0	32788	32676	32789	32773	32691	32749	32569	32763	
1286	0	32737	32519	32775	32707	32628	32631	32703	32551	
1287	0	32766	32687	32822	32711	32748	32735	32671	32748	
1288	0	32767	32743	32627	32822	32769	32681	32537	32702	
1289	0	32750	32541	32771	32775	32764	32771	32679	32787	
1290	0	32813	32735	32708	32769	32775	32639	32647	32834	
1291	0	32817	32615	32775	32811	32683	32733	32767	32666	
1292	0	32743	32699	32615	32757	32775	32661	32591	32795	
1293	0	32775	32615	32805	32796	32771	32763	32804	32803	
1294	0	32669	32775	32743	32681	32731	32723	32655	32676	
1295	0	32719	32742	32781	32762	32775	32786	32662	32767	
1296	0	32742	32583	32775	32679	32755	32743	32663	32775	
1297	0	32743	32756	32711	32655	32675	32715	32567	32638	
1298	0	32717	32612	32742	32675	32732	32714	32502	32735	
1299	0	32790	32711	32729	32671	32701	32567	32631	32738	
1300	0	32792	32570	32758	32679	32671	32738	32718	32759	
1301	0	32775	32719	32767	32660	32686	32747	32701	32583	
1302	0	32775	32572	32623	32677	32763	32676	32661	32769	
1303	0	32772	32719	32677	32701	32695	32811	32666	32903	
1304	0	32712	32725	32775	32759	32743	32719	32641	32606	
1305	0	32724	32637	32892	32775	32687	32734	32683	32771	
1306	0	32763	32695	32596	32739	32694	32597	32692	32685	
1307	0	32738	32647	32759	32854	32731	32647	32534	32751	
1308	0	32766	32761	32831	32813	32711	32670	32599	32793	
1309	0	32765	32613	32631	32767	32742	32747	32667	32769	
1310	0	32702	32742	32810	32769	32757	32783	32635	32604	
1311	0	32720	32767	32787	32751	32633	32670	32743	32775	
1312	0	32775	32679	32635	32767	32758	32790	32692	32755	
1313	0	32766	32711	32757	32751	32717	32631	32535	32743	
1314	0	32807	32647	32743	32769	32854	32730	32637	32717	
1315	0	32765	32755	32827	32775	32771	32756	32789	32847	
1316	0	32761	32737	32775	32701	32719	32617	32639	32623	
1317	0	32743	32815	32713	32715	32709	32667	32694	32735	
1318	0	32799	32751	32823	32732	32758	32685	32715	32807	
1319	0	32799	32766	32647	32764	32734	32770	32531	32647	
1320	0	32765	32599	32747	32837	32762	32614	32711	32775	
1321	0	32758	32679	32754	32815	32762	32679	32679	32775	
1322	0	32797	32710	32774	32852	32601	32635	32674	32589	
1323	0	32745	32772	32647	32819	32739	32775	32499	32759	
1324	0	32791	32736	32719	32759	32775	32620	32694	32743	
1325	0	32765	32703	32813	32761	32679	32786	32687	32687	
1326	0	32748	32654	32647	32749	32727	32811	32694	32787	
1327	0	32788	32747	32727	32707	32765	32663	32723	32791	
1328	0	32784	32755	32821	32791	32670	32785	32734	32827	
1329	0	32810	32662	32806	32783	32673	32803	32711	32642	
1330	0	32738	32603	32749	32775	32738	32663	32703	32719	
1331	0	32739	32693	32743	32783	32775	32765	32591	32769	
1332	0	32721	32559	32789	32742	32707	32710	32559	32867	
1333	0	32795	32607	32775	32766	32851	32591	32519	32659	
1334	0	32708	32545	32633	32719	32742	32734	32634	32757	
1335	0	32767	32759	32698	32709	32775	32727	32796	32775	
1336	0	32793	32647	32759	32703	32655	32647	32761	32775	
1337	0	32782	32635	32619	32775	32787	32707	32646	32615	
1338	0	32789	32579	32733	32713	32763	32627	32690	32775	
1339	0	32775	32690	32732	32735	32695	32751	32641	32749	
1340	0	32765	32495	32647	32775	32724	32605	32542	32833	
1341	0	32764	32693	32786	32842	32724	32684	32730	32615	
1342	0	32839	32845	32775	32813	32621	32602	32686	32739	
1343	0	32840	32771	32743	32799	32759	32727	32580	32829	
1344	0	32754	32805	32720	32767	32775	32773	32679	32613	
1345	0	32745	32647	32834	32764	32709	32791	32567	32722	
1346	0	32724	32735	32764	32734	32738	32759	32575	32851	
1347	0	32749	32605	32599	32718	32738	32677	32722	32723	
1348	0	32803	32751	32662	32775	32629	32709	32677	32545	
1349	0	32687	32775	32793	32803	32754	32727	32615	32748	
1350	0	32741	32790	32647	32786	32751	32765	32607	32903	
1351	0	32725	32667	32725	32798	32716	32722	32435	32591	
1352	0	32756	32759	32767	32775	32698	32654	32527	32743	
1353	0	32738	32722	32739	32803	32759	32743	32612	32807	
1354	0	32734	32634	32719	32763	32743	32707	32721	32883	
1355	0	32750	32751	32701	32866	32709	32631	32707	32647	
1356	0	32751	32715	32703	32807	32705	32686	32613	32793	
1357	0	32750	32527	32743	32726	32743	32559	32655	32823	
1358	0	32759	32667	32805	32667	32669	32737	32535	32583	
1359	0	32795	32662	32658	32747	32687	32615	32583	32733	
1360	0	32730	32771	32733	32751	32615	32687	32723	32598	
1361	0	32769	32797	32703	32796	32763	32613	32595	32770	
1362	0	32762	32726	32767	32767	32739	32739	32695	32807	
1363	0	32751	32771	32727	32783	32663	32775	32685	32723	
1364	0	32716	32607	32787	32819	32766	32660	32451	32703	
1365	0	32725	32695	32775	32839	32749	32764	32575	32770	
1366	0	32741	32643	32644	32883	32658	32670	32679	32679	
1367	0	32720	32703	32773	32823	32719	32722	32596	32790	
1368	0	32706	32681	32701	32729	32647	32598	32679	32821	
1369	0	32723	32583	32756	32787	32707	32819	32563	32546	
1370	0	32747	32679	32750	32740	32631	32737	32594	32791	
1371	0	32786	32679	32679	32758	32763	32679	32711	32610	
1372	0	32717	32535	32847	32722	32735	32771	32615	32767	
1373	0	32791	32683	32687	32725	32733	32676	32617	32853	
1374	0	32782	32631	32831	32710	32767	32749	32575	32591	
1375	0	32763	32726	32787	32686	32671	32674	32629	32734	
1376	0	32717	32719	32711	32771	32751	32763	32655	32631	
1377	0	32779	32637	32775	32737	32705	32647	32543	32754	
1378	0	32772	32791	32695	32719	32749	32748	32751	32823	
1379	0	32792	32751	32751	32772	32756	32603	32647	32608	
1380	0	32731	32586	32621	32806	32647	32719	32731	32765	
1381	0	32775	32726	32771	32759	32722	32555	32551	32660	
1382	0	32771	32679	32783	32759	32671	32751	32795	32717	
1383	0	32760	32757	32799	32743	32749	32727	32679	32867	
1384	0	32714	32738	32655	32701	32751	32740	32583	32621	
1385	0	32755	32662	32742	32727	32678	32735	32655	32733	
1386	0	32796	32611	32741	32735	32714	32722	32631	32663	
1387	0	32756	32757	32727	32773	32647	32719	32635	32733	
1388	0	32741	32775	32799	32743	32739	32703	32703	32619	
1389	0	32676	32606	32640	32707	32711	32732	32527	32800	
1390	0	32765	32734	32663	32789	32796	32669	32684	32807	
1391	0	32728	32659	32799	32759	32677	32727	32655	32739	
1392	0	32759	32519	32797	32765	32789	32647	32748	32773	
1393	0	32765	32706	32647	32775	32693	32703	32519	32629	
1394	0	32716	32731	32767	32797	32759	32615	32621	32722	
1395	0	32752	32549	32783	32699	32725	32722	32647	32850	
1396	0	32717	32722	32705	32687	32766	32797	32685	32763	
1397	0	32794	32742	32765	32691	32719	32743	32503	32826	
1398	0	32742	32575	32631	32785	32803	32787	32735	32549	
1399	0	32716	32787	32762	32855	32807	32753	32730	32725	
1400	0	32783	32671	32762	32817	32663	32722	32527	32679	
1401	0	32762	32757	32725	32695	32818	32637	32743	32731	
1402	0	32763	32575	32838	32727	32690	32703	32697	32715	
1403	0	32766	32735	32809	32765	32799	32658	32493	32700	
1404	0	32826	32679	32724	32849	32706	32762	32743	32823	
1405	0	32775	32602	32775	32877	32743	32647	32626	32603	
1406	0	32775	32703	32775	32799	32714	32747	32695	32727	
1407	0	32775	32717	32802	32795	32795	32631	32555	32846	
1408	0	32783	32512	32765	32751	32731	32731	32767	32577	
1409	0	32794	32623	32691	32718	32647	32683	32739	32751	
1410	0	32801	32677	32738	32769	32706	32726	32679	32759	
1411	0	32822	32495	32787	32783	32710	32613	32653	32751	
1412	0	32784	32711	32647	32742	32790	32763	32547	32858	
1413	0	32764	32689	32807	32751	32727	32670	32799	32647	
1414	0	32716	32542	32815	32756	32711	32746	32686	32791	
1415	0	32751	32703	32783	32703	32743	32663	32723	32827	
1416	0	32792	32831	32773	32735	32703	32805	32601	32607	
1417	0	32724	32583	32846	32679	32783	32647	32763	32837	
1418	0	32764	32692	32733	32699	32791	32715	32659	32587	
1419	0	32740	32767	32839	32695	32765	32647	32690	32775	
1420	0	32736	32631	32775	32747	32757	32735	32527	32623	
1421	0	32720	32775	32782	32757	32743	32822	32717	32823	
1422	0	32730	32834	32679	32812	32743	32775	32655	32823	
1423	0	32723	32757	32718	32771	32784	32687	32754	32599	
1424	0	32734	32727	32775	32739	32791	32757	32493	32819	
1425	0	32742	32759	32743	32679	32780	32702	32763	32631	
1426	0	32808	32706	32741	32705	32662	32754	32703	32769	
1427	0	32751	32706	32755	32710	32725	32630	32660	32782	
1428	0	32762	32623	32855	32775	32707	32719	32687	32533	
1429	0	32770	32748	32635	32775	32765	32659	32484	32743	
1430	0	32824	32659	32799	32764	32771	32758	32743	32641	
1431	0	32807	32587	32745	32749	32685	32695	32619	32701	
1432	0	32863	32711	32731	32747	32739	32730	32562	32737	
1433	0	32791	32797	32621	32727	32647	32695	32640	32583	
1434	0	32762	32711	32647	32735	32711	32787	32702	32803	
1435	0	32751	32723	32825	32718	32699	32655	32534	32832	
1436	0	32767	32583	32647	32763	32665	32775	32738	32594	
1437	0	32798	32701	32824	32759	32747	32583	32722	32812	
1438	0	32717	32727	32748	32759	32727	32731	32685	32819	
1439	0	32763	32551	32791	32743	32770	32582	32645	32739	
1440	0	32749	32637	32607	32791	32725	32690	32535	32797	
1441	0	32774	32677	32756	32759	32623	32700	32556	32599	
1442	0	32711	32579	32796	32751	32747	32679	32630	32773	
1443	0	32782	32698	32797	32738	32711	32646	32701	32738	
1444	0	32706	32749	32796	32769	32815	32743	32580	32727	
1445	0	32708	32503	32711	32745	32739	32692	32754	32879	
1446	0	32744	32679	32631	32725	32791	32757	32677	32647	
1447	0	32746	32627	32843	32743	32747	32722	32663	32818	
1448	0	32758	32717	32844	32718	32695	32683	32615	32841	
1449	0	32739	32751	32631	32707	32802	32647	32607	32598	
1450	0	32751	32667	32747	32691	32799	32759	32543	32789	
1451	0	32690	32677	32813	32713	32714	32687	32598	32845	
1452	0	32696	32589	32679	32747	32741	32782	32698	32540	
1453	0	32772	32611	32645	32734	32687	32628	32574	32754	
1454	0	32754	32667	32775	32807	32740	32722	32679	32567	
1455	0	32727	32603	32690	32827	32729	32617	32563	32762	
1456	0	32735	32725	32819	32755	32675	32662	32685	32807	
1457	0	32754	32767	32647	32793	32770	32611	32596	32727	
1458	0	32726	32647	32707	32699	32647	32731	32724	32835	
1459	0	32802	32786	32711	32743	32735	32615	32582	32583	
1460	0	32832	32796	32781	32739	32751	32711	32631	32818	
1461	0	32734	32574	32788	32751	32795	32659	32761	32806	
1462	0	32691	32719	32717	32735	32807	32735	32667	32588	
1463	0	32743	32591	32731	32739	32614	32591	32647	32735	
1464	0	32794	32695	32775	32775	32711	32734	32658	32807	
1465	0	32803	32637	32671	32751	32756	32762	32722	32647	
1466	0	32747	32767	32709	32701	32661	32708	32685	32727	
1467	0	32742	32734	32818	32799	32767	32743	32595	32807	
1468	0	32797	32717	32647	32815	32783	32642	32567	32732	
1469	0	32804	32739	32783	32795	32723	32739	32607	32594	
1470	0	32851	32692	32762	32735	32741	32675	32735	32718	
1471	0	32791	32687	32663	32741	32745	32747	32743	32831	
1472	0	32818	32549	32847	32751	32685	32679	32670	32555	
1473	0	32781	32708	32757	32711	32661	32758	32733	32747	
1474	0	32807	32755	32812	32687	32674	32642	32580	32791	
1475	0	32818	32706	32671	32699	32627	32739	32489	32571	
1476	0	32710	32787	32831	32654	32671	32795	32797	32791	
1477	0	32770	32695	32844	32677	32694	32647	32765	32818	
1478	0	32732	32748	32690	32700	32731	32746	32709	32588	
1479	0	32761	32703	32692	32659	32751	32692	32615	32767	
1480	0	32791	32759	32807	32731	32738	32659	32663	32815	
1481	0	32806	32735	32731	32723	32607	32722	32643	32838	
1482	0	32726	32743	32718	32758	32709	32663	32550	32609	
1483	0	32749	32719	32767	32669	32799	32749	32729	32749	
1484	0	32716	32735	32663	32699	32681	32666	32751	32823	
1485	0	32720	32583	32717	32722	32749	32715	32647	32725	
1486	0	32751	32694	32789	32711	32790	32687	32762	32807	
1487	0	32795	32623	32639	32762	32669	32647	32687	32647	
1488	0	32696	32734	32809	32751	32684	32727	32527	32759	
1489	0	32677	32629	32854	32783	32690	32683	32581	32796	
1490	0	32713	32751	32663	32799	32790	32773	32751	32643	
1491	0	32725	32751	32829	32821	32787	32751	32577	32795	
1492	0	32758	32721	32799	32738	32671	32663	32669	32767	
1493	0	32753	32623	32685	32731	32712	32802	32741	32895	
1494	0	32791	32675	32759	32765	32739	32719	32683	32673	
1495	0	32715	32587	32805	32742	32826	32687	32640	32735	
1496	0	32750	32759	32709	32719	32739	32692	32633	32861	
1497	0	32751	32727	32795	32713	32714	32695	32631	32643	
1498	0	32814	32547	32775	32751	32732	32742	32671	32749	
1499	0	32751	32661	32805	32765	32823	32612	32535	32702	
1500	0	32804	32658	32623	32775	32807	32803	32723	32765	
1501	0	32808	32719	32807	32647	32723	32679	32647	32860	
1502	0	32816	32723	32730	32717	32701	32773	32739	32661	
1503	0	32823	32631	32668	32764	32699	32647	32671	32786	
1504	0	32823	32717	32780	32694	32647	32758	32611	32796	
1505	0	32816	32609	32797	32705	32732	32699	32509	32679	
1506	0	32828	32706	32671	32727	32804	32663	32610	32567	
1507	0	32770	32543	32863	32674	32663	32695	32711	32699	
1508	0	32780	32663	32773	32700	32767	32611	32719	32797	
1509	0	32775	32594	32685	32708	32709	32786	32646	32595	
1510	0	32815	32743	32679	32729	32703	32695	32607	32711	
1511	0	32802	32629	32741	32735	32621	32603	32679	32766	
1512	0	32796	32671	32685	32685	32810	32743	32692	32839	
1513	0	32729	32638	32775	32749	32681	32622	32534	32589	
1514	0	32761	32775	32773	32775	32739	32773	32551	32765	
1515	0	32699	32772	32767	32799	32723	32663	32701	32742	
1516	0	32790	32619	32727	32819	32660	32719	32662	32791	
1517	0	32729	32703	32737	32780	32775	32737	32731	32747	
1518	0	32714	32635	32834	32703	32783	32639	32679	32791	
1519	0	32711	32659	32617	32717	32703	32765	32567	32766	
1520	0	32715	32621	32807	32675	32766	32647	32662	32862	
1521	0	32771	32773	32754	32791	32687	32750	32724	32645	
1522	0	32756	32739	32815	32723	32805	32674	32595	32759	
1523	0	32791	32711	32615	32759	32755	32775	32663	32855	
1524	0	32727	32723	32735	32839	32767	32703	32669	32854	
1525	0	32762	32730	32807	32799	32790	32631	32638	32647	
1526	0	32783	32775	32660	32742	32757	32734	32543	32759	
1527	0	32735	32671	32852	32742	32705	32666	32479	32851	
1528	0	32727	32689	32702	32751	32799	32731	32631	32621	
1529	0	32749	32548	32775	32753	32722	32802	32759	32677	
1530	0	32785	32711	32847	32750	32704	32615	32743	32745	
1531	0	32747	32573	32759	32715	32679	32711	32699	32739	
1532	0	32744	32743	32763	32748	32775	32685	32676	32559	
1533	0	32794	32547	32793	32787	32699	32766	32679	32759	
1534	0	32748	32647	32663	32695	32623	32799	32739	32797	
1535	0	32751	32543	32821	32786	32739	32607	32663	32786	
1536	0	32756	32717	32771	32823	32767	32717	32545	32636	
1537	0	32745	32747	32775	32724	32637	32642	32590	32811	
1538	0	32759	32519	32804	32699	32695	32767	32677	32775	
1539	0	32745	32623	32827	32731	32591	32701	32613	32559	
1540	0	32762	32667	32631	32775	32743	32737	32666	32775	
1541	0	32775	32663	32807	32821	32729	32717	32637	32858	
1542	0	32773	32695	32795	32815	32788	32775	32647	32575	
1543	0	32748	32647	32813	32751	32741	32699	32702	32799	
1544	0	32742	32707	32802	32735	32711	32695	32646	32823	
1545	0	32784	32559	32725	32767	32631	32735	32695	32719	
1546	0	32748	32686	32603	32743	32726	32759	32701	32605	
1547	0	32767	32575	32758	32721	32739	32687	32714	32714	
1548	0	32786	32703	32749	32663	32731	32733	32663	32773	
1549	0	32760	32787	32593	32739	32775	32636	32671	32655	
1550	0	32743	32786	32747	32803	32764	32729	32690	32685	
1551	0	32761	32745	32646	32765	32643	32635	32541	32869	
1552	0	32783	32531	32816	32829	32725	32751	32564	32620	
1553	0	32793	32748	32663	32771	32702	32727	32707	32775	
1554	0	32748	32647	32799	32802	32743	32627	32663	32841	
1555	0	32788	32692	32801	32759	32743	32658	32674	32662	
1556	0	32787	32597	32599	32775	32723	32627	32705	32735	
1557	0	32771	32647	32725	32749	32717	32754	32669	32727	
1558	0	32761	32643	32789	32727	32807	32807	32647	32605	
1559	0	32757	32769	32655	32829	32703	32615	32519	32727	
1560	0	32743	32739	32861	32813	32724	32751	32626	32811	
1561	0	32773	32549	32823	32742	32719	32665	32706	32609	
1562	0	32758	32727	32825	32733	32679	32710	32617	32759	
1563	0	32784	32658	32748	32724	32775	32657	32687	32844	
1564	0	32769	32742	32762	32723	32771	32743	32700	32606	
1565	0	32784	32596	32655	32794	32715	32746	32687	32813	
1566	0	32726	32775	32855	32765	32775	32711	32734	32812	
1567	0	32676	32795	32789	32706	32759	32775	32639	32727	
1568	0	32775	32695	32631	32707	32720	32658	32578	32515	
1569	0	32740	32770	32799	32687	32711	32739	32551	32759	
1570	0	32729	32671	32786	32711	32767	32758	32589	32835	
1571	0	32755	32687	32687	32751	32711	32763	32655	32786	
1572	0	32706	32623	32831	32729	32836	32765	32695	32775	
1573	0	32694	32769	32708	32759	32763	32645	32735	32775	
1574	0	32708	32749	32775	32719	32711	32767	32567	32706	
1575	0	32741	32535	32587	32859	32771	32690	32519	32839	
1576	0	32758	32678	32743	32816	32734	32718	32615	32567	
1577	0	32786	32615	32834	32775	32711	32639	32775	32767	
1578	0	32814	32727	32620	32870	32762	32726	32775	32788	
1579	0	32786	32635	32715	32775	32806	32759	32727	32706	
1580	0	32790	32743	32847	32791	32707	32623	32717	32781	
1581	0	32850	32685	32716	32803	32759	32699	32665	32851	
1582	0	32786	32510	32773	32833	32677	32607	32647	32621	
1583	0	32799	32695	32831	32823	32670	32711	32714	32773	
1584	0	32772	32549	32662	32775	32838	32735	32636	32879	
1585	0	32850	32721	32807	32754	32811	32617	32471	32615	
1586	0	32749	32711	32755	32703	32710	32684	32767	32739	
1587	0	32766	32717	32703	32703	32767	32593	32635	32693	
1588	0	32710	32719	32797	32715	32727	32725	32647	32735	
1589	0	32752	32583	32773	32679	32663	32647	32738	32821	
1590	0	32782	32714	32767	32695	32727	32751	32595	32647	
1591	0	32715	32601	32588	32739	32647	32591	32559	32827	
1592	0	32771	32763	32775	32751	32731	32707	32639	32861	
1593	0	32756	32727	32703	32735	32741	32623	32795	32647	
1594	0	32749	32535	32814	32743	32758	32754	32609	32859	
1595	0	32773	32695	32655	32742	32738	32611	32692	32643	
1596	0	32787	32735	32775	32786	32675	32690	32562	32727	
1597	0	32754	32577	32695	32711	32727	32711	32571	32683	
1598	0	32797	32723	32703	32724	32671	32748	32580	32675	
1599	0	32700	32765	32615	32703	32719	32617	32691	32809	
1600	0	32719	32519	32790	32755	32754	32690	32647	32614	
1601	0	32742	32631	32727	32791	32759	32615	32642	32743	
1602	0	32736	32719	32759	32815	32741	32791	32463	32786	
1603	0	32735	32719	32703	32852	32699	32643	32495	32519	
1604	0	32802	32775	32756	32795	32746	32771	32586	32707	
1605	0	32762	32575	32839	32757	32655	32684	32743	32743	
1606	0	32737	32767	32681	32743	32759	32711	32683	32579	
1607	0	32796	32815	32839	32807	32789	32715	32695	32759	
1608	0	32771	32556	32706	32669	32785	32799	32511	32614	
1609	0	32745	32775	32818	32694	32773	32705	32593	32691	
1610	0	32787	32775	32663	32747	32698	32735	32694	32879	
1611	0	32775	32526	32775	32748	32772	32647	32623	32759	
1612	0	32756	32727	32739	32763	32662	32773	32570	32845	
1613	0	32772	32711	32735	32722	32739	32679	32615	32559	
1614	0	32783	32586	32659	32720	32695	32742	32759	32774	
1615	0	32797	32775	32805	32715	32751	32701	32683	32759	
1616	0	32727	32599	32811	32766	32775	32639	32658	32572	
1617	0	32724	32719	32640	32765	32695	32751	32695	32751	
1618	0	32793	32733	32811	32751	32724	32655	32725	32870	
1619	0	32794	32634	32759	32671	32769	32723	32609	32617	
1620	0	32751	32679	32836	32715	32733	32660	32631	32883	
1621	0	32703	32623	32684	32759	32743	32710	32733	32671	
1622	0	32746	32786	32827	32725	32607	32709	32621	32790	
1623	0	32739	32727	32695	32805	32711	32772	32695	32709	
1624	0	32743	32596	32723	32823	32681	32631	32647	32751	
1625	0	32717	32708	32622	32871	32748	32743	32547	32804	
1626	0	32713	32707	32759	32764	32719	32603	32702	32607	
1627	0	32727	32658	32839	32812	32738	32767	32707	32887	
1628	0	32743	32655	32749	32726	32767	32606	32579	32583	
1629	0	32757	32639	32753	32719	32807	32660	32677	32821	
1630	0	32761	32575	32641	32772	32825	32658	32709	32559	
1631	0	32780	32709	32793	32775	32718	32751	32495	32706	
1632	0	32751	32775	32731	32717	32754	32615	32730	32735	
1633	0	32794	32571	32759	32701	32694	32734	32695	32741	
1634	0	32797	32739	32701	32706	32738	32735	32726	32805	
1635	0	32793	32655	32723	32713	32763	32754	32711	32641	
1636	0	32745	32803	32805	32718	32663	32612	32684	32765	
1637	0	32795	32775	32678	32675	32729	32748	32539	32893	
1638	0	32775	32631	32790	32707	32645	32639	32791	32754	
1639	0	32807	32762	32756	32763	32737	32758	32729	32874	
1640	0	32766	32739	32775	32803	32751	32610	32623	32604	
1641	0	32718	32575	32642	32847	32693	32749	32717	32775	
1642	0	32723	32735	32802	32763	32754	32711	32627	32743	
1643	0	32786	32615	32759	32751	32733	32717	32479	32610	
1644	0	32756	32732	32659	32745	32659	32732	32747	32795	
1645	0	32761	32727	32679	32719	32730	32763	32639	32646	
1646	0	32711	32551	32775	32741	32663	32669	32743	32743	
1647	0	32692	32683	32711	32734	32775	32721	32565	32775	
1648	0	32734	32747	32791	32809	32711	32630	32671	32795	
1649	0	32742	32541	32647	32866	32759	32751	32647	32850	
1650	0	32774	32691	32781	32759	32822	32639	32694	32793	
1651	0	32769	32543	32769	32797	32719	32703	32495	32847	
1652	0	32775	32647	32677	32765	32756	32757	32611	32643	
1653	0	32728	32731	32797	32773	32781	32719	32725	32694	
1654	0	32832	32679	32773	32749	32751	32737	32675	32877	
1655	0	32791	32751	32659	32743	32703	32700	32676	32603	
1656	0	32772	32603	32775	32751	32671	32751	32647	32801	
1657	0	32749	32679	32739	32692	32775	32643	32634	32723	
1658	0	32767	32823	32791	32725	32745	32727	32703	32759	
1659	0	32707	32580	32811	32759	32762	32629	32672	32845	
1660	0	32758	32715	32671	32758	32791	32733	32742	32775	
1661	0	32775	32749	32791	32805	32703	32769	32595	32852	
1662	0	32743	32619	32799	32736	32804	32787	32769	32631	
1663	0	32734	32670	32655	32671	32687	32729	32625	32757	
1664	0	32788	32582	32749	32707	32757	32743	32675	32797	
1665	0	32719	32587	32789	32788	32671	32728	32511	32563	
1666	0	32723	32708	32811	32827	32745	32725	32570	32763	
1667	0	32778	32509	32663	32827	32713	32670	32579	32775	
1668	0	32832	32695	32807	32758	32731	32717	32647	32611	
1669	0	32770	32605	32822	32726	32662	32631	32666	32743	
1670	0	32756	32687	32653	32738	32775	32734	32690	32847	
1671	0	32768	32677	32765	32802	32668	32667	32547	32619	
1672	0	32803	32605	32699	32829	32751	32775	32599	32709	
1673	0	32786	32758	32795	32724	32658	32655	32671	32871	
1674	0	32812	32707	32621	32689	32675	32758	32703	32613	
1675	0	32740	32559	32743	32743	32765	32647	32679	32767	
1676	0	32783	32694	32693	32775	32687	32693	32511	32889	
1677	0	32780	32679	32791	32663	32775	32587	32727	32621	
1678	0	32779	32735	32698	32719	32749	32739	32587	32735	
1679	0	32756	32663	32673	32740	32751	32677	32691	32757	
1680	0	32749	32820	32813	32827	32731	32734	32564	32775	
1681	0	32740	32583	32700	32774	32749	32759	32677	32861	
1682	0	32683	32685	32850	32717	32775	32694	32676	32527	
1683	0	32713	32733	32855	32727	32733	32765	32535	32765	
1684	0	32769	32519	32679	32751	32743	32621	32679	32626	
1685	0	32754	32788	32785	32738	32692	32759	32659	32725	
1686	0	32780	32797	32766	32807	32739	32679	32727	32843	
1687	0	32751	32575	32757	32775	32647	32751	32545	32758	
1688	0	32787	32679	32782	32687	32668	32756	32679	32879	
1689	0	32864	32663	32787	32775	32631	32646	32685	32557	
1690	0	32749	32763	32615	32743	32742	32739	32647	32675	
1691	0	32767	32603	32825	32775	32674	32619	32583	32699	
1692	0	32759	32751	32749	32735	32730	32754	32735	32787	
1693	0	32826	32775	32839	32731	32743	32669	32683	32887	
1694	0	32763	32751	32707	32747	32679	32755	32727	32675	
1695	0	32773	32760	32823	32669	32749	32662	32589	32571	
1696	0	32793	32669	32831	32679	32703	32703	32599	32783	
1697	0	32818	32691	32647	32706	32791	32676	32775	32848	
1698	0	32796	32463	32805	32730	32671	32711	32727	32646	
1699	0	32786	32683	32791	32775	32669	32690	32719	32775	
1700	0	32775	32555	32774	32740	32775	32745	32694	32858	
1701	0	32804	32802	32717	32740	32785	32663	32631	32590	
1702	0	32759	32775	32817	32775	32708	32751	32567	32783	
1703	0	32786	32627	32775	32743	32755	32647	32710	32789	
1704	0	32764	32721	32614	32807	32667	32710	32643	32734	
1705	0	32829	32599	32783	32775	32742	32643	32733	32865	
1706	0	32846	32751	32690	32753	32790	32695	32711	32615	
1707	0	32743	32711	32799	32729	32687	32612	32543	32767	
1708	0	32761	32698	32607	32713	32749	32713	32565	32860	
1709	0	32731	32711	32775	32785	32647	32578	32677	32628	
1710	0	32730	32754	32631	32807	32726	32737	32699	32871	
1711	0	32762	32646	32815	32826	32723	32683	32588	32579	
1712	0	32763	32735	32702	32789	32676	32710	32759	32775	
1713	0	32758	32598	32703	32823	32701	32623	32674	32887	
1714	0	32737	32756	32711	32775	32677	32687	32642	32575	
1715	0	32736	32715	32791	32716	32799	32543	32695	32747	
1716	0	32711	32615	32665	32773	32802	32735	32683	32775	
1717	0	32753	32739	32668	32715	32658	32634	32550	32555	
1718	0	32751	32582	32822	32719	32732	32748	32538	32767	
1719	0	32740	32743	32687	32726	32743	32749	32547	32807	
1720	0	32749	32687	32818	32747	32660	32775	32679	32567	
1721	0	32772	32711	32709	32700	32761	32691	32613	32775	
1722	0	32767	32731	32843	32732	32727	32789	32727	32797	
1723	0	32756	32515	32647	32695	32791	32759	32679	32647	
1724	0	32741	32693	32823	32748	32730	32796	32646	32839	
1725	0	32711	32694	32763	32769	32659	32775	32603	32755	
1726	0	32740	32759	32791	32775	32805	32663	32719	32745	
1727	0	32763	32695	32711	32747	32750	32788	32655	32839	
1728	0	32789	32557	32729	32711	32681	32647	32674	32708	
1729	0	32775	32709	32771	32732	32755	32727	32789	32743	
1730	0	32794	32661	32640	32711	32679	32595	32575	32807	
1731	0	32797	32709	32817	32735	32762	32725	32564	32577	
1732	0	32771	32723	32735	32687	32727	32691	32621	32707	
1733	0	32756	32603	32671	32751	32727	32793	32678	32751	
1734	0	32733	32647	32799	32743	32686	32813	32669	32631	
1735	0	32701	32455	32722	32735	32743	32695	32591	32691	
1736	0	32743	32610	32623	32739	32614	32741	32611	32759	
1737	0	32751	32527	32817	32722	32759	32697	32638	32567	
1738	0	32758	32733	32771	32739	32758	32743	32669	32661	
1739	0	32717	32722	32795	32751	32640	32679	32527	32791	
1740	0	32683	32564	32635	32705	32775	32735	32647	32647	
1741	0	32769	32731	32605	32742	32679	32759	32579	32770	
1742	0	32792	32655	32743	32775	32743	32647	32567	32643	
1743	0	32788	32535	32775	32787	32679	32765	32551	32711	
1744	0	32775	32677	32639	32759	32783	32694	32695	32835	
1745	0	32761	32751	32837	32775	32769	32717	32639	32599	
1746	0	32774	32639	32732	32769	32725	32725	32735	32743	
1747	0	32798	32717	32770	32807	32786	32775	32594	32751	
1748	0	32758	32583	32645	32775	32699	32799	32617	32764	
1749	0	32712	32775	32743	32691	32676	32628	32733	32835	
1750	0	32748	32683	32820	32715	32759	32699	32725	32641	
1751	0	32799	32699	32671	32702	32663	32613	32667	32671	
1752	0	32769	32663	32743	32743	32740	32749	32646	32903	
1753	0	32769	32551	32801	32725	32775	32671	32485	32636	
1754	0	32746	32717	32669	32727	32709	32742	32758	32711	
1755	0	32759	32676	32820	32732	32743	32671	32711	32791	
1756	0	32732	32679	32691	32775	32679	32739	32663	32599	
1757	0	32788	32738	32847	32866	32820	32655	32773	32795	
1758	0	32724	32570	32683	32842	32754	32725	32601	32850	
1759	0	32753	32698	32843	32891	32797	32641	32563	32677	
1760	0	32716	32677	32765	32811	32746	32719	32667	32802	
1761	0	32708	32615	32879	32724	32679	32577	32613	32893	
1762	0	32783	32727	32659	32727	32751	32655	32690	32614	
1763	0	32756	32719	32833	32727	32683	32614	32576	32827	
1764	0	32761	32627	32763	32749	32769	32687	32551	32823	
1765	0	32769	32758	32749	32747	32773	32679	32719	32734	
1766	0	32713	32703	32743	32715	32621	32719	32589	32805	
1767	0	32783	32542	32747	32647	32735	32663	32618	32628	
1768	0	32698	32791	32775	32736	32691	32755	32678	32747	
1769	0	32797	32759	32617	32719	32715	32726	32561	32789	
1770	0	32758	32583	32740	32742	32717	32775	32703	32554	
1771	0	32758	32677	32710	32794	32722	32623	32682	32707	
1772	0	32812	32643	32738	32751	32773	32743	32593	32853	
1773	0	32759	32743	32735	32821	32787	32563	32711	32635	
1774	0	32796	32775	32705	32769	32679	32678	32612	32738	
1775	0	32762	32746	32655	32787	32743	32623	32677	32845	
1776	0	32815	32709	32764	32775	32749	32751	32763	32705	
1777	0	32797	32547	32734	32798	32715	32647	32638	32773	
1778	0	32764	32755	32783	32796	32702	32667	32755	32839	
1779	0	32785	32804	32783	32815	32662	32687	32759	32615	
1780	0	32772	32617	32719	32767	32731	32690	32562	32815	
1781	0	32775	32725	32783	32749	32744	32647	32687	32759	
1782	0	32841	32755	32830	32731	32765	32739	32623	32773	
1783	0	32773	32647	32679	32771	32743	32634	32637	32822	
1784	0	32746	32683	32766	32725	32671	32705	32581	32775	
1785	0	32720	32647	32827	32731	32749	32677	32749	32717	
1786	0	32783	32655	32759	32749	32687	32730	32641	32850	
1787	0	32666	32709	32671	32726	32815	32647	32683	32663	
1788	0	32730	32509	32789	32741	32775	32727	32647	32738	
1789	0	32724	32694	32799	32787	32655	32647	32513	32855	
1790	0	32745	32673	32732	32799	32746	32765	32726	32626	
1791	0	32656	32495	32631	32813	32769	32663	32639	32775	
1792	0	32738	32725	32805	32775	32687	32749	32690	32903	
1793	0	32754	32663	32767	32781	32745	32669	32557	32607	
1794	0	32741	32542	32669	32775	32666	32701	32621	32707	
1795	0	32763	32609	32791	32711	32769	32605	32741	32831	
1796	0	32769	32589	32754	32703	32791	32811	32661	32646	
1797	0	32727	32615	32797	32695	32669	32671	32663	32745	
1798	0	32757	32723	32615	32787	32739	32748	32599	32861	
1799	0	32796	32795	32695	32791	32655	32765	32693	32735	
1800	0	32738	32571	32789	32782	32726	32683	32639	32837	
1801	0	32749	32759	32723	32807	32647	32631	32659	32589	
1802	0	32732	32807	32603	32711	32766	32775	32617	32751	
1803	0	32709	32677	32809	32717	32790	32758	32537	32775	
1804	0	32708	32789	32834	32727	32707	32731	32549	32612	
1805	0	32724	32587	32661	32727	32705	32647	32718	32775	
1806	0	32845	32735	32725	32718	32698	32727	32719	32883	
1807	0	32788	32585	32796	32733	32690	32671	32662	32567	
1808	0	32787	32803	32615	32727	32749	32727	32661	32805	
1809	0	32775	32743	32727	32773	32711	32691	32473	32634	
1810	0	32794	32559	32757	32765	32690	32735	32599	32717	
1811	0	32769	32723	32630	32745	32734	32719	32731	32800	
1812	0	32760	32775	32829	32743	32719	32621	32629	32635	
1813	0	32830	32694	32823	32743	32681	32759	32598	32815	
1814	0	32790	32747	32678	32775	32756	32671	32671	32850	
1815	0	32797	32634	32822	32743	32814	32703	32702	32626	
1816	0	32789	32643	32727	32814	32667	32684	32601	32791	
1817	0	32769	32589	32775	32839	32685	32727	32815	32736	
1818	0	32772	32679	32763	32822	32775	32621	32751	32791	
1819	0	32816	32731	32743	32835	32703	32691	32647	32787	
1820	0	32803	32539	32861	32735	32775	32633	32655	32583	
1821	0	32790	32701	32725	32713	32687	32707	32493	32755	
1822	0	32802	32735	32745	32717	32705	32670	32743	32758	
1823	0	32799	32599	32755	32711	32655	32726	32711	32763	
1824	0	32732	32679	32829	32759	32793	32603	32631	32813	
1825	0	32724	32669	32627	32795	32775	32762	32757	32579	
1826	0	32782	32733	32685	32695	32715	32703	32597	32744	
1827	0	32743	32702	32711	32700	32767	32775	32562	32695	
1828	0	32758	32663	32775	32721	32727	32663	32757	32723	
1829	0	32745	32751	32666	32741	32839	32735	32724	32844	
1830	0	32705	32681	32739	32685	32798	32687	32647	32607	
1831	0	32765	32639	32721	32758	32647	32751	32610	32755	
1832	0	32784	32718	32775	32775	32749	32658	32586	32751	
1833	0	32734	32711	32663	32743	32740	32743	32662	32709	
1834	0	32745	32550	32806	32751	32718	32647	32665	32804	
1835	0	32692	32717	32771	32775	32755	32739	32606	32620	
1836	0	32748	32556	32638	32791	32748	32754	32671	32775	
1837	0	32709	32726	32742	32775	32631	32669	32663	32807	
1838	0	32668	32763	32799	32775	32698	32669	32742	32663	
1839	0	32773	32591	32598	32732	32727	32667	32527	32743	
1840	0	32764	32671	32820	32707	32775	32790	32629	32839	
1841	0	32797	32762	32732	32743	32751	32785	32706	32602	
1842	0	32822	32709	32751	32757	32701	32775	32647	32804	
1843	0	32773	32727	32700	32719	32727	32637	32670	32831	
1844	0	32775	32607	32743	32773	32749	32703	32701	32643	
1845	0	32731	32639	32785	32819	32599	32647	32675	32738	
1846	0	32740	32563	32601	32807	32775	32739	32562	32754	
1847	0	32798	32709	32821	32761	32718	32679	32487	32751	
1848	0	32772	32838	32789	32832	32647	32810	32659	32771	
1849	0	32731	32679	32647	32751	32771	32739	32693	32755	
1850	0	32741	32679	32731	32735	32783	32813	32663	32743	
1851	0	32710	32599	32822	32751	32703	32759	32711	32806	
1852	0	32705	32722	32867	32731	32749	32698	32727	32599	
1853	0	32767	32713	32715	32692	32655	32734	32599	32803	
1854	0	32738	32555	32747	32743	32788	32807	32827	32743	
1855	0	32806	32695	32823	32679	32751	32797	32707	32706	
1856	0	32792	32713	32851	32738	32663	32700	32671	32739	
1857	0	32733	32533	32700	32788	32797	32712	32719	32647	
1858	0	32812	32717	32722	32767	32676	32645	32503	32715	
1859	0	32789	32775	32675	32747	32791	32727	32809	32815	
1860	0	32772	32647	32799	32773	32677	32641	32703	32613	
1861	0	32788	32719	32741	32791	32671	32714	32647	32743	
1862	0	32780	32671	32730	32758	32685	32661	32692	32836	
1863	0	32794	32691	32803	32717	32679	32723	32644	32813	
1864	0	32773	32743	32807	32764	32755	32663	32675	32927	
1865	0	32706	32763	32759	32749	32663	32727	32610	32615	
1866	0	32733	32531	32660	32787	32747	32775	32751	32796	
1867	0	32729	32758	32791	32775	32661	32687	32707	32603	
1868	0	32759	32655	32675	32815	32719	32726	32598	32775	
1869	0	32771	32555	32753	32787	32660	32625	32743	32751	
1870	0	32745	32767	32799	32807	32806	32719	32695	32741	
1871	0	32781	32742	32692	32855	32743	32607	32647	32866	
1872	0	32790	32549	32671	32832	32671	32717	32564	32775	
1873	0	32758	32733	32715	32845	32702	32620	32655	32805	
1874	0	32764	32789	32551	32732	32625	32647	32567	32897	
1875	0	32784	32623	32751	32749	32687	32607	32799	32781	
1876	0	32851	32751	32794	32719	32671	32759	32733	32903	
1877	0	32811	32787	32815	32683	32735	32573	32581	32741	
1878	0	32903	32671	32750	32775	32717	32687	32770	32820	
1879	0	32863	32773	32652	32775	32621	32633	32735	32943	
1880	0	32903	32652	32679	32759	32642	32787	32797	32711	
1881	0	32909	32738	32726	32727	32711	32676	32647	32845	
1882	0	32838	32787	32810	32735	32719	32701	32727	32823	
1883	0	32808	32823	32695	32727	32775	32729	32786	32867	
1884	0	32822	32647	32876	32743	32719	32755	32671	32775	
1885	0	32834	32699	32781	32742	32807	32812	32927	32733	
1886	0	32851	32663	32921	32738	32775	32775	32845	32749	
1887	0	32817	32647	32743	32729	32875	32831	32815	32870	
1888	0	32799	32644	32771	32655	32791	32677	32817	32591	
1889	0	32829	32658	32883	32703	32870	32791	32731	32737	
1890	0	32824	32471	32871	32687	32812	32679	32723	32621	
1891	0	32852	32692	32939	32745	32851	32759	32511	32707	
1892	0	32708	32715	32738	32823	32865	32655	32659	32812	
1893	0	32690	32431	32903	32779	32823	32799	32615	32535	
1894	0	32758	32647	32876	32767	32878	32679	32476	32679	
1895	0	32700	32660	32955	32747	32811	32839	32617	32586	
1896	0	32714	32478	32863	32639	32871	32869	32647	32641	
1897	0	32758	32681	32975	32647	32863	32903	32487	32690	
1898	0	32676	32711	32975	32635	32943	32781	32667	32591	
1899	0	32652	32575	32965	32690	32895	32851	32607	32487	
1900	0	32730	32553	32903	32679	32826	32799	32647	32695	
1901	0	32694	32679	32974	32663	33018	32839	32763	32449	
1902	0	32766	32586	33011	32615	32954	32856	32762	32658	
1903	0	32718	32485	33003	32639	32877	32805	32584	32511	
1904	0	32727	32675	32919	32663	32895	32855	32755	32713	
1905	0	32731	32637	32863	32663	32869	32871	32791	32547	
1906	0	32705	32401	32871	32603	32887	32803	32477	32647	
1907	0	32574	32620	32687	32647	32844	32830	32567	32639	
1908	0	32509	32601	32715	32775	32719	32647	32383	32359	
1909	0	32370	32450	32559	32863	32671	32709	32111	32423	
1910	0	32342	32671	32463	32965	32479	32571	31862	32339	
1911	0	32350	32751	32407	32975	32421	32565	31901	32343	
1912	0	32385	32663	32403	33001	32439	32506	31923	32461	
1913	0	32410	32732	32413	33022	32465	32470	32007	32354	
1914	0	32375	32805	32207	33039	32389	32503	31887	32502	
1915	0	32500	32855	32338	32959	32333	32566	32117	32623	
1916	0	32477	32727	32263	32864	32375	32590	32199	32438	
1917	0	32553	32870	32339	32935	32339	32613	32154	32748	
1918	0	32576	32639	32303	32978	32410	32481	32383	32711	
1919	0	32626	32775	32325	32903	32415	32646	32557	32783	
1920	0	32660	32845	32514	32854	32519	32559	32493	32971	
1921	0	32734	32646	32495	32834	32535	32707	32647	32663	
1922	0	32745	32718	32459	32752	32451	32563	32687	32903	
1923	0	32790	32687	32530	32702	32609	32679	32687	32702	
1924	0	32822	32719	32636	32708	32545	32547	32727	32911	
1925	0	32787	32755	32711	32715	32667	32663	32875	32947	
1926	0	32892	32585	32612	32727	32690	32607	32949	32885	
1927	0	32894	32615	32579	32827	32775	32604	32887	32831	
1928	0	32897	32751	32743	32727	32727	32687	32879	32909	
1929	0	32799	32747	32823	32812	32799	32532	32669	32719	
1930	0	32755	32647	32826	32842	32678	32658	32775	32847	
1931	0	32687	32646	32946	32847	32755	32595	32770	32756	
1932	0	32676	32646	32797	32859	32676	32655	32603	32762	
1933	0	32735	32609	32871	32783	32807	32607	32732	32859	
1934	0	32759	32762	32890	32756	32799	32663	32795	32591	
1935	0	32791	32860	32719	32751	32607	32583	32805	32851	
1936	0	32909	32745	32703	32807	32707	32623	33035	32831	
1937	0	32911	32903	32819	32775	32647	32687	32970	33030	
1938	0	32996	32839	32775	32769	32715	32661	33119	32997	
1939	0	33071	32847	32826	32724	32673	32727	33159	33069	
1940	0	33068	32743	32887	32685	32797	32601	33063	33102	
1941	0	33072	32687	32717	32646	32815	32695	33069	32841	
1942	0	33103	32612	32903	32623	32856	32721	32956	33047	
1943	0	33111	32604	32913	32615	32850	32827	33115	32783	
1944	0	33096	32684	32946	32623	32757	32731	33125	32974	
1945	0	33113	32714	32887	32621	32833	32825	33041	32967	
1946	0	33108	32759	32789	32567	32837	32765	33111	32967	
1947	0	33065	32711	32939	32538	32901	32860	33063	33050	
1948	0	33057	32587	32864	32555	32903	32767	32963	32835	
1949	0	33008	32843	33006	32527	32903	32818	33153	32941	
1950	0	32990	32733	32815	32582	32863	32743	33007	32799	
1951	0	32983	32620	32935	32573	32797	32796	32967	32970	
1952	0	33075	32765	32853	32647	32839	32735	32903	32923	
1953	0	32991	32809	32903	32687	32765	32769	32903	32702	
1954	0	32970	32647	32738	32639	32788	32711	32749	32879	
1955	0	32897	32783	32903	32647	32754	32799	32751	32677	
1956	0	32895	32839	32826	32703	32713	32762	32793	32749	
1957	0	32873	32815	32899	32647	32847	32726	32702	32719	
1958	0	32837	32795	32711	32674	32830	32655	32683	32550	
1959	0	32802	32655	32766	32707	32711	32783	32579	32711	
1960	0	32733	32724	32803	32711	32829	32851	32474	32763	
1961	0	32700	32586	32615	32695	32795	32775	32623	32477	
1962	0	32757	32731	32787	32679	32739	32806	32591	32665	
1963	0	32711	32743	32751	32743	32745	32686	32592	32637	
1964	0	32642	32638	32805	32833	32750	32709	32388	32691	
1965	0	32676	32663	32647	32811	32681	32715	32631	32762	
1966	0	32713	32607	32787	32708	32797	32775	32573	32501	
1967	0	32643	32619	32668	32731	32679	32603	32535	32715	
1968	0	32684	32685	32767	32755	32745	32742	32423	32663	
1969	0	32695	32523	32599	32773	32736	32707	32670	32669	
1970	0	32660	32685	32749	32791	32620	32686	32519	32743	
1971	0	32677	32663	32758	32785	32698	32596	32589	32579	
1972	0	32677	32771	32635	32791	32703	32759	32327	32743	
1973	0	32645	32677	32715	32827	32731	32590	32539	32717	
1974	0	32672	32471	32806	32806	32763	32759	32493	32695	
1975	0	32633	32671	32803	32811	32707	32613	32619	32775	
1976	0	32686	32679	32647	32839	32799	32762	32470	32599	
1977	0	32672	32692	32770	32879	32766	32757	32516	32695	
1978	0	32700	32710	32708	32900	32647	32751	32563	32667	
1979	0	32700	32523	32789	32838	32699	32695	32534	32703	
1980	0	32729	32663	32621	32816	32640	32721	32701	32823	
1981	0	32736	32551	32735	32730	32679	32700	32598	32579	
1982	0	32730	32715	32711	32734	32715	32623	32637	32715	
1983	0	32716	32647	32627	32805	32695	32711	32571	32850	
1984	0	32708	32746	32758	32799	32645	32706	32435	32609	
1985	0	32712	32765	32743	32799	32738	32759	32685	32707	
1986	0	32737	32735	32718	32701	32795	32707	32595	32821	
1987	0	32710	32731	32630	32727	32686	32647	32503	32559	
1988	0	32771	32631	32747	32802	32775	32723	32502	32647	
1989	0	32681	32677	32741	32735	32693	32686	32610	32755	
1990	0	32722	32590	32647	32813	32711	32756	32617	32555	
1991	0	32706	32727	32669	32713	32813	32675	32523	32758	
1992	0	32738	32698	32789	32731	32718	32775	32667	32631	
1993	0	32716	32687	32811	32763	32759	32727	32645	32763	
1994	0	32736	32711	32855	32739	32663	32723	32631	32785	
1995	0	32735	32707	32647	32716	32739	32676	32547	32599	
1996	0	32727	32540	32815	32803	32791	32745	32741	32801	
1997	0	32775	32671	32762	32785	32715	32663	32751	32671	
1998	0	32690	32791	32846	32805	32751	32765	32573	32762	
1999	0	32765	32646	32711	32790	32626	32631	32751	32839	
2000	0	32709	32739	32771	32758	32757	32769	32669	32562	
2001	0	32764	32635	32773	32825	32719	32591	32647	32803	
2002	0	32765	32663	32663	32791	32619	32698	32539	32855	
2003	0	32734	32669	32735	32717	32727	32619	32735	32562	
2004	0	32719	32734	32739	32731	32711	32727	32615	32735	
2005	0	32721	32767	32759	32710	32799	32694	32709	32687	
2006	0	32743	32607	32759	32735	32725	32714	32507	32721	
2007	0	32700	32655	32715	32749	32699	32789	32773	32839	
2008	0	32771	32605	32789	32742	32839	32663	32693	32639	
2009	0	32764	32598	32736	32754	32757	32763	32691	32775	
2010	0	32722	32566	32847	32803	32742	32659	32511	32754	
2011	0	32729	32557	32803	32803	32679	32775	32711	32579	
2012	0	32720	32711	32718	32703	32774	32668	32685	32789	
2013	0	32751	32735	32689	32767	32675	32735	32611	32895	
2014	0	32784	32583	32749	32775	32686	32721	32711	32593	
2015	0	32775	32667	32647	32767	32623	32655	32615	32749	
2016	0	32775	32759	32807	32804	32745	32740	32583	32804	
2017	0	32766	32582	32705	32755	32749	32706	32667	32775	
2018	0	32775	32647	32687	32775	32775	32699	32647	32795	
2019	0	32734	32734	32615	32775	32743	32783	32637	32647	
2020	0	32731	32579	32751	32763	32674	32699	32607	32745	
2021	0	32844	32747	32727	32739	32693	32690	32659	32858	
2022	0	32820	32676	32583	32750	32715	32719	32623	32594	
2023	0	32743	32855	32785	32711	32815	32583	32719	32746	
2024	0	32707	32788	32775	32717	32711	32785	32723	32751	
2025	0	32703	32663	32647	32745	32703	32731	32589	32747	
2026	0	32743	32763	32767	32721	32719	32807	32716	32753	
2027	0	32775	32550	32734	32743	32749	32775	32699	32770	
2028	0	32767	32797	32791	32727	32685	32790	32708	32606	
2029	0	32775	32692	32608	32766	32749	32635	32532	32767	
2030	0	32807	32599	32829	32695	32739	32711	32551	32879	
2031	0	32767	32695	32751	32767	32804	32747	32691	32615	
2032	0	32748	32787	32700	32805	32711	32665	32729	32765	
2033	0	32788	32498	32763	32775	32668	32751	32590	32743	
2034	0	32809	32666	32698	32751	32647	32631	32551	32607	
2035	0	32756	32620	32869	32803	32661	32687	32711	32786	
2036	0	32717	32698	32647	32775	32765	32589	32671	32863	
2037	0	32668	32647	32775	32746	32703	32719	32530	32539	
2038	0	32775	32727	32829	32738	32775	32647	32727	32747	
2039	0	32663	32621	32832	32767	32767	32722	32617	32723	
2040	0	32769	32711	32815	32731	32759	32603	32687	32749	
2041	0	32804	32735	32647	32759	32743	32750	32503	32900	
2042	0	32794	32641	32723	32739	32662	32633	32733	32639	
2043	0	32761	32673	32765	32799	32694	32735	32679	32767	
2044	0	32754	32671	32635	32792	32748	32775	32715	32829	
2045	0	32775	32749	32783	32758	32683	32674	32612	32577	
2046	0	32772	32741	32759	32762	32831	32803	32613	32771	
2047	0	32743	32671	32831	32804	32695	32726	32668	32813	
2048	0	32725	32743	32745	32727	32751	32668	32699	32719	
2049	0	32714	32703	32634	32660	32647	32739	32647	32838	
2050	0	32772	32797	32749	32691	32734	32647	32662	32571	
2051	0	32788	32638	32815	32743	32671	32695	32709	32790	
2052	0	32815	32747	32815	32815	32750	32645	32599	32635	
2053	0	32762	32743	32844	32863	32791	32702	32756	32783	
2054	0	32739	32547	32803	32823	32663	32684	32667	32857	
2055	0	32761	32615	32719	32832	32775	32757	32747	32605	
2056	0	32784	32608	32763	32790	32757	32671	32647	32749	
2057	0	32806	32687	32720	32767	32703	32692	32525	32802	
2058	0	32806	32723	32729	32791	32717	32734	32697	32583	
2059	0	32775	32517	32871	32739	32726	32789	32638	32773	
2060	0	32720	32711	32667	32719	32855	32807	32719	32863	
2061	0	32729	32711	32775	32699	32853	32687	32519	32625	
2062	0	32724	32527	32647	32727	32691	32663	32661	32794	
2063	0	32665	32704	32765	32743	32787	32767	32707	32599	
2064	0	32759	32671	32775	32830	32647	32727	32599	32769	
2065	0	32762	32759	32587	32751	32669	32718	32711	32687	
2066	0	32754	32615	32761	32717	32699	32647	32683	32775	
2067	0	32767	32749	32643	32717	32719	32699	32635	32876	
2068	0	32745	32759	32720	32731	32677	32677	32593	32679	
2069	0	32787	32775	32671	32735	32754	32710	32707	32799	
2070	0	32753	32756	32819	32719	32730	32689	32679	32795	
2071	0	32808	32634	32795	32743	32762	32795	32647	32647	
2072	0	32806	32707	32775	32742	32718	32747	32749	32759	
2073	0	32793	32551	32794	32726	32725	32635	32683	32839	
2074	0	32762	32817	32727	32724	32679	32695	32551	32623	
2075	0	32711	32723	32771	32791	32775	32605	32797	32735	
2076	0	32771	32543	32679	32742	32731	32733	32699	32799	
2077	0	32783	32679	32719	32735	32630	32662	32607	32748	
2078	0	32815	32735	32727	32740	32698	32710	32679	32866	
2079	0	32768	32567	32791	32677	32612	32630	32754	32541	
2080	0	32734	32711	32775	32759	32743	32761	32684	32806	
2081	0	32775	32658	32687	32743	32607	32615	32692	32679	
2082	0	32775	32645	32799	32764	32749	32731	32554	32734	
2083	0	32804	32639	32775	32767	32679	32700	32691	32655	
2084	0	32759	32661	32858	32703	32775	32683	32706	32747	
2085	0	32751	32767	32787	32811	32647	32712	32495	32658	
2086	0	32739	32647	32667	32749	32742	32594	32684	32687	
2087	0	32725	32700	32766	32762	32808	32719	32623	32771	
2088	0	32718	32562	32775	32743	32719	32707	32659	32605	
2089	0	32742	32773	32785	32761	32714	32799	32755	32767	
2090	0	32719	32751	32647	32771	32646	32690	32623	32751	
2091	0	32718	32635	32775	32739	32771	32775	32667	32699	
2092	0	32755	32663	32743	32827	32807	32757	32627	32793	
2093	0	32766	32603	32810	32775	32759	32621	32547	32631	
2094	0	32832	32775	32679	32753	32707	32708	32731	32743	
2095	0	32839	32703	32797	32711	32607	32791	32667	32797	
2096	0	32720	32598	32775	32713	32701	32703	32663	32763	
2097	0	32803	32679	32764	32751	32646	32775	32583	32869	
2098	0	32783	32699	32775	32788	32793	32743	32695	32636	
2099	0	32817	32570	32609	32804	32765	32775	32635	32791	
2100	0	32759	32727	32783	32831	32687	32775	32727	32891	
2101	0	32763	32747	32822	32773	32775	32751	32543	32599	
2102	0	32772	32594	32727	32740	32639	32677	32719	32799	
2103	0	32736	32718	32851	32735	32662	32699	32735	32647	
2104	0	32732	32758	32615	32727	32689	32775	32719	32775	
2105	0	32689	32563	32711	32711	32767	32832	32607	32871	
2106	0	32739	32711	32703	32743	32806	32760	32751	32583	
2107	0	32692	32775	32759	32759	32639	32741	32695	32794	
2108	0	32711	32681	32793	32799	32751	32757	32707	32670	
2109	0	32796	32638	32615	32810	32685	32789	32639	32799	
2110	0	32772	32742	32767	32707	32719	32695	32655	32765	
2111	0	32764	32757	32743	32695	32729	32749	32679	32556	
2112	0	32775	32719	32765	32743	32673	32736	32507	32771	
2113	0	32786	32581	32695	32731	32733	32700	32727	32787	
2114	0	32740	32687	32831	32679	32641	32791	32687	32541	
2115	0	32775	32775	32754	32666	32735	32647	32647	32702	
2116	0	32740	32677	32812	32719	32775	32727	32661	32743	
2117	0	32774	32694	32787	32755	32683	32643	32763	32695	
2118	0	32814	32791	32699	32767	32715	32814	32693	32827	
2119	0	32775	32629	32806	32769	32655	32811	32639	32587	
2120	0	32751	32655	32749	32759	32807	32710	32556	32835	
2121	0	32719	32718	32763	32647	32759	32783	32751	32647	
2122	0	32730	32626	32647	32702	32799	32674	32599	32734	
2123	0	32724	32646	32843	32795	32689	32727	32667	32846	
2124	0	32738	32787	32705	32850	32655	32631	32475	32742	
2125	0	32799	32749	32775	32775	32791	32735	32604	32711	
2126	0	32746	32751	32823	32809	32730	32623	32695	32557	
2127	0	32775	32647	32647	32799	32773	32721	32675	32846	
2128	0	32771	32674	32791	32722	32699	32660	32611	32790	
2129	0	32799	32710	32687	32743	32647	32749	32713	32773	
2130	0	32799	32523	32799	32775	32787	32591	32675	32836	
2131	0	32742	32647	32773	32764	32679	32759	32735	32715	
2132	0	32704	32583	32742	32748	32677	32691	32539	32754	
2133	0	32732	32726	32838	32675	32735	32801	32559	32809	
2134	0	32757	32687	32639	32775	32753	32775	32787	32827	
2135	0	32778	32678	32807	32747	32748	32701	32695	32647	
2136	0	32760	32661	32717	32757	32734	32767	32673	32747	
2137	0	32785	32594	32655	32757	32720	32659	32660	32815	
2138	0	32756	32713	32635	32787	32771	32735	32621	32541	
2139	0	32771	32694	32761	32743	32767	32637	32711	32747	
2140	0	32775	32605	32783	32775	32685	32717	32647	32802	
2141	0	32758	32727	32658	32807	32802	32687	32641	32759	
2142	0	32797	32570	32743	32767	32695	32745	32707	32613	
2143	0	32750	32743	32748	32809	32727	32799	32565	32819	
2144	0	32707	32847	32745	32775	32787	32827	32767	32803	
2145	0	32722	32583	32598	32738	32706	32647	32666	32715	
2146	0	32823	32681	32775	32751	32743	32773	32669	32767	
2147	0	32737	32575	32762	32719	32775	32743	32713	32870	
