# OpenSignals Text File Format
# {"00:07:80:3B:46:38": {"sensor": ["CUSTOM/0.5/1.0/V", "CUSTOM/0.5/1.0/V", "CUSTOM/0.5/1.0/V", "CUSTOM/0.5/1.0/V", "CUSTOM/0.5/1.0/V", "CUSTOM/0.5/1.0/V", "CUSTOM/0.5/1.0/V", "CUSTOM/0.5/1.0/V"], "device name": "EMGs", "column": ["nSeq", "DI", "RA_L", "RA_R", "OE_L", "OE:R", "IL_L", "IL_R", "MF_L", "MF_R"], "sync interval": 2, "time": "17:20:33.909", "comments": "", "device connection": "BTH00:07:80:3B:46:38", "channels": [1, 2, 3, 4, 5, 6, 7, 8], "date": "2017-6-1", "mode": 0, "digital IO": [0, 1], "firmware version": 772, "device": "biosignalsplux", "position": 0, "sampling rate": 1000, "label": ["RA_L", "RA_R", "OE_L", "OE:R", "IL_L", "IL_R", "MF_L", "MF_R"], "resolution": [16, 16, 16, 16, 16, 16, 16, 16], "special": [{}, {}, {}, {}, {}, {}, {}, {}]}}
# EndOfHeader
0	0	32786	32581	32807	32741	32642	32759	32791	32617	
1	0	32781	32679	32740	32639	32771	32735	32793	32662	
2	0	32812	32591	32725	32748	32807	32724	32731	32669	
3	0	32720	32755	32695	32551	32860	32695	32708	32733	
4	0	32762	32719	32685	32892	32791	32748	32819	32726	
5	0	32816	32557	32759	32813	32775	32743	32795	32665	
6	0	32771	32642	32735	32755	32815	32831	32735	32667	
7	0	32697	32616	32751	32681	32773	32789	32739	32586	
8	0	32751	32783	32693	32677	32591	32758	32783	32731	
9	0	32757	32613	32599	32775	32757	32750	32709	32647	
10	0	32710	32668	32671	32669	32772	32699	32814	32743	
11	0	32751	32773	32679	32765	32740	32731	32807	32763	
12	0	32756	32673	32675	32683	32762	32751	32701	32767	
13	0	32769	32711	32804	32749	32775	32815	32767	32765	
14	0	32763	32635	32859	32741	32806	32775	32775	32731	
15	0	32789	32635	32679	32759	32759	32791	32715	32759	
16	0	32802	32682	32607	32695	32829	32739	32754	32679	
17	0	32783	32775	32741	32791	32699	32759	32775	32647	
18	0	32789	32726	32607	32647	32685	32707	32686	32532	
19	0	32806	32573	32549	32683	32676	32791	32755	32695	
20	0	32828	32647	32638	32592	32687	32813	32793	32615	
21	0	32775	32525	32706	32807	32815	32807	32749	32783	
22	0	32791	32661	32615	32570	32795	32841	32807	32703	
23	0	32786	32489	32613	32871	32837	32793	32783	32548	
24	0	32828	32699	32583	32854	32755	32757	32802	32699	
25	0	32731	32614	32637	32609	32795	32765	32725	32811	
26	0	32718	32739	32741	32876	32811	32855	32799	32527	
27	0	32775	32647	32723	32698	32748	32807	32783	32636	
28	0	32748	32537	32790	32837	32707	32758	32761	32549	
29	0	32647	32709	32875	32835	32697	32722	32815	32702	
30	0	32678	32613	32759	32847	32716	32702	32749	32718	
31	0	32709	32468	32647	32759	32647	32743	32757	32750	
32	0	32732	32551	32839	32669	32822	32769	32719	32667	
33	0	32763	32587	32813	32751	32787	32725	32803	32566	
34	0	32686	32721	32727	32586	32723	32783	32775	32659	
35	0	32759	32663	32797	32829	32787	32839	32734	32609	
36	0	32771	32741	32691	32755	32715	32855	32727	32661	
37	0	32780	32687	32820	32661	32804	32813	32775	32669	
38	0	32766	32595	32790	32692	32643	32811	32751	32597	
39	0	32855	32705	32734	32612	32671	32829	32655	32731	
40	0	32788	32751	32695	32820	32759	32804	32739	32767	
41	0	32775	32841	32583	32647	32815	32759	32831	32603	
42	0	32720	32676	32559	32885	32838	32783	32845	32655	
43	0	32782	32526	32719	32709	32813	32805	32767	32487	
44	0	32765	32759	32743	32775	32759	32737	32861	32711	
45	0	32741	32663	32703	32815	32820	32799	32799	32709	
46	0	32745	32535	32727	32687	32835	32755	32722	32686	
47	0	32770	32623	32593	32795	32807	32775	32823	32682	
48	0	32745	32543	32751	32659	32765	32773	32841	32603	
49	0	32692	32679	32769	32815	32655	32783	32775	32686	
50	0	32716	32663	32813	32647	32599	32788	32689	32732	
51	0	32794	32705	32837	32818	32716	32827	32711	32623	
52	0	32769	32685	32738	32795	32871	32735	32815	32687	
53	0	32773	32558	32707	32767	32859	32727	32761	32612	
54	0	32814	32687	32695	32727	32853	32739	32771	32743	
55	0	32819	32719	32671	32708	32847	32747	32719	32647	
56	0	32801	32514	32658	32764	32865	32839	32683	32707	
57	0	32797	32679	32679	32647	32803	32817	32732	32775	
58	0	32762	32715	32545	32775	32815	32735	32698	32675	
59	0	32814	32565	32602	32639	32762	32767	32655	32733	
60	0	32766	32705	32667	32771	32735	32751	32775	32607	
61	0	32807	32647	32701	32655	32756	32735	32723	32733	
62	0	32765	32463	32671	32707	32775	32718	32710	32591	
63	0	32779	32731	32585	32641	32823	32738	32734	32749	
64	0	32806	32692	32535	32813	32859	32715	32690	32678	
65	0	32733	32559	32799	32623	32839	32789	32786	32811	
66	0	32701	32698	32708	32731	32839	32738	32817	32655	
67	0	32742	32647	32763	32663	32823	32743	32771	32679	
68	0	32703	32593	32819	32749	32798	32775	32851	32610	
69	0	32767	32626	32811	32702	32730	32788	32727	32685	
70	0	32745	32747	32821	32751	32795	32783	32751	32613	
71	0	32692	32765	32790	32631	32823	32731	32759	32693	
72	0	32759	32567	32687	32759	32871	32743	32701	32765	
73	0	32816	32639	32694	32583	32829	32746	32775	32679	
74	0	32818	32591	32629	32879	32877	32791	32759	32727	
75	0	32798	32733	32647	32679	32791	32813	32738	32687	
76	0	32780	32711	32647	32833	32727	32745	32837	32582	
77	0	32855	32727	32603	32565	32647	32701	32729	32639	
78	0	32775	32643	32569	32775	32715	32803	32855	32495	
79	0	32758	32615	32566	32695	32791	32783	32783	32647	
80	0	32745	32734	32612	32771	32861	32751	32823	32509	
81	0	32714	32620	32711	32647	32796	32700	32747	32703	
82	0	32775	32647	32663	32759	32799	32813	32751	32612	
83	0	32830	32581	32647	32783	32607	32775	32821	32743	
84	0	32800	32679	32641	32723	32639	32711	32833	32613	
85	0	32796	32631	32723	32639	32607	32717	32839	32655	
86	0	32811	32540	32759	32775	32644	32749	32775	32475	
87	0	32743	32763	32716	32703	32639	32831	32739	32691	
88	0	32688	32615	32667	32822	32774	32759	32802	32617	
89	0	32660	32647	32795	32843	32797	32711	32791	32807	
90	0	32712	32659	32791	32724	32875	32829	32751	32751	
91	0	32743	32543	32804	32855	32743	32775	32773	32699	
92	0	32684	32732	32829	32767	32635	32742	32813	32775	
93	0	32697	32647	32765	32919	32724	32732	32724	32805	
94	0	32754	32581	32687	32782	32826	32719	32775	32735	
95	0	32767	32591	32637	32715	32789	32743	32733	32743	
96	0	32775	32739	32559	32727	32759	32866	32703	32687	
97	0	32784	32733	32671	32588	32739	32727	32762	32685	
98	0	32785	32509	32751	32823	32901	32739	32819	32509	
99	0	32743	32705	32659	32613	32823	32698	32770	32663	
100	0	32798	32767	32615	32795	32818	32692	32709	32637	
101	0	32743	32519	32731	32647	32825	32727	32807	32722	
102	0	32756	32767	32667	32773	32737	32791	32807	32783	
103	0	32828	32773	32661	32813	32799	32723	32695	32690	
104	0	32790	32526	32717	32899	32834	32715	32771	32707	
105	0	32749	32806	32644	32740	32738	32783	32735	32742	
106	0	32711	32580	32635	32835	32730	32821	32853	32727	
107	0	32797	32553	32675	32775	32749	32758	32786	32666	
108	0	32748	32717	32676	32765	32775	32711	32725	32709	
109	0	32747	32687	32724	32819	32815	32739	32775	32599	
110	0	32765	32547	32719	32703	32775	32748	32733	32763	
111	0	32762	32774	32683	32765	32719	32821	32719	32638	
112	0	32726	32643	32803	32641	32743	32761	32775	32705	
113	0	32727	32640	32775	32821	32749	32775	32711	32677	
114	0	32751	32735	32719	32619	32775	32845	32749	32569	
115	0	32805	32646	32685	32775	32773	32741	32783	32695	
116	0	32797	32495	32762	32710	32817	32815	32847	32661	
117	0	32815	32685	32791	32775	32847	32771	32714	32766	
118	0	32781	32697	32739	32766	32830	32793	32829	32671	
119	0	32789	32703	32749	32671	32822	32807	32695	32638	
120	0	32774	32567	32764	32769	32798	32759	32823	32701	
121	0	32775	32671	32643	32625	32767	32759	32755	32577	
122	0	32798	32733	32721	32767	32875	32839	32765	32669	
123	0	32849	32582	32743	32703	32847	32967	32711	32613	
124	0	32746	32767	32583	32831	32845	32903	32707	32679	
125	0	32780	32682	32620	32621	32775	32927	32773	32551	
126	0	32726	32583	32839	32775	32757	32885	32802	32723	
127	0	32721	32711	32758	32783	32635	32839	32692	32727	
128	0	32695	32732	32875	32826	32655	32853	32813	32519	
129	0	32725	32575	32751	32847	32769	32839	32775	32692	
130	0	32753	32718	32699	32722	32814	32871	32693	32562	
131	0	32771	32735	32662	32751	32679	32807	32775	32751	
132	0	32727	32509	32749	32735	32758	32748	32732	32583	
133	0	32719	32743	32687	32721	32715	32759	32871	32703	
134	0	32710	32615	32705	32834	32615	32710	32790	32502	
135	0	32703	32447	32759	32757	32621	32802	32697	32655	
136	0	32706	32635	32730	32839	32655	32775	32725	32555	
137	0	32748	32668	32798	32751	32695	32715	32662	32726	
138	0	32741	32485	32729	32711	32645	32691	32755	32739	
139	0	32814	32635	32641	32775	32791	32627	32814	32611	
140	0	32793	32479	32526	32612	32829	32677	32801	32629	
141	0	32781	32715	32547	32718	32855	32740	32763	32629	
142	0	32799	32699	32573	32695	32797	32760	32795	32683	
143	0	32751	32735	32582	32755	32831	32703	32747	32679	
144	0	32754	32577	32613	32918	32679	32735	32750	32733	
145	0	32774	32591	32551	32628	32663	32775	32763	32551	
146	0	32765	32690	32639	32879	32679	32739	32823	32735	
147	0	32721	32719	32685	32626	32679	32711	32748	32725	
148	0	32706	32439	32741	32851	32669	32687	32861	32701	
149	0	32679	32727	32821	32604	32719	32732	32767	32582	
150	0	32705	32637	32837	32843	32707	32790	32783	32612	
151	0	32715	32415	32806	32621	32655	32783	32773	32645	
152	0	32729	32647	32809	32786	32709	32679	32807	32669	
153	0	32726	32645	32727	32591	32631	32725	32775	32727	
154	0	32810	32615	32767	32879	32679	32687	32751	32634	
155	0	32781	32799	32747	32769	32674	32765	32811	32653	
156	0	32745	32626	32647	32759	32839	32759	32725	32563	
157	0	32801	32557	32574	32706	32797	32749	32859	32717	
158	0	32799	32763	32677	32783	32855	32708	32723	32597	
159	0	32816	32735	32655	32735	32852	32711	32718	32719	
160	0	32858	32485	32755	32721	32877	32751	32775	32570	
161	0	32845	32706	32723	32706	32811	32771	32699	32732	
162	0	32806	32732	32670	32807	32822	32715	32701	32586	
163	0	32833	32557	32707	32534	32836	32743	32707	32828	
164	0	32734	32658	32719	32734	32847	32733	32689	32639	
165	0	32712	32668	32703	32597	32769	32743	32694	32821	
166	0	32804	32749	32769	32764	32823	32794	32727	32635	
167	0	32791	32726	32623	32635	32790	32807	32801	32748	
168	0	32713	32788	32605	32821	32815	32740	32753	32767	
169	0	32710	32626	32669	32631	32812	32715	32655	32735	
170	0	32731	32697	32791	32935	32716	32786	32791	32743	
171	0	32739	32634	32727	32735	32748	32735	32783	32597	
172	0	32727	32787	32770	32755	32707	32738	32759	32734	
173	0	32742	32677	32783	32675	32787	32700	32823	32725	
174	0	32749	32518	32749	32795	32826	32815	32775	32655	
175	0	32775	32606	32739	32647	32799	32787	32825	32663	
176	0	32816	32575	32707	32868	32702	32745	32775	32461	
177	0	32812	32671	32765	32757	32559	32737	32799	32657	
178	0	32729	32637	32764	32828	32643	32783	32823	32559	
179	0	32767	32735	32743	32556	32639	32727	32839	32677	
180	0	32839	32742	32757	32717	32653	32823	32719	32511	
181	0	32772	32493	32694	32646	32694	32802	32726	32612	
182	0	32789	32659	32775	32783	32679	32787	32773	32495	
183	0	32733	32567	32787	32627	32647	32735	32727	32708	
184	0	32780	32725	32703	32775	32812	32735	32773	32759	
185	0	32787	32540	32589	32638	32923	32683	32770	32567	
186	0	32736	32698	32615	32845	32829	32811	32719	32693	
187	0	32764	32749	32635	32709	32738	32730	32775	32611	
188	0	32843	32583	32566	32695	32807	32725	32685	32745	
189	0	32799	32669	32583	32831	32694	32715	32741	32709	
190	0	32683	32613	32599	32738	32711	32783	32708	32839	
191	0	32742	32749	32631	32845	32759	32743	32759	32743	
192	0	32734	32613	32663	32623	32661	32759	32674	32726	
193	0	32742	32583	32730	32843	32790	32767	32758	32629	
194	0	32767	32671	32734	32719	32804	32765	32809	32701	
195	0	32714	32623	32799	32923	32796	32791	32727	32647	
196	0	32759	32767	32855	32802	32706	32837	32807	32711	
197	0	32831	32663	32859	32847	32759	32739	32757	32729	
198	0	32769	32519	32775	32770	32783	32692	32775	32663	
199	0	32736	32788	32660	32837	32775	32703	32797	32695	
200	0	32793	32757	32661	32765	32710	32743	32703	32530	
201	0	32812	32583	32697	32822	32842	32697	32799	32590	
202	0	32784	32667	32682	32759	32811	32725	32767	32663	
203	0	32845	32623	32717	32815	32751	32839	32749	32668	
204	0	32813	32757	32756	32821	32629	32803	32791	32667	
205	0	32748	32731	32692	32679	32666	32803	32815	32575	
206	0	32760	32707	32566	32820	32839	32775	32719	32727	
207	0	32714	32661	32663	32647	32813	32773	32757	32687	
208	0	32690	32575	32807	32831	32791	32687	32711	32578	
209	0	32743	32611	32773	32613	32811	32759	32813	32695	
210	0	32710	32482	32775	32919	32699	32775	32763	32620	
211	0	32762	32605	32749	32807	32789	32713	32771	32681	
212	0	32732	32647	32710	32759	32833	32801	32711	32695	
213	0	32719	32703	32662	32821	32658	32827	32807	32543	
214	0	32716	32655	32709	32698	32643	32761	32749	32647	
215	0	32765	32705	32703	32803	32708	32743	32683	32663	
216	0	32748	32639	32679	32557	32847	32771	32843	32725	
217	0	32768	32583	32705	32855	32805	32769	32743	32695	
218	0	32709	32415	32659	32791	32741	32759	32805	32594	
219	0	32688	32527	32820	32582	32887	32748	32731	32589	
220	0	32714	32498	32711	32799	32741	32789	32868	32639	
221	0	32807	32673	32725	32743	32659	32739	32839	32711	
222	0	32775	32601	32535	32775	32765	32743	32713	32599	
223	0	32795	32642	32611	32763	32797	32762	32797	32729	
224	0	32777	32625	32599	32683	32783	32742	32767	32647	
225	0	32796	32694	32726	32773	32821	32743	32727	32742	
226	0	32763	32591	32707	32668	32759	32819	32764	32731	
227	0	32774	32679	32775	32737	32809	32825	32771	32538	
228	0	32815	32663	32769	32594	32834	32727	32673	32711	
229	0	32850	32775	32767	32775	32825	32740	32725	32599	
230	0	32796	32733	32623	32557	32845	32767	32749	32782	
231	0	32833	32775	32623	32919	32597	32725	32669	32775	
232	0	32751	32669	32854	32763	32701	32715	32807	32587	
233	0	32721	32711	32839	32756	32863	32796	32694	32751	
234	0	32718	32647	32791	32782	32805	32801	32739	32763	
235	0	32771	32599	32803	32627	32807	32743	32803	32707	
236	0	32748	32615	32678	32807	32716	32759	32757	32715	
237	0	32697	32551	32647	32619	32743	32715	32725	32450	
238	0	32613	32582	32729	32735	32749	32717	32786	32690	
239	0	32700	32637	32727	32775	32721	32743	32823	32663	
240	0	32821	32803	32500	32647	32703	32699	32747	32524	
241	0	32755	32671	32564	32746	32671	32675	32799	32733	
242	0	32749	32558	32607	32585	32703	32734	32846	32623	
243	0	32749	32613	32663	32764	32799	32763	32791	32799	
244	0	32737	32519	32679	32627	32836	32775	32734	32829	
245	0	32727	32599	32735	32845	32743	32843	32835	32619	
246	0	32724	32509	32850	32735	32767	32820	32844	32729	
247	0	32764	32695	32847	32775	32695	32855	32711	32790	
248	0	32783	32743	32695	32804	32727	32727	32871	32725	
249	0	32806	32759	32643	32645	32748	32759	32732	32687	
250	0	32771	32709	32846	32877	32831	32747	32699	32578	
251	0	32745	32699	32845	32627	32850	32756	32743	32791	
252	0	32765	32599	32727	32898	32731	32767	32731	32749	
253	0	32750	32444	32735	32663	32694	32743	32749	32611	
254	0	32832	32587	32679	32763	32623	32732	32759	32647	
255	0	32823	32534	32671	32721	32663	32797	32719	32503	
256	0	32879	32677	32671	32723	32617	32775	32694	32675	
257	0	32843	32555	32766	32775	32837	32767	32829	32721	
258	0	32874	32658	32711	32557	32812	32815	32855	32591	
259	0	32790	32551	32903	32724	32775	32727	32782	32507	
260	0	32725	32733	32831	32659	32797	32727	32783	32463	
261	0	32805	32663	32655	32911	32723	32687	32787	32694	
262	0	32858	32675	32637	32743	32847	32735	32642	32711	
263	0	32812	32564	32702	32682	32689	32703	32751	32507	
264	0	32814	32647	32595	32679	32636	32719	32813	32749	
265	0	32744	32559	32575	32583	32791	32694	32787	32685	
266	0	32767	32711	32668	32789	32775	32739	32767	32615	
267	0	32742	32519	32719	32615	32821	32771	32879	32663	
268	0	32739	32637	32787	32826	32799	32788	32775	32687	
269	0	32719	32573	32772	32759	32839	32775	32700	32706	
270	0	32748	32621	32773	32803	32837	32821	32783	32706	
271	0	32757	32599	32815	32869	32727	32839	32751	32564	
272	0	32753	32642	32583	32705	32699	32796	32726	32727	
273	0	32758	32525	32580	32775	32693	32788	32799	32563	
274	0	32756	32713	32615	32723	32743	32806	32769	32681	
275	0	32736	32663	32714	32729	32732	32735	32707	32559	
276	0	32743	32791	32743	32683	32820	32711	32838	32687	
277	0	32782	32759	32731	32829	32767	32719	32802	32719	
278	0	32724	32574	32759	32644	32775	32799	32743	32589	
279	0	32772	32617	32717	32862	32787	32775	32855	32646	
280	0	32785	32509	32643	32807	32613	32795	32818	32663	
281	0	32694	32595	32834	32626	32671	32817	32789	32701	
282	0	32684	32479	32821	32837	32815	32811	32715	32749	
283	0	32683	32620	32789	32820	32775	32804	32769	32615	
284	0	32738	32519	32631	32903	32844	32775	32733	32763	
285	0	32732	32604	32519	32799	32729	32741	32751	32773	
286	0	32709	32469	32519	32727	32836	32707	32755	32613	
287	0	32734	32591	32660	32836	32789	32684	32791	32695	
288	0	32756	32639	32799	32757	32775	32717	32684	32533	
289	0	32711	32535	32784	32823	32740	32839	32725	32759	
290	0	32749	32643	32767	32660	32671	32759	32733	32669	
291	0	32775	32743	32803	32745	32829	32735	32642	32749	
292	0	32711	32702	32731	32543	32793	32839	32757	32820	
293	0	32751	32541	32683	32898	32871	32760	32759	32733	
294	0	32786	32635	32783	32823	32807	32727	32721	32747	
295	0	32772	32489	32847	32732	32709	32740	32813	32639	
296	0	32798	32686	32871	32645	32759	32711	32743	32695	
297	0	32786	32713	32755	32583	32791	32701	32804	32700	
298	0	32776	32647	32583	32791	32869	32779	32831	32674	
299	0	32811	32676	32571	32517	32815	32788	32823	32713	
300	0	32824	32705	32671	32734	32757	32783	32852	32607	
301	0	32783	32685	32599	32711	32659	32807	32853	32500	
302	0	32807	32783	32599	32775	32613	32775	32841	32575	
303	0	32808	32565	32541	32731	32746	32717	32775	32669	
304	0	32759	32599	32759	32633	32775	32743	32719	32587	
305	0	32758	32455	32788	32690	32735	32807	32878	32565	
306	0	32751	32612	32775	32577	32708	32832	32807	32534	
307	0	32716	32479	32765	32893	32767	32844	32775	32549	
308	0	32723	32670	32786	32855	32819	32711	32852	32687	
309	0	32815	32703	32719	32869	32839	32759	32775	32647	
310	0	32698	32721	32687	32723	32820	32711	32687	32813	
311	0	32742	32655	32639	32701	32847	32748	32751	32815	
312	0	32765	32498	32775	32751	32815	32711	32726	32583	
313	0	32783	32663	32839	32610	32703	32692	32745	32679	
314	0	32773	32579	32727	32943	32655	32719	32715	32611	
315	0	32751	32647	32759	32883	32644	32743	32811	32719	
316	0	32764	32565	32711	32743	32647	32787	32717	32695	
317	0	32802	32615	32630	32743	32724	32706	32687	32719	
318	0	32825	32611	32609	32647	32703	32755	32662	32838	
319	0	32815	32725	32655	32727	32741	32703	32679	32609	
320	0	32818	32694	32731	32613	32861	32667	32795	32724	
321	0	32808	32597	32676	32695	32858	32679	32711	32681	
322	0	32743	32622	32789	32545	32835	32716	32742	32799	
323	0	32775	32551	32787	32788	32881	32767	32775	32831	
324	0	32808	32667	32820	32562	32845	32754	32727	32727	
325	0	32774	32671	32873	32711	32783	32770	32679	32751	
326	0	32766	32461	32828	32599	32637	32733	32775	32683	
327	0	32735	32647	32647	32711	32645	32876	32761	32739	
328	0	32751	32707	32699	32775	32632	32799	32810	32677	
329	0	32773	32559	32749	32527	32725	32811	32835	32572	
330	0	32797	32589	32690	32839	32621	32799	32727	32681	
331	0	32775	32524	32684	32806	32647	32748	32831	32635	
332	0	32713	32711	32683	32839	32621	32759	32863	32541	
333	0	32712	32697	32708	32767	32669	32823	32775	32639	
334	0	32716	32559	32631	32727	32637	32799	32766	32535	
335	0	32740	32551	32703	32705	32679	32751	32804	32636	
336	0	32763	32463	32647	32647	32583	32773	32786	32566	
337	0	32814	32642	32679	32700	32647	32729	32863	32681	
338	0	32775	32671	32747	32641	32615	32807	32807	32678	
339	0	32789	32703	32677	32733	32773	32839	32751	32535	
340	0	32812	32658	32661	32535	32780	32858	32775	32660	
341	0	32767	32483	32543	32725	32839	32771	32751	32567	
342	0	32748	32571	32555	32535	32854	32765	32635	32830	
343	0	32775	32535	32773	32807	32861	32719	32743	32865	
344	0	32788	32713	32804	32735	32817	32705	32687	32775	
345	0	32790	32679	32679	32819	32830	32727	32627	32775	
346	0	32746	32604	32683	32738	32834	32756	32711	32631	
347	0	32751	32605	32721	32644	32783	32695	32749	32775	
348	0	32729	32523	32634	32847	32766	32745	32740	32748	
349	0	32737	32654	32645	32535	32828	32834	32679	32491	
350	0	32739	32505	32885	32802	32764	32791	32822	32673	
351	0	32691	32667	32823	32669	32647	32807	32825	32631	
352	0	32788	32551	32811	32663	32647	32775	32733	32439	
353	0	32771	32661	32719	32775	32739	32786	32771	32607	
354	0	32825	32670	32540	32557	32879	32731	32863	32715	
355	0	32818	32740	32693	32858	32815	32713	32887	32594	
356	0	32735	32669	32759	32615	32759	32735	32754	32703	
357	0	32813	32647	32726	32586	32818	32751	32793	32687	
358	0	32771	32665	32679	32715	32823	32711	32789	32596	
359	0	32807	32719	32629	32590	32849	32695	32735	32736	
360	0	32764	32695	32771	32839	32746	32695	32694	32695	
361	0	32805	32603	32679	32807	32709	32753	32743	32564	
362	0	32805	32695	32683	32783	32647	32770	32811	32719	
363	0	32761	32561	32621	32775	32787	32749	32727	32743	
364	0	32789	32647	32613	32684	32783	32775	32695	32666	
365	0	32839	32481	32733	32819	32845	32742	32845	32647	
366	0	32813	32609	32714	32773	32726	32799	32759	32710	
367	0	32782	32621	32847	32788	32799	32727	32763	32671	
368	0	32730	32621	32739	32767	32703	32743	32668	32709	
369	0	32799	32563	32703	32626	32681	32759	32791	32797	
370	0	32785	32683	32812	32807	32844	32788	32764	32687	
371	0	32770	32565	32793	32631	32820	32751	32715	32671	
372	0	32779	32623	32695	32858	32802	32775	32845	32503	
373	0	32802	32571	32611	32771	32751	32751	32787	32709	
374	0	32785	32631	32675	32871	32705	32767	32801	32689	
375	0	32763	32567	32623	32751	32684	32807	32799	32601	
376	0	32823	32719	32753	32717	32813	32708	32804	32695	
377	0	32825	32775	32767	32775	32820	32735	32775	32615	
378	0	32854	32876	32695	32769	32667	32751	32687	32771	
379	0	32806	32901	32743	32791	32692	32743	32735	32775	
380	0	32806	32786	32812	32852	32695	32719	32706	32887	
381	0	32869	32851	32815	32835	32733	32741	32676	32851	
382	0	32826	32863	32751	32799	32863	32647	32655	32775	
383	0	32865	32991	32749	32811	32855	32679	32583	32918	
384	0	32858	32903	32719	32671	32855	32629	32681	32751	
385	0	32922	32892	32645	32647	32967	32727	32703	32835	
386	0	32918	32887	32663	32615	32805	32707	32727	32791	
387	0	32930	32943	32719	32775	32839	32748	32693	32595	
388	0	32983	32788	32679	32564	32903	32751	32735	32733	
389	0	33015	32783	32621	32851	32887	32809	32757	32791	
390	0	33047	32855	32659	32595	32957	32738	32695	32758	
391	0	33062	32819	32531	32772	32895	32747	32773	32655	
392	0	33093	32875	32631	32639	32889	32739	32755	32738	
393	0	33022	32855	32677	32775	32838	32734	32739	32719	
394	0	33004	32901	32602	32719	32711	32740	32743	32623	
395	0	33089	32807	32506	32743	32748	32817	32735	32738	
396	0	33151	32869	32535	32612	32775	32809	32647	32871	
397	0	33152	32759	32450	32661	32935	32845	32807	32707	
398	0	33241	32789	32412	32595	32861	32749	32730	32639	
399	0	33278	32695	32391	32399	32860	32790	32763	32555	
400	0	33207	32391	32379	32460	32859	32815	32759	32615	
401	0	33223	32511	32434	32318	32897	32765	32743	32694	
402	0	33135	32407	32455	32425	32983	32775	32694	32635	
403	0	33125	32557	32407	32257	32927	32843	32629	32695	
404	0	33087	32639	32361	32380	32991	32901	32660	32603	
405	0	33039	32631	32452	32277	32835	32887	32695	32749	
406	0	32988	32455	32571	32491	32708	32903	32647	32703	
407	0	32793	32298	32637	32301	32803	32839	32671	32647	
408	0	32626	32255	32578	32526	32788	32839	32647	32738	
409	0	32583	32062	32551	32543	32766	32815	32658	32572	
410	0	32535	32211	32615	32623	32785	32775	32775	32627	
411	0	32503	32199	32613	32372	32684	32937	32903	32419	
412	0	32528	32223	32615	32711	32622	32957	32975	32447	
413	0	32540	32455	32623	32676	32543	32895	33203	32243	
414	0	32586	32340	32692	32783	32514	32850	33242	32205	
415	0	32614	32615	32775	32827	32511	32783	33196	32155	
416	0	32549	32306	32721	32683	32450	32853	33311	32021	
417	0	32354	32356	32799	32785	32502	32895	33250	32171	
418	0	32247	32223	32782	32589	32450	32903	33190	31998	
419	0	32087	32355	32853	32676	32391	32933	33287	32154	
420	0	32055	32471	32887	32563	32423	32878	33271	32191	
421	0	31991	32679	32895	32747	32371	32853	33095	32365	
422	0	32005	32687	33014	32607	32428	32793	33075	32407	
423	0	32017	32669	33178	32799	32375	32697	32999	32348	
424	0	31996	32903	33139	32647	32379	32695	33011	32529	
425	0	31945	32855	33239	32831	32373	32668	33015	32445	
426	0	31974	33231	33272	32699	32365	32795	32961	32567	
427	0	32050	33339	33370	32815	32311	32773	32971	32489	
428	0	32297	33362	33200	32511	32566	32711	32893	32571	
429	0	32396	33270	33060	32687	32663	32675	32799	32771	
430	0	32446	33334	33159	32487	32767	32647	32639	32749	
431	0	32506	33271	33219	32543	32731	32579	32471	32999	
432	0	32470	33365	33250	32495	32807	32575	32465	32987	
433	0	32570	33399	33212	32427	32993	32545	32469	32911	
434	0	32615	33204	33159	32402	33027	32615	32303	33102	
435	0	32679	33250	33005	32293	32963	32667	32441	33045	
436	0	32604	33321	32711	32295	32951	32647	32459	33115	
437	0	32580	33188	32695	32331	32827	32629	32411	33049	
438	0	32599	33039	32700	32215	32827	32675	32557	32831	
439	0	32749	33127	32571	32111	32869	32679	32543	32943	
440	0	32927	33055	32548	31996	32875	32687	32594	32703	
441	0	32983	33135	32463	31955	32866	32679	32483	32825	
442	0	33007	32989	32500	32043	33014	32679	32581	32999	
443	0	33100	33125	32463	31933	32969	32701	32519	32775	
444	0	33028	33209	32487	32149	32975	32751	32637	32903	
445	0	33017	33047	32476	32047	32981	32759	32594	32831	
446	0	33028	32985	32605	32084	32943	32717	32519	32987	
447	0	33004	33004	32479	31975	33039	32690	32599	33117	
448	0	32958	32931	32623	32103	33027	32658	32471	33067	
449	0	32942	33039	32591	32045	32959	32717	32484	33097	
450	0	32892	32807	32644	32102	32757	32727	32613	32911	
451	0	32935	32927	32569	32095	32855	32743	32681	32881	
452	0	32914	32811	32715	31994	32891	32735	32719	32911	
453	0	32960	32941	32707	32132	32946	32815	32595	32735	
454	0	32955	32911	32615	31953	32893	32775	32745	32839	
455	0	32925	32990	32675	32189	32852	32703	32756	32631	
456	0	32893	32948	32716	32023	32830	32743	32694	32671	
457	0	32972	32799	32591	32287	32695	32821	32871	32663	
458	0	32967	32951	32579	32183	32747	32767	32903	32515	
459	0	32955	32916	32709	32231	32799	32763	32753	32537	
460	0	32871	32973	32679	32279	32830	32759	32803	32385	
461	0	32870	32903	32679	32231	32775	32839	32773	32463	
462	0	32846	32951	32642	32387	32660	32868	32815	32545	
463	0	32892	32887	32599	32252	32787	32806	32775	32697	
464	0	32870	32967	32622	32484	32709	32699	32708	32717	
465	0	32847	32883	32671	32423	32715	32727	32719	32695	
466	0	32759	32911	32731	32587	32742	32849	32855	32646	
467	0	32775	32771	32679	32543	32743	32855	32855	32631	
468	0	32771	32933	32683	32745	32803	32799	32815	32615	
469	0	32795	32911	32647	32789	32791	32787	32847	32603	
470	0	32749	32804	32639	32767	32767	32769	32919	32628	
471	0	32791	32959	32695	32854	32617	32822	32829	32481	
472	0	32742	32991	32711	32982	32775	32814	32871	32655	
473	0	32812	32903	32765	32839	32799	32813	32787	32765	
474	0	32735	32786	32793	33044	32815	32767	32717	32679	
475	0	32804	32847	32677	32982	32838	32775	32826	32687	
476	0	32775	32796	32612	33255	32801	32737	32823	32636	
477	0	32791	32941	32694	33089	32735	32756	32719	32702	
478	0	32770	32837	32621	33363	32843	32699	32713	32771	
479	0	32775	32941	32533	33287	32839	32733	32815	32767	
480	0	32764	32895	32559	33524	32807	32767	32725	32690	
481	0	32775	32913	32623	33466	32814	32799	32775	32527	
482	0	32810	32935	32631	33734	32791	32807	32775	32645	
483	0	32738	32951	32627	33771	32691	32775	32765	32515	
484	0	32743	32796	32606	33831	32647	32775	32775	32709	
485	0	32742	32775	32711	33855	32820	32707	32824	32758	
486	0	32751	32743	32679	33787	32817	32767	32766	32556	
487	0	32725	32833	32802	34031	32818	32743	32717	32607	
488	0	32715	32663	32826	33988	32767	32799	32817	32549	
489	0	32748	32498	32799	34091	32726	32871	32717	32690	
490	0	32742	32719	32805	34135	32767	32775	32635	32617	
491	0	32748	32623	32783	34231	32786	32790	32758	32701	
492	0	32716	32635	32813	34107	32748	32787	32829	32735	
493	0	32666	32575	32875	34333	32579	32775	32818	32624	
494	0	32675	32623	32859	34275	32595	32759	32741	32655	
495	0	32707	32631	32817	34415	32631	32839	32889	32570	
496	0	32764	32685	32959	34267	32748	32820	32895	32613	
497	0	32711	32621	32748	34289	32749	32795	32775	32527	
498	0	32704	32431	32724	34231	32822	32783	32844	32668	
499	0	32775	32502	32623	34033	32795	32786	32812	32683	
500	0	32711	32341	32693	34243	32761	32723	32745	32677	
501	0	32780	32477	32629	34033	32787	32738	32795	32590	
502	0	32723	32462	32711	34246	32759	32743	32775	32759	
503	0	32743	32527	32725	33971	32799	32679	32791	32670	
504	0	32790	32499	32727	34209	32879	32807	32796	32621	
505	0	32756	32319	32642	34063	32735	32895	32859	32677	
506	0	32741	32399	32495	34156	32719	32791	32771	32583	
507	0	32679	32305	32631	33967	32623	32759	32719	32647	
508	0	32685	32333	32742	33830	32735	32740	32833	32677	
509	0	32715	32207	32799	33927	32799	32732	32761	32775	
510	0	32730	32278	32876	33751	32820	32685	32763	32743	
511	0	32674	32189	32817	33727	32772	32789	32687	32750	
512	0	32704	32407	32646	33591	32820	32749	32815	32621	
513	0	32775	32357	32491	33647	32860	32726	32719	32633	
514	0	32786	32371	32517	33374	32762	32690	32722	32719	
515	0	32787	32388	32575	33421	32737	32767	32783	32557	
516	0	32780	32455	32715	33159	32775	32721	32786	32682	
517	0	32740	32451	32726	33319	32799	32747	32701	32551	
518	0	32785	32227	32812	32987	32841	32807	32799	32719	
519	0	32730	32387	32829	33159	32823	32790	32767	32571	
520	0	32771	32364	32695	32868	32799	32788	32703	32668	
521	0	32756	32467	32667	32951	32827	32720	32795	32613	
522	0	32753	32351	32639	32715	32687	32759	32748	32775	
523	0	32777	32263	32687	33044	32679	32701	32707	32773	
524	0	32765	32372	32769	32681	32694	32759	32804	32709	
525	0	32721	32333	32812	32855	32690	32767	32743	32711	
526	0	32745	32477	32791	32623	32743	32735	32787	32702	
527	0	32802	32347	32818	32775	32799	32821	32773	32661	
528	0	32770	32359	32687	32559	32884	32783	32757	32527	
529	0	32775	32371	32655	32623	32821	32703	32667	32631	
530	0	32769	32263	32597	32533	32799	32743	32858	32631	
531	0	32749	32356	32749	32525	32709	32767	32759	32757	
532	0	32742	32278	32767	32433	32743	32763	32751	32758	
533	0	32725	32343	32687	32244	32795	32790	32807	32617	
534	0	32738	32209	32863	32323	32797	32825	32740	32763	
535	0	32711	32333	32717	32157	32695	32770	32687	32563	
536	0	32783	32316	32607	32295	32671	32786	32756	32687	
537	0	32773	32407	32585	32207	32813	32813	32749	32714	
538	0	32799	32375	32733	32383	32785	32773	32709	32551	
539	0	32739	32451	32738	32239	32823	32759	32693	32667	
540	0	32788	32431	32679	32303	32815	32685	32740	32609	
541	0	32719	32489	32614	32149	32679	32749	32788	32701	
542	0	32758	32420	32647	31990	32807	32743	32817	32715	
543	0	32704	32470	32717	32135	32843	32703	32783	32562	
544	0	32702	32428	32783	32005	32839	32733	32843	32659	
545	0	32712	32483	32751	32106	32752	32775	32814	32735	
546	0	32729	32319	32723	31994	32639	32743	32735	32548	
547	0	32773	32503	32663	32268	32597	32821	32847	32658	
548	0	32693	32387	32734	32196	32783	32827	32815	32647	
549	0	32647	32506	32841	32349	32767	32869	32791	32653	
550	0	32681	32503	32845	32175	32769	32861	32725	32671	
551	0	32740	32629	32863	32167	32761	32775	32783	32659	
552	0	32756	32532	32863	32147	32877	32711	32701	32731	
553	0	32775	32479	32834	32327	32849	32717	32703	32595	
554	0	32754	32598	32637	32223	32735	32689	32775	32719	
555	0	32780	32628	32475	32059	32870	32706	32839	32749	
556	0	32832	32567	32654	32181	32839	32741	32734	32615	
557	0	32831	32551	32674	32210	32735	32711	32743	32679	
558	0	32863	32363	32701	32285	32647	32759	32743	32733	
559	0	32809	32547	32674	32343	32754	32773	32807	32647	
560	0	32804	32461	32611	32247	32769	32819	32726	32727	
561	0	32751	32647	32615	32310	32799	32743	32813	32585	
562	0	32739	32567	32575	32219	32826	32775	32794	32731	
563	0	32710	32595	32683	32461	32771	32835	32749	32751	
564	0	32749	32629	32709	32210	32719	32811	32807	32747	
565	0	32769	32775	32711	32519	32749	32727	32847	32703	
566	0	32747	32557	32753	32365	32747	32713	32742	32573	
567	0	32708	32391	32795	32607	32775	32703	32807	32627	
568	0	32767	32513	32679	32551	32775	32767	32790	32599	
569	0	32711	32556	32721	32646	32807	32775	32803	32689	
570	0	32753	32567	32553	32551	32791	32796	32775	32647	
571	0	32797	32605	32613	32487	32703	32807	32811	32687	
572	0	32713	32507	32679	32519	32671	32867	32732	32647	
573	0	32647	32543	32829	32567	32641	32756	32711	32572	
574	0	32660	32583	32839	32450	32647	32740	32823	32727	
575	0	32722	32751	32757	32455	32668	32804	32723	32615	
576	0	32775	32723	32671	32615	32735	32835	32690	32743	
577	0	32851	32821	32657	32519	32837	32762	32757	32791	
578	0	32794	32679	32694	32615	32823	32742	32735	32669	
579	0	32829	32647	32681	32415	32870	32754	32647	32695	
580	0	32743	32686	32675	32501	32871	32719	32775	32667	
581	0	32866	32791	32734	32420	32805	32766	32773	32807	
582	0	32809	32639	32703	32613	32703	32775	32677	32743	
583	0	32756	32487	32815	32535	32775	32755	32734	32582	
584	0	32823	32683	32919	32669	32731	32767	32692	32717	
585	0	32758	32667	32839	32635	32727	32735	32725	32523	
586	0	32809	32669	32865	32609	32805	32716	32871	32615	
587	0	32890	32695	32689	32700	32699	32823	32815	32471	
588	0	32834	32591	32595	32485	32732	32766	32825	32627	
589	0	32792	32694	32671	32719	32765	32758	32831	32595	
590	0	32745	32647	32863	32557	32775	32687	32821	32722	
591	0	32711	32477	32951	32759	32775	32724	32731	32587	
592	0	32700	32541	32724	32573	32839	32703	32863	32661	
593	0	32730	32751	32519	32591	32883	32871	32743	32708	
594	0	32824	32646	32566	32593	32852	32836	32685	32554	
595	0	32779	32571	32533	32699	32637	32831	32742	32711	
596	0	32692	32619	32690	32439	32790	32791	32791	32672	
597	0	32647	32541	32596	32714	32795	32833	32775	32583	
598	0	32757	32721	32658	32639	32827	32787	32766	32563	
599	0	32775	32787	32789	32671	32757	32831	32735	32637	
600	0	32751	32679	32787	32636	32799	32759	32799	32575	
601	0	32817	32763	32699	32611	32749	32749	32758	32687	
602	0	32796	32701	32699	32663	32766	32757	32799	32721	
603	0	32775	32743	32773	32465	32731	32748	32738	32525	
604	0	32759	32686	32711	32733	32797	32709	32775	32583	
605	0	32731	32687	32643	32527	32775	32749	32716	32535	
606	0	32722	32591	32716	32789	32799	32787	32759	32740	
607	0	32735	32647	32723	32671	32692	32813	32697	32751	
608	0	32773	32551	32725	32769	32583	32785	32683	32527	
609	0	32799	32679	32771	32843	32636	32807	32769	32679	
610	0	32759	32559	32703	32711	32615	32748	32771	32717	
611	0	32708	32692	32665	32708	32627	32732	32756	32647	
612	0	32793	32679	32643	32581	32655	32623	32767	32721	
613	0	32797	32807	32711	32756	32812	32700	32781	32613	
614	0	32797	32671	32727	32548	32823	32742	32807	32743	
615	0	32788	32775	32773	32775	32845	32719	32698	32719	
616	0	32887	32710	32729	32702	32819	32731	32820	32613	
617	0	32806	32503	32694	32811	32815	32788	32815	32647	
618	0	32846	32754	32765	32662	32793	32773	32633	32621	
619	0	32846	32727	32638	32751	32815	32757	32770	32775	
620	0	32830	32703	32637	32703	32863	32751	32759	32855	
621	0	32676	32594	32711	32637	32911	32711	32789	32717	
622	0	32575	32815	32734	32791	32879	32686	32809	32775	
623	0	32686	32663	32679	32743	32836	32759	32836	32600	
624	0	32700	32495	32711	32815	32855	32793	32763	32731	
625	0	32730	32696	32743	32804	32807	32751	32867	32531	
626	0	32687	32703	32722	32767	32743	32795	32854	32610	
627	0	32742	32749	32709	32781	32646	32745	32717	32609	
628	0	32743	32613	32571	32647	32675	32719	32795	32636	
629	0	32751	32540	32573	32866	32644	32799	32787	32623	
630	0	32756	32647	32711	32789	32633	32771	32807	32565	
631	0	32697	32657	32631	32807	32633	32751	32791	32647	
632	0	32759	32619	32583	32691	32681	32767	32731	32487	
633	0	32764	32671	32638	32713	32769	32707	32766	32727	
634	0	32788	32551	32749	32690	32815	32775	32738	32734	
635	0	32790	32694	32839	32804	32822	32843	32739	32685	
636	0	32810	32719	32799	32586	32876	32775	32803	32681	
637	0	32828	32575	32799	32709	32807	32740	32707	32695	
638	0	32815	32695	32666	32519	32692	32775	32740	32669	
639	0	32775	32605	32633	32751	32813	32719	32669	32519	
640	0	32783	32789	32695	32603	32775	32775	32737	32773	
641	0	32729	32615	32806	32866	32703	32735	32772	32839	
642	0	32799	32763	32753	32734	32658	32787	32695	32643	
643	0	32843	32733	32722	32807	32726	32759	32679	32715	
644	0	32775	32767	32575	32699	32844	32754	32732	32775	
645	0	32713	32735	32647	32818	32795	32785	32839	32586	
646	0	32709	32515	32688	32743	32843	32759	32739	32681	
647	0	32727	32711	32694	32946	32845	32739	32710	32501	
648	0	32695	32727	32679	32813	32810	32783	32847	32671	
649	0	32761	32647	32813	32903	32806	32758	32859	32527	
650	0	32765	32637	32788	32755	32815	32805	32735	32722	
651	0	32745	32511	32723	32692	32767	32787	32839	32722	
652	0	32698	32681	32711	32758	32775	32751	32815	32723	
653	0	32749	32619	32615	32617	32775	32761	32717	32717	
654	0	32720	32748	32655	32879	32737	32761	32889	32603	
655	0	32703	32687	32810	32803	32748	32828	32751	32636	
656	0	32748	32671	32759	32903	32866	32748	32783	32685	
657	0	32784	32709	32549	32797	32834	32734	32735	32756	
658	0	32820	32647	32631	32597	32813	32775	32831	32679	
659	0	32721	32647	32691	32718	32702	32762	32849	32511	
660	0	32767	32611	32655	32589	32667	32743	32693	32631	
661	0	32796	32717	32711	32903	32679	32787	32815	32764	
662	0	32839	32631	32773	32671	32738	32771	32807	32591	
663	0	32747	32711	32731	32875	32796	32781	32797	32686	
664	0	32748	32523	32743	32775	32775	32747	32839	32580	
665	0	32764	32685	32775	32879	32837	32723	32835	32756	
666	0	32707	32487	32767	32769	32847	32722	32699	32807	
667	0	32679	32662	32699	32743	32809	32645	32726	32670	
668	0	32806	32647	32647	32845	32843	32807	32807	32731	
669	0	32782	32647	32577	32667	32815	32862	32715	32471	
670	0	32715	32622	32820	32795	32759	32806	32674	32583	
671	0	32654	32679	32727	32599	32838	32740	32754	32564	
672	0	32681	32635	32711	32759	32767	32758	32775	32711	
673	0	32761	32467	32726	32647	32645	32836	32663	32617	
674	0	32732	32551	32694	32695	32773	32791	32821	32682	
675	0	32739	32527	32791	32607	32807	32796	32847	32711	
676	0	32727	32636	32791	32741	32775	32717	32712	32625	
677	0	32748	32619	32751	32543	32759	32703	32749	32687	
678	0	32745	32646	32634	32861	32773	32742	32724	32607	
679	0	32710	32517	32679	32805	32775	32775	32796	32701	
680	0	32740	32710	32757	32730	32799	32749	32717	32740	
681	0	32796	32612	32677	32756	32687	32775	32735	32557	
682	0	32758	32718	32746	32655	32837	32786	32733	32765	
683	0	32689	32595	32713	32941	32831	32787	32847	32742	
684	0	32751	32639	32591	32787	32843	32715	32823	32645	
685	0	32807	32519	32629	32725	32791	32838	32791	32739	
686	0	32759	32679	32829	32793	32655	32807	32823	32606	
687	0	32743	32583	32710	32603	32690	32749	32811	32644	
688	0	32722	32695	32783	32970	32793	32773	32797	32599	
689	0	32751	32475	32683	32903	32809	32749	32723	32489	
690	0	32734	32612	32562	32825	32790	32754	32791	32721	
691	0	32719	32513	32583	32827	32803	32775	32765	32734	
692	0	32690	32719	32671	32727	32819	32741	32767	32733	
693	0	32759	32719	32823	32871	32799	32679	32775	32769	
694	0	32757	32591	32834	32701	32759	32743	32843	32641	
695	0	32685	32635	32687	32821	32855	32690	32771	32765	
696	0	32708	32542	32749	32559	32799	32751	32671	32609	
697	0	32756	32759	32747	32759	32751	32748	32791	32775	
698	0	32801	32687	32717	32571	32797	32815	32810	32623	
699	0	32857	32575	32647	32850	32663	32756	32731	32667	
700	0	32727	32642	32559	32699	32767	32770	32775	32503	
701	0	32764	32525	32553	32726	32771	32703	32831	32734	
702	0	32807	32671	32775	32711	32819	32819	32798	32663	
703	0	32750	32547	32783	32607	32820	32751	32791	32743	
704	0	32759	32607	32791	32740	32881	32797	32645	32713	
705	0	32755	32562	32669	32533	32850	32789	32806	32615	
706	0	32692	32743	32693	32703	32839	32758	32791	32707	
707	0	32751	32639	32591	32539	32775	32783	32711	32540	
708	0	32799	32539	32587	32775	32740	32740	32751	32679	
709	0	32786	32640	32732	32753	32677	32748	32775	32637	
710	0	32760	32551	32879	32805	32693	32743	32839	32671	
711	0	32713	32658	32919	32884	32822	32751	32755	32631	
712	0	32692	32671	32725	32775	32823	32713	32743	32523	
713	0	32740	32811	32681	32850	32815	32807	32795	32699	
714	0	32751	32708	32746	32700	32803	32802	32715	32546	
715	0	32681	32557	32739	32855	32725	32823	32676	32703	
716	0	32725	32591	32891	32676	32609	32829	32775	32679	
717	0	32751	32487	32759	32859	32679	32711	32868	32526	
718	0	32782	32788	32747	32743	32671	32702	32799	32709	
719	0	32762	32711	32703	32851	32692	32765	32750	32540	
720	0	32695	32549	32690	32751	32740	32826	32766	32671	
721	0	32714	32743	32724	32787	32717	32743	32706	32583	
722	0	32759	32633	32715	32557	32719	32764	32767	32668	
723	0	32793	32591	32759	32863	32807	32711	32759	32605	
724	0	32785	32769	32703	32647	32749	32703	32775	32715	
725	0	32781	32667	32695	32881	32769	32835	32685	32763	
726	0	32839	32585	32652	32806	32775	32791	32846	32627	
727	0	32839	32658	32683	32927	32755	32822	32815	32647	
728	0	32769	32581	32635	32836	32773	32783	32767	32519	
729	0	32719	32725	32699	32743	32767	32775	32803	32631	
730	0	32861	32694	32727	32871	32762	32700	32775	32567	
731	0	32759	32540	32691	32927	32798	32759	32775	32669	
732	0	32774	32692	32692	32802	32829	32794	32853	32543	
733	0	32736	32726	32671	32930	32759	32763	32751	32699	
734	0	32790	32835	32751	32693	32821	32821	32775	32519	
735	0	32767	32719	32726	32897	32677	32863	32743	32677	
736	0	32743	32534	32667	32831	32647	32743	32803	32731	
737	0	32689	32609	32717	32796	32807	32718	32827	32621	
738	0	32717	32535	32847	32687	32767	32723	32815	32711	
739	0	32743	32669	32804	32823	32845	32690	32687	32767	
740	0	32748	32502	32790	32735	32705	32654	32788	32628	
741	0	32675	32655	32759	32660	32861	32749	32786	32707	
742	0	32745	32567	32607	32791	32838	32829	32839	32799	
743	0	32731	32695	32775	32604	32764	32799	32711	32687	
744	0	32745	32687	32647	32674	32858	32759	32795	32787	
745	0	32771	32769	32687	32698	32723	32705	32807	32615	
746	0	32733	32634	32807	32831	32731	32775	32727	32642	
747	0	32805	32563	32677	32880	32634	32755	32803	32532	
748	0	32775	32663	32638	32799	32707	32769	32822	32655	
749	0	32740	32647	32687	32839	32775	32823	32767	32581	
750	0	32729	32773	32743	32806	32797	32775	32723	32699	
751	0	32761	32631	32708	32789	32807	32685	32762	32743	
752	0	32732	32647	32731	32487	32673	32789	32699	32695	
753	0	32762	32746	32759	32725	32695	32775	32823	32827	
754	0	32821	32698	32551	32599	32727	32749	32813	32760	
755	0	32831	32647	32627	32679	32695	32855	32727	32703	
756	0	32844	32743	32533	32756	32685	32794	32775	32743	
757	0	32804	32705	32571	32527	32666	32770	32754	32693	
758	0	32892	32622	32679	32875	32647	32671	32719	32669	
759	0	32893	32679	32668	32591	32707	32823	32715	32702	
760	0	32834	32613	32647	32659	32679	32718	32739	32692	
761	0	32742	32739	32773	32615	32703	32831	32713	32769	
762	0	32839	32726	32788	32623	32647	32751	32839	32710	
763	0	32767	32563	32863	32766	32647	32770	32695	32551	
764	0	32785	32751	32999	32631	32695	32687	32791	32667	
765	0	32695	32735	32885	32929	32685	32687	32758	32711	
766	0	32658	32807	32871	32675	32646	32727	32699	32742	
767	0	32723	32670	32775	32955	32755	32730	32695	32735	
768	0	32690	32615	32624	32583	32834	32820	32775	32747	
769	0	32836	32735	32634	32757	32773	32746	32707	32762	
770	0	32711	32737	32731	32663	32813	32775	32719	32759	
771	0	32766	32789	32898	32621	32773	32827	32771	32733	
772	0	32950	32695	32599	32481	32823	32783	32743	32706	
773	0	32980	32711	32439	32510	32727	32738	32743	32663	
774	0	32898	32733	32463	32695	32749	32727	32775	32775	
775	0	32712	32687	32679	32519	32838	32773	32775	32647	
776	0	32642	32495	32819	32791	32834	32807	32783	32710	
777	0	32679	32575	32759	32743	32765	32763	32820	32708	
778	0	32811	32532	32659	32742	32793	32703	32743	32575	
779	0	32791	32682	32738	32707	32695	32695	32723	32687	
780	0	32871	32726	32685	32773	32739	32813	32885	32519	
781	0	32830	32859	32647	32739	32771	32707	32843	32626	
782	0	32773	32705	32685	32815	32775	32699	32769	32583	
783	0	32751	32566	32615	32823	32805	32802	32767	32679	
784	0	32801	32807	32647	32975	32859	32796	32807	32655	
785	0	32801	32775	32647	32647	32833	32711	32722	32733	
786	0	32733	32788	32587	32967	32860	32647	32805	32719	
787	0	32790	32671	32572	32836	32740	32695	32807	32687	
788	0	32775	32627	32587	32854	32667	32845	32719	32699	
789	0	32726	32543	32737	32721	32647	32832	32807	32591	
790	0	32783	32583	32733	32711	32771	32823	32753	32709	
791	0	32775	32705	32735	32801	32806	32795	32767	32684	
792	0	32829	32567	32647	32599	32791	32783	32717	32551	
793	0	32848	32691	32514	32662	32854	32699	32775	32709	
794	0	32791	32564	32647	32543	32647	32791	32763	32591	
795	0	32765	32659	32951	32759	32571	32815	32788	32611	
796	0	32721	32695	32877	32591	32594	32772	32871	32732	
797	0	32747	32557	32815	32799	32706	32759	32798	32775	
798	0	32751	32743	32827	32599	32694	32668	32708	32735	
799	0	32711	32575	32807	32827	32683	32721	32839	32612	
800	0	32790	32685	32710	32797	32847	32727	32820	32751	
801	0	32806	32471	32639	32877	32858	32759	32811	32806	
802	0	32771	32573	32717	32734	32811	32751	32683	32567	
803	0	32839	32679	32655	32867	32814	32775	32819	32711	
804	0	32745	32617	32701	32673	32795	32751	32813	32615	
805	0	32742	32751	32740	32819	32797	32835	32730	32703	
806	0	32759	32677	32834	32655	32819	32754	32807	32543	
807	0	32765	32797	32775	32883	32795	32709	32787	32678	
808	0	32743	32663	32846	32789	32791	32735	32815	32615	
809	0	32826	32749	32788	32871	32791	32759	32727	32745	
810	0	32772	32673	32674	32677	32781	32771	32759	32628	
811	0	32677	32543	32673	32895	32802	32734	32727	32727	
812	0	32769	32753	32769	32605	32751	32724	32757	32711	
813	0	32759	32617	32589	32843	32735	32705	32826	32647	
814	0	32775	32857	32716	32787	32799	32751	32767	32694	
815	0	32782	32754	32775	32814	32687	32784	32690	32549	
816	0	32756	32797	32663	32714	32799	32772	32761	32711	
817	0	32897	32731	32577	32591	32822	32727	32751	32743	
818	0	32848	32645	32687	32775	32803	32724	32674	32549	
819	0	32773	32673	32711	32743	32743	32751	32828	32716	
820	0	32748	32677	32615	32743	32765	32791	32796	32511	
821	0	32743	32549	32658	32556	32751	32771	32641	32629	
822	0	32733	32559	32715	32565	32755	32775	32815	32548	
823	0	32721	32469	32647	32514	32767	32703	32807	32684	
824	0	32745	32558	32803	32700	32735	32775	32811	32725	
825	0	32782	32526	32751	32607	32718	32834	32683	32730	
826	0	32751	32663	32831	32829	32679	32821	32785	32684	
827	0	32773	32713	32859	32677	32647	32818	32797	32559	
828	0	32730	32609	32805	32821	32594	32684	32669	32703	
829	0	32741	32714	32683	32701	32643	32743	32821	32591	
830	0	32734	32740	32615	32799	32615	32786	32775	32703	
831	0	32763	32726	32653	32565	32735	32799	32759	32796	
832	0	32802	32691	32742	32847	32773	32775	32767	32671	
833	0	32819	32819	32583	32893	32887	32748	32747	32677	
834	0	32795	32726	32679	32943	32827	32677	32715	32559	
835	0	32727	32543	32725	32767	32831	32661	32775	32739	
836	0	32816	32661	32671	32881	32918	32717	32731	32565	
837	0	32690	32605	32661	32556	32825	32815	32823	32645	
838	0	32715	32839	32676	32775	32855	32756	32882	32557	
839	0	32698	32711	32751	32525	32825	32739	32823	32643	
840	0	32799	32524	32731	32775	32814	32751	32807	32643	
841	0	32762	32628	32738	32582	32789	32775	32751	32771	
842	0	32711	32655	32773	32805	32883	32815	32751	32749	
843	0	32701	32559	32743	32581	32833	32751	32763	32695	
844	0	32735	32692	32799	32799	32775	32729	32708	32751	
845	0	32657	32687	32641	32749	32796	32831	32835	32692	
846	0	32763	32551	32717	32775	32807	32854	32783	32807	
847	0	32861	32715	32869	32845	32839	32819	32735	32708	
848	0	32830	32787	32711	32815	32783	32791	32735	32763	
849	0	32803	32685	32647	32839	32767	32695	32818	32647	
850	0	32607	32655	32825	32775	32775	32827	32853	32671	
851	0	32637	32738	32788	32823	32791	32823	32809	32603	
852	0	32743	32577	32815	32615	32765	32719	32740	32683	
853	0	32772	32679	32754	32807	32767	32713	32739	32605	
854	0	32780	32645	32694	32655	32641	32767	32733	32667	
855	0	32805	32727	32693	32796	32686	32793	32847	32583	
856	0	32720	32758	32611	32605	32731	32738	32843	32669	
857	0	32751	32553	32591	32787	32743	32775	32772	32487	
858	0	32743	32749	32663	32623	32685	32743	32819	32669	
859	0	32829	32799	32607	32871	32815	32726	32799	32734	
860	0	32850	32591	32606	32711	32764	32773	32814	32715	
861	0	32787	32701	32607	32877	32601	32799	32775	32753	
862	0	32775	32703	32775	32738	32635	32739	32622	32764	
863	0	32773	32799	32761	32892	32679	32741	32710	32773	
864	0	32770	32725	32719	32589	32719	32735	32742	32804	
865	0	32815	32549	32743	32679	32685	32787	32570	32879	
866	0	32826	32684	32775	32580	32695	32797	32666	32815	
867	0	32772	32687	32783	32819	32623	32687	32677	32834	
868	0	32719	32549	32835	32699	32717	32691	32775	32629	
869	0	32754	32639	32671	32833	32621	32709	32788	32623	
870	0	32795	32500	32647	32527	32677	32734	32775	32479	
871	0	32838	32703	32620	32740	32595	32767	32837	32719	
872	0	32808	32679	32597	32813	32639	32734	32759	32542	
873	0	32705	32487	32705	32695	32743	32775	32829	32641	
874	0	32786	32707	32699	32717	32775	32855	32837	32471	
875	0	32763	32599	32659	32595	32790	32775	32746	32659	
876	0	32763	32525	32786	32735	32807	32758	32803	32530	
877	0	32698	32631	32742	32727	32799	32715	32839	32663	
878	0	32731	32580	32795	32714	32807	32745	32692	32575	
879	0	32753	32635	32749	32703	32775	32797	32823	32693	
880	0	32766	32711	32743	32685	32807	32837	32749	32647	
881	0	32772	32687	32559	32612	32725	32801	32814	32479	
882	0	32822	32694	32583	32735	32799	32783	32731	32701	
883	0	32713	32636	32703	32711	32596	32769	32820	32596	
884	0	32767	32621	32797	32819	32647	32711	32875	32727	
885	0	32783	32519	32801	32660	32647	32693	32743	32684	
886	0	32713	32733	32762	32775	32735	32859	32827	32639	
887	0	32760	32671	32763	32823	32639	32852	32722	32799	
888	0	32735	32572	32786	32893	32685	32789	32675	32623	
889	0	32733	32731	32711	32763	32655	32747	32807	32699	
890	0	32722	32711	32623	32775	32709	32753	32775	32629	
891	0	32730	32582	32637	32836	32759	32804	32701	32687	
892	0	32747	32681	32611	32591	32831	32753	32756	32673	
893	0	32775	32731	32647	32871	32839	32663	32631	32761	
894	0	32795	32787	32589	32655	32803	32745	32766	32789	
895	0	32720	32626	32511	32759	32759	32734	32692	32687	
896	0	32721	32663	32487	32775	32835	32682	32807	32749	
897	0	32756	32775	32573	32748	32833	32735	32775	32503	
898	0	32799	32711	32655	32799	32807	32798	32759	32632	
899	0	32773	32543	32765	32679	32822	32805	32815	32629	
900	0	32817	32717	32751	32785	32831	32769	32838	32707	
901	0	32771	32727	32719	32719	32851	32689	32731	32743	
902	0	32761	32535	32758	32863	32822	32709	32805	32775	
903	0	32765	32647	32743	32630	32659	32775	32775	32789	
904	0	32807	32611	32759	32891	32721	32759	32708	32717	
905	0	32859	32715	32839	32813	32751	32743	32743	32743	
906	0	32716	32675	32773	32817	32831	32734	32753	32555	
907	0	32632	32629	32692	32747	32772	32724	32767	32599	
908	0	32713	32623	32695	32897	32771	32783	32772	32578	
909	0	32722	32575	32766	32837	32807	32761	32871	32723	
910	0	32680	32681	32707	32860	32813	32811	32885	32726	
911	0	32750	32675	32694	32527	32821	32727	32819	32711	
912	0	32843	32637	32811	32837	32800	32806	32845	32683	
913	0	32925	32783	32481	32767	32763	32743	32762	32629	
914	0	32764	32611	32601	32804	32748	32719	32841	32735	
915	0	32761	32621	32687	32790	32759	32676	32678	32759	
916	0	32783	32551	32836	32833	32797	32731	32819	32668	
917	0	32615	32749	32813	32723	32859	32765	32827	32679	
918	0	32742	32714	32767	32831	32803	32758	32727	32533	
919	0	32823	32795	32739	32583	32773	32739	32775	32735	
920	0	32782	32709	32628	32743	32775	32727	32763	32691	
921	0	32775	32567	32751	32635	32769	32759	32751	32743	
922	0	32764	32737	32685	32635	32679	32738	32647	32663	
923	0	32748	32685	32793	32795	32674	32834	32787	32533	
924	0	32724	32735	32761	32663	32695	32864	32775	32623	
925	0	32703	32717	32775	32821	32839	32819	32754	32671	
926	0	32706	32757	32791	32614	32812	32775	32692	32683	
927	0	32690	32557	32853	32851	32642	32689	32764	32567	
928	0	32674	32461	32660	32623	32738	32747	32839	32711	
929	0	32679	32555	32551	32775	32730	32691	32753	32705	
930	0	32671	32443	32642	32525	32749	32797	32787	32551	
931	0	32793	32642	32639	32911	32807	32858	32775	32687	
932	0	32781	32615	32713	32804	32826	32802	32791	32663	
933	0	32751	32743	32675	32866	32775	32757	32775	32767	
934	0	32765	32807	32671	32787	32855	32699	32857	32685	
935	0	32784	32757	32591	32831	32772	32695	32791	32703	
936	0	32803	32756	32571	32775	32735	32709	32735	32709	
937	0	32791	32796	32693	32623	32751	32759	32743	32595	
938	0	32782	32667	32847	32739	32731	32727	32749	32666	
939	0	32876	32775	32724	32646	32748	32839	32735	32535	
940	0	32851	32850	32759	32748	32671	32823	32871	32647	
941	0	32756	32671	32763	32711	32711	32767	32775	32525	
942	0	32689	32581	32783	32756	32707	32711	32731	32701	
943	0	32713	32711	32807	32865	32763	32812	32815	32535	
944	0	32740	32619	32820	32722	32775	32795	32719	32735	
945	0	32797	32711	32701	32807	32823	32695	32757	32658	
946	0	32789	32805	32957	32563	32821	32725	32801	32725	
947	0	32793	32685	32855	32819	32759	32757	32743	32553	
948	0	32760	32583	32668	32597	32811	32790	32743	32725	
949	0	32701	32687	32815	32751	32759	32751	32775	32677	
950	0	32852	32741	32647	32679	32773	32743	32732	32725	
951	0	32804	32619	32581	32764	32771	32751	32729	32551	
952	0	32848	32629	32527	32605	32762	32759	32791	32677	
953	0	32836	32575	32481	32743	32692	32786	32697	32559	
954	0	32825	32675	32620	32725	32765	32721	32821	32711	
955	0	32662	32639	32743	32731	32751	32743	32783	32543	
956	0	32643	32441	32717	32843	32732	32692	32699	32711	
957	0	32708	32645	32601	32715	32741	32879	32725	32567	
958	0	32795	32647	32679	32878	32812	32805	32807	32662	
959	0	32802	32754	32715	32877	32791	32799	32671	32633	
960	0	32765	32687	32863	32849	32759	32687	32748	32671	
961	0	32807	32559	32871	32787	32633	32759	32765	32724	
962	0	32823	32767	32765	32733	32644	32751	32715	32737	
963	0	32807	32711	32775	32851	32767	32743	32831	32699	
964	0	32746	32775	32819	32647	32865	32785	32771	32589	
965	0	32759	32679	32830	32943	32804	32747	32772	32751	
966	0	32775	32703	32839	32743	32719	32811	32697	32791	
967	0	32741	32645	32847	32775	32729	32790	32815	32739	
968	0	32727	32587	32691	32708	32754	32759	32797	32703	
969	0	32748	32597	32725	32839	32775	32727	32685	32518	
970	0	32868	32639	32567	32607	32735	32725	32807	32681	
971	0	32749	32788	32679	32798	32815	32828	32759	32605	
972	0	32784	32711	32521	32702	32731	32809	32693	32692	
973	0	32801	32615	32602	32813	32727	32763	32782	32567	
974	0	32805	32759	32635	32911	32759	32715	32763	32687	
975	0	32804	32695	32683	32819	32762	32719	32711	32551	
976	0	32754	32817	32751	32871	32831	32685	32766	32690	
977	0	32855	32804	32698	32727	32885	32841	32847	32739	
978	0	32873	32847	32679	32797	32647	32859	32850	32607	
979	0	32762	32615	32594	32553	32711	32807	32690	32701	
980	0	32743	32631	32628	32775	32700	32703	32775	32626	
981	0	32712	32771	32579	32543	32723	32695	32814	32759	
982	0	32692	32611	32815	32663	32668	32823	32756	32625	
983	0	32756	32525	32747	32655	32565	32847	32813	32639	
984	0	32786	32695	32694	32743	32619	32767	32864	32503	
985	0	32799	32487	32742	32645	32663	32701	32725	32665	
986	0	32665	32671	32775	32751	32698	32722	32871	32514	
987	0	32740	32690	32655	32799	32804	32731	32791	32693	
988	0	32742	32595	32679	32781	32753	32829	32727	32583	
989	0	32799	32607	32602	32855	32800	32749	32807	32735	
990	0	32694	32509	32571	32565	32869	32763	32693	32719	
991	0	32674	32709	32753	32903	32903	32734	32691	32711	
992	0	32765	32717	32701	32703	32847	32639	32745	32735	
993	0	32773	32791	32765	32823	32743	32749	32801	32675	
994	0	32745	32647	32755	32594	32839	32823	32795	32687	
995	0	32722	32715	32695	32802	32743	32807	32799	32637	
996	0	32793	32617	32668	32751	32722	32839	32727	32667	
997	0	32701	32459	32771	32871	32711	32798	32870	32705	
998	0	32669	32644	32865	32756	32581	32702	32831	32685	
999	0	32735	32695	32794	32807	32734	32748	32738	32658	
1000	0	32790	32773	32791	32701	32774	32757	32854	32541	
1001	0	32767	32655	32805	32762	32814	32791	32813	32602	
1002	0	32788	32711	32719	32695	32813	32807	32863	32612	
1003	0	32812	32671	32631	32767	32806	32791	32676	32783	
1004	0	32705	32711	32658	32686	32703	32799	32758	32713	
1005	0	32748	32627	32709	32799	32695	32775	32791	32511	
1006	0	32814	32710	32705	32775	32850	32719	32821	32615	
1007	0	32781	32642	32698	32879	32829	32735	32733	32509	
1008	0	32756	32510	32727	32645	32751	32816	32797	32693	
1009	0	32690	32763	32711	32817	32773	32866	32723	32623	
1010	0	32775	32647	32726	32662	32773	32701	32775	32711	
1011	0	32787	32623	32703	32877	32751	32758	32751	32559	
1012	0	32788	32621	32674	32791	32865	32715	32687	32718	
1013	0	32764	32683	32692	32885	32815	32763	32838	32687	
1014	0	32817	32789	32743	32787	32619	32790	32782	32647	
1015	0	32807	32615	32573	32839	32703	32773	32741	32713	
1016	0	32788	32703	32665	32725	32754	32723	32675	32647	
1017	0	32767	32690	32671	32775	32721	32759	32775	32787	
1018	0	32841	32539	32716	32703	32679	32677	32755	32615	
1019	0	32850	32675	32745	32685	32771	32735	32671	32683	
1020	0	32780	32587	32707	32677	32871	32839	32855	32590	
1021	0	32761	32669	32646	32805	32773	32789	32743	32710	
1022	0	32789	32567	32594	32871	32807	32738	32753	32719	
1023	0	32756	32647	32813	32647	32781	32750	32709	32695	
1024	0	32784	32583	32861	32844	32719	32719	32811	32631	
1025	0	32769	32751	32871	32631	32775	32739	32795	32482	
1026	0	32780	32655	32727	32767	32803	32739	32797	32676	
1027	0	32815	32769	32567	32493	32690	32715	32629	32732	
1028	0	32775	32658	32647	32909	32681	32687	32797	32663	
1029	0	32687	32775	32895	32811	32669	32749	32775	32732	
1030	0	32655	32733	32797	32822	32559	32763	32725	32645	
1031	0	32782	32773	32613	32724	32767	32789	32736	32662	
1032	0	32834	32655	32596	32847	32861	32739	32775	32551	
1033	0	32798	32525	32583	32745	32775	32759	32736	32751	
1034	0	32727	32591	32515	32761	32773	32759	32773	32647	
1035	0	32740	32463	32555	32541	32765	32711	32738	32751	
1036	0	32748	32627	32673	32766	32873	32707	32783	32743	
1037	0	32725	32484	32791	32671	32869	32707	32739	32589	
1038	0	32790	32705	32869	32787	32735	32775	32835	32755	
1039	0	32764	32749	32751	32615	32879	32790	32751	32635	
1040	0	32769	32791	32535	32847	32749	32753	32715	32719	
1041	0	32805	32647	32647	32631	32662	32693	32847	32743	
1042	0	32696	32567	32819	32807	32663	32745	32819	32725	
1043	0	32702	32667	32806	32630	32669	32695	32755	32647	
1044	0	32717	32549	32755	32701	32735	32756	32823	32539	
1045	0	32673	32673	32863	32674	32745	32807	32698	32670	
1046	0	32775	32563	32895	32623	32819	32719	32639	32527	
1047	0	32742	32734	32890	32747	32741	32751	32786	32668	
1048	0	32737	32663	32671	32692	32787	32737	32758	32455	
1049	0	32691	32515	32700	32887	32793	32775	32713	32645	
1050	0	32757	32742	32633	32831	32807	32775	32863	32543	
1051	0	32769	32799	32695	32801	32670	32741	32739	32693	
1052	0	32769	32666	32647	32775	32639	32727	32843	32549	
1053	0	32818	32749	32732	32597	32629	32745	32765	32685	
1054	0	32784	32701	32764	32684	32615	32809	32807	32636	
1055	0	32739	32719	32727	32703	32751	32791	32787	32727	
1056	0	32738	32615	32591	32631	32661	32775	32738	32599	
1057	0	32835	32547	32647	32765	32667	32769	32775	32686	
1058	0	32793	32717	32769	32716	32635	32797	32738	32641	
1059	0	32812	32709	32823	32741	32679	32724	32790	32783	
1060	0	32765	32819	32717	32538	32621	32687	32767	32583	
1061	0	32743	32639	32647	32832	32727	32767	32686	32695	
1062	0	32807	32720	32583	32687	32831	32794	32815	32583	
1063	0	32854	32671	32643	32773	32841	32823	32762	32705	
1064	0	32784	32571	32775	32698	32719	32859	32748	32726	
1065	0	32751	32655	32775	32743	32662	32804	32813	32606	
1066	0	32740	32583	32751	32767	32735	32783	32847	32647	
1067	0	32714	32711	32647	32699	32831	32748	32759	32659	
1068	0	32717	32527	32708	32751	32789	32700	32719	32719	
1069	0	32673	32639	32743	32679	32647	32725	32710	32694	
1070	0	32732	32669	32721	32871	32685	32751	32739	32591	
1071	0	32766	32766	32663	32549	32739	32757	32727	32735	
1072	0	32853	32823	32647	32826	32839	32762	32706	32555	
1073	0	32795	32822	32643	32732	32823	32797	32823	32721	
1074	0	32745	32581	32645	32885	32847	32789	32807	32710	
1075	0	32793	32647	32671	32679	32797	32749	32735	32711	
1076	0	32807	32621	32673	32859	32807	32790	32775	32585	
1077	0	32799	32727	32667	32761	32771	32879	32713	32625	
1078	0	32797	32661	32727	32795	32790	32827	32871	32527	
1079	0	32684	32717	32690	32743	32871	32708	32797	32698	
1080	0	32767	32607	32678	32727	32791	32711	32749	32554	
1081	0	32749	32470	32807	32697	32773	32780	32807	32709	
1082	0	32643	32571	32775	32723	32831	32807	32775	32738	
1083	0	32700	32558	32631	32445	32732	32871	32799	32576	
1084	0	32791	32663	32747	32703	32899	32791	32807	32646	
1085	0	32786	32719	32711	32678	32706	32818	32727	32726	
1086	0	32775	32591	32735	32748	32661	32811	32881	32749	
1087	0	32729	32723	32674	32711	32661	32755	32803	32759	
1088	0	32775	32587	32709	32645	32833	32783	32669	32591	
1089	0	32796	32721	32775	32795	32805	32754	32738	32659	
1090	0	32829	32637	32807	32607	32738	32732	32873	32615	
1091	0	32758	32711	32799	32885	32733	32723	32775	32724	
1092	0	32853	32717	32570	32831	32741	32767	32771	32759	
1093	0	32754	32751	32631	32893	32757	32810	32707	32655	
1094	0	32682	32567	32659	32725	32739	32809	32748	32764	
1095	0	32784	32644	32695	32791	32698	32711	32709	32758	
1096	0	32814	32740	32641	32751	32811	32647	32751	32733	
1097	0	32796	32775	32679	32805	32849	32703	32711	32591	
1098	0	32780	32595	32645	32831	32823	32783	32703	32679	
1099	0	32824	32719	32709	32829	32771	32839	32725	32525	
1100	0	32782	32743	32673	32736	32775	32799	32799	32679	
1101	0	32860	32647	32685	32839	32836	32756	32821	32563	
1102	0	32799	32628	32629	32735	32679	32795	32753	32707	
1103	0	32721	32495	32751	32620	32763	32791	32723	32647	
1104	0	32751	32603	32763	32731	32831	32687	32775	32639	
1105	0	32830	32679	32709	32647	32735	32789	32721	32703	
1106	0	32766	32775	32692	32835	32743	32789	32717	32671	
1107	0	32807	32711	32791	32815	32743	32788	32809	32605	
1108	0	32796	32610	32685	32767	32763	32759	32754	32514	
1109	0	32751	32693	32807	32679	32747	32756	32735	32694	
1110	0	32676	32606	32852	32835	32798	32717	32724	32799	
1111	0	32647	32583	32903	32861	32769	32755	32719	32567	
1112	0	32759	32567	32763	32885	32671	32795	32786	32707	
1113	0	32708	32771	32631	32766	32685	32814	32790	32567	
1114	0	32790	32771	32575	32775	32631	32759	32721	32667	
1115	0	32781	32489	32623	32815	32775	32767	32879	32735	
1116	0	32736	32615	32660	32668	32863	32783	32791	32535	
1117	0	32805	32579	32700	32757	32807	32827	32823	32727	
1118	0	32775	32684	32599	32607	32835	32792	32687	32647	
1119	0	32793	32707	32647	32861	32787	32711	32671	32747	
1120	0	32834	32647	32821	32742	32847	32727	32692	32833	
1121	0	32754	32570	32685	32683	32748	32695	32791	32831	
1122	0	32775	32571	32717	32759	32636	32708	32647	32783	
1123	0	32728	32695	32801	32562	32812	32743	32749	32605	
1124	0	32765	32705	32679	32698	32783	32755	32819	32716	
1125	0	32831	32835	32662	32559	32789	32767	32807	32567	
1126	0	32760	32615	32719	32842	32773	32765	32741	32677	
1127	0	32869	32591	32729	32747	32747	32791	32775	32831	
1128	0	32793	32631	32661	32751	32783	32725	32749	32695	
1129	0	32751	32583	32762	32767	32810	32742	32775	32709	
1130	0	32730	32711	32811	32784	32875	32727	32743	32556	
1131	0	32647	32751	32775	32870	32823	32806	32823	32615	
1132	0	32666	32499	32694	32705	32773	32846	32731	32602	
1133	0	32679	32699	32803	32817	32623	32850	32685	32595	
1134	0	32716	32639	32775	32711	32600	32799	32698	32687	
1135	0	32791	32639	32687	32663	32839	32729	32743	32623	
1136	0	32837	32521	32711	32727	32861	32775	32758	32687	
1137	0	32768	32673	32594	32733	32813	32733	32706	32658	
1138	0	32790	32740	32589	32668	32775	32735	32775	32666	
1139	0	32807	32567	32631	32647	32831	32807	32803	32723	
1140	0	32804	32735	32627	32749	32836	32791	32739	32703	
1141	0	32826	32655	32607	32619	32903	32765	32740	32731	
1142	0	32804	32813	32663	32791	32812	32789	32783	32703	
1143	0	32806	32647	32687	32675	32775	32807	32805	32739	
1144	0	32635	32527	32799	32831	32795	32773	32695	32563	
1145	0	32757	32663	32631	32683	32839	32725	32715	32615	
1146	0	32742	32551	32751	32583	32647	32758	32793	32633	
1147	0	32790	32655	32855	32684	32621	32807	32863	32556	
1148	0	32744	32765	32807	32598	32739	32730	32837	32727	
1149	0	32693	32722	32877	32773	32811	32775	32851	32669	
1150	0	32726	32773	32655	32767	32731	32823	32687	32525	
1151	0	32806	32671	32487	32647	32759	32745	32823	32661	
1152	0	32719	32548	32551	32807	32743	32711	32743	32564	
1153	0	32733	32789	32706	32809	32723	32738	32681	32641	
1154	0	32804	32695	32759	32743	32847	32639	32713	32527	
1155	0	32773	32710	32773	32571	32807	32815	32787	32663	
1156	0	32738	32652	32775	32679	32725	32783	32799	32703	
1157	0	32713	32741	32687	32772	32631	32775	32850	32703	
1158	0	32821	32775	32767	32899	32621	32811	32831	32743	
1159	0	32808	32609	32803	32743	32683	32775	32669	32663	
1160	0	32797	32631	32747	32929	32687	32767	32735	32635	
1161	0	32857	32588	32558	32687	32694	32815	32825	32609	
1162	0	32799	32739	32557	32882	32707	32742	32719	32775	
1163	0	32822	32767	32668	32741	32764	32786	32743	32645	
1164	0	32796	32642	32647	32871	32825	32721	32767	32729	
1165	0	32796	32693	32839	32698	32796	32709	32789	32697	
1166	0	32775	32502	32757	32911	32855	32732	32740	32690	
1167	0	32758	32690	32751	32813	32793	32790	32827	32775	
1168	0	32805	32691	32713	32879	32747	32811	32730	32667	
1169	0	32765	32565	32661	32755	32783	32739	32643	32684	
1170	0	32748	32599	32636	32660	32823	32807	32775	32514	
1171	0	32804	32611	32823	32807	32615	32823	32775	32687	
1172	0	32725	32599	32767	32749	32746	32711	32751	32627	
1173	0	32671	32535	32855	32807	32738	32695	32731	32610	
1174	0	32716	32727	32686	32703	32791	32703	32885	32669	
1175	0	32781	32719	32559	32710	32775	32719	32791	32591	
1176	0	32813	32614	32668	32647	32827	32775	32727	32713	
1177	0	32751	32749	32677	32623	32811	32863	32767	32724	
1178	0	32733	32659	32709	32695	32753	32765	32846	32591	
1179	0	32781	32738	32543	32647	32796	32769	32767	32567	
1180	0	32722	32599	32690	32583	32827	32765	32831	32717	
1181	0	32783	32679	32671	32694	32761	32805	32771	32724	
1182	0	32775	32666	32773	32631	32789	32697	32647	32749	
1183	0	32783	32803	32783	32841	32845	32813	32773	32742	
1184	0	32823	32743	32677	32711	32865	32681	32735	32655	
1185	0	32718	32559	32681	32775	32839	32737	32763	32694	
1186	0	32839	32791	32655	32642	32807	32807	32819	32541	
1187	0	32821	32687	32607	32854	32732	32839	32861	32775	
1188	0	32756	32714	32755	32695	32639	32863	32786	32751	
1189	0	32735	32621	32775	32941	32829	32851	32742	32605	
1190	0	32785	32695	32754	32765	32765	32857	32738	32708	
1191	0	32679	32663	32563	32822	32740	32757	32801	32693	
1192	0	32714	32495	32585	32701	32717	32749	32755	32679	
1193	0	32838	32721	32607	32855	32727	32787	32695	32685	
1194	0	32743	32717	32639	32587	32743	32822	32793	32679	
1195	0	32735	32743	32829	32802	32756	32803	32749	32743	
1196	0	32647	32551	32779	32558	32727	32759	32663	32731	
1197	0	32742	32479	32771	32733	32753	32734	32767	32765	
1198	0	32733	32719	32703	32605	32739	32717	32755	32694	
1199	0	32727	32755	32797	32887	32804	32765	32647	32697	
1200	0	32742	32591	32631	32694	32802	32811	32827	32539	
1201	0	32735	32687	32663	32789	32607	32789	32751	32725	
1202	0	32833	32657	32799	32626	32755	32784	32775	32699	
1203	0	32843	32637	32829	32893	32719	32787	32853	32834	
1204	0	32791	32695	32781	32635	32773	32695	32783	32797	
1205	0	32868	32575	32837	32804	32775	32693	32850	32559	
1206	0	32809	32691	32729	32698	32791	32749	32773	32699	
1207	0	32792	32639	32698	32857	32719	32775	32767	32683	
1208	0	32773	32677	32809	32697	32794	32731	32735	32788	
1209	0	32751	32523	32711	32703	32826	32762	32823	32732	
1210	0	32772	32759	32645	32775	32693	32750	32751	32587	
1211	0	32729	32655	32583	32679	32599	32873	32724	32695	
1212	0	32674	32645	32590	32812	32685	32735	32845	32663	
1213	0	32660	32634	32691	32676	32775	32687	32765	32739	
1214	0	32743	32739	32756	32743	32843	32749	32636	32670	
1215	0	32764	32645	32762	32499	32810	32751	32755	32485	
1216	0	32783	32751	32855	32811	32887	32788	32775	32667	
1217	0	32701	32660	32653	32535	32829	32802	32834	32647	
1218	0	32733	32699	32646	32871	32620	32782	32698	32641	
1219	0	32766	32749	32790	32887	32647	32827	32797	32683	
1220	0	32796	32570	32615	32923	32669	32757	32829	32699	
1221	0	32791	32559	32698	32754	32869	32742	32731	32685	
1222	0	32692	32487	32677	32798	32839	32663	32775	32623	
1223	0	32742	32627	32727	32861	32805	32690	32749	32747	
1224	0	32761	32593	32599	32639	32791	32815	32727	32765	
1225	0	32784	32743	32663	32767	32851	32799	32783	32751	
1226	0	32708	32711	32596	32811	32833	32807	32833	32547	
1227	0	32795	32849	32582	32863	32663	32805	32749	32685	
1228	0	32754	32623	32582	32809	32639	32789	32701	32567	
1229	0	32776	32519	32711	32822	32676	32789	32719	32726	
1230	0	32839	32662	32711	32933	32738	32749	32727	32553	
1231	0	32727	32621	32771	32887	32719	32788	32775	32695	
1232	0	32717	32687	32775	32879	32775	32852	32742	32630	
1233	0	32716	32641	32705	32711	32719	32867	32815	32675	
1234	0	32749	32687	32639	32720	32859	32775	32775	32647	
1235	0	32831	32644	32555	32716	32727	32719	32903	32551	
1236	0	32884	32803	32599	32605	32793	32667	32735	32689	
1237	0	32833	32617	32705	32661	32826	32754	32805	32535	
1238	0	32758	32470	32615	32501	32717	32743	32773	32659	
1239	0	32838	32695	32669	32605	32789	32763	32796	32519	
1240	0	32817	32679	32735	32423	32813	32750	32771	32757	
1241	0	32751	32623	32671	32683	32837	32703	32773	32749	
1242	0	32832	32735	32679	32535	32637	32743	32791	32683	
1243	0	32797	32610	32567	32799	32669	32735	32817	32689	
1244	0	32754	32647	32559	32499	32740	32799	32775	32503	
1245	0	32794	32807	32517	32858	32811	32849	32669	32687	
1246	0	32640	32731	32807	32822	32698	32870	32715	32706	
1247	0	32698	32767	32851	32927	32783	32799	32911	32577	
1248	0	32824	32631	32871	32891	32745	32775	32827	32685	
1249	0	32821	32615	32936	32934	32783	32743	32725	32666	
1250	0	32747	32765	32975	32679	32861	32694	32797	32787	
1251	0	32811	32721	33028	32847	32804	32735	32796	32591	
1252	0	32841	32599	32885	32622	32753	32741	32715	32717	
1253	0	32823	32687	32775	32775	32711	32775	32725	32671	
1254	0	32836	32547	32911	32627	32813	32756	32859	32595	
1255	0	32775	32767	32812	32806	32781	32807	32833	32647	
1256	0	32718	32662	32751	32762	32743	32836	32795	32477	
1257	0	32751	32659	32717	32671	32671	32743	32821	32603	
1258	0	32796	32682	32852	32595	32679	32683	32814	32573	
1259	0	32791	32561	32639	32703	32823	32749	32733	32765	
1260	0	32767	32692	32658	32727	32837	32754	32643	32749	
1261	0	32743	32847	32758	32637	32726	32765	32731	32588	
1262	0	32825	32729	32685	32701	32789	32770	32735	32847	
1263	0	32829	32687	32711	32455	32842	32740	32741	32855	
1264	0	32782	32713	32647	32829	32823	32775	32647	32695	
1265	0	32758	32564	32569	32943	32837	32719	32621	32745	
1266	0	32737	32679	32628	32899	32903	32621	32753	32677	
1267	0	32741	32579	32711	32775	32789	32751	32807	32695	
1268	0	32727	32711	32659	32875	32711	32679	32774	32667	
1269	0	32655	32663	32685	32925	32623	32741	32751	32668	
1270	0	32605	32685	32711	32735	32807	32820	32843	32679	
1271	0	32578	32615	32623	32823	32791	32855	32767	32636	
1272	0	32640	32383	32505	32773	32854	32838	32695	32695	
1273	0	32639	32532	32539	32871	32767	32799	32835	32735	
1274	0	32705	32503	32605	32807	32727	32860	32775	32596	
1275	0	32686	32647	32647	32847	32639	32775	32767	32623	
1276	0	32721	32501	32691	32543	32743	32711	32819	32549	
1277	0	32806	32647	32762	32663	32799	32711	32770	32654	
1278	0	32846	32578	32762	32467	32788	32749	32725	32709	
1279	0	32846	32823	32604	32679	32667	32793	32731	32738	
1280	0	32789	32807	32701	32753	32645	32775	32815	32699	
1281	0	32799	32839	32759	33131	32713	32751	32765	32527	
1282	0	32824	32679	32647	32935	32711	32739	32790	32694	
1283	0	32775	32463	32663	32925	32647	32765	32807	32583	
1284	0	32745	32623	32703	32615	32687	32759	32739	32674	
1285	0	32742	32587	32805	32785	32823	32735	32843	32479	
1286	0	32758	32674	32775	32655	32811	32775	32806	32727	
1287	0	32819	32711	32739	32711	32850	32767	32788	32551	
1288	0	32832	32927	32727	32437	32793	32748	32775	32717	
1289	0	32812	32727	32785	32644	32775	32769	32731	32803	
1290	0	32736	32487	32813	32541	32807	32775	32659	32789	
1291	0	32861	32685	32719	32703	32733	32868	32789	32647	
1292	0	32743	32583	32678	32679	32671	32789	32720	32695	
1293	0	32654	32471	32711	32715	32687	32784	32783	32530	
1294	0	32739	32727	32607	32799	32683	32743	32731	32685	
1295	0	32745	32687	32663	32756	32684	32703	32745	32647	
1296	0	32760	32775	32711	32825	32798	32807	32785	32711	
1297	0	32754	32711	32695	32787	32763	32720	32788	32729	
1298	0	32825	32644	32797	32708	32695	32743	32759	32570	
1299	0	32841	32759	32753	32807	32685	32751	32794	32683	
1300	0	32822	32583	32699	32983	32727	32677	32663	32551	
1301	0	32767	32636	32543	32831	32699	32703	32787	32675	
1302	0	32682	32543	32513	32955	32791	32767	32773	32613	
1303	0	32613	32684	32603	32829	32739	32775	32722	32731	
1304	0	32570	32471	32579	32939	32806	32762	32767	32655	
1305	0	32602	32637	32415	32850	32837	32711	32700	32747	
1306	0	32732	32535	32436	32943	32847	32687	32719	32715	
1307	0	32892	32699	32564	32711	32775	32733	32771	32767	
1308	0	33002	32765	32751	32839	32755	32752	32677	32773	
1309	0	33155	32879	32763	32567	32677	32807	32735	32551	
1310	0	33093	32869	32937	32747	32631	32733	32858	32683	
1311	0	32903	32820	33030	32588	32807	32741	32743	32615	
1312	0	32775	32727	33177	32603	32749	32810	32717	32687	
1313	0	32725	32823	33337	32433	32653	32825	32694	32647	
1314	0	32700	32595	33294	32587	32708	32671	32831	32607	
1315	0	32593	32583	33150	32398	32815	32708	32759	32751	
1316	0	32681	32529	32851	32719	32815	32755	32708	32639	
1317	0	32676	32501	32601	32625	32863	32722	32827	32674	
1318	0	32749	32567	32511	32719	32865	32719	32795	32543	
1319	0	32790	32545	32287	32783	32898	32735	32702	32641	
1320	0	32844	32647	32381	32685	32838	32731	32819	32591	
1321	0	32804	32571	32503	32894	32690	32743	32854	32711	
1322	0	32755	32751	32646	32759	32771	32783	32668	32751	
1323	0	32721	32685	32703	32892	32727	32791	32740	32775	
1324	0	32740	32615	32883	32839	32669	32734	32759	32715	
1325	0	32714	32647	32884	32951	32749	32708	32839	32645	
1326	0	32638	32647	32863	33111	32789	32731	32717	32569	
1327	0	32690	32754	32892	32706	32775	32703	32855	32711	
1328	0	32727	32641	32852	32721	32807	32807	32775	32639	
1329	0	32746	32550	32676	32694	32820	32847	32788	32707	
1330	0	32756	32707	32525	32685	32871	32775	32822	32518	
1331	0	32788	32637	32547	32767	32854	32795	32754	32535	
1332	0	32647	32503	32511	32647	32743	32759	32862	32710	
1333	0	32698	32667	32565	32738	32671	32748	32719	32807	
1334	0	32708	32621	32597	32828	32751	32760	32775	32711	
1335	0	32783	32679	32525	32623	32767	32791	32783	32671	
1336	0	32845	32634	32663	32600	32858	32807	32661	32727	
1337	0	32861	32634	32730	32562	32845	32794	32775	32471	
1338	0	32925	32643	32747	32645	32799	32709	32759	32729	
1339	0	32828	32526	32723	32487	32701	32757	32705	32619	
1340	0	32795	32719	32761	32711	32623	32799	32795	32723	
1341	0	32647	32631	32867	32487	32743	32826	32743	32559	
1342	0	32685	32457	32903	32747	32804	32724	32854	32623	
1343	0	32701	32743	32916	32863	32789	32691	32879	32516	
1344	0	32751	32775	32759	32835	32727	32671	32743	32647	
1345	0	32740	32607	32813	32843	32647	32815	32850	32591	
1346	0	32861	32655	32682	32862	32642	32791	32743	32671	
1347	0	32775	32601	32463	32953	32747	32759	32681	32596	
1348	0	32767	32822	32508	32838	32719	32751	32731	32695	
1349	0	32689	32695	32567	32967	32687	32791	32707	32556	
1350	0	32735	32692	32559	32631	32663	32843	32831	32705	
1351	0	32767	32726	32647	32886	32751	32812	32747	32613	
1352	0	32773	32743	32725	32803	32783	32770	32695	32718	
1353	0	32786	32799	32551	32887	32813	32751	32745	32751	
1354	0	32786	32761	32679	32687	32775	32687	32820	32725	
1355	0	32825	32615	32716	32783	32741	32743	32751	32763	
1356	0	32819	32771	32742	32566	32803	32799	32734	32743	
1357	0	32742	32663	32797	32835	32823	32788	32814	32551	
1358	0	32701	32546	32743	32845	32815	32787	32724	32687	
1359	0	32740	32686	32717	32819	32775	32655	32687	32583	
1360	0	32733	32743	32715	32820	32740	32748	32803	32683	
1361	0	32719	32486	32701	32783	32717	32817	32821	32503	
1362	0	32713	32723	32615	32887	32698	32789	32831	32607	
1363	0	32772	32751	32607	32629	32727	32690	32815	32604	
1364	0	32737	32557	32663	32935	32821	32756	32743	32695	
1365	0	32807	32663	32735	32630	32796	32789	32773	32789	
1366	0	32825	32635	32791	32815	32775	32801	32711	32709	
1367	0	32804	32663	32783	32645	32847	32687	32855	32733	
1368	0	32745	32666	32797	32791	32823	32679	32807	32825	
1369	0	32764	32627	32889	32631	32890	32725	32645	32821	
1370	0	32796	32811	32903	32799	32887	32615	32647	32787	
1371	0	32842	32828	32845	32551	32845	32679	32583	32919	
1372	0	32887	32761	32703	32783	32817	32719	32525	32823	
1373	0	32895	32819	32724	32675	32891	32663	32613	32847	
1374	0	32983	32690	32498	32709	32842	32700	32715	32679	
1375	0	32983	32787	32372	32548	32764	32692	32722	32747	
1376	0	32924	32587	32461	32833	32855	32739	32701	32887	
1377	0	33173	32679	32503	32591	32887	32647	32647	32703	
1378	0	33053	32641	32511	32751	32791	32782	32647	32759	
1379	0	33004	32717	32481	32590	32689	32833	32755	32519	
1380	0	32949	32571	32644	32811	32859	32807	32791	32658	
1381	0	32871	32707	32821	32639	32887	32775	32845	32615	
1382	0	32978	32599	33001	32695	32789	32725	32751	32743	
1383	0	32984	32759	33011	32594	32717	32743	32771	32769	
1384	0	33149	32717	33055	32527	32689	32773	32751	32647	
1385	0	33138	32605	32839	32575	32795	32788	32633	32668	
1386	0	33092	32583	32735	32599	32801	32878	32835	32509	
1387	0	33098	32427	32551	32397	32868	32871	32723	32607	
1388	0	33036	32468	32399	32485	32879	32831	32703	32503	
1389	0	33031	32457	32358	32604	32935	32795	32742	32679	
1390	0	33140	32391	32399	32631	32945	32859	32725	32619	
1391	0	32989	32508	32417	32495	32997	32747	32660	32701	
1392	0	32919	32450	32461	32695	32957	32819	32703	32687	
1393	0	32980	32469	32347	32607	32918	32775	32743	32637	
1394	0	32858	32339	32357	32647	32919	32852	32708	32730	
1395	0	32699	32019	32263	32594	32843	32877	32763	32578	
1396	0	32666	32199	32404	32795	32829	32745	32699	32714	
1397	0	32569	32237	32399	32543	32807	32723	32631	32551	
1398	0	32541	32173	32443	32621	32767	32799	32871	32671	
1399	0	32493	32287	32561	32615	32574	32841	33027	32489	
1400	0	32582	32525	32591	32807	32516	32902	33138	32287	
1401	0	32647	32505	32595	32743	32415	32917	33269	32183	
1402	0	32604	32559	32607	32991	32477	32878	33263	32253	
1403	0	32590	32339	32727	32903	32483	32879	33231	32173	
1404	0	32431	32335	32679	32967	32493	32879	33357	32255	
1405	0	32332	32191	32759	32879	32413	32935	33273	32167	
1406	0	32251	32351	32757	32917	32315	32918	33203	32172	
1407	0	32124	32490	32919	33017	32271	32911	33287	32279	
1408	0	32114	32501	32956	33095	32327	32879	33191	32090	
1409	0	32115	32551	32975	33045	32429	32727	32998	32347	
1410	0	32002	32509	33085	33135	32499	32743	32974	32439	
1411	0	31973	32763	33170	33029	32503	32740	33005	32415	
1412	0	32092	32699	33117	33063	32447	32743	33035	32475	
1413	0	32075	33017	33111	33119	32415	32775	33006	32343	
1414	0	32114	32983	33285	33303	32455	32775	33012	32539	
1415	0	32254	33171	33229	32959	32571	32751	32967	32645	
1416	0	32356	32941	33317	33095	32468	32742	32847	32599	
1417	0	32500	33177	33271	32975	32518	32727	32775	32851	
1418	0	32608	33170	33234	33103	32597	32593	32606	32867	
1419	0	32575	33053	33295	32887	32775	32545	32420	33127	
1420	0	32660	33221	33220	33007	33011	32643	32339	33189	
1421	0	32735	33187	32980	32935	33012	32581	32215	33187	
1422	0	32647	32943	32861	32869	32971	32551	32511	33141	
1423	0	32689	33037	32855	32838	33023	32567	32407	33117	
1424	0	32568	32839	32800	32687	32989	32647	32317	33089	
1425	0	32461	32967	32852	32885	32918	32647	32455	32987	
1426	0	32704	32987	32621	32603	32967	32711	32431	32915	
1427	0	32827	32851	32469	32745	32999	32666	32537	32955	
1428	0	32913	32829	32530	32511	32943	32679	32559	32929	
1429	0	32844	32791	32581	32679	33007	32727	32507	32892	
1430	0	32918	32855	32510	32749	33022	32647	32513	32951	
1431	0	32948	32743	32573	32503	32879	32681	32519	32791	
1432	0	32966	32647	32402	32663	32941	32620	32598	32887	
1433	0	32980	32853	32546	32415	32962	32775	32477	32867	
1434	0	32969	32705	32509	32681	32895	32743	32575	32975	
1435	0	32967	32599	32539	32547	32855	32726	32575	32983	
1436	0	32974	32788	32519	32759	32901	32673	32615	32903	
1437	0	33020	32790	32559	32647	32854	32714	32775	32806	
1438	0	32951	32503	32518	32711	32871	32775	32687	32871	
1439	0	32861	32683	32551	32797	32828	32731	32702	32719	
1440	0	32893	32644	32695	32666	32751	32718	32737	32829	
1441	0	32849	32479	32631	32839	32843	32721	32632	32667	
1442	0	32799	32582	32562	32661	32820	32756	32805	32767	
1443	0	32925	32500	32629	32796	32837	32764	32767	32647	
1444	0	32953	32663	32870	32719	32775	32787	32813	32675	
1445	0	33084	32647	32831	32577	32677	32820	32772	32463	
1446	0	33110	32519	32807	32639	32671	32817	32687	32589	
1447	0	32937	32603	32719	32554	32687	32886	32833	32558	
1448	0	32830	32676	32593	32583	32644	32787	32807	32647	
1449	0	32778	32429	32687	32447	32760	32796	32837	32509	
1450	0	32797	32615	32709	32706	32836	32775	32805	32474	
1451	0	32823	32543	32743	32855	32839	32775	32813	32479	
1452	0	32781	32452	32705	32511	32753	32754	32821	32679	
1453	0	32807	32647	32721	32631	32847	32815	32827	32677	
1454	0	32796	32621	32719	32723	32796	32791	32855	32501	
1455	0	32807	32647	32567	32647	32715	32756	32807	32637	
1456	0	32799	32455	32503	32759	32756	32735	32847	32503	
1457	0	32862	32588	32559	32556	32733	32825	32815	32607	
1458	0	32866	32607	32468	32749	32773	32817	32842	32661	
1459	0	32847	32783	32543	32775	32831	32811	32838	32615	
1460	0	32828	32775	32619	32925	32804	32775	32793	32659	
1461	0	32769	32732	32783	32790	32851	32751	32755	32514	
1462	0	32743	32596	32759	32847	32804	32783	32876	32609	
1463	0	32757	32551	32855	32606	32793	32791	32695	32495	
1464	0	32685	32707	32762	32775	32859	32789	32827	32631	
1465	0	32733	32679	32715	32663	32647	32749	32831	32562	
1466	0	32711	32431	32795	32763	32533	32759	32846	32677	
1467	0	32740	32563	32692	32922	32636	32810	32807	32723	
1468	0	32793	32561	32631	32711	32642	32775	32813	32698	
1469	0	32731	32775	32669	32802	32643	32807	32773	32683	
1470	0	32834	32676	32591	32671	32615	32775	32751	32751	
1471	0	32826	32543	32575	32762	32694	32796	32783	32643	
1472	0	32850	32749	32633	33010	32765	32817	32783	32675	
1473	0	32807	32738	32557	32595	32725	32812	32724	32698	
1474	0	32754	32435	32605	32784	32764	32771	32758	32718	
1475	0	32766	32609	32738	32477	32847	32737	32694	32647	
1476	0	32812	32769	32715	32620	32805	32791	32772	32661	
1477	0	32781	32599	32615	32631	32830	32787	32831	32631	
1478	0	32813	32740	32543	32667	32819	32695	32903	32599	
1479	0	32738	32674	32559	32742	32717	32804	32818	32691	
1480	0	32712	32531	32755	32524	32677	32815	32739	32519	
1481	0	32721	32647	32791	32767	32738	32723	32823	32647	
1482	0	32768	32541	32731	32663	32759	32706	32821	32615	
1483	0	32762	32675	32789	32730	32763	32743	32765	32743	
1484	0	32717	32527	32861	32575	32747	32733	32815	32787	
1485	0	32815	32629	32933	32829	32751	32787	32815	32679	
1486	0	32753	32691	32823	32719	32751	32829	32759	32764	
1487	0	32713	32570	32734	32719	32668	32791	32787	32723	
1488	0	32717	32677	32643	32759	32692	32725	32786	32751	
1489	0	32822	32529	32611	32823	32793	32679	32725	32683	
1490	0	32775	32757	32535	32724	32725	32787	32789	32804	
1491	0	32771	32658	32690	32876	32825	32719	32799	32655	
1492	0	32749	32670	32694	32895	32871	32731	32700	32655	
1493	0	32804	32698	32715	32855	32783	32795	32785	32663	
1494	0	32789	32551	32667	32789	32769	32787	32769	32719	
1495	0	32791	32646	32647	32811	32730	32747	32723	32577	
1496	0	32764	32679	32675	32715	32796	32775	32829	32679	
1497	0	32786	32751	32547	32831	32807	32775	32741	32562	
1498	0	32817	32742	32722	32546	32667	32763	32719	32709	
1499	0	32769	32543	32657	32749	32727	32743	32879	32543	
1500	0	32756	32735	32719	32830	32743	32695	32775	32581	
1501	0	32812	32699	32835	32558	32799	32748	32755	32509	
1502	0	32775	32765	32807	32702	32739	32848	32865	32643	
1503	0	32660	32571	32775	32492	32703	32795	32807	32538	
1504	0	32708	32540	32743	32683	32663	32769	32647	32647	
1505	0	32766	32633	32791	32539	32647	32743	32749	32615	
1506	0	32707	32655	32919	32727	32655	32775	32855	32639	
1507	0	32686	32708	32821	32765	32658	32875	32762	32483	
1508	0	32710	32647	32756	32899	32647	32831	32853	32637	
1509	0	32797	32647	32567	32881	32700	32815	32797	32455	
1510	0	32807	32511	32532	32743	32815	32783	32822	32703	
1511	0	32838	32671	32529	32845	32847	32671	32723	32669	
1512	0	32821	32735	32563	32549	32759	32775	32683	32767	
1513	0	32761	32620	32713	32852	32629	32759	32775	32647	
1514	0	32827	32638	32679	32669	32683	32787	32628	32739	
1515	0	32669	32607	32723	32883	32647	32747	32703	32683	
1516	0	32751	32591	32715	32815	32756	32769	32695	32824	
1517	0	32859	32595	32631	32732	32775	32775	32802	32725	
1518	0	32756	32585	32775	32877	32663	32729	32725	32698	
1519	0	32789	32745	32772	32742	32679	32709	32735	32566	
1520	0	32847	32717	32827	32833	32615	32715	32743	32748	
1521	0	32775	32619	32862	32741	32647	32839	32828	32547	
1522	0	32734	32587	32747	32903	32679	32793	32789	32686	
1523	0	32745	32505	32731	32725	32639	32759	32731	32493	
1524	0	32751	32695	32734	32762	32660	32747	32801	32599	
1525	0	32727	32615	32743	32499	32663	32755	32755	32524	
1526	0	32693	32634	32727	32703	32699	32841	32799	32615	
1527	0	32795	32700	32815	32749	32703	32775	32795	32679	
1528	0	32846	32732	32714	32853	32838	32751	32789	32725	
1529	0	32813	32839	32681	32805	32878	32791	32729	32705	
1530	0	32750	32708	32786	32927	32775	32775	32753	32519	
1531	0	32698	32503	32714	32759	32783	32787	32775	32659	
1532	0	32663	32535	32711	32867	32678	32727	32823	32590	
1533	0	32793	32595	32578	32843	32775	32719	32711	32741	
1534	0	32735	32791	32639	32903	32802	32669	32823	32775	
1535	0	32756	32715	32719	32709	32838	32791	32754	32532	
1536	0	32837	32660	32700	32758	32793	32790	32719	32671	
1537	0	32775	32783	32635	32713	32609	32847	32693	32642	
1538	0	32759	32637	32725	32548	32802	32687	32756	32797	
1539	0	32832	32685	32647	32599	32759	32708	32788	32739	
1540	0	32769	32602	32831	32567	32782	32740	32759	32687	
1541	0	32781	32807	32775	32565	32727	32820	32867	32775	
1542	0	32775	32839	32808	32559	32791	32867	32823	32797	
1543	0	32773	32745	32839	32470	32791	32725	32715	32647	
1544	0	32729	32794	32695	32758	32626	32773	32767	32557	
1545	0	32719	32775	32711	32968	32839	32818	32723	32733	
1546	0	32762	32727	32714	32813	32756	32737	32739	32701	
1547	0	32775	32733	32737	32773	32833	32690	32709	32549	
1548	0	32715	32751	32695	32729	32766	32813	32782	32647	
1549	0	32711	32727	32661	32771	32723	32746	32735	32775	
1550	0	32783	32747	32668	32839	32717	32775	32823	32795	
1551	0	32830	32715	32625	32833	32833	32775	32826	32765	
1552	0	32802	32559	32727	32807	32831	32767	32795	32666	
1553	0	32736	32671	32701	32647	32845	32751	32727	32624	
1554	0	32692	32647	32661	32832	32805	32730	32701	32719	
1555	0	32745	32534	32679	32717	32681	32743	32749	32747	
1556	0	32775	32742	32740	32839	32679	32831	32717	32571	
1557	0	32786	32727	32756	32831	32610	32743	32841	32722	
1558	0	32785	32594	32793	32647	32687	32749	32821	32543	
1559	0	32756	32761	32801	32749	32721	32823	32749	32601	
1560	0	32768	32719	32775	32723	32763	32731	32764	32581	
1561	0	32687	32551	32726	32871	32615	32829	32825	32759	
1562	0	32721	32582	32756	32661	32596	32758	32721	32698	
1563	0	32703	32532	32670	32729	32595	32759	32795	32693	
1564	0	32722	32759	32638	32647	32679	32834	32783	32505	
1565	0	32743	32631	32575	32737	32664	32775	32807	32687	
1566	0	32718	32542	32623	32767	32581	32766	32751	32614	
1567	0	32720	32749	32678	32831	32789	32799	32701	32769	
1568	0	32775	32667	32695	32799	32715	32735	32757	32771	
1569	0	32753	32540	32673	32687	32827	32818	32775	32749	
1570	0	32773	32677	32706	32775	32871	32819	32677	32765	
1571	0	32682	32635	32749	32738	32839	32757	32771	32679	
1572	0	32731	32722	32733	32811	32839	32743	32826	32683	
1573	0	32767	32687	32733	32735	32807	32737	32759	32559	
1574	0	32751	32708	32800	32851	32854	32723	32885	32711	
1575	0	32775	32599	32749	32767	32743	32737	32775	32751	
1576	0	32708	32429	32663	32871	32775	32754	32661	32745	
1577	0	32799	32663	32684	32557	32718	32827	32809	32765	
1578	0	32815	32711	32619	32764	32703	32762	32868	32717	
1579	0	32769	32559	32666	32660	32765	32695	32758	32726	
1580	0	32823	32627	32695	32852	32735	32740	32775	32743	
1581	0	32838	32575	32721	33004	32756	32759	32801	32803	
1582	0	32811	32751	32671	32949	32687	32772	32663	32583	
1583	0	32758	32788	32731	32933	32735	32730	32759	32687	
1584	0	32775	32601	32707	32853	32881	32647	32770	32663	
1585	0	32759	32679	32729	32935	32771	32695	32823	32677	
1586	0	32761	32595	32677	32667	32703	32845	32854	32570	
1587	0	32718	32757	32823	32799	32713	32799	32675	32706	
1588	0	32789	32671	32947	32703	32756	32743	32755	32663	
1589	0	32711	32513	33045	32667	32711	32783	32813	32701	
1590	0	32745	32785	32747	32557	32860	32817	32703	32533	
1591	0	32711	32647	32615	32647	32827	32861	32707	32660	
1592	0	32724	32741	32739	32925	32823	32741	32764	32587	
1593	0	32783	32539	32828	32687	32861	32807	32791	32682	
1594	0	32822	32717	32577	32759	32887	32798	32781	32570	
1595	0	32783	32679	32562	32419	32791	32765	32737	32661	
1596	0	32801	32739	32660	32527	32803	32796	32708	32574	
1597	0	32759	32679	32587	32386	32775	32781	32815	32764	
1598	0	32836	32500	32549	32590	32742	32743	32797	32771	
1599	0	32819	32707	32724	32486	32695	32693	32759	32727	
1600	0	32858	32706	32799	32711	32701	32759	32797	32641	
1601	0	32850	32523	32743	32703	32694	32855	32787	32685	
1602	0	32782	32791	32757	32726	32669	32791	32775	32578	
1603	0	32736	32655	32863	32722	32691	32749	32775	32701	
1604	0	32740	32559	32823	32804	32676	32717	32765	32671	
1605	0	32751	32738	32731	32954	32759	32747	32732	32775	
1606	0	32749	32677	32788	32735	32791	32757	32762	32603	
1607	0	32756	32635	32754	32903	32759	32775	32775	32695	
1608	0	32767	32685	32751	32775	32695	32759	32812	32523	
1609	0	32720	32634	32794	32895	32679	32743	32709	32705	
1610	0	32727	32767	32715	32821	32810	32807	32859	32545	
1611	0	32761	32639	32730	32813	32716	32775	32804	32625	
1612	0	32782	32591	32641	32897	32745	32692	32711	32495	
1613	0	32836	32791	32559	32800	32695	32759	32730	32739	
1614	0	32806	32751	32623	32902	32738	32810	32703	32525	
1615	0	32775	32595	32687	32612	32791	32756	32767	32717	
1616	0	32751	32742	32607	32817	32759	32743	32782	32662	
1617	0	32780	32711	32565	32628	32846	32767	32739	32717	
1618	0	32783	32583	32587	32821	32837	32878	32797	32671	
1619	0	32771	32860	32694	32735	32832	32775	32706	32697	
1620	0	32763	32659	32671	32686	32804	32749	32735	32733	
1621	0	32703	32701	32555	32748	32689	32797	32719	32572	
1622	0	32775	32731	32579	32549	32699	32740	32759	32711	
1623	0	32810	32655	32443	32695	32722	32721	32813	32567	
1624	0	32774	32683	32561	32821	32699	32775	32671	32703	
1625	0	32833	32631	32599	32738	32823	32767	32757	32735	
1626	0	32865	32663	32783	32877	32823	32692	32739	32795	
1627	0	32789	32661	32711	32819	32831	32739	32867	32630	
1628	0	32672	32493	32785	32807	32749	32839	32765	32499	
1629	0	32727	32661	32723	32815	32773	32727	32805	32701	
1630	0	32734	32675	32823	32691	32819	32742	32847	32588	
1631	0	32743	32685	32847	32813	32836	32748	32735	32718	
1632	0	32796	32634	32703	32617	32719	32791	32823	32562	
1633	0	32804	32567	32634	32815	32742	32789	32807	32647	
1634	0	32756	32775	32679	32693	32833	32775	32751	32601	
1635	0	32775	32692	32679	32775	32831	32829	32711	32642	
1636	0	32775	32551	32706	32903	32799	32775	32655	32613	
1637	0	32820	32749	32611	32571	32875	32790	32791	32763	
1638	0	32863	32647	32607	32659	32863	32707	32705	32695	
1639	0	32796	32575	32701	32603	32833	32789	32790	32671	
1640	0	32780	32764	32831	32661	32759	32753	32679	32701	
1641	0	32743	32634	32859	32855	32790	32761	32787	32686	
1642	0	32671	32581	32807	32615	32738	32717	32729	32790	
1643	0	32681	32663	32706	32805	32703	32822	32735	32745	
1644	0	32677	32643	32743	32754	32691	32835	32875	32723	
1645	0	32699	32545	32742	32855	32707	32761	32803	32719	
1646	0	32743	32595	32695	32847	32735	32709	32791	32612	
1647	0	32703	32570	32628	32663	32669	32707	32786	32751	
1648	0	32740	32527	32711	32755	32647	32805	32751	32854	
1649	0	32756	32607	32775	32647	32615	32799	32747	32685	
1650	0	32745	32655	32647	32783	32645	32757	32665	32749	
1651	0	32773	32758	32675	32687	32644	32815	32822	32515	
1652	0	32735	32711	32706	32844	32699	32759	32841	32621	
1653	0	32698	32575	32631	32865	32797	32774	32719	32580	
1654	0	32825	32743	32455	32854	32813	32716	32759	32658	
1655	0	32804	32695	32703	32826	32839	32643	32775	32559	
1656	0	32812	32775	32645	32671	32830	32669	32719	32727	
1657	0	32818	32711	32663	32707	32717	32767	32843	32569	
1658	0	32732	32743	32756	32692	32803	32839	32927	32655	
1659	0	32701	32655	32599	32599	32823	32870	32822	32679	
1660	0	32692	32819	32699	32756	32685	32798	32757	32479	
1661	0	32692	32703	32839	32525	32621	32821	32849	32658	
1662	0	32713	32607	32771	32767	32647	32794	32805	32541	
1663	0	32767	32697	32698	32571	32647	32751	32741	32731	
1664	0	32921	32555	32795	32703	32623	32767	32767	32556	
1665	0	32742	32755	32748	32692	32602	32714	32815	32705	
1666	0	32717	32599	32685	32805	32807	32759	32754	32615	
1667	0	32769	32801	32691	32575	32847	32733	32775	32775	
1668	0	32719	32740	32865	32894	32754	32731	32783	32771	
1669	0	32780	32839	32821	32820	32726	32731	32763	32543	
1670	0	32727	32601	32745	32919	32839	32711	32699	32729	
1671	0	32758	32593	32782	32759	32887	32817	32775	32517	
1672	0	32782	32514	32695	32747	32871	32809	32804	32673	
1673	0	32781	32647	32631	32519	32894	32759	32701	32576	
1674	0	32716	32711	32525	32580	32735	32709	32773	32599	
1675	0	32732	32743	32638	32535	32654	32720	32786	32533	
1676	0	32775	32501	32629	32861	32647	32789	32652	32676	
1677	0	32765	32671	32577	32927	32695	32665	32807	32636	
1678	0	32800	32677	32690	32731	32603	32733	32775	32682	
1679	0	32790	32721	32775	32966	32727	32722	32748	32583	
1680	0	32775	32621	32759	32791	32749	32723	32803	32605	
1681	0	32809	32818	32830	32871	32791	32799	32717	32527	
1682	0	32729	32615	32853	32661	32708	32775	32805	32711	
1683	0	32731	32519	32738	32679	32762	32735	32775	32543	
1684	0	32763	32685	32567	32575	32903	32743	32735	32639	
1685	0	32796	32727	32635	32863	32846	32775	32799	32594	
1686	0	32727	32557	32613	32765	32877	32782	32828	32693	
1687	0	32704	32647	32735	32820	32775	32791	32729	32619	
1688	0	32721	32595	32693	32859	32751	32766	32765	32683	
1689	0	32742	32751	32685	32723	32775	32815	32693	32711	
1690	0	32768	32659	32663	32751	32769	32739	32785	32615	
1691	0	32719	32647	32621	32658	32801	32751	32703	32647	
1692	0	32761	32531	32607	32751	32867	32751	32791	32643	
1693	0	32711	32797	32745	32839	32853	32737	32663	32786	
1694	0	32757	32690	32591	32607	32799	32698	32770	32671	
1695	0	32799	32575	32763	32818	32802	32743	32807	32669	
1696	0	32836	32660	32647	32703	32735	32826	32839	32519	
1697	0	32798	32557	32647	32855	32711	32809	32751	32709	
1698	0	32753	32743	32668	32773	32692	32828	32759	32615	
1699	0	32830	32715	32751	32719	32763	32775	32824	32703	
1700	0	32780	32583	32829	32793	32674	32765	32743	32663	
1701	0	32798	32647	32694	32835	32786	32733	32863	32783	
1702	0	32846	32571	32505	32719	32838	32724	32808	32767	
1703	0	32832	32743	32677	32751	32802	32831	32746	32663	
1704	0	32745	32678	32772	32603	32818	32767	32810	32719	
1705	0	32719	32549	32975	32973	32747	32713	32799	32674	
1706	0	32727	32639	32869	32694	32669	32769	32795	32679	
1707	0	32710	32607	32845	32835	32628	32719	32764	32581	
1708	0	32691	32733	32831	32671	32677	32725	32751	32770	
1709	0	32804	32719	32775	32925	32647	32829	32722	32511	
1710	0	32738	32527	32799	32647	32643	32739	32799	32647	
1711	0	32796	32659	32669	32783	32663	32676	32773	32557	
1712	0	32759	32707	32655	32703	32692	32715	32742	32677	
1713	0	32751	32591	32684	32773	32684	32788	32868	32607	
1714	0	32823	32647	32623	32559	32661	32823	32801	32711	
1715	0	32805	32535	32690	32676	32630	32806	32711	32631	
1716	0	32714	32655	32692	32623	32791	32727	32719	32743	
1717	0	32804	32705	32686	32758	32767	32727	32855	32621	
1718	0	32745	32767	32661	32551	32783	32757	32783	32726	
1719	0	32742	32631	32637	32790	32694	32773	32834	32677	
1720	0	32783	32581	32701	32647	32743	32835	32847	32767	
1721	0	32727	32695	32679	32767	32623	32863	32775	32719	
1722	0	32715	32725	32695	32641	32663	32791	32715	32643	
1723	0	32695	32773	32879	32831	32769	32724	32807	32655	
1724	0	32732	32638	32789	32859	32683	32773	32871	32623	
1725	0	32726	32644	32815	32775	32676	32868	32811	32693	
1726	0	32688	32766	32727	32775	32671	32787	32804	32647	
1727	0	32693	32660	32713	32583	32677	32700	32762	32694	
1728	0	32671	32501	32699	32730	32775	32757	32797	32769	
1729	0	32732	32679	32727	32887	32827	32821	32719	32501	
1730	0	32715	32623	32709	32591	32748	32807	32797	32695	
1731	0	32668	32663	32645	32787	32692	32799	32751	32695	
1732	0	32712	32647	32654	32630	32690	32773	32711	32607	
1733	0	32740	32562	32788	32903	32743	32726	32719	32660	
1734	0	32742	32591	32767	32679	32811	32751	32742	32575	
1735	0	32765	32461	32690	32919	32758	32759	32743	32727	
1736	0	32745	32745	32695	32730	32767	32815	32693	32707	
1737	0	32727	32781	32630	32797	32799	32723	32819	32715	
1738	0	32802	32647	32674	32567	32775	32747	32764	32739	
1739	0	32784	32647	32717	32799	32775	32707	32726	32567	
1740	0	32820	32623	32773	32715	32751	32807	32775	32687	
1741	0	32804	32692	32775	32903	32724	32716	32834	32795	
1742	0	32802	32647	32747	32622	32789	32791	32769	32660	
1743	0	32832	32807	32607	32748	32887	32759	32711	32711	
1744	0	32783	32771	32590	32641	32887	32735	32797	32535	
1745	0	32764	32687	32666	32887	32759	32775	32759	32662	
1746	0	32738	32563	32687	32799	32692	32759	32775	32767	
1747	0	32794	32669	32727	32863	32759	32742	32775	32583	
1748	0	32839	32580	32703	32839	32789	32724	32773	32693	
1749	0	32807	32695	32615	32892	32861	32773	32762	32751	
1750	0	32796	32621	32839	32753	32759	32665	32852	32775	
1751	0	32749	32687	32715	32727	32727	32737	32743	32807	
1752	0	32705	32695	32631	32671	32662	32828	32730	32659	
1753	0	32751	32804	32745	32741	32807	32882	32791	32599	
1754	0	32809	32759	32565	32743	32751	32827	32734	32633	
1755	0	32767	32834	32709	32769	32630	32811	32719	32667	
1756	0	32820	32676	32799	32823	32676	32759	32673	32663	
1757	0	32820	32586	32759	32831	32642	32739	32787	32593	
1758	0	32798	32692	32758	32743	32675	32690	32775	32683	
1759	0	32783	32662	32647	32863	32775	32713	32637	32519	
1760	0	32793	32725	32627	32691	32757	32745	32804	32647	
1761	0	32787	32683	32591	32743	32847	32735	32743	32661	
1762	0	32788	32615	32750	32487	32903	32771	32730	32735	
1763	0	32806	32661	32719	32852	32833	32699	32726	32731	
1764	0	32806	32607	32749	32807	32687	32743	32717	32635	
1765	0	32711	32687	32647	32843	32783	32767	32900	32639	
1766	0	32740	32597	32647	32667	32767	32725	32679	32629	
1767	0	32718	32607	32838	32829	32791	32713	32775	32500	
1768	0	32787	32508	32658	32834	32807	32772	32769	32711	
1769	0	32693	32647	32707	32895	32695	32853	32699	32607	
1770	0	32773	32679	32687	32742	32699	32815	32775	32647	
1771	0	32741	32709	32623	32819	32683	32743	32742	32799	
1772	0	32754	32692	32695	32559	32762	32698	32692	32765	
1773	0	32759	32516	32727	32819	32687	32782	32845	32679	
1774	0	32780	32599	32691	32711	32644	32743	32815	32735	
1775	0	32783	32687	32676	32806	32711	32736	32739	32751	
1776	0	32801	32823	32578	32830	32775	32751	32815	32721	
1777	0	32825	32647	32742	32699	32843	32787	32747	32676	
1778	0	32807	32723	32676	32738	32805	32799	32773	32643	
1779	0	32804	32647	32820	32827	32722	32751	32702	32647	
1780	0	32836	32638	32763	32613	32803	32737	32759	32647	
1781	0	32734	32601	32710	32703	32783	32727	32756	32507	
1782	0	32694	32477	32782	32755	32749	32835	32647	32677	
1783	0	32738	32775	32837	32820	32807	32731	32775	32531	
1784	0	32732	32540	32759	32775	32855	32791	32795	32738	
1785	0	32695	32709	32759	32830	32719	32737	32806	32695	
1786	0	32716	32535	32791	32707	32615	32803	32717	32518	
1787	0	32673	32663	32743	32765	32679	32727	32814	32757	
1788	0	32763	32575	32692	32802	32677	32741	32771	32518	
1789	0	32759	32683	32655	32695	32767	32767	32645	32775	
1790	0	32696	32679	32604	32759	32759	32795	32775	32666	
1791	0	32761	32725	32583	32735	32893	32775	32813	32775	
1792	0	32762	32587	32607	32751	32813	32809	32723	32775	
1793	0	32775	32631	32675	32759	32821	32749	32793	32702	
1794	0	32756	32711	32679	32607	32771	32719	32867	32627	
1795	0	32743	32701	32719	32847	32725	32735	32841	32607	
1796	0	32701	32815	32695	32585	32775	32743	32735	32684	
1797	0	32748	32717	32631	32791	32821	32775	32797	32775	
1798	0	32808	32774	32687	32583	32862	32755	32748	32703	
1799	0	32762	32735	32711	32787	32807	32775	32775	32691	
1800	0	32757	32767	32735	32605	32827	32805	32775	32551	
1801	0	32762	32743	32735	32957	32727	32773	32726	32647	
1802	0	32844	32763	32775	32492	32703	32736	32823	32557	
1803	0	32814	32699	32812	32739	32687	32821	32759	32700	
1804	0	32802	32495	32695	32503	32663	32815	32721	32591	
1805	0	32796	32749	32621	32759	32738	32706	32761	32685	
1806	0	32819	32637	32647	32645	32663	32839	32741	32675	
1807	0	32801	32662	32639	32807	32727	32759	32642	32639	
1808	0	32775	32603	32711	32643	32807	32759	32761	32749	
1809	0	32748	32735	32637	32948	32919	32775	32803	32647	
1810	0	32805	32668	32647	32836	32885	32805	32703	32710	
1811	0	32783	32583	32679	32833	32855	32804	32747	32527	
1812	0	32749	32596	32671	32671	32791	32726	32766	32679	
1813	0	32823	32503	32590	32791	32756	32789	32775	32658	
1814	0	32790	32701	32684	32801	32699	32755	32839	32731	
1815	0	32799	32743	32757	32883	32647	32742	32740	32743	
1816	0	32775	32797	32719	32639	32799	32715	32755	32756	
1817	0	32799	32741	32743	32767	32791	32679	32727	32690	
1818	0	32773	32749	32723	32839	32787	32695	32771	32534	
1819	0	32761	32671	32638	32775	32721	32747	32807	32655	
1820	0	32734	32775	32700	32823	32709	32846	32797	32597	
1821	0	32736	32695	32813	32709	32678	32818	32773	32763	
1822	0	32740	32511	32772	32700	32639	32799	32679	32703	
1823	0	32800	32647	32767	32562	32660	32783	32731	32659	
1824	0	32720	32617	32702	32743	32655	32739	32759	32719	
1825	0	32758	32727	32775	32731	32748	32820	32753	32707	
1826	0	32749	32671	32823	32743	32831	32798	32738	32623	
1827	0	32743	32615	32727	32703	32833	32723	32812	32559	
1828	0	32715	32660	32677	32692	32767	32751	32806	32737	
1829	0	32699	32647	32660	32667	32847	32791	32731	32559	
1830	0	32671	32721	32894	32855	32775	32783	32807	32727	
1831	0	32775	32647	32671	32724	32749	32869	32828	32542	
1832	0	32815	32647	32647	32795	32806	32767	32798	32612	
1833	0	32814	32795	32766	32775	32727	32733	32826	32563	
1834	0	32845	32627	32621	32739	32733	32703	32787	32697	
1835	0	32796	32511	32615	32549	32797	32747	32749	32742	
1836	0	32796	32661	32663	32703	32827	32703	32823	32694	
1837	0	32800	32627	32697	32667	32885	32811	32787	32775	
1838	0	32828	32731	32755	32737	32870	32799	32693	32631	
1839	0	32823	32666	32670	32615	32851	32727	32815	32775	
1840	0	32810	32786	32719	32753	32742	32732	32751	32607	
1841	0	32758	32631	32807	32655	32769	32711	32668	32751	
1842	0	32742	32525	32721	32722	32673	32695	32730	32572	
1843	0	32765	32742	32645	32647	32639	32839	32791	32707	
1844	0	32758	32692	32646	32757	32663	32771	32703	32551	
1845	0	32790	32594	32667	32707	32599	32780	32883	32681	
1846	0	32751	32734	32681	32790	32591	32719	32775	32519	
1847	0	32737	32694	32741	32714	32623	32737	32749	32657	
1848	0	32679	32815	32711	32873	32715	32775	32775	32569	
1849	0	32693	32707	32763	32727	32841	32828	32729	32775	
1850	0	32631	32535	32819	32775	32788	32834	32687	32663	
1851	0	32695	32685	32627	32597	32754	32807	32775	32612	
1852	0	32692	32557	32589	32765	32743	32741	32831	32727	
1853	0	32729	32683	32655	32627	32807	32706	32679	32701	
1854	0	32775	32596	32647	32775	32740	32729	32727	32675	
1855	0	32735	32718	32703	32647	32801	32821	32787	32581	
1856	0	32698	32723	32699	32766	32811	32819	32719	32769	
1857	0	32753	32467	32687	32661	32773	32747	32759	32714	
1858	0	32805	32679	32703	32681	32751	32667	32701	32839	
1859	0	32800	32797	32679	32807	32721	32834	32735	32773	
1860	0	32786	32551	32777	32723	32815	32791	32835	32783	
1861	0	32775	32767	32773	32843	32807	32735	32823	32725	
1862	0	32802	32710	32821	32644	32836	32741	32701	32699	
1863	0	32763	32835	32811	32823	32759	32739	32773	32595	
1864	0	32747	32662	32701	32647	32803	32819	32718	32732	
1865	0	32754	32571	32758	32793	32735	32839	32687	32638	
1866	0	32745	32683	32823	32607	32683	32817	32854	32647	
1867	0	32743	32748	32727	32743	32789	32751	32815	32725	
1868	0	32775	32554	32698	32823	32733	32717	32725	32738	
1869	0	32701	32665	32715	32834	32693	32805	32738	32691	
1870	0	32780	32599	32603	32871	32701	32813	32765	32731	
1871	0	32767	32671	32727	32687	32830	32749	32727	32619	
1872	0	32748	32655	32711	32817	32823	32655	32771	32692	
1873	0	32738	32759	32733	32789	32849	32727	32695	32718	
1874	0	32805	32685	32703	32916	32819	32775	32807	32713	
1875	0	32815	32525	32646	32823	32854	32763	32819	32669	
1876	0	32805	32711	32543	32831	32826	32719	32733	32748	
1877	0	32801	32715	32599	32531	32823	32699	32733	32735	
1878	0	32756	32636	32687	32764	32775	32788	32738	32743	
1879	0	32735	32635	32794	32607	32833	32821	32865	32637	
1880	0	32766	32535	32642	32759	32773	32818	32765	32699	
1881	0	32836	32723	32660	32557	32727	32737	32719	32599	
1882	0	32800	32591	32715	32863	32691	32785	32759	32742	
1883	0	32863	32756	32669	32698	32799	32683	32803	32679	
1884	0	32806	32663	32809	32823	32739	32753	32803	32549	
1885	0	32613	32628	32803	32733	32749	32783	32787	32687	
1886	0	32703	32555	32743	32807	32773	32762	32717	32532	
1887	0	32728	32711	32783	32919	32757	32799	32743	32725	
1888	0	32745	32587	32813	32611	32786	32799	32721	32693	
1889	0	32701	32491	32775	32767	32775	32759	32839	32743	
1890	0	32730	32617	32637	32509	32763	32805	32749	32619	
1891	0	32725	32663	32647	32692	32820	32818	32791	32739	
1892	0	32765	32563	32669	32607	32769	32791	32797	32695	
1893	0	32772	32646	32605	32675	32659	32765	32759	32727	
1894	0	32733	32773	32695	32623	32699	32713	32827	32757	
1895	0	32752	32535	32719	32671	32711	32711	32697	32735	
1896	0	32783	32707	32647	32675	32775	32811	32739	32794	
1897	0	32799	32743	32809	32660	32679	32767	32755	32639	
1898	0	32775	32734	32787	32783	32831	32749	32683	32715	
1899	0	32763	32677	32713	32791	32793	32756	32811	32669	
1900	0	32738	32463	32687	32847	32793	32756	32775	32726	
1901	0	32800	32617	32570	32819	32831	32762	32739	32751	
1902	0	32799	32559	32608	32830	32823	32755	32835	32694	
1903	0	32756	32698	32623	32827	32743	32767	32797	32775	
1904	0	32769	32661	32728	32903	32823	32760	32790	32741	
1905	0	32756	32677	32785	32647	32859	32761	32789	32605	
1906	0	32735	32759	32711	32782	32783	32719	32713	32687	
1907	0	32767	32615	32647	32595	32811	32775	32838	32631	
1908	0	32743	32745	32679	32851	32771	32767	32811	32695	
1909	0	32714	32620	32813	32635	32687	32758	32735	32635	
1910	0	32721	32511	32709	32743	32756	32729	32850	32702	
1911	0	32725	32676	32631	32638	32705	32761	32763	32698	
1912	0	32721	32711	32691	32763	32626	32663	32735	32559	
1913	0	32787	32762	32690	32529	32775	32775	32763	32655	
1914	0	32802	32684	32686	32877	32791	32747	32803	32667	
1915	0	32847	32615	32765	32775	32851	32783	32783	32719	
1916	0	32772	32647	32661	32739	32809	32823	32699	32633	
1917	0	32839	32629	32703	32749	32775	32807	32869	32585	
1918	0	32813	32729	32743	32804	32837	32775	32743	32673	
1919	0	32775	32707	32807	32721	32815	32733	32756	32460	
1920	0	32815	32835	32799	32867	32764	32749	32743	32711	
1921	0	32764	32684	32751	32647	32726	32804	32671	32583	
1922	0	32732	32551	32623	32805	32723	32765	32789	32701	
1923	0	32794	32758	32637	32615	32647	32764	32811	32589	
1924	0	32783	32531	32671	32775	32775	32797	32659	32663	
1925	0	32748	32692	32807	32607	32827	32743	32799	32627	
1926	0	32736	32691	32745	32805	32679	32775	32791	32525	
1927	0	32647	32535	32811	32628	32669	32725	32783	32647	
1928	0	32729	32679	32711	32860	32612	32731	32805	32743	
1929	0	32741	32525	32619	32745	32851	32797	32813	32551	
1930	0	32740	32615	32647	32871	32807	32825	32783	32644	
1931	0	32711	32774	32743	32775	32814	32791	32791	32539	
1932	0	32727	32707	32549	32923	32804	32727	32791	32749	
1933	0	32705	32583	32623	32783	32821	32759	32751	32743	
1934	0	32724	32677	32769	32759	32783	32741	32753	32569	
1935	0	32799	32631	32731	32771	32709	32747	32759	32655	
1936	0	32749	32631	32647	32807	32703	32775	32688	32579	
1937	0	32736	32705	32693	32715	32742	32797	32807	32775	
1938	0	32775	32598	32683	32743	32671	32791	32751	32647	
1939	0	32740	32735	32669	32735	32743	32782	32709	32789	
1940	0	32811	32627	32775	32775	32756	32739	32711	32811	
1941	0	32786	32639	32814	32871	32759	32761	32727	32759	
1942	0	32801	32628	32768	32687	32822	32785	32703	32747	
1943	0	32775	32773	32738	32841	32775	32775	32791	32564	
1944	0	32775	32689	32731	32871	32759	32708	32733	32713	
1945	0	32839	32677	32735	32711	32767	32719	32743	32604	
1946	0	32791	32647	32711	32761	32730	32827	32773	32703	
1947	0	32711	32615	32711	32575	32785	32749	32743	32629	
1948	0	32743	32549	32694	32775	32711	32725	32823	32717	
1949	0	32795	32751	32743	32581	32730	32789	32795	32543	
1950	0	32823	32751	32759	32787	32703	32823	32713	32647	
1951	0	32767	32599	32681	32679	32763	32823	32803	32557	
1952	0	32706	32743	32671	32715	32711	32775	32775	32647	
1953	0	32708	32629	32679	32719	32775	32725	32793	32519	
1954	0	32783	32588	32719	32668	32758	32742	32786	32689	
1955	0	32790	32775	32743	32823	32805	32762	32795	32532	
1956	0	32758	32647	32759	32735	32767	32758	32797	32687	
1957	0	32775	32743	32617	32754	32783	32791	32765	32579	
1958	0	32807	32693	32591	32707	32887	32705	32703	32663	
1959	0	32825	32557	32613	32884	32865	32743	32743	32711	
1960	0	32815	32725	32668	32822	32757	32735	32710	32583	
1961	0	32756	32747	32677	32844	32735	32804	32709	32691	
1962	0	32713	32598	32689	32769	32775	32753	32858	32519	
1963	0	32710	32646	32775	32898	32703	32731	32743	32647	
1964	0	32750	32627	32775	32647	32811	32729	32791	32575	
1965	0	32790	32535	32775	32789	32851	32790	32764	32643	
1966	0	32732	32627	32687	32647	32767	32809	32785	32567	
1967	0	32694	32493	32789	32783	32757	32773	32782	32695	
1968	0	32756	32647	32794	32727	32710	32717	32735	32573	
1969	0	32791	32727	32852	32823	32687	32703	32835	32660	
1970	0	32761	32547	32789	32895	32725	32763	32787	32567	
1971	0	32745	32668	32721	32669	32719	32829	32687	32671	
1972	0	32756	32647	32655	32873	32717	32836	32798	32559	
1973	0	32799	32739	32663	32691	32613	32773	32706	32711	
1974	0	32769	32739	32679	32745	32647	32749	32717	32647	
1975	0	32816	32802	32623	32693	32639	32721	32809	32709	
1976	0	32763	32583	32617	32775	32663	32793	32738	32638	
1977	0	32765	32567	32663	32917	32647	32833	32773	32749	
1978	0	32796	32803	32669	32611	32605	32748	32679	32767	
1979	0	32807	32791	32709	32767	32642	32711	32751	32793	
1980	0	32804	32615	32749	32483	32749	32691	32898	32727	
1981	0	32748	32631	32721	32644	32739	32813	32710	32747	
1982	0	32750	32711	32775	32718	32820	32786	32768	32803	
1983	0	32768	32599	32718	32799	32847	32787	32715	32763	
1984	0	32735	32675	32743	32784	32847	32770	32783	32722	
1985	0	32748	32695	32709	32739	32827	32819	32791	32730	
1986	0	32729	32541	32719	32867	32833	32765	32679	32647	
1987	0	32750	32606	32647	32559	32871	32735	32710	32695	
1988	0	32812	32684	32673	32835	32741	32727	32721	32715	
1989	0	32794	32717	32711	32647	32763	32786	32817	32684	
1990	0	32813	32655	32767	32795	32827	32692	32883	32723	
1991	0	32765	32675	32643	32581	32803	32745	32769	32615	
1992	0	32804	32573	32711	32807	32711	32775	32926	32711	
1993	0	32741	32623	32647	32771	32815	32677	32797	32613	
1994	0	32727	32663	32639	32887	32767	32707	32741	32703	
1995	0	32755	32615	32591	32593	32813	32757	32829	32635	
1996	0	32742	32615	32807	32855	32660	32839	32775	32756	
1997	0	32807	32513	32700	32658	32647	32852	32733	32771	
1998	0	32784	32775	32739	32717	32669	32758	32839	32647	
1999	0	32730	32631	32775	32695	32695	32764	32647	32762	
2000	0	32829	32709	32743	32772	32797	32775	32740	32570	
2001	0	32723	32511	32771	32730	32719	32815	32769	32661	
2002	0	32807	32711	32757	32839	32743	32761	32735	32597	
2003	0	32715	32703	32615	32572	32790	32711	32775	32725	
2004	0	32770	32517	32693	32826	32838	32711	32662	32511	
2005	0	32775	32821	32679	32875	32763	32772	32724	32679	
2006	0	32715	32683	32847	32757	32789	32743	32763	32567	
2007	0	32740	32567	32751	32887	32743	32767	32748	32638	
2008	0	32751	32519	32831	32633	32807	32735	32783	32619	
2009	0	32748	32711	32879	32852	32756	32760	32859	32692	
2010	0	32694	32615	32770	32893	32743	32767	32743	32647	
2011	0	32679	32493	32724	32555	32695	32719	32807	32699	
2012	0	32745	32726	32610	32759	32701	32757	32773	32701	
2013	0	32804	32629	32592	32622	32743	32799	32709	32607	
2014	0	32754	32669	32711	32804	32751	32787	32802	32662	
2015	0	32741	32476	32599	32816	32763	32731	32807	32563	
2016	0	32826	32706	32578	32685	32735	32742	32819	32647	
2017	0	32769	32615	32730	32701	32782	32767	32725	32603	
2018	0	32721	32679	32783	32601	32733	32789	32789	32719	
2019	0	32727	32479	32887	32703	32753	32711	32703	32710	
2020	0	32791	32714	32812	32749	32767	32693	32823	32703	
2021	0	32743	32663	32719	32758	32831	32761	32743	32668	
2022	0	32791	32803	32671	32799	32829	32759	32749	32533	
2023	0	32767	32541	32783	32617	32802	32725	32739	32679	
2024	0	32748	32759	32837	32789	32799	32855	32819	32594	
2025	0	32745	32754	32759	32634	32811	32783	32775	32713	
2026	0	32793	32535	32743	32783	32747	32735	32719	32557	
2027	0	32809	32621	32723	32821	32581	32759	32789	32683	
2028	0	32721	32567	32695	32807	32775	32747	32748	32576	
2029	0	32695	32691	32709	32813	32709	32807	32807	32689	
2030	0	32751	32479	32611	32719	32739	32775	32762	32591	
2031	0	32793	32731	32663	32843	32647	32693	32775	32726	
2032	0	32740	32667	32775	32719	32655	32829	32765	32591	
2033	0	32775	32587	32679	32818	32655	32805	32741	32737	
2034	0	32735	32725	32695	32647	32609	32769	32820	32515	
2035	0	32835	32690	32771	32737	32615	32759	32677	32685	
2036	0	32724	32685	32727	32844	32733	32815	32789	32715	
2037	0	32726	32567	32703	32583	32751	32805	32761	32775	
2038	0	32719	32690	32828	32831	32734	32789	32799	32684	
2039	0	32793	32726	32711	32758	32679	32740	32775	32677	
2040	0	32828	32578	32559	32764	32783	32783	32630	32647	
2041	0	32835	32759	32587	32559	32692	32799	32737	32693	
2042	0	32788	32686	32559	32751	32735	32735	32722	32743	
2043	0	32773	32703	32617	32575	32703	32711	32823	32703	
2044	0	32815	32615	32599	32757	32683	32663	32788	32702	
2045	0	32784	32620	32700	32632	32677	32775	32791	32695	
2046	0	32773	32647	32843	32775	32599	32841	32722	32581	
2047	0	32725	32747	32831	32738	32676	32805	32723	32723	
2048	0	32783	32607	32947	32815	32873	32775	32775	32575	
2049	0	32773	32647	32891	32847	32787	32711	32796	32675	
2050	0	32703	32517	32837	32775	32759	32715	32711	32583	
2051	0	32703	32705	32743	32827	32647	32823	32789	32703	
2052	0	32757	32710	32717	32615	32671	32807	32735	32663	
2053	0	32819	32621	32571	32859	32759	32742	32759	32722	
2054	0	32703	32742	32591	32767	32815	32719	32839	32543	
2055	0	32735	32647	32669	32707	32819	32717	32799	32674	
2056	0	32825	32613	32647	32771	32837	32775	32724	32605	
2057	0	32824	32791	32655	32615	32751	32807	32723	32695	
2058	0	32791	32711	32799	32759	32733	32811	32711	32581	
2059	0	32815	32527	32646	32535	32775	32805	32708	32675	
2060	0	32809	32767	32647	32695	32713	32765	32807	32563	
2061	0	32687	32671	32711	32655	32751	32813	32669	32655	
2062	0	32734	32671	32743	32743	32789	32762	32767	32591	
2063	0	32743	32500	32644	32701	32775	32735	32759	32687	
2064	0	32661	32767	32727	32679	32718	32786	32831	32691	
2065	0	32741	32639	32695	32732	32743	32773	32786	32767	
2066	0	32799	32566	32611	32811	32695	32767	32717	32701	
2067	0	32745	32575	32707	32827	32743	32749	32766	32759	
2068	0	32787	32781	32705	32807	32851	32790	32748	32694	
2069	0	32743	32671	32591	32793	32853	32756	32815	32614	
2070	0	32734	32711	32642	32669	32783	32711	32659	32749	
2071	0	32621	32559	32703	32743	32647	32759	32775	32703	
2072	0	32694	32595	32655	32849	32729	32863	32694	32549	
2073	0	32695	32671	32706	32828	32615	32771	32751	32692	
2074	0	32703	32583	32555	32837	32611	32701	32763	32517	
2075	0	32755	32483	32628	32595	32635	32795	32847	32611	
2076	0	32781	32725	32684	32742	32647	32828	32793	32559	
2077	0	32758	32767	32707	32551	32690	32765	32847	32676	
2078	0	32759	32679	32743	32826	32735	32727	32775	32573	
2079	0	32791	32799	32743	32647	32787	32711	32703	32639	
2080	0	32848	32785	32782	32765	32791	32730	32803	32535	
2081	0	32823	32742	32762	32757	32684	32807	32731	32725	
2082	0	32799	32572	32679	32711	32692	32667	32747	32655	
2083	0	32769	32775	32723	32859	32683	32686	32695	32704	
2084	0	32775	32737	32641	32827	32699	32708	32739	32674	
2085	0	32751	32460	32695	32847	32773	32821	32719	32743	
2086	0	32766	32617	32815	32609	32783	32803	32750	32708	
2087	0	32765	32711	32785	32837	32827	32773	32775	32674	
2088	0	32741	32771	32764	32787	32763	32759	32772	32623	
2089	0	32767	32615	32769	32735	32711	32735	32763	32717	
2090	0	32775	32668	32739	32775	32724	32690	32661	32634	
2091	0	32807	32727	32583	32700	32866	32775	32807	32743	
2092	0	32783	32710	32623	32787	32799	32751	32737	32758	
2093	0	32826	32599	32715	32617	32717	32759	32737	32635	
2094	0	32801	32711	32763	32826	32681	32825	32687	32703	
2095	0	32813	32519	32711	32599	32794	32775	32740	32601	
2096	0	32807	32787	32783	32759	32775	32749	32727	32641	
2097	0	32722	32698	32615	32583	32623	32749	32879	32532	
2098	0	32768	32654	32675	32711	32655	32804	32751	32667	
2099	0	32818	32721	32658	32805	32661	32805	32799	32590	
2100	0	32813	32607	32588	32738	32607	32774	32818	32679	
2101	0	32745	32671	32631	32853	32646	32719	32711	32515	
2102	0	32701	32705	32733	32551	32642	32862	32775	32710	
2103	0	32783	32559	32751	32745	32631	32853	32743	32561	
2104	0	32738	32641	32756	32567	32686	32759	32775	32662	
2105	0	32765	32700	32695	32815	32791	32788	32838	32563	
2106	0	32730	32763	32722	32609	32775	32748	32759	32691	
2107	0	32766	32639	32723	32839	32831	32681	32829	32647	
2108	0	32751	32743	32711	32646	32647	32818	32775	32643	
2109	0	32701	32527	32775	32802	32691	32767	32787	32511	
2110	0	32782	32743	32759	32687	32710	32687	32804	32692	
2111	0	32736	32611	32716	32730	32716	32693	32733	32525	
2112	0	32730	32507	32718	32717	32803	32735	32743	32759	
2113	0	32765	32671	32719	32775	32775	32791	32821	32756	
2114	0	32707	32679	32599	32612	32823	32791	32791	32675	
2115	0	32758	32763	32743	32775	32805	32819	32805	32694	
2116	0	32719	32631	32791	32591	32823	32759	32710	32633	
2117	0	32780	32635	32681	32775	32823	32694	32699	32745	
2118	0	32859	32753	32571	32589	32775	32751	32695	32602	
2119	0	32867	32747	32583	32879	32757	32775	32739	32687	
2120	0	32844	32658	32791	32634	32820	32742	32804	32567	
2121	0	32794	32703	32743	32919	32739	32717	32743	32722	
2122	0	32775	32715	32661	32582	32775	32691	32757	32563	
2123	0	32755	32569	32718	32721	32823	32735	32775	32703	
2124	0	32719	32799	32772	32663	32783	32751	32697	32611	
2125	0	32683	32626	32823	32775	32701	32773	32759	32699	
2126	0	32716	32631	32767	32743	32719	32740	32811	32538	
2127	0	32677	32714	32631	32770	32735	32703	32713	32599	
2128	0	32690	32615	32676	32681	32790	32742	32815	32631	
2129	0	32742	32565	32815	32773	32745	32831	32807	32675	
2130	0	32767	32525	32685	32807	32687	32837	32723	32581	
2131	0	32761	32687	32684	32729	32723	32821	32786	32661	
2132	0	32750	32673	32678	32876	32815	32756	32775	32628	
2133	0	32748	32487	32783	32791	32828	32733	32717	32795	
2134	0	32793	32715	32775	32870	32775	32783	32791	32786	
2135	0	32791	32743	32709	32741	32775	32767	32675	32739	
2136	0	32813	32535	32631	32800	32773	32717	32765	32759	
2137	0	32823	32775	32703	32583	32843	32687	32734	32735	
2138	0	32791	32669	32751	32831	32733	32724	32633	32666	
2139	0	32717	32500	32681	32708	32639	32743	32876	32511	
2140	0	32709	32691	32738	32819	32835	32761	32807	32670	
2141	0	32822	32687	32691	32775	32823	32769	32663	32621	
2142	0	32796	32835	32645	32707	32822	32819	32743	32749	
2143	0	32813	32701	32721	32751	32751	32811	32806	32663	
2144	0	32773	32555	32671	32633	32747	32787	32757	32591	
2145	0	32845	32631	32679	32826	32751	32719	32811	32726	
2146	0	32767	32751	32799	32823	32775	32695	32823	32739	
2147	0	32756	32541	32667	32803	32799	32740	32734	32761	
