# OpenSignals Text File Format
# {"00:07:80:3B:46:38": {"sensor": ["CUSTOM/0.5/1.0/V", "CUSTOM/0.5/1.0/V", "CUSTOM/0.5/1.0/V", "CUSTOM/0.5/1.0/V", "CUSTOM/0.5/1.0/V", "CUSTOM/0.5/1.0/V", "CUSTOM/0.5/1.0/V", "CUSTOM/0.5/1.0/V"], "device name": "EMGs", "column": ["nSeq", "DI", "RA_L", "RA_R", "OE_L", "OE:R", "IL_L", "IL_R", "MF_L", "MF_R"], "sync interval": 2, "time": "16:47:33.245", "comments": "", "device connection": "BTH00:07:80:3B:46:38", "channels": [1, 2, 3, 4, 5, 6, 7, 8], "date": "2017-6-1", "mode": 0, "digital IO": [0, 1], "firmware version": 772, "device": "biosignalsplux", "position": 0, "sampling rate": 1000, "label": ["RA_L", "RA_R", "OE_L", "OE:R", "IL_L", "IL_R", "MF_L", "MF_R"], "resolution": [16, 16, 16, 16, 16, 16, 16, 16], "special": [{}, {}, {}, {}, {}, {}, {}, {}]}}
# EndOfHeader
0	0	32759	32686	23484	32587	31348	33159	30247	32865	
1	0	32839	32783	22263	32551	33234	32502	31428	32749	
2	0	32850	32723	21919	32399	34471	31639	33460	32381	
3	0	32871	32785	22587	32291	33298	32299	33750	32749	
4	0	32884	32775	23647	32259	32919	32633	33927	33167	
5	0	32847	32670	24986	32565	32259	33116	33751	33021	
6	0	32876	32876	26169	32775	32502	32962	33515	33207	
7	0	32903	32903	27405	32963	32695	32382	33491	33135	
8	0	32886	32711	28383	32982	33551	32159	34131	32659	
9	0	32941	32775	29237	32807	32641	32279	33295	32639	
10	0	32886	32641	29915	32733	32719	32603	33399	32771	
11	0	32846	32791	30661	32702	33129	32383	33447	32895	
12	0	32684	32643	31319	32479	33796	32231	33071	33227	
13	0	32581	32419	32035	32630	33657	32500	32517	32831	
14	0	32673	32695	32687	32471	33043	32883	32327	32724	
15	0	32759	32735	33409	32607	31723	33519	31911	32827	
16	0	32757	32822	33669	32822	32687	33183	32327	32647	
17	0	32615	32775	33907	32594	32999	32583	32289	32639	
18	0	32614	32933	34231	32453	33006	32499	32769	32319	
19	0	32558	32873	34607	32324	32619	33114	32687	32221	
20	0	32521	32691	34821	32439	32306	32637	32223	32735	
21	0	32613	32735	35119	32563	33527	32150	32071	32673	
22	0	32690	32542	35039	32535	33778	32263	31047	33019	
23	0	32662	32671	35207	32621	32869	32665	32054	32811	
24	0	32666	32663	35015	32884	31442	33997	33965	32487	
25	0	32819	32727	35081	33015	31431	34271	33215	32143	
26	0	32958	32787	34717	32831	31588	33755	34009	32500	
27	0	32873	32679	34509	32725	32407	32113	34851	32406	
28	0	32814	32623	34039	32692	33564	31542	35085	32023	
29	0	32815	32803	33295	32933	33571	31798	34611	32323	
30	0	32826	32923	32721	32734	33255	32285	33051	32306	
31	0	32792	32903	33588	32727	33439	32387	32015	32487	
32	0	32715	32709	34407	32604	32886	32998	31958	32338	
33	0	32731	32949	34562	32660	32977	32739	31236	32888	
34	0	32751	32887	34647	32775	32959	32709	31541	33143	
35	0	32775	32759	34711	32615	32289	32948	32351	33101	
36	0	32838	32771	34627	32612	31706	33337	32439	33007	
37	0	32751	32679	34421	32487	32235	33239	32711	32506	
38	0	32847	32831	34199	32415	33399	32327	32815	32617	
39	0	32817	32799	33943	32788	33318	32577	32220	32799	
40	0	32868	32718	33766	32773	33169	32813	32943	32445	
41	0	32848	32699	33623	32689	32759	33115	33255	32359	
42	0	32687	32791	33431	32590	31879	33535	32159	32756	
43	0	32556	32411	33453	32795	32323	32927	31831	32991	
44	0	32540	32629	33119	33098	33039	32326	31357	33741	
45	0	32876	32795	32802	33039	32943	32327	31679	33159	
46	0	33062	32919	32482	32919	32586	32759	31867	32807	
47	0	33177	33005	32303	32589	32735	33019	31970	32943	
48	0	32924	32617	32261	32477	32639	33436	31623	33357	
49	0	32884	32823	32391	32555	33407	32599	32090	33795	
50	0	32804	32871	32597	32497	33159	32679	32754	33571	
51	0	32764	32935	32860	32187	33207	32375	33103	33455	
52	0	32743	33135	32882	32225	32549	32655	32620	33799	
53	0	32681	33038	33047	32418	31557	31836	32069	33639	
54	0	32751	32982	33221	32669	31914	32203	32982	32875	
55	0	32623	32718	33235	32723	32738	32079	33868	32428	
56	0	32617	32799	33308	32663	32815	31927	34235	31527	
57	0	32681	32731	33317	32574	32538	31126	33205	30842	
58	0	32741	32623	33232	32445	32157	32551	31923	31649	
59	0	32925	32783	33164	32617	32690	33260	31706	32799	
60	0	33027	32877	33183	33015	33689	33655	31891	33099	
61	0	32922	32817	33207	32980	33563	34151	31107	32713	
62	0	32756	32628	33327	32858	32187	34115	31022	32837	
63	0	32602	32548	33455	33082	31563	33687	31551	33565	
64	0	32737	32806	33385	32827	33342	32887	32367	33287	
65	0	32630	32711	33325	32841	34381	32383	33159	32253	
66	0	32545	32770	33397	32749	34742	32035	34711	31701	
67	0	32390	32417	33397	32621	34603	32453	35179	30633	
68	0	32558	32678	33167	32661	34469	32359	34211	31191	
69	0	32628	32441	32903	32855	32883	32678	33258	31865	
70	0	32732	32807	32927	33017	31719	32723	32551	32589	
71	0	32815	33058	32717	32867	31996	32842	32251	33189	
72	0	32799	32999	32247	32647	32013	32293	31699	33499	
73	0	32866	32911	31711	32459	31475	32624	31979	33255	
74	0	32860	32935	31547	32609	31603	33271	31917	33259	
75	0	33028	33142	31555	32334	32747	33084	32789	33207	
76	0	32785	32731	31843	32330	34203	32458	34959	32841	
77	0	32696	32557	32103	32715	34093	33138	35015	33111	
78	0	32801	32833	32205	32977	32745	32983	34029	33622	
79	0	32844	32821	32391	32927	31668	32807	33437	33389	
80	0	32859	32635	32617	32711	31012	33258	32631	32983	
81	0	32925	32749	32698	32337	30919	32791	32927	32833	
82	0	32821	32829	32621	32194	31005	33559	32324	32563	
83	0	32890	32775	32615	32119	31935	32965	32263	31655	
84	0	32952	32988	32567	32285	32503	33295	31708	31554	
85	0	32946	32775	32391	32497	32695	33517	32113	31311	
86	0	32948	32921	32119	32569	32771	32341	32311	31945	
87	0	33023	33059	31751	32567	33706	32070	32794	32437	
88	0	32844	32933	31647	32949	33855	32383	32773	32619	
89	0	32815	32879	31719	32925	34052	31974	31415	32751	
90	0	32745	32842	32071	33031	33685	32225	30679	33145	
91	0	32686	32838	32091	32984	32791	32486	29831	33704	
92	0	32641	32740	32385	32591	32543	32895	30943	33339	
93	0	32638	32759	32769	32397	33890	32219	33130	32821	
94	0	32604	32431	33143	32623	33863	32259	34989	32295	
95	0	32683	32258	33491	32647	33657	32662	35901	31949	
96	0	32599	32461	33706	32899	32372	32931	34935	32638	
97	0	32869	32809	33567	33155	32135	32855	33273	32831	
98	0	32887	32839	33635	33167	32634	32815	31919	32930	
99	0	32484	32692	33687	33111	32759	32895	32481	33245	
100	0	32399	32603	33539	32959	32525	32742	32231	33391	
101	0	32704	32871	33295	32782	32684	32068	31421	33687	
102	0	32748	32862	33027	32690	33060	31775	30687	34103	
103	0	32800	32927	32551	32674	32327	31705	31020	34679	
104	0	32806	32743	32371	32918	32322	32345	31631	34239	
105	0	32920	33025	31926	32633	33184	32045	33075	33691	
106	0	32827	32854	31773	32229	33097	32319	34321	32884	
107	0	32698	32876	31879	31931	32309	33268	34659	32858	
108	0	32709	33007	32171	31719	31934	34323	34070	32383	
109	0	32779	32578	32319	31671	32437	33935	32903	31506	
110	0	32785	32623	32311	31535	32678	33780	32223	29862	
111	0	32724	32551	32321	32145	33102	34373	31803	29031	
112	0	32730	32201	32413	32283	33065	34119	32720	29095	
113	0	32700	32723	32493	33203	33830	32912	32861	31164	
114	0	32617	33135	32487	33218	33765	32479	31611	33445	
115	0	32572	32831	32671	33372	32023	33235	31771	34300	
116	0	32657	32841	32799	33085	32399	32627	32095	33751	
117	0	32626	32647	32814	33095	32751	32071	31635	33295	
118	0	32758	32962	32796	32958	33807	31999	33115	33622	
119	0	32601	32884	32767	33092	33087	32527	34248	33665	
120	0	32692	33031	32827	32798	31167	32527	32931	33927	
121	0	33062	32986	32748	32607	31751	32059	32959	33415	
122	0	33097	33147	32671	32695	33359	32345	32461	32978	
123	0	32919	33063	32663	32327	32982	32087	31290	33217	
124	0	32959	32953	32797	32516	32173	31910	31781	32799	
125	0	32959	32564	32947	32306	32342	32295	33667	32175	
126	0	32991	32943	32959	32183	32893	32951	33797	31996	
127	0	32794	32759	32941	32402	33622	33477	33307	32203	
128	0	32838	32743	32751	32644	32574	33706	32807	32023	
129	0	32790	32519	32719	33439	32198	33359	32711	32205	
130	0	32855	32471	32735	33703	32511	33347	32183	32457	
131	0	32780	32751	32788	33155	32899	33220	31529	32711	
132	0	32770	32625	32848	32761	32346	33523	31079	33038	
133	0	32677	32837	32830	33159	32372	32671	32070	32831	
134	0	32655	32438	32721	33004	33522	32231	32847	33281	
135	0	32930	32623	32529	32959	34047	31935	32590	34375	
136	0	32909	32775	32563	33234	32683	32855	32291	33926	
137	0	33080	32941	32605	33077	32467	33182	32276	34130	
138	0	33047	32687	32527	32815	32240	32231	32006	34797	
139	0	32928	32838	32417	32805	31546	33269	33231	34285	
140	0	32698	32853	32431	32314	32527	32841	34470	31363	
141	0	32701	32963	32322	31927	33071	32423	33783	30469	
142	0	32684	32727	32187	31591	32993	32311	33351	30500	
143	0	32661	32995	32285	31677	32371	32734	33239	30639	
144	0	32773	32892	32527	31961	33055	32115	32871	31415	
145	0	32799	32647	32719	32450	33451	32051	32470	32119	
146	0	32753	32422	32801	32843	33390	32582	32499	32111	
147	0	32841	33373	32949	33234	32783	32526	32845	32975	
148	0	32771	33123	33204	32805	32325	33133	31687	32867	
149	0	32700	32873	33319	32615	32818	32981	31718	32735	
150	0	32723	32943	33275	32315	33455	32703	32090	32342	
151	0	32647	32527	33523	32290	33711	32135	32059	32679	
152	0	32636	32623	33373	32423	33682	32342	32891	33175	
153	0	32599	32741	33143	32845	31875	32890	34355	33335	
154	0	32514	32711	32932	32981	33125	32335	35190	32669	
155	0	32410	32933	32514	32919	33200	32850	33359	32149	
156	0	32575	32995	32128	32764	33083	33223	30809	32615	
157	0	32567	32861	31975	32735	31967	33599	29823	33202	
158	0	32748	32899	31806	32830	33309	32295	29622	33499	
159	0	32809	32877	31495	32975	33223	31511	31187	33143	
160	0	32918	32599	31362	33010	33351	31175	34149	32047	
161	0	33268	32788	31603	32771	32751	31972	32524	32694	
162	0	33206	32892	32027	32639	31186	33695	30239	33743	
163	0	33106	32807	32199	32499	32623	33018	30849	33827	
164	0	32893	32616	32788	32455	33203	32391	33748	33656	
165	0	32745	32597	33373	32621	33618	32821	35479	33501	
166	0	32582	32453	33879	32653	32979	33254	35609	32615	
167	0	32481	32247	34287	32982	31605	33850	36503	32306	
168	0	32398	32391	34623	32986	31935	33580	35965	32263	
169	0	32439	32389	34871	32590	32087	33330	34179	32487	
170	0	32514	32579	34601	32020	32114	33799	32712	32220	
171	0	32549	32751	34478	32272	32519	33483	33254	32049	
172	0	32428	32621	34412	32726	33177	32378	33725	32436	
173	0	32594	33127	34228	32439	33268	31358	31356	34925	
174	0	32545	32815	33847	32587	33308	31006	31059	35551	
175	0	32632	33035	33549	32681	32637	32375	32006	33379	
176	0	32646	32773	33383	32672	32682	33182	32610	33025	
177	0	32856	32849	32967	32445	33522	33023	32471	32355	
178	0	32951	32911	32674	32495	34146	31795	32659	31953	
179	0	32759	32986	32217	32668	32958	33543	32003	31615	
180	0	32748	33003	32022	32839	31023	34333	31501	31288	
181	0	32850	32962	31954	32807	31040	33903	30980	31367	
182	0	32837	32583	31703	32703	32782	32342	31440	31193	
183	0	32894	32995	31618	32925	33221	33371	31868	31267	
184	0	32866	33007	31596	32910	32415	33667	31682	31959	
185	0	32908	32818	31503	32731	33085	32478	32249	33133	
186	0	32933	32903	31543	32703	33495	31851	33207	33014	
187	0	32903	32865	31487	32804	33878	32583	32325	32813	
188	0	32817	32721	31653	32675	32357	33526	32445	32666	
189	0	32858	32865	31765	32579	31357	34034	32767	32327	
190	0	32887	32719	32017	32666	32342	32903	32820	33014	
191	0	32718	32916	32173	32647	32746	32021	34282	33183	
192	0	32707	32647	32186	32595	33223	31781	34337	33065	
193	0	32800	32669	32423	32827	33607	32524	33954	32471	
194	0	32989	33101	32551	32713	32831	32591	33299	32435	
195	0	32807	33049	32695	32751	32301	33015	33751	32597	
196	0	32784	32806	32919	32699	32641	32426	33185	32903	
197	0	32521	32415	32903	32621	33012	31779	32535	32847	
198	0	32582	32608	32918	32903	32705	32077	31699	33644	
199	0	32655	32583	32927	33007	31777	32543	31388	33607	
200	0	32900	32739	32903	33049	32041	32686	31223	33391	
201	0	32861	32775	32727	32874	32458	32815	31650	33143	
202	0	32926	32855	32554	32801	32487	32469	31398	33277	
203	0	32855	32820	32695	32941	32182	32987	31703	33279	
204	0	32807	32911	32738	32885	32991	32821	31335	32438	
205	0	32743	32792	32787	32813	33023	33295	30903	32461	
206	0	32558	32705	33087	32608	32790	33087	31599	32476	
207	0	32703	32739	32892	31954	33671	31817	31954	32041	
208	0	32908	32749	32740	32074	33579	31970	32694	32508	
209	0	32877	32535	32941	32502	32891	33267	34001	32825	
210	0	32789	32659	33015	32407	32765	33229	34991	33791	
211	0	32775	32803	32947	32339	33447	31605	34502	34972	
212	0	32773	32789	32891	32279	32801	32219	34231	33915	
213	0	32762	32866	32733	32289	33204	32725	33927	32407	
214	0	32701	32902	32491	32429	33897	32705	34175	31175	
215	0	32551	32815	32617	32671	33612	33170	34594	30375	
216	0	32615	32839	32629	32683	32963	33105	33655	30644	
217	0	32948	32819	32460	32698	32978	32639	33245	31281	
218	0	33185	32924	32537	32695	32947	32839	32567	31183	
219	0	32988	32380	32581	32519	32735	33014	31322	31682	
220	0	32805	32627	32742	32561	32179	33394	31406	32066	
221	0	32762	32700	32815	33174	32695	33223	31314	32602	
222	0	32839	33111	32842	33554	32695	33319	30838	33069	
223	0	32734	32439	32743	33591	32372	33645	31007	34267	
224	0	32633	32775	32580	33389	32359	32783	31623	34249	
225	0	32590	32743	32553	33267	31391	33623	32227	33415	
226	0	32613	32518	32341	33151	32913	32943	32289	33063	
227	0	32590	32756	32362	32741	33901	32191	31231	33125	
228	0	32756	32658	32365	32293	32903	32603	30515	33847	
229	0	32858	32740	32381	32228	32315	33187	31143	34171	
230	0	32966	32801	32639	31814	33407	31956	31931	33959	
231	0	32881	32620	33030	31795	31891	32178	33075	32987	
232	0	32989	32991	33091	31931	31709	33149	33771	33015	
233	0	32855	32783	33375	31796	31874	33103	35250	32647	
234	0	32579	32571	33666	31750	31213	32791	35815	32526	
235	0	32457	32437	33907	32133	31495	32335	34758	32797	
236	0	32669	32775	33866	32450	33543	30835	34060	32271	
237	0	32918	32884	33927	32863	35162	30263	34566	31462	
238	0	32567	32487	33967	33267	33840	31463	34519	31031	
239	0	32457	32748	33927	33399	33512	31069	33135	32360	
240	0	32452	32694	33721	33223	33475	32037	32297	33338	
241	0	32423	32839	33349	33175	33373	33555	31519	34127	
242	0	32524	33131	32835	32898	32171	33773	31299	34695	
243	0	32966	32935	32301	32925	32791	34255	30511	34626	
244	0	33071	33103	32143	33076	33247	34703	30247	33553	
245	0	33026	33219	31916	32949	32012	34128	31218	32887	
246	0	32882	32794	31532	32853	31550	33174	32527	31951	
247	0	32500	32614	31173	32222	30072	32841	32315	31618	
248	0	32514	32599	31270	31802	30767	33719	31597	31934	
249	0	32400	32553	31297	32035	33275	33254	32347	31495	
250	0	32497	32705	31733	32251	32591	33423	33531	32018	
251	0	32764	32845	32446	31958	31874	32975	34685	31703	
252	0	33337	32995	32919	31931	32959	32078	33037	31911	
253	0	33356	33285	33380	32095	34374	31955	32214	31687	
254	0	33137	33255	33586	32039	34590	32423	32671	31851	
255	0	32927	32941	33727	32356	33655	32919	32795	32047	
256	0	32845	33103	33795	32803	33261	32790	33719	32044	
257	0	32603	32860	33692	33326	33665	32767	33825	32423	
258	0	32423	32463	33782	33391	33569	32935	35059	33115	
259	0	32448	32597	33625	33308	32763	33283	34240	33591	
260	0	32385	32436	32918	33119	33545	31891	32053	32565	
261	0	32544	32533	32852	33183	32663	32481	30791	32399	
262	0	32611	32519	32723	33066	30455	33654	30061	32671	
263	0	32774	32849	32391	33202	31743	32951	30153	33370	
264	0	32863	32829	32062	32918	33065	32597	29478	34959	
265	0	33047	32993	32071	32527	33807	32105	27597	35047	
266	0	33159	33021	31954	32399	35127	32309	29423	32836	
267	0	32928	32692	32150	32383	33814	33067	32538	32455	
268	0	32679	32548	32269	32454	30568	34695	34463	31595	
269	0	32647	32750	32282	32794	29511	34351	34406	31631	
270	0	32762	32997	32495	32877	30440	32357	33734	32023	
271	0	32616	32433	32677	32748	31500	32097	32214	33717	
272	0	32858	32624	32479	33019	33747	31062	32983	32379	
273	0	32861	32679	32491	33103	34845	30255	36599	31667	
274	0	32751	32605	32589	32753	34401	31247	37977	32617	
275	0	32558	32695	32463	32862	34447	31301	38802	31777	
276	0	32642	32839	32594	33071	33647	32493	37381	31519	
277	0	32450	32659	32615	32687	32759	32831	35463	32079	
278	0	32662	32933	32423	32524	32499	31842	32535	33039	
279	0	32742	33195	32621	32383	33495	32580	31757	32785	
280	0	32859	33021	32602	32075	33258	33311	31631	34112	
281	0	32660	32571	32660	31799	33039	33186	30959	34419	
282	0	32803	32458	32423	31783	33043	33011	31425	33591	
283	0	32935	32855	32125	32206	32391	32575	32570	33212	
284	0	32970	32732	31945	32251	32934	31815	31375	33819	
285	0	33023	32751	32107	32258	32902	32108	30951	33203	
286	0	32824	32783	32124	32443	33111	32983	33607	32558	
287	0	32464	32579	32140	32983	32061	34735	32878	32895	
288	0	32460	32587	31844	33065	31732	34487	31645	32555	
289	0	32492	32623	31787	33185	31993	33758	30867	32233	
290	0	32572	32847	32223	32867	32371	32971	31745	31837	
291	0	32490	32843	32620	32615	32350	32967	32135	32159	
292	0	32553	32807	32877	32629	32103	32835	32067	32198	
293	0	32407	32731	32899	32756	32645	32871	32135	31767	
294	0	32396	32943	33061	32621	32775	33108	32903	31367	
295	0	32610	32941	33359	32518	33447	33007	32363	31641	
296	0	32350	32773	33727	32639	33180	33055	31357	32559	
297	0	32338	32827	34074	32410	32436	32891	31455	32727	
298	0	32391	32941	34335	32373	32436	32573	31455	33350	
299	0	32412	33203	34302	32505	32221	32724	31153	34429	
300	0	32846	33474	34316	32459	32646	32461	31397	34603	
301	0	33318	33651	34193	32479	33203	32223	32131	34127	
302	0	33443	33509	34343	32692	33173	32361	32628	34055	
303	0	33358	33445	34100	32715	31631	33927	32127	32887	
304	0	33555	33522	33768	32551	32565	33653	31340	32627	
305	0	33484	33491	33265	32609	33511	33099	32976	32546	
306	0	33373	33167	33044	32742	33059	33407	33707	32570	
307	0	33153	33074	32687	32699	33556	32589	33771	32775	
308	0	33383	33299	32314	32356	34267	31827	34799	32418	
309	0	33316	33127	32229	32467	32937	32221	34194	31579	
310	0	33351	32958	31962	32525	31687	33268	33135	31716	
311	0	33234	33031	31743	32615	32233	33339	32524	32359	
312	0	32973	32898	31831	32647	32735	32387	32931	31971	
313	0	32937	32807	31731	32773	32739	32068	33909	31809	
314	0	32722	32615	31525	33133	32468	32615	34157	32255	
315	0	32510	32129	31644	33167	32749	33030	34070	32343	
316	0	32665	32433	31831	33237	32398	33055	33455	32164	
317	0	32781	32356	31964	33303	32243	32731	32827	32367	
318	0	33055	32453	31903	33265	32383	32449	32991	32214	
319	0	33004	32111	31981	33083	32327	32205	33401	32429	
320	0	33149	32079	32207	33019	32459	31751	32695	33447	
321	0	33085	32118	32415	32690	33084	31676	32287	33645	
322	0	33189	32143	32486	32485	32487	31559	32490	33831	
323	0	33148	32039	32719	32468	31918	32815	31935	34162	
324	0	32978	32045	32873	32575	31869	33769	32069	33723	
325	0	32683	31853	32917	32724	32455	33659	32343	32881	
326	0	32455	32118	33029	32647	33607	32927	33390	32454	
327	0	32289	32196	32973	32756	33613	33071	33365	31607	
328	0	32148	32221	33004	32679	32709	32726	31993	31907	
329	0	32103	32367	33074	32559	33343	31917	32509	32045	
330	0	32001	32135	33110	32809	32479	32413	32647	32054	
331	0	32052	32308	33053	32847	32765	32233	33075	32450	
332	0	32164	32183	32887	32962	33415	32647	33015	32986	
333	0	32402	32421	32769	33087	33618	33183	32847	32887	
334	0	32485	32238	32830	32466	33007	33443	32022	33595	
335	0	32434	32539	32799	32309	32623	33670	32361	33839	
336	0	32480	32859	32647	32456	33125	32178	31816	33653	
337	0	32266	32967	32759	32575	33039	31697	30703	33725	
338	0	32385	32807	32813	32463	32705	32092	30533	32971	
339	0	32647	32940	32773	32535	32743	31987	30884	32423	
340	0	32999	33181	32654	32367	32493	32039	31156	32706	
341	0	32974	33204	32617	32558	32243	33948	32582	31907	
342	0	32801	32973	32647	32674	32855	33739	34119	31325	
343	0	32623	32919	32773	32804	32933	33371	33011	31167	
344	0	32700	32923	32771	32726	33927	33211	33991	31583	
345	0	32756	32925	32751	32514	33061	34268	34631	32052	
346	0	32785	32863	32804	32519	32310	32894	33767	32631	
347	0	32724	32595	32707	32645	32549	32244	32959	32740	
348	0	32717	32699	32738	32751	32667	32614	32836	33597	
349	0	32621	32687	32694	32791	32811	32293	32802	33831	
350	0	32617	32659	32593	32775	32900	32281	32561	33821	
351	0	32681	33060	32599	32623	32843	33223	31558	33561	
352	0	32734	32967	32764	32676	32455	33207	32231	32055	
353	0	32797	32817	32589	32662	33223	32978	32092	32596	
354	0	33142	33149	32709	32623	33650	32703	32590	33003	
355	0	33179	33306	32613	32851	33466	32143	32647	33706	
356	0	33037	32967	32455	32639	33115	32337	30855	33179	
357	0	32863	32903	32249	32612	33395	32415	30215	32511	
358	0	32775	32869	32314	32663	32147	33402	31175	30949	
359	0	32763	32910	32522	32598	31304	33737	31687	31489	
360	0	32910	33008	32615	32703	31842	32645	32413	32571	
361	0	32841	33027	32918	32739	31327	31997	32748	32255	
362	0	32828	32707	33017	32647	33127	31568	34735	31879	
363	0	32903	32679	33149	32786	33491	31639	35636	32559	
364	0	32886	32773	33223	32967	33066	32811	34271	33144	
365	0	32710	32895	33331	32647	33195	32754	34287	33325	
366	0	32660	32898	33055	32508	33305	32941	34918	32903	
367	0	32679	32717	33221	32503	32775	33175	34268	33543	
368	0	32556	32667	33195	32451	32495	33399	32567	34227	
369	0	32580	32815	33089	32715	32274	33339	31927	33508	
370	0	32527	32694	33076	32761	32221	32239	31051	32723	
371	0	32738	32663	32901	32673	32052	32255	30189	33251	
372	0	32914	32743	32753	32494	33211	32227	30215	33103	
373	0	32983	32903	32597	32855	33497	33221	31187	32943	
374	0	33040	33099	32691	32783	32787	33357	30555	33531	
375	0	32874	33203	32661	32598	33318	32415	30751	33187	
376	0	32765	33137	32724	32483	32337	32542	32143	31431	
377	0	32570	32734	32531	32293	32016	33183	33191	31166	
378	0	32485	32614	32715	32068	32659	33131	34885	31570	
379	0	32617	32487	32690	32477	32190	33319	34483	32691	
380	0	32900	32671	32525	32346	32818	32087	34703	32079	
381	0	32894	32703	32043	32519	33223	31364	33311	32233	
382	0	32805	32679	31935	32767	33927	32021	33715	31507	
383	0	32711	32916	31866	33155	33351	32310	33511	31602	
384	0	32873	32831	31990	32995	33023	32518	32935	32412	
385	0	33018	32950	32151	32850	33063	33223	32583	32623	
386	0	32966	32851	32409	33004	31973	34252	32259	32539	
387	0	32926	32989	32441	32970	32327	33027	31103	32921	
388	0	32637	32853	32703	32431	32083	33511	31016	32603	
389	0	32465	32934	32982	32999	32501	33100	32295	32199	
390	0	32690	32663	33153	33031	32977	33228	32578	33009	
391	0	32870	32679	33387	32763	33232	32807	32507	33831	
392	0	32647	32491	33351	32335	33777	32350	34909	34592	
393	0	32607	32487	33188	32478	33665	32023	35876	34951	
394	0	32690	32827	33061	32207	33570	31791	33343	34563	
395	0	32694	32735	32747	31991	32849	32247	31894	34012	
396	0	32824	32918	32603	32359	32642	32135	31751	34041	
397	0	32837	32922	32717	32597	31446	33349	32337	33026	
398	0	32869	32999	32611	32841	31663	33183	32441	32663	
399	0	33038	32814	32447	32747	32843	32815	33299	32091	
400	0	33190	33012	32577	32695	32743	32862	32044	31631	
401	0	33114	32689	32646	32643	34366	31675	31441	30291	
402	0	32919	32831	32935	32482	33799	31982	30631	30812	
403	0	32607	32749	33397	32461	31563	32903	31230	31234	
404	0	32372	32423	33652	32579	32383	33584	33407	31263	
405	0	32692	32681	33483	32591	32914	32765	34723	31747	
406	0	32729	32841	33524	32575	33178	31591	34379	32431	
407	0	32596	33047	33580	32637	32663	31446	34390	33543	
408	0	32774	33101	33375	32668	33287	31145	32833	34079	
409	0	32553	32802	33497	33014	30937	32967	32756	34231	
410	0	32503	32775	33382	33122	30239	33767	31874	34583	
411	0	32625	32755	33123	33087	32195	32983	32064	34479	
412	0	32932	32677	32951	32961	32873	32445	31807	34807	
413	0	33093	32751	32891	32916	32844	32903	32563	33987	
414	0	32948	32442	33075	32340	33391	32263	33657	32691	
415	0	32720	32315	32883	32039	33415	32797	35007	31935	
416	0	32870	32772	32799	32391	32914	33891	34041	32067	
417	0	33006	32950	32493	32751	32903	32503	32431	32487	
418	0	32718	32543	32564	32643	33285	33235	32530	31595	
419	0	32518	32621	32439	32647	33549	33742	31750	30830	
420	0	32637	32754	32341	32720	33316	33735	32429	30829	
421	0	32757	33179	32383	32775	33695	33351	33450	30823	
422	0	32699	33129	32171	32831	33756	32735	32903	31703	
423	0	32681	33095	32064	32821	32411	32567	32379	32023	
424	0	32768	33012	32159	33356	32532	32467	32059	31751	
425	0	32807	32742	32263	33430	32272	33367	31623	31887	
426	0	32868	32955	32159	32933	32239	33263	31739	32998	
427	0	32909	32951	32253	32867	32187	33199	32075	33447	
428	0	32967	32976	32208	32751	31694	33867	32195	33339	
429	0	33069	32971	32135	32453	32358	32798	32559	33303	
430	0	32918	32785	32259	32314	32850	32351	32925	33458	
431	0	32638	32722	32247	32209	33119	31869	32991	33627	
432	0	32553	32631	32070	32502	33343	31623	32692	32902	
433	0	32632	32637	32325	32706	32963	32127	32157	31947	
434	0	32745	32543	32436	32539	32442	32947	31998	32231	
435	0	32773	32407	32605	32677	31878	33685	32526	32503	
436	0	32620	32711	32884	32454	32743	33099	32545	33339	
437	0	32670	32769	32918	32239	33437	32471	32053	33281	
438	0	32708	32743	32987	32375	33071	33009	32066	33415	
439	0	32903	32839	32943	32715	32951	32415	32231	33907	
440	0	32816	32623	33036	32759	32761	32404	32359	33347	
441	0	32660	32423	32965	32935	32703	32647	32589	32942	
442	0	32759	32474	33047	33117	32655	32551	32312	32460	
443	0	32628	32541	33083	33063	32843	32513	32485	32557	
444	0	32663	32879	33191	33287	33245	32499	33555	32295	
445	0	32883	32773	33159	33423	33005	32647	33241	32327	
446	0	32717	32871	33055	32685	33191	32130	32903	32074	
447	0	32571	32613	33077	32226	33522	32295	32419	31917	
448	0	32654	32682	33185	32445	33618	32614	32324	32479	
449	0	32780	32901	33119	32281	33871	32146	32621	32893	
450	0	32814	33003	32933	32090	32555	32791	32822	33236	
451	0	32954	33079	33014	31686	32039	33367	32770	33414	
452	0	32836	33133	32981	31495	32548	32911	32487	33383	
453	0	32756	33124	32815	32057	32989	32643	32210	33357	
454	0	32824	33036	32871	32495	32271	32756	32823	33170	
455	0	32743	32845	32837	32749	31265	33027	33263	32727	
456	0	32720	32732	32887	33213	31709	33439	32825	32167	
457	0	32608	32599	32837	33019	32730	33179	33045	32173	
458	0	32639	32415	32701	32903	32991	32911	32644	32783	
459	0	32717	32551	32851	33187	32551	32839	33324	33055	
460	0	32871	32919	32831	33345	32724	32270	32623	33228	
461	0	32839	32855	32821	33146	32775	32191	32535	32892	
462	0	32677	32665	32834	32956	32902	32543	33383	32867	
463	0	32798	32698	32598	32979	33007	32590	32927	33103	
464	0	32694	32519	32669	32875	32679	32999	32631	32621	
465	0	32661	32647	32591	32683	32711	32708	32492	32621	
466	0	32969	32925	32557	32591	32929	32515	32196	32719	
467	0	33000	33031	32596	32675	32957	32845	32477	32436	
468	0	32919	32935	32534	32703	32769	32885	32599	32181	
469	0	32725	32759	32619	32567	32731	32836	32623	31847	
470	0	32847	32804	32655	32391	32903	32634	32755	31943	
471	0	32900	32831	32668	32191	33092	32499	33091	32214	
472	0	32706	32690	32715	32493	32865	33060	32725	32754	
473	0	32797	32815	32771	32563	32903	33085	32449	32946	
474	0	32712	32762	32879	32511	32949	32823	32633	32711	
475	0	32775	32939	32874	32635	33065	32786	32708	32830	
476	0	32736	32758	32735	32607	32891	32627	32842	32526	
477	0	32743	32899	32925	32511	33252	32383	32861	32541	
478	0	32754	32924	32823	32811	32738	32917	32194	32598	
479	0	32714	32647	32689	32884	32244	33469	31183	32309	
480	0	32750	32675	32501	32586	33750	33087	31305	32508	
481	0	32602	32466	32158	32893	33355	33519	31990	32467	
482	0	32569	32555	32226	33092	32459	33193	32698	32735	
483	0	32767	32715	32111	33047	32189	33058	32998	33211	
484	0	32790	32257	32187	33100	31283	33357	33423	33807	
485	0	33022	33047	32159	33275	32540	32753	33087	35205	
486	0	32830	32919	32388	33126	32813	32222	33091	34491	
487	0	32663	32764	32757	32945	32205	32193	33594	33415	
488	0	32702	32815	32852	32771	33119	31857	33764	33155	
489	0	32578	32811	32727	32497	33251	31943	33333	32641	
490	0	32548	33042	32775	32595	32885	31975	32693	32602	
491	0	32688	33153	32691	32469	32852	32329	32207	32799	
492	0	32615	32942	32747	32391	32361	32684	31559	32455	
493	0	32839	32839	32629	32437	32791	32923	31769	31839	
494	0	32824	32922	32679	32338	33294	32237	31981	31668	
495	0	32900	32975	32719	32367	32987	32439	32756	31195	
496	0	32935	32910	32743	32156	32655	32783	32698	32295	
497	0	32985	32931	32918	32412	32943	32987	33609	31943	
498	0	32858	32829	32988	32535	33051	33389	33579	31610	
499	0	32779	32846	32935	32711	32911	33251	33279	31647	
500	0	32671	32871	32997	32866	32743	33202	32879	32207	
501	0	32653	32775	33047	32647	32633	32991	33063	32429	
502	0	32671	32847	32893	32850	32687	32925	32859	32487	
503	0	32713	32749	32957	32805	32870	32989	32877	32359	
504	0	32748	32775	32903	32685	33065	32634	32775	32391	
505	0	32621	32871	32975	32831	32935	32655	32647	33063	
506	0	32640	32820	32796	32559	32724	32775	32462	33356	
507	0	32574	32430	32685	32455	32599	32569	31635	33903	
508	0	32780	32718	32621	32653	32279	32855	31291	34519	
509	0	32839	32879	32455	32875	32735	32919	31461	34156	
510	0	32822	32911	32391	32629	32839	32386	32463	33259	
511	0	32918	33030	32391	32599	31351	32658	31718	33367	
512	0	32638	32931	32631	32295	30572	33348	31839	32751	
513	0	32592	32836	32663	32660	32287	33179	33461	32551	
514	0	32626	33031	32661	32835	33415	32319	34820	32285	
515	0	32730	33068	32591	32855	32991	32869	32607	32975	
516	0	32795	32982	32635	32791	33131	33371	31150	33146	
517	0	32925	32885	32578	32988	34253	32523	32534	32254	
518	0	32791	32626	32730	32957	34119	32407	34039	31315	
519	0	32611	32359	32935	32805	33754	32615	34459	31007	
520	0	32541	32533	32827	32972	32791	32940	32771	31588	
521	0	32686	32661	33007	32724	32020	32729	32453	32674	
522	0	32950	32797	33127	32391	32910	31641	31233	33317	
523	0	32954	32711	33087	32235	33651	31773	32443	34269	
524	0	32903	32875	33137	32183	33007	32484	32677	34533	
525	0	32800	32738	33038	32442	32468	33599	32230	33637	
526	0	32710	32863	32998	32426	32223	33603	32915	33142	
527	0	32772	32839	32874	32507	32898	32613	33662	32699	
528	0	32882	32839	32875	32525	32932	31949	33534	32484	
529	0	32918	32983	32823	32439	32659	31973	33171	32456	
530	0	32805	32815	32599	32827	32746	32611	33283	32111	
531	0	32701	32799	32554	32835	32724	32901	33205	31479	
532	0	32690	32807	32455	32723	32293	33250	33436	31239	
533	0	32677	32591	32388	32893	32667	33197	32771	31971	
534	0	32677	32657	32558	32757	33281	33089	31567	31983	
535	0	32694	32687	32703	32775	32805	33549	31047	32055	
536	0	32840	32827	32603	32647	33250	33030	31119	32085	
537	0	33012	32914	32735	32679	33215	32747	31375	32799	
538	0	32916	32775	32671	32668	32847	33006	31883	32912	
539	0	32826	32931	32687	32659	32415	32613	32627	32919	
540	0	32740	32895	32620	32701	32059	32607	33071	32993	
541	0	32612	32690	32559	32843	32272	32519	33701	32754	
542	0	32766	32803	32647	32762	32447	32635	32877	33306	
543	0	32709	32773	32473	32658	32555	32971	32674	33831	
544	0	32843	32831	32391	32699	32710	32819	33031	33671	
545	0	32757	32767	32562	32663	32539	32918	32873	33227	
546	0	32588	32811	32628	32727	32515	33103	31990	32827	
547	0	32689	32815	32598	32647	32874	32737	32319	32821	
548	0	32726	32669	32386	32518	32999	33071	32991	32285	
549	0	32892	32887	32573	32532	33038	32773	32686	32711	
550	0	32819	32981	32497	32391	32855	32071	32567	33078	
551	0	32967	33027	32327	32461	33023	32147	32607	32487	
552	0	32836	32839	32311	32595	32975	32557	32071	32423	
553	0	32751	32903	32293	32551	32210	32708	31661	32647	
554	0	32903	32887	32423	32695	31939	32873	32455	32701	
555	0	32814	32642	32553	32773	32591	32807	32743	32431	
556	0	32687	32687	32535	32677	32823	32495	32109	32775	
557	0	32717	32631	32476	32687	33461	32686	33351	32514	
558	0	32560	32430	32759	32695	32815	33943	33365	32310	
559	0	32671	32725	32707	32727	32686	34033	32048	33178	
560	0	32806	32863	32579	32747	32773	33585	31175	33139	
561	0	32969	32931	32943	32781	32755	32345	32877	32545	
562	0	32808	32807	33111	32686	32687	32299	32787	32935	
563	0	32782	32918	33203	32695	33239	32127	32485	33438	
564	0	32669	32767	33203	32662	32379	32751	33142	33316	
565	0	32676	32839	33060	32676	32418	32523	32879	33039	
566	0	32677	32869	33265	32437	32597	32364	32971	32639	
567	0	32726	32903	33143	32679	32505	33047	32711	32493	
568	0	32657	32759	33010	32583	33532	32058	33109	32730	
569	0	32428	32607	33298	32559	33627	31421	34834	32485	
570	0	32623	32721	33151	32633	33863	31735	33949	32990	
571	0	32707	32775	32839	32455	33719	31990	33010	33531	
572	0	32888	32748	32607	32727	31525	33026	32596	33299	
573	0	32898	32815	32455	32647	31237	33207	32999	32817	
574	0	32877	32745	32557	32426	33123	32655	34228	32077	
575	0	32908	32827	32681	32735	33705	32229	34199	31991	
576	0	32822	32647	32479	32717	33423	32417	32977	31913	
577	0	32692	32647	32582	32807	32903	32647	32838	32607	
578	0	32595	32773	32807	32655	32647	32795	32901	32695	
579	0	32588	32829	32935	32623	32415	33323	32945	32073	
580	0	32578	32822	33183	32847	31947	33462	32174	32361	
581	0	32703	32879	33190	32732	32327	33584	31863	32103	
582	0	32852	33015	32939	32541	32855	33135	31908	32135	
583	0	32707	32885	32955	32873	32327	33231	31875	31991	
584	0	32749	32765	32947	32821	31876	33707	31491	32374	
585	0	32959	32871	32725	32718	32796	32860	31215	32964	
586	0	32933	33037	32707	32578	33118	32767	31529	32927	
587	0	32839	32953	32537	32566	32903	33133	31540	33319	
588	0	32822	32934	32358	32571	32295	33138	32310	33403	
589	0	32775	32727	32431	32571	32487	32702	32551	33604	
590	0	32715	32599	32321	32773	32531	32253	32519	34389	
591	0	32688	32629	32293	32837	32982	32220	33078	34219	
592	0	32757	32683	31831	32482	34166	31319	33740	33491	
593	0	32684	32635	31679	32566	34055	32159	33757	32957	
594	0	32655	32589	31946	32749	33231	33044	33119	32563	
595	0	32699	32599	32313	32742	32522	33258	32572	32353	
596	0	32725	32882	32783	32846	32903	32319	32647	31655	
597	0	32718	32675	33269	32666	32832	32439	32060	31430	
598	0	32785	32675	33594	32747	32082	33067	32051	31601	
599	0	32750	32819	33693	32498	32247	32687	32491	31887	
600	0	32647	32879	33625	32567	32510	33157	32948	32199	
601	0	32646	32863	33535	32527	32356	33177	32823	32763	
602	0	32742	32879	33531	32535	32423	32603	32703	33487	
603	0	32839	32977	33556	32527	32727	32014	32605	33970	
604	0	32811	32919	33495	32388	32181	33055	32709	33769	
605	0	32903	32775	33447	32583	32812	32847	32916	33407	
606	0	32903	32830	33157	32534	33143	32391	32695	33466	
607	0	32749	32902	33215	32633	32767	32879	32720	33081	
608	0	32764	32871	33215	32583	32578	33111	32597	32775	
609	0	32726	32791	33182	32815	32636	33583	32101	32133	
610	0	32714	32742	33343	32791	33056	33719	32215	30789	
611	0	32722	32559	33202	32551	33446	32742	32671	30151	
612	0	32839	32743	33317	32775	33572	32471	33320	30959	
613	0	32887	32807	33415	32628	33113	33087	32775	32455	
614	0	32829	32754	33247	32793	32769	32948	32465	33101	
615	0	32775	32775	32973	32711	32343	32837	32523	33028	
616	0	32692	32647	32799	32847	32655	32271	32197	32476	
617	0	32645	32647	32835	32873	32786	32327	31938	32556	
618	0	32526	32774	32914	32948	32335	32722	30959	33267	
619	0	32699	32903	32989	32771	32692	32249	31011	33874	
620	0	32866	32869	33024	32464	32671	31930	31989	34119	
621	0	32997	32957	33159	32493	32159	32455	32615	34284	
622	0	32996	32948	33217	32231	32788	32258	32798	33999	
623	0	32720	32797	33177	32471	32541	32692	33819	33415	
624	0	32669	32629	33227	32390	32663	32526	34779	33143	
625	0	32801	32879	33099	32509	33055	32299	35244	32736	
626	0	32774	32903	32948	32751	33112	32380	34899	31858	
627	0	32938	32917	32821	32735	33191	32596	33701	32126	
628	0	32784	32724	32807	32679	33264	33351	32749	31651	
629	0	32724	32711	32835	32773	33287	33007	32477	31175	
630	0	32812	32807	32731	32861	32801	33299	32417	31205	
631	0	32794	32799	32369	32935	33091	33399	32327	31709	
632	0	32791	32677	32223	32655	33426	32842	32607	32278	
633	0	32639	32679	32175	32715	32359	33041	32647	32357	
634	0	32689	32821	32295	32615	32114	33191	32303	32367	
635	0	32788	32887	32215	32681	32667	32807	32551	32441	
636	0	32804	32797	32123	32482	32466	33165	32539	32775	
637	0	32828	32673	31956	32450	32555	32999	31271	33327	
638	0	32876	32669	32063	32519	32662	32775	31351	33539	
639	0	32794	32811	32180	32303	32405	32947	32506	33543	
640	0	32756	32827	32207	32684	32687	32871	32735	34049	
641	0	32679	32903	32359	32669	33126	31789	31987	34311	
642	0	32724	33018	32381	32577	33422	30267	30866	34117	
643	0	32704	32839	32407	32615	32967	30689	31277	33627	
644	0	32713	32769	32603	32479	31973	31975	32119	32924	
645	0	32750	32847	32681	32638	31671	33207	33142	31955	
646	0	32716	32843	32711	32582	32602	34372	34142	31620	
647	0	32627	32719	32750	32516	33405	35047	33839	31428	
648	0	32594	32575	32519	32838	34148	33751	33879	30981	
649	0	32768	32663	32585	32835	33231	33351	34033	31025	
650	0	32804	32831	32607	32501	32877	32827	32883	32787	
651	0	32813	32599	32631	32759	33159	32941	32007	32895	
652	0	32796	32611	32596	32809	33463	32828	32194	33145	
653	0	32662	32805	32556	32721	32781	32702	32756	33505	
654	0	32854	32919	32202	32715	33047	32553	32191	33911	
655	0	32801	32903	32111	32581	32879	31967	31452	34098	
656	0	32805	32751	32246	32793	30820	32429	31580	33847	
657	0	32667	32614	32263	32775	30659	33619	31289	33082	
658	0	32742	32938	32199	32567	32513	33431	31103	32577	
659	0	32743	32959	32285	32725	33179	32668	32996	32106	
660	0	32748	32799	32458	32674	33201	31862	34853	32273	
661	0	32880	33011	32439	32423	33069	31927	34072	32575	
662	0	32866	33051	32375	32675	31967	32543	33493	32175	
663	0	32788	32863	32593	32594	32291	32634	33078	31802	
664	0	32775	32699	32691	32359	32764	32939	32938	32479	
665	0	32694	32739	32823	32775	32865	32687	32415	32968	
666	0	32535	32820	33137	32674	33039	32388	33411	33431	
667	0	32645	32643	33317	32575	32919	32319	33491	32903	
668	0	32877	32567	33324	32549	33203	32207	33046	32661	
669	0	32818	32595	33309	32775	33404	32574	33490	32567	
670	0	32781	32815	33449	32679	32813	33239	32959	32695	
671	0	32712	32751	33396	32493	32959	32759	31927	33070	
672	0	32764	32708	33255	32659	33059	32388	32298	33082	
673	0	32909	32839	33087	32481	32967	32815	32248	32964	
674	0	32903	32766	33031	32455	33079	32527	32007	32122	
675	0	32796	32739	33047	32573	33031	32647	32461	32383	
676	0	32751	32755	33043	32806	32927	32903	32715	32852	
677	0	32662	32761	32980	32643	32943	32586	32135	33223	
678	0	32583	32772	32939	32773	32898	32980	32107	32499	
679	0	32706	32855	32775	32835	32923	33439	32553	31936	
680	0	32655	32773	32822	32858	33226	33087	33149	31711	
681	0	32807	32898	32711	32697	33028	32895	33222	32135	
682	0	32835	32863	32694	32676	32311	33061	32631	32375	
683	0	32745	32863	32646	32615	32607	32604	32419	32850	
684	0	32678	32987	32771	32431	32985	31879	32658	33114	
685	0	32758	32889	32796	32453	32711	31546	33133	33571	
686	0	32839	32803	32742	32555	32515	31967	32867	33605	
687	0	32758	32735	32759	32613	32178	32684	32292	33887	
688	0	32797	32835	32646	32623	32375	33375	32271	33324	
689	0	32783	32916	32679	32815	32317	34636	31995	32519	
690	0	32784	32759	32662	32787	32429	34263	32415	32165	
691	0	32705	32764	32850	32850	32412	33993	32476	31703	
692	0	32629	32839	32751	32682	33027	33375	31993	31535	
693	0	32715	32889	32859	32877	33191	32765	31717	31879	
694	0	32711	32605	32871	32887	33007	33159	32258	31678	
695	0	32631	32543	32871	32785	33700	32391	32611	32308	
696	0	32605	32615	32823	32578	32861	32517	32673	32643	
697	0	32773	32881	32555	32638	32717	32349	32148	33168	
698	0	32867	32829	32346	32391	32559	32039	32585	33055	
699	0	32850	32807	32023	32680	32729	32129	33739	32470	
700	0	32844	32703	32090	32635	33051	32289	33911	32470	
701	0	32781	32785	32130	32621	33467	31935	33263	33069	
702	0	32813	32527	32066	32713	33081	32239	32605	33213	
703	0	32775	32813	32235	32551	32036	32727	32641	33118	
704	0	32743	32805	32319	32671	32103	32595	32423	33083	
705	0	32757	32853	32559	32436	32486	32775	32387	33389	
706	0	32694	33068	32831	32347	32582	32807	32902	33039	
707	0	32677	32970	32939	32743	32542	32911	32791	33159	
708	0	32686	32886	33159	32803	32839	32727	32617	32897	
709	0	32783	32817	32989	32622	33228	32383	32982	33011	
710	0	32841	32675	33031	32647	32862	32533	32979	32903	
711	0	32756	32798	33180	32511	32499	32931	33148	32738	
712	0	32662	32751	33215	32719	32231	33445	32975	32345	
713	0	32668	32751	33184	32626	32619	33100	32703	32596	
714	0	32818	32870	33131	32595	33437	32375	32351	32575	
715	0	32835	32842	33127	32503	33283	32962	32218	32359	
716	0	32814	32783	33159	32559	33415	32775	32093	32684	
717	0	32724	32769	32935	32607	32373	32903	32561	32689	
718	0	32669	32765	33007	32775	31775	33719	32471	32379	
719	0	32692	32804	32818	32751	32219	33535	32391	32518	
720	0	32775	32911	32645	32483	33135	32742	32325	32643	
721	0	32751	32837	32379	32663	33357	32644	32631	32391	
722	0	32747	32793	32399	32671	32560	32725	33089	32573	
723	0	32647	32695	32343	32747	32573	31830	32948	33274	
724	0	32718	32647	32167	32621	33187	32058	32047	33278	
725	0	32791	32917	32279	32556	33359	32380	32599	33111	
726	0	32787	32775	32179	32714	32047	33323	32895	32628	
727	0	32912	32855	32251	32743	32135	33067	32354	32748	
728	0	32858	32844	32259	32815	31675	33199	31660	33631	
729	0	32771	32743	32295	32708	31151	33575	32058	33539	
730	0	32750	32621	32463	32865	32423	33006	32004	33882	
731	0	32850	32701	32319	32635	34822	31239	32303	33261	
732	0	32984	32854	32485	32620	33698	31323	30553	32847	
733	0	32889	32634	32484	32581	33565	31819	31831	31570	
734	0	32729	32627	32511	32713	33314	33036	33166	31651	
735	0	32631	32815	32471	32704	33191	32559	34399	32491	
736	0	32666	32775	32455	32669	33010	32807	35532	32580	
737	0	32619	32775	32639	32698	32132	33351	35319	32539	
738	0	32724	32743	32563	32647	33239	32617	34805	32217	
739	0	32742	32869	32503	32831	33311	32090	33873	32567	
740	0	32685	32839	32646	32716	33390	32870	32617	32545	
741	0	32669	32750	32738	32799	32722	33654	31919	32039	
742	0	32692	32718	32887	32831	32412	33535	31959	31911	
743	0	32668	32703	32867	33002	32405	33453	31905	32127	
744	0	32716	32746	32869	32595	32338	33053	32019	32605	
745	0	32673	32763	32921	32743	32367	33281	32347	32935	
746	0	32629	32797	32862	32645	32598	32753	32339	33181	
747	0	32558	32771	32959	32564	32993	32258	32775	32679	
748	0	32762	32883	32961	32695	33045	32263	32745	32356	
749	0	32775	32820	32783	32632	33223	31993	32911	31909	
750	0	32748	32819	32877	32495	32743	33271	32495	31852	
751	0	32837	32869	32742	32419	33115	32743	32115	32735	
752	0	32837	32903	32765	32705	33129	32023	32202	32910	
753	0	32815	32807	32676	32685	32818	32084	32363	33159	
754	0	32766	32775	32541	32615	31991	32343	32154	33516	
755	0	32856	32850	32617	32570	32133	32660	31734	33856	
756	0	32922	32822	32583	32557	31911	33427	32119	33719	
757	0	32823	32847	32519	32627	31871	33335	32085	34242	
758	0	32884	32792	32517	32454	32295	33513	32219	33863	
759	0	32870	32871	32383	32653	33037	33325	32125	33573	
760	0	32842	32831	32443	32631	33133	32263	32812	33359	
761	0	32716	32683	32539	32647	33027	31903	33287	33069	
762	0	32676	32588	32473	32718	33026	32237	33159	32783	
763	0	32817	32775	32526	32583	33249	32263	32451	32108	
764	0	32774	32895	32535	32647	33644	32734	32735	31583	
765	0	32653	32663	32599	32611	33127	33301	33455	31331	
766	0	32687	32759	32643	32707	32703	33018	33679	31417	
767	0	32568	32685	32647	32683	31853	33351	33388	31117	
768	0	32655	32774	32445	32795	32380	33490	32755	31151	
769	0	32694	32806	32599	32685	33077	33245	32743	31261	
770	0	32733	32694	32695	32647	32925	33333	32862	32263	
771	0	32760	32775	32523	32685	32915	32635	33055	32967	
772	0	32772	32839	32631	32654	33302	32179	32233	33463	
773	0	32596	32687	32756	32731	32553	32435	31874	33573	
774	0	32728	32675	32671	32757	32390	32647	32087	33319	
775	0	32892	32711	32723	32687	32962	32719	32687	33045	
776	0	32766	32681	32675	32677	33191	32815	33287	32911	
777	0	32710	32855	32715	32519	32903	32866	33295	32707	
778	0	32711	32887	32687	32573	32751	32573	32887	32799	
779	0	32841	32972	32612	32471	32903	32237	32845	32892	
780	0	32884	32989	32663	32370	33159	31958	32561	32859	
781	0	32823	32903	32671	32559	33095	32399	32383	33146	
782	0	32727	32799	32577	32607	33091	32993	32551	32899	
783	0	32765	32799	32698	32351	32711	32761	32793	33195	
784	0	32802	32887	32671	32546	31569	33103	32903	33131	
785	0	32796	32967	32567	32583	32143	32796	32633	33409	
786	0	32799	32838	32731	32437	32308	33220	32423	33375	
787	0	32714	32647	32740	32671	32319	34068	32525	32647	
788	0	32644	32591	32788	32695	33363	33189	32775	32263	
789	0	32734	32694	32726	32509	33445	32647	32201	32902	
790	0	32754	32731	32677	32708	32786	32549	31850	32898	
791	0	32772	32775	32729	32789	33122	32309	31102	32807	
792	0	32839	32732	32623	32692	33143	32370	30377	32730	
793	0	32918	32727	32383	32639	33320	32455	31623	32154	
794	0	32797	32719	32506	32711	32826	32003	33627	32027	
795	0	32783	32756	32567	32841	32575	32263	33549	32427	
796	0	32695	32662	32456	32911	31842	32496	33247	31867	
797	0	32727	32645	32419	32775	32126	32775	33671	31742	
798	0	32937	32717	32332	32743	32655	32764	33538	32351	
799	0	32903	32871	32371	32596	32919	32623	33317	32691	
800	0	32950	32799	32390	32659	32639	32791	33234	32454	
801	0	32841	32811	32378	32674	32647	32827	33435	32245	
802	0	32719	32727	32642	32626	33028	32487	33639	32209	
803	0	32639	32699	32711	32687	33015	32767	33524	32431	
804	0	32645	32795	32766	32551	33607	32391	32910	32674	
805	0	32807	32802	32773	32607	33382	32663	31460	33342	
806	0	32797	32791	32842	32642	31925	33129	31527	33319	
807	0	32732	32775	33031	32585	31214	33127	32208	32959	
808	0	32871	32831	33019	32575	32089	32839	32452	33231	
809	0	32740	32807	33180	32647	32772	32375	31671	33355	
810	0	32840	32785	33254	32532	32911	32167	32467	33302	
811	0	32764	32615	33228	32727	32653	32763	33255	33309	
812	0	32730	32692	33180	32819	32807	33101	33255	33266	
813	0	32639	32647	33047	32723	33276	32871	32849	33597	
814	0	32655	32647	32887	32599	33635	32271	33261	33515	
815	0	32694	32743	32949	32495	33313	32823	33275	33519	
816	0	32619	32705	32925	32615	33311	32345	33214	32901	
817	0	32728	32761	32849	32509	33157	32391	32683	32306	
818	0	32895	32903	32642	32427	32751	32339	32295	32275	
819	0	32905	32903	32481	32361	32691	32791	32090	32135	
820	0	32741	32877	32557	32527	32702	32799	32287	32275	
821	0	32724	32754	32534	32698	32855	32979	32566	31743	
822	0	32690	32723	32486	32679	32955	32626	32658	31500	
823	0	32639	32635	32524	32695	32803	33927	32311	31687	
824	0	32705	32767	32486	32679	32769	33689	32407	32449	
825	0	32754	32791	32534	32550	32839	32635	32389	33039	
826	0	32708	32709	32442	32483	32627	33430	32429	33202	
827	0	32750	32745	32403	32743	32813	33260	32801	32711	
828	0	32822	32710	32409	32655	32847	33215	32943	32183	
829	0	32879	32819	32439	32739	32765	33047	32967	32735	
830	0	32765	32829	32591	32806	32838	32886	32783	33002	
831	0	32775	32751	32511	32565	33267	32162	32468	33623	
832	0	32749	32743	32567	32583	32737	32114	32642	33470	
833	0	32695	32821	32589	32764	32475	32389	32535	33044	
834	0	32784	32739	32545	32787	32551	32284	32834	32789	
835	0	32807	32772	32659	32775	32397	32786	32427	32526	
836	0	32791	32647	32719	32743	32447	32916	32324	32655	
837	0	32745	32775	32647	32747	33031	32563	32134	32703	
838	0	32732	32798	32647	32743	33045	32759	31783	32631	
839	0	32804	32871	32573	32560	33303	32453	32666	32719	
840	0	32733	32836	32753	32637	32791	32495	32796	32556	
841	0	32790	32821	32705	32663	32300	32191	32935	32603	
842	0	32775	32851	32709	32721	32105	32277	32537	32759	
843	0	32753	32839	32727	32605	32325	32714	32677	32495	
844	0	32807	32815	32797	32785	32305	32887	32706	32183	
845	0	33016	33011	32771	32548	32763	33261	32827	32055	
846	0	32863	32879	32729	32623	32863	33063	33335	32115	
847	0	32758	32683	32721	32661	33031	32798	33399	32246	
848	0	32677	32711	32834	32603	32900	32493	33676	32067	
849	0	32696	32562	32743	32599	32183	33343	32507	33062	
850	0	32745	32607	32681	32402	32634	32647	31993	34075	
851	0	32708	32485	32677	32644	32725	33142	31973	34181	
852	0	32758	32493	32657	32607	32592	32355	31991	34605	
853	0	32692	32634	32635	32663	32759	31988	31613	34294	
854	0	32652	32562	32518	32655	32971	32101	31707	33667	
855	0	32579	32431	32629	32677	32189	32806	31722	33709	
856	0	32612	32548	32633	32734	31649	32903	32673	33027	
857	0	32695	32687	32706	32815	33079	32871	33647	31927	
858	0	32678	32647	32695	32801	33682	33601	33874	31751	
859	0	32637	32677	32775	32979	33380	32700	32213	31207	
860	0	32471	32647	32851	32823	33895	32085	32174	30422	
861	0	32384	32681	32765	32861	33767	32500	33477	30835	
862	0	32415	32771	32773	32900	33167	33251	33426	31639	
863	0	32503	32687	32722	32813	32663	33095	33138	32429	
864	0	32571	32822	32751	32795	32555	33257	32132	32750	
865	0	32556	32919	32887	32607	32191	33211	31846	32717	
866	0	32609	32961	32849	32739	32673	33199	31204	32971	
867	0	32647	33131	32869	32619	32767	32754	31748	33063	
868	0	32821	33203	32871	32557	33105	32605	32143	33335	
869	0	32975	33319	32767	32391	33149	32391	30795	33634	
870	0	32992	33373	32901	32333	32630	32171	30269	33483	
871	0	33117	33459	32867	32295	32687	32745	31879	33193	
872	0	33305	33483	32962	32165	32855	32657	34098	32817	
873	0	33292	33495	33063	32359	32968	32114	36007	32413	
874	0	33303	33587	33095	32322	33461	31935	36355	32639	
875	0	33156	33287	32991	32315	33407	32343	36613	32510	
876	0	33211	33267	32850	32365	32759	32671	35253	32625	
877	0	33191	33105	32773	32559	32409	32547	33039	33215	
878	0	33133	33063	32787	32501	32865	32415	32711	32855	
879	0	33015	33049	32723	32502	32111	33622	32130	33007	
880	0	33116	32935	32620	32603	32183	33835	31503	33182	
881	0	33135	33099	32647	32675	32342	34405	32255	32399	
882	0	33222	33122	32591	32613	32859	33551	32378	33004	
883	0	33092	32983	32715	32658	32671	33027	31911	33455	
884	0	32971	32861	32685	32637	33145	32443	32419	32991	
885	0	32953	32517	32487	32947	33014	32727	32423	32402	
886	0	32870	32437	32487	33060	33210	32517	32479	32237	
887	0	32935	32317	32494	33087	32503	32366	32287	32002	
888	0	32983	32159	32518	33151	32331	32183	33223	31085	
889	0	33221	32331	32388	33024	32682	32003	33347	31261	
890	0	33179	32287	32223	32831	31643	32884	33011	31439	
891	0	33039	32121	32229	33083	31309	33033	33201	31461	
892	0	32890	32113	32338	33055	31931	32813	33143	31919	
893	0	32842	32095	32124	32929	32253	32911	33887	31895	
894	0	32673	31981	32295	33129	32465	33071	33618	31963	
895	0	32632	32055	32470	32980	33117	32839	33170	32501	
896	0	32519	32135	32620	32699	32821	33332	31855	32481	
897	0	32303	32237	32579	32846	32525	32911	30895	33248	
898	0	32091	32247	32535	32847	32676	32429	30791	33405	
899	0	32098	32236	32671	32709	32925	32679	30943	33367	
900	0	32280	32375	32564	32801	33599	32039	30330	33852	
901	0	32249	32339	32710	32791	33159	31571	30693	33611	
902	0	32155	32365	32727	32598	32338	32087	30711	33423	
903	0	32231	32439	32847	32559	32243	32775	30650	33685	
904	0	32297	32461	32854	32443	32914	32320	32703	33814	
905	0	32378	32514	32797	32505	33117	32135	34065	33332	
906	0	32311	32671	32871	32615	33607	32210	34695	32917	
907	0	32391	32791	32951	32534	33823	32541	33958	33095	
908	0	32477	32738	32900	32591	34259	32213	34297	32883	
909	0	32450	32647	32876	32658	33695	32595	35149	32925	
910	0	32543	32797	32754	32493	32790	32773	33295	33029	
911	0	32699	32966	32719	32675	32039	32790	32245	32679	
912	0	32785	32883	32974	32670	31927	33202	32175	31961	
913	0	32640	32895	32935	32508	32602	33285	32295	31945	
914	0	32667	32862	32788	32557	33260	32855	32527	31899	
915	0	32696	32879	32765	32617	33335	32854	32639	32123	
916	0	32734	32903	32643	32431	33370	32738	33603	32647	
917	0	32887	33055	32773	32559	33213	32582	33207	33131	
918	0	32836	33071	32835	32561	32878	32985	32617	33191	
919	0	32876	33036	32903	32579	32447	32555	32730	32975	
920	0	32998	33047	32791	32747	32725	32260	31965	33415	
921	0	32929	33019	32797	32679	31852	32167	31899	33550	
922	0	32934	33015	32851	32563	31667	32583	32130	33731	
923	0	32869	32975	32743	32626	31930	33437	32589	33661	
924	0	32806	32941	32599	32573	32257	33542	32379	33740	
925	0	32894	32962	32311	32407	33227	32378	31871	33059	
926	0	32794	33010	32321	32437	33126	32676	32295	32996	
927	0	32738	32839	32411	32551	32599	33369	32797	32775	
928	0	32736	32771	32436	32589	32679	33815	32790	32107	
929	0	32860	32967	32324	32502	32739	33191	32318	32583	
930	0	32967	33074	32342	32583	33301	32291	32609	32207	
931	0	32812	32861	32315	32805	33091	32087	33102	31571	
932	0	32742	32903	32333	32711	32492	32599	32913	31326	
933	0	32799	32847	32359	32925	32549	32727	32935	31643	
934	0	32852	32665	32466	32877	32559	32701	33090	31723	
935	0	32809	32623	32575	32883	32498	32573	33210	31803	
936	0	32853	32519	32611	32733	33005	32231	33223	31903	
937	0	32763	32591	32775	32911	33043	32999	32985	32325	
938	0	32864	32663	32855	32847	32966	34003	32463	32239	
939	0	32783	32756	32710	32555	32579	33975	32421	32535	
940	0	32811	32799	32847	32775	32414	33468	32557	32647	
941	0	32836	32860	32852	32769	33204	32862	32247	33116	
942	0	32747	32869	32877	32527	33410	32822	32501	33415	
943	0	32730	32759	32875	32723	33381	32608	33082	33415	
944	0	32690	32731	32879	32695	33363	31749	33107	33015	
945	0	32804	32823	32863	32477	32775	32121	32205	33099	
946	0	32790	32855	32854	32562	31987	32465	31319	33086	
947	0	32727	32827	32887	32595	31266	33287	31855	32927	
948	0	32701	32807	32866	32495	31178	33429	31898	32871	
949	0	32751	32814	32797	32447	31663	32546	31378	33159	
950	0	32765	32807	32811	32437	32589	32515	31668	33299	
951	0	32745	32871	32873	32365	33591	32670	32147	32647	
952	0	32773	32839	32837	32411	33718	32530	33091	32455	
953	0	32815	32951	32901	32503	33989	32427	33923	32660	
954	0	32735	32759	33155	32571	33271	32567	34423	32669	
955	0	32651	32683	33210	32607	32989	32243	34083	32020	
956	0	32806	32685	33178	32535	32787	32675	34159	32238	
957	0	32788	32743	33089	32429	33671	31736	34702	32297	
958	0	32690	32725	32999	32506	33614	31897	33220	32303	
959	0	32732	32771	32871	32579	32806	32421	31571	32919	
960	0	32830	32949	32775	32535	32508	32919	31724	33250	
961	0	32893	32987	32663	32673	32497	33479	31895	32522	
962	0	32772	32933	32699	32471	32707	33447	31886	32717	
963	0	32732	32815	32809	32699	32719	33257	32075	32819	
964	0	32617	32687	32828	32643	32964	32819	32628	32941	
965	0	32701	32671	32783	32647	33071	32273	32355	32737	
966	0	32692	32876	32674	32743	32603	32527	32391	32791	
967	0	32756	32839	32749	32677	32583	32799	31935	32971	
968	0	32732	32947	32694	32691	32571	33343	31791	33037	
969	0	32881	32809	32749	32475	32647	33191	32053	32948	
970	0	32955	32812	32740	32447	32567	33194	32817	32748	
971	0	32955	32738	32767	32579	32343	33429	33061	32671	
972	0	33016	32631	32621	32799	32715	32229	33117	33053	
973	0	32958	32679	32629	32715	32879	33052	32743	33149	
974	0	32823	32647	32595	32676	32611	32867	32745	33411	
975	0	32814	32772	32556	32563	32486	32500	33590	32787	
976	0	32667	32627	32563	32584	32229	32623	34439	32015	
977	0	32647	32841	32574	32636	32640	32574	33357	31951	
978	0	32731	32734	32497	32599	32783	33226	32647	32015	
979	0	32770	32775	32609	32708	32702	33603	31387	31967	
980	0	32719	32775	32626	32647	32877	33010	31229	32062	
981	0	32710	32703	32647	32567	33423	32807	31668	32415	
982	0	32806	32645	32547	32711	33527	32532	31623	32493	
983	0	32767	32755	32565	32581	33287	32543	31813	32522	
984	0	32710	32693	32631	32620	32694	32623	32247	32986	
985	0	32796	32742	32582	32631	32981	32247	31979	33375	
986	0	32896	32741	32578	32635	32489	32199	33022	33005	
987	0	32790	32703	32562	32601	32131	31759	33335	32919	
988	0	32635	32784	32587	32623	32333	31900	33119	33095	
989	0	32612	32743	32637	32813	32233	32715	33257	32987	
990	0	32719	32737	32673	32855	32579	32615	32714	33127	
991	0	32692	32759	32695	32903	32725	32429	32585	33179	
992	0	32669	32711	32677	32765	32567	32470	32551	33029	
993	0	32676	32647	32679	32635	32719	32775	32811	32983	
994	0	32733	32818	32535	32596	33563	32709	32495	33263	
995	0	32797	32794	32647	32678	33999	33107	32519	33018	
996	0	32697	32759	32647	32739	32782	33839	32053	32609	
997	0	32759	32793	32571	32642	32431	32790	32231	32957	
998	0	32845	32927	32549	32635	32705	32225	32540	33356	
999	0	32847	32926	32535	32687	32747	32205	33060	33245	
1000	0	32767	32739	32646	32831	32775	32251	34847	32866	
1001	0	32673	32694	32578	32871	32980	32111	34663	32603	
1002	0	32679	32854	32637	32749	33343	32253	33659	32667	
1003	0	32686	32819	32775	32679	32515	32692	33807	31670	
1004	0	32671	32628	32731	32612	33067	32775	33972	31087	
1005	0	32646	32510	32643	32554	33735	33031	33203	32079	
1006	0	32734	32763	32525	32647	32719	33303	32796	32247	
1007	0	32861	32923	32647	32671	32095	33889	33255	32485	
1008	0	32903	32805	32613	32671	32346	33411	33919	32903	
1009	0	32911	32643	32805	32811	32711	32629	33647	32798	
1010	0	32927	32564	32991	32579	32580	32958	32802	32679	
1011	0	32943	32645	33077	32673	32814	32411	31671	32370	
1012	0	32830	32642	33147	32655	32895	32563	31389	32823	
1013	0	32839	32671	33091	32703	32875	32455	31770	32829	
1014	0	32732	32765	32967	32711	32930	32784	31922	32471	
1015	0	32799	32903	32839	32645	32863	33067	31765	32783	
1016	0	32711	32887	32921	32756	32391	32786	32083	32962	
1017	0	32658	32735	32865	32801	32461	32935	32382	32635	
1018	0	32684	32751	32647	32809	33015	32603	32787	32275	
1019	0	32663	32751	32707	32599	33145	32527	33212	32808	
1020	0	32640	32795	32705	32775	32698	32958	32559	32634	
1021	0	32632	32876	32676	32642	32572	32677	32365	32619	
1022	0	32731	32903	32671	32715	32740	32231	32323	32819	
1023	0	32869	32903	32591	32647	32900	32769	32263	32815	
1024	0	32737	32749	32711	32700	32614	33308	32783	32743	
1025	0	32716	32743	32758	32735	32455	33309	32519	32436	
1026	0	32741	32787	32619	32623	32577	33119	32109	32885	
1027	0	32749	32815	32699	32681	32767	32483	32530	33270	
1028	0	32706	32855	32589	32578	32348	32747	32555	33423	
1029	0	32674	32827	32583	32738	32639	32641	32749	33577	
1030	0	32647	32971	32663	32762	32767	32683	31777	33303	
1031	0	32696	32891	32673	32551	32305	32764	32135	32959	
1032	0	32742	32827	32687	32727	32455	33245	31651	32629	
1033	0	32742	32787	32855	32729	32550	33191	31252	32437	
1034	0	32652	32729	32804	32712	33247	32279	31170	32623	
1035	0	32520	32612	32839	32762	33897	31715	32559	32577	
1036	0	32660	32711	32710	32532	34293	31653	33389	32389	
1037	0	32742	32749	32551	32390	33683	32133	32935	32573	
1038	0	32881	32723	32668	32095	33069	32955	32937	32529	
1039	0	33108	32810	32695	32325	32451	33429	33444	32177	
1040	0	33199	32847	32657	32307	32821	32843	33666	32263	
1041	0	33006	32823	32596	32309	32551	32923	33261	32617	
1042	0	32788	32715	32615	32481	32409	32861	32943	32903	
1043	0	32619	32877	32551	32445	32468	32844	32914	32263	
1044	0	32672	32711	32702	32743	32748	32735	33167	32055	
1045	0	32917	32839	32691	32798	32967	32359	33165	32407	
1046	0	32798	32883	32583	32727	32303	32837	32935	32725	
1047	0	32606	32851	32630	32971	32103	32999	33035	33189	
1048	0	32717	32851	32679	32935	32459	32903	32607	33139	
1049	0	32851	32919	32660	32879	32895	32707	32607	32933	
1050	0	32898	32955	32703	32626	32695	32878	32835	32671	
1051	0	32893	32983	32667	32677	32647	32903	32599	32791	
1052	0	32863	32839	32663	32735	32975	32739	32443	32963	
1053	0	32834	32564	32609	32681	33269	32425	33139	32571	
1054	0	32788	32487	32751	32501	32967	32765	33029	32575	
1055	0	32630	32603	32764	32465	32647	33043	32493	32423	
1056	0	32575	32631	32695	32583	33061	32893	32166	32435	
1057	0	32454	32589	32750	32663	32533	33121	32659	32479	
1058	0	32505	32742	32702	32743	32075	33074	32910	32708	
1059	0	32552	32895	32647	32603	32681	32676	32407	32823	
1060	0	32751	32964	32711	32764	33249	32231	31721	32911	
1061	0	32830	32946	32711	32717	32637	32516	31191	33247	
1062	0	32875	32879	32647	32644	31911	32765	31351	33641	
1063	0	32837	32837	32685	32735	31847	32927	32125	33159	
1064	0	32891	32799	32631	32731	32150	33505	32935	33375	
1065	0	32846	32819	32729	32487	32668	33205	32697	33959	
1066	0	32861	32877	32772	32661	33241	32465	32047	33543	
1067	0	32735	32853	32751	32691	33639	32301	31386	32660	
1068	0	32759	32797	32748	32517	33681	32431	31543	31911	
1069	0	32691	32683	32733	32723	33532	32575	33141	31527	
1070	0	32647	32574	32597	32748	32998	31947	33743	31587	
1071	0	32592	32482	32678	32718	32343	32346	32718	32239	
1072	0	32679	32581	32647	32715	32797	32644	32335	32340	
1073	0	32647	32699	32679	32679	32793	32583	33071	32275	
1074	0	32669	32799	32671	32647	32743	32551	33575	32756	
1075	0	32838	32799	32575	32647	33269	32175	33616	33151	
1076	0	32876	32802	32535	32583	33935	32211	34113	32999	
1077	0	32751	32747	32707	32813	33570	33335	33863	32527	
1078	0	32775	32671	32743	32804	32576	34179	32673	32609	
1079	0	32835	32771	32730	32603	32522	33766	32149	33097	
1080	0	32802	32903	32743	32714	32692	32722	32467	33555	
1081	0	32783	32883	32767	32617	32423	32495	32521	32899	
1082	0	32741	32863	32698	32775	31771	32926	32863	32647	
1083	0	32802	32871	32706	32684	31961	32639	32842	32531	
1084	0	32880	32847	32725	32477	32579	32647	33055	32332	
1085	0	32849	32857	32743	32663	33455	32338	33146	32445	
1086	0	32813	32694	32787	32611	33223	32545	32775	32462	
1087	0	32884	32671	32727	32561	32914	32643	32813	32355	
1088	0	32773	32832	32820	32701	32647	33095	33271	32215	
1089	0	32727	32727	32709	32679	32567	33561	33035	32415	
1090	0	32695	32677	32764	32743	32082	33127	32291	32647	
1091	0	32881	32730	32583	32489	32759	32599	31485	32527	
1092	0	32890	32869	32642	32674	32718	32634	32147	32316	
1093	0	32805	32703	32627	32703	32775	32663	32519	32263	
1094	0	32746	32788	32567	32555	32749	32383	32737	32882	
1095	0	32903	32805	32583	32525	31927	32799	32349	33389	
1096	0	32754	32837	32801	32667	31879	32853	31818	33255	
1097	0	32621	32750	32767	32571	32855	32766	33115	33215	
1098	0	32644	32809	32745	32695	32940	33091	33295	33394	
1099	0	32668	32719	32734	32775	33047	33587	31823	34293	
1100	0	32647	32687	32570	32807	33605	32838	31543	34462	
1101	0	32546	32723	32638	32831	33327	33517	31463	33465	
1102	0	32806	32877	32700	32915	33165	32295	30795	33287	
1103	0	33021	33055	32699	32895	31855	32687	30185	33543	
1104	0	33070	33062	32653	32775	32041	32418	30164	32887	
1105	0	32928	33022	32745	33004	32943	32310	31231	31295	
1106	0	32827	32831	32742	32754	32391	31610	32957	30630	
1107	0	32864	32828	32858	32933	32149	31879	34771	30380	
1108	0	32774	32919	32910	32903	33251	31730	36981	30921	
1109	0	32738	32985	32910	32673	34376	31479	37998	31844	
1110	0	32926	32683	32813	32658	34671	31460	37245	32037	
1111	0	32852	32673	32758	32706	34279	32505	35787	31925	
1112	0	32647	32719	32687	32613	33395	33204	33799	32877	
1113	0	32725	32567	32703	32573	32679	33359	32501	33339	
1114	0	32934	32710	32827	32491	31806	33746	31701	33629	
1115	0	32858	32799	32663	32603	32065	33074	31439	33311	
1116	0	32804	32854	32671	32508	31911	33375	31527	33614	
1117	0	32836	33037	32559	32681	32375	32967	32211	32955	
1118	0	32604	32747	32580	32941	32191	33799	32819	32863	
1119	0	32695	32795	32599	32738	32709	32299	32135	33439	
1120	0	32674	32735	32542	32795	32605	33659	32113	32562	
1121	0	32701	32658	32595	32517	32645	33274	32085	32447	
1122	0	32751	32843	32636	32749	32215	32501	32605	32333	
1123	0	32679	32591	32662	32764	32607	31923	32309	31988	
1124	0	32731	32631	32791	32916	32887	32917	31604	32141	
1125	0	32681	32605	32818	32771	33010	33156	30870	31992	
1126	0	32862	32860	32831	32917	33107	33451	30551	32943	
1127	0	32804	32843	32796	32851	33299	33687	29557	33299	
1128	0	32684	32683	32639	32863	32826	33651	29799	33599	
1129	0	32791	32854	32662	32805	32197	33335	31801	33799	
1130	0	32765	32731	32775	32845	31681	33207	33428	32749	
1131	0	32728	32758	32801	32831	32411	33095	34096	32263	
1132	0	32645	32587	32814	32748	32161	33399	34444	33118	
1133	0	32775	32855	32671	32414	33618	31535	34387	32917	
1134	0	32790	32695	32807	32295	33543	31251	34074	32255	
1135	0	32769	32709	32837	32405	32749	32250	33750	32342	
1136	0	32647	32793	32841	32333	32511	32235	33443	32289	
1137	0	32606	32718	32617	32222	32668	32343	31986	32743	
1138	0	32519	32663	32615	32183	33428	31643	32002	32079	
1139	0	32595	32519	32647	32333	33463	32012	32230	32610	
1140	0	32698	32639	32511	32465	33139	33415	32130	32831	
1141	0	32670	32679	32471	32686	32521	34061	32951	33092	
1142	0	32759	32687	32615	32643	31879	33754	33655	32619	
1143	0	32838	32827	32615	32867	32807	32475	33561	33131	
1144	0	32946	32847	32839	32886	33114	32405	32715	34225	
1145	0	32869	33001	32845	32933	32803	31912	30966	34439	
1146	0	32983	32997	32878	32703	31711	30875	30481	34277	
1147	0	32734	32955	32903	32687	32119	31828	31718	33771	
1148	0	32742	33095	32915	32796	33530	32062	31867	33639	
1149	0	32838	32973	32912	32663	34460	31682	33332	33076	
1150	0	32785	32868	32982	32550	33707	32307	35648	32739	
1151	0	32809	32708	32989	32663	32841	33501	34822	31983	
1152	0	32716	32655	32895	32733	33295	33437	34231	31600	
1153	0	32624	32623	32799	32621	33031	33223	34023	31985	
1154	0	32804	32690	32791	32663	32710	32791	33799	32983	
1155	0	32701	32743	32854	32503	32221	33354	32406	33293	
1156	0	32572	32715	32871	32730	32359	34182	31927	32003	
1157	0	32525	32503	32834	32834	32299	34386	32039	30654	
1158	0	32677	32582	32757	32899	32087	33852	31875	29763	
1159	0	32741	32927	32635	32855	32210	33299	31567	29759	
1160	0	32751	33086	32590	32675	32787	33159	32411	30907	
1161	0	32844	32918	32656	32799	33179	32143	32359	31155	
1162	0	32869	32941	32775	32911	32838	32546	32023	32229	
1163	0	32756	32731	32755	32887	32525	32507	32667	32537	
1164	0	32798	32551	32694	32841	32903	32103	33263	33159	
1165	0	32740	32525	32454	32731	32809	32387	32845	34134	
1166	0	32804	32471	32428	32633	32826	31791	32949	34149	
1167	0	32817	32569	32463	32570	32567	32175	33095	33983	
1168	0	32868	32743	32610	32723	32087	32885	32365	33917	
1169	0	32877	32842	32623	32563	32659	31731	31653	33493	
1170	0	32710	32863	32683	32403	32977	32041	31508	32341	
1171	0	32854	32634	32642	32564	32987	32506	31991	31623	
1172	0	32996	32631	32695	32463	33015	32871	32103	31965	
1173	0	32828	32765	32877	32367	32692	33460	31541	32537	
1174	0	32676	32837	32825	32595	32615	33551	31915	32459	
1175	0	32733	32967	32937	32669	33223	33187	32479	32449	
1176	0	32875	32917	32839	32548	33967	32530	33229	32643	
1177	0	32743	32695	32951	32805	32994	32636	33671	32242	
1178	0	32836	32823	32909	32739	32807	32935	33383	33175	
1179	0	32903	32829	32851	32639	33498	32516	33791	33487	
1180	0	32868	32703	32694	32647	33055	32775	32903	33484	
1181	0	32592	32658	32711	32671	32070	33465	33482	33263	
1182	0	32538	32711	32567	32541	32487	33063	34603	33095	
1183	0	32558	32719	32655	32830	31989	33175	33655	32887	
1184	0	32752	32815	32515	32829	31640	32871	32647	33427	
1185	0	32983	32951	32391	32587	32355	32733	32489	33836	
1186	0	33001	32983	32529	32843	32538	32855	32446	33475	
1187	0	32915	32917	32516	33047	32647	33000	32473	32730	
1188	0	32843	32708	32661	32958	33023	32998	32195	32667	
1189	0	32876	32673	32755	33047	32714	32981	31359	33541	
1190	0	32646	32737	32821	33027	31979	33124	31444	33522	
1191	0	32647	32638	32715	33199	32174	32260	31717	33247	
1192	0	32852	32665	32723	33087	32775	31750	30901	33426	
1193	0	32996	32823	32551	33047	32969	32581	29383	33206	
1194	0	32859	32850	32431	33053	33127	32770	31019	31943	
1195	0	32761	32854	32588	32890	33959	32739	33671	31062	
1196	0	32690	32765	32806	32903	33287	32250	34253	31287	
1197	0	32564	32762	32573	32821	33035	32117	35207	31985	
1198	0	32613	32721	32735	32726	33463	32004	36739	33069	
1199	0	32756	32647	32783	32663	32741	33254	35125	32946	
1200	0	32784	32719	32756	32341	32407	33812	32962	32263	
1201	0	32698	32695	32786	32507	32359	33517	31691	32635	
1202	0	32731	32767	32829	32463	33866	31997	32692	33273	
1203	0	32655	32898	32837	32359	33613	31879	33181	33325	
1204	0	32708	32767	32807	32423	32683	31837	32501	33371	
1205	0	32911	32820	32967	32183	33141	31869	32341	33364	
1206	0	32773	32847	32931	32319	32807	32231	32902	33409	
1207	0	32819	32903	33111	32349	31687	32710	32673	33266	
1208	0	32960	32989	33159	32287	31495	32327	31711	33815	
1209	0	32943	32941	32983	32327	32261	33415	31049	33415	
1210	0	33011	32891	32805	32299	32782	34295	31290	32357	
1211	0	32838	32694	32615	32477	32820	33853	30278	31945	
1212	0	32679	32535	32491	32582	32561	33469	30567	31723	
1213	0	32587	32443	32455	32570	31701	33959	31899	30535	
1214	0	32808	32765	32291	32623	32498	32063	32242	30959	
1215	0	32965	32967	32179	32685	32991	32041	32311	31009	
1216	0	32849	32962	32439	32669	33127	33037	32153	31415	
1217	0	32634	32759	32423	32903	33257	32749	32958	31663	
1218	0	32635	32647	32310	32999	33489	32775	32971	31571	
1219	0	32655	32775	32096	32930	34055	32188	34129	32025	
1220	0	32719	32764	31013	32943	33581	32595	35430	32202	
1221	0	32655	32615	32687	32931	32966	33180	35575	32427	
1222	0	32622	32635	32767	32871	32723	32933	34161	33159	
1223	0	32624	32514	33229	33013	32914	33011	33266	32967	
1224	0	32542	32405	33075	32895	32699	32967	33887	32623	
1225	0	32612	32719	32933	32815	32739	32614	33115	33494	
1226	0	32812	32842	33047	32519	32570	32525	31189	34015	
1227	0	32844	32941	33043	32455	32515	32407	30377	34439	
1228	0	32681	32943	33095	32819	32562	32293	30796	34411	
1229	0	32671	32757	33191	32731	32671	31910	31879	34031	
1230	0	32587	32763	33199	32735	32313	32253	32734	33599	
1231	0	32743	32799	33339	32372	32219	33141	32850	33471	
1232	0	32869	33027	33182	32258	32667	32745	32847	33254	
1233	0	32960	33138	32903	32479	32952	33143	34063	32457	
1234	0	32757	33221	32403	32528	32615	33703	34166	31663	
1235	0	32641	32839	32623	32500	32391	34189	33900	31744	
1236	0	32684	32566	32514	32683	31930	33287	33956	31174	
1237	0	32546	32617	32899	32775	32591	32807	33369	30559	
1238	0	32686	32738	32932	32885	32943	32478	32155	31367	
1239	0	32620	32635	33138	32963	33007	32278	31629	31926	
1240	0	32748	32436	33127	32835	32535	32475	30145	33327	
1241	0	32858	32533	33002	32818	32071	32893	29836	33894	
1242	0	33005	32687	32978	32855	33091	32677	29818	34640	
1243	0	32903	32629	32810	32903	34085	33055	29458	35090	
1244	0	32734	32535	32565	32923	33829	33617	29398	34740	
1245	0	32769	32619	32757	32863	33319	33367	31491	33206	
1246	0	33046	32903	32722	32873	33681	31679	32983	32567	
1247	0	32798	32895	32685	32919	32539	31218	34157	32151	
1248	0	32638	32775	32626	32713	31222	31980	35491	32303	
1249	0	32530	32962	32621	32615	32301	31601	36502	32193	
1250	0	32740	33004	33052	32423	33535	31539	36007	32597	
1251	0	32799	32815	33298	32478	33329	32333	33671	33055	
1252	0	32775	32814	33339	32375	33009	32642	33055	33311	
1253	0	32958	32879	33239	32361	33211	32831	32647	33269	
1254	0	32855	32796	32747	32371	33541	33128	32047	32975	
1255	0	32800	32923	32724	32556	32219	34091	32020	32599	
1256	0	32897	33063	32493	32607	32149	33835	32104	32558	
1257	0	33071	33029	32611	32739	33063	32790	32151	31779	
1258	0	33001	33087	32515	32579	33001	32871	32860	31343	
1259	0	32954	32751	32387	32751	32500	32791	33067	31610	
1260	0	32775	32591	32055	32843	32295	33266	33471	31836	
1261	0	32585	32562	32011	32891	32446	32639	34067	32067	
1262	0	32626	32423	32049	32979	32705	32308	34066	32047	
1263	0	32608	32587	32007	33009	33431	31954	34297	32189	
1264	0	32608	32668	31978	32847	32835	31958	33203	32274	
1265	0	32603	32529	31984	32817	32215	33207	32775	32146	
1266	0	32527	32711	32287	32983	32299	33671	32389	32263	
1267	0	32549	32708	32391	33050	32487	33346	32171	32635	
1268	0	32998	32767	32855	32892	32434	33133	32055	33191	
1269	0	32959	32987	32828	32855	32163	33239	32372	33492	
1270	0	32820	32903	32975	32562	32142	33302	31335	33639	
1271	0	32867	32932	32999	32631	32383	32494	31505	33540	
1272	0	32876	33037	32941	32596	32962	32153	32018	33255	
1273	0	32929	33038	32923	32431	33027	32126	32479	33199	
1274	0	32704	32951	33233	32383	32791	32285	33011	33346	
1275	0	32742	33131	33159	32322	33062	32428	32813	33511	
1276	0	32677	33023	33170	32383	33119	32791	33210	33055	
1277	0	32518	32863	33127	32455	32716	33281	32295	32629	
1278	0	32772	32937	32848	32239	33282	32113	30829	33084	
1279	0	32896	32971	32391	32295	33271	31492	30276	33583	
1280	0	32632	32711	32799	32621	32095	32043	30705	32964	
1281	0	32720	32829	32874	32575	32067	32191	30911	33170	
1282	0	32878	32751	32855	32598	31991	33535	30599	33295	
1283	0	32900	32923	32894	32695	32924	34273	31992	32476	
1284	0	32740	32751	33006	32685	32749	34204	33308	32127	
1285	0	32709	32615	32941	32797	32431	33415	33671	32839	
1286	0	32851	32854	32876	32887	33065	32855	34102	32681	
1287	0	32846	32647	32955	33101	32631	33490	35596	31647	
1288	0	32763	32495	32772	33083	33167	33051	36575	31407	
1289	0	32698	32556	32703	33115	33400	31719	36243	32096	
1290	0	32802	32667	32878	32863	34076	30627	34998	31751	
1291	0	32870	32647	32748	32727	34336	30951	33159	32006	
1292	0	32805	32941	32775	32771	33740	31831	31355	32814	
1293	0	32773	32895	32911	32887	33343	32389	29971	32507	
1294	0	32591	32603	32951	32852	32749	32763	31284	31779	
1295	0	32663	32674	32927	32572	31670	33564	31213	32917	
1296	0	32742	32869	32687	32734	31845	34049	31349	32743	
1297	0	32579	32850	32823	32630	32631	33407	32675	32082	
1298	0	32743	32690	32700	32670	33063	33367	33443	32423	
1299	0	32771	32775	32526	32523	32967	32743	33471	33565	
1300	0	32870	32818	32795	32461	32630	32739	32751	34333	
1301	0	32812	32934	32217	32524	32962	32818	32775	32863	
1302	0	32763	32775	32399	32454	32407	32806	32940	33122	
1303	0	32879	32823	32171	32430	31730	32247	31795	34039	
1304	0	32788	32833	32293	32340	31699	32433	31135	33458	
1305	0	32738	32846	32347	32133	32031	32814	30953	33099	
1306	0	32849	33083	32391	32303	32911	32818	30819	32847	
1307	0	32678	32946	32499	32371	33223	33451	31532	32052	
1308	0	32523	32638	32663	32438	33482	32971	32771	31174	
1309	0	32608	32583	32677	32603	34183	31903	35040	30975	
1310	0	32729	32543	32533	32535	34423	31659	36623	31466	
1311	0	32754	32588	32432	32566	33543	32475	35557	32333	
1312	0	32666	32673	32367	32751	32303	33235	34167	33110	
1313	0	32738	32683	32317	32789	31815	33189	33477	33577	
1314	0	32807	32727	32470	32757	31811	33447	32903	33179	
1315	0	32829	32927	32519	32935	31959	33331	32479	33849	
1316	0	32906	32903	32719	32863	32095	32991	32225	34199	
1317	0	32870	32795	32739	32811	32533	32825	32517	33995	
1318	0	32920	32798	32739	32959	32871	32347	32546	34011	
1319	0	32827	32688	33041	32934	32775	32575	31467	34681	
1320	0	32748	32721	32903	32930	32095	32570	30787	34659	
1321	0	32718	32867	32901	32769	32317	32239	30699	33767	
1322	0	32729	32949	33051	32939	32458	32148	31013	33191	
1323	0	32750	32823	33099	32835	33313	30833	30747	33112	
1324	0	32878	32767	33038	32719	33618	32103	31620	32287	
1325	0	32749	32804	32913	32705	33855	33019	32289	31282	
1326	0	32646	32716	32941	32663	33599	33052	34183	30191	
1327	0	32524	32567	32663	32772	33766	32613	35671	29650	
1328	0	32616	32629	32591	32647	33227	33831	33783	30311	
1329	0	32908	32897	32495	32159	33315	32713	32062	32133	
1330	0	32864	32679	33026	32378	32961	32893	31680	32729	
1331	0	32678	32551	33215	32461	32063	33231	32199	32848	
1332	0	32768	32773	33257	32291	32235	32716	33115	32850	
1333	0	32952	32893	33298	32476	32183	33526	33909	32434	
1334	0	32787	32877	33199	32466	32002	33895	33681	31847	
1335	0	32703	32937	33374	32357	32655	33815	32461	31995	
1336	0	32670	32759	33463	32655	32678	33491	32763	32119	
1337	0	32820	32789	33316	32851	32251	32903	32835	32787	
1338	0	32822	32763	33346	32754	32667	32453	33735	33098	
1339	0	32700	32895	32557	32837	32947	32335	34624	32951	
1340	0	32608	32879	32199	32749	32935	31915	34037	32703	
1341	0	32677	32623	33220	32633	33266	31874	32775	33287	
1342	0	32841	32663	34039	32887	33052	31967	32484	33413	
1343	0	32823	32595	33223	32959	32459	32620	32718	33867	
1344	0	32663	32675	32567	32791	32645	33203	32487	33517	
1345	0	32688	32790	32039	32851	32031	33359	32074	33133	
1346	0	32728	32823	31822	32775	31877	33207	32018	32556	
1347	0	32828	32807	31471	32863	32433	33191	32339	32011	
1348	0	32727	32903	31618	32647	32567	33175	31821	32570	
1349	0	32790	32943	31642	32871	32837	32263	31702	32763	
1350	0	32725	32870	31561	32853	32852	32306	31782	33263	
1351	0	32867	32818	31663	32601	32899	32407	31127	33541	
1352	0	32855	32799	31634	32726	33195	31975	31926	33104	
1353	0	32647	32736	31719	32683	33255	31967	33255	32188	
1354	0	32856	32767	31889	32535	33037	32647	33011	31970	
1355	0	32663	32743	31939	32639	32695	33527	31775	31890	
1356	0	32796	32810	32387	32628	32703	33263	31133	32688	
1357	0	32830	32899	32383	32461	32775	32334	32810	32455	
1358	0	32778	32791	32201	32615	33001	32797	33223	33031	
1359	0	32733	32711	32364	32647	32821	32919	32915	33403	
1360	0	32843	32775	32332	32617	33741	32814	31869	33658	
1361	0	32679	32658	32491	32447	33325	33972	33039	33550	
1362	0	32442	32695	32335	32605	32575	33858	33354	33871	
1363	0	32742	32743	32663	32677	31819	33733	32647	33159	
1364	0	32665	32681	32969	32469	32716	32941	32599	32263	
1365	0	32883	32763	33014	32567	33787	31473	32119	32539	
1366	0	32916	32758	32887	32593	32627	31639	31399	32975	
1367	0	32701	32825	32631	32417	32503	31891	32403	32715	
1368	0	32775	32727	32727	32547	33086	32007	34107	31927	
1369	0	32956	32758	33245	32438	32775	32807	35013	31809	
1370	0	32798	32727	33287	32511	32439	33435	34530	31693	
1371	0	32630	32735	32999	32607	32711	32591	33439	32194	
1372	0	32674	32635	33122	32716	32587	32605	33855	33099	
1373	0	32703	32706	33007	32786	32635	32423	33733	33571	
1374	0	32773	32807	32978	32767	32406	32843	33445	33170	
1375	0	32938	32793	32861	32831	32383	33491	33187	32639	
1376	0	32831	32823	32812	32783	32793	32791	33585	32323	
1377	0	32751	32769	32687	32931	32599	32528	34421	32535	
1378	0	32805	32763	32941	32853	32263	32879	33917	32753	
1379	0	32951	32847	33015	32719	32438	33069	32950	32941	
1380	0	32954	32831	32827	32766	33117	32335	32775	32459	
1381	0	32892	32939	32964	32751	32833	32531	33655	32363	
1382	0	32919	32983	33117	32631	32386	33011	33498	32050	
1383	0	32821	33047	33399	32557	32322	33427	33084	32349	
1384	0	32735	32894	33239	32604	33028	32124	32105	32237	
1385	0	32738	32877	33333	32527	33129	32051	32601	32095	
1386	0	32705	32685	33478	32502	32775	33095	32503	32443	
1387	0	32877	33023	33298	32541	32565	32891	31154	32871	
1388	0	32828	32987	33223	32551	32245	33151	29975	32802	
1389	0	32623	32855	33047	32660	32926	33049	30548	31693	
1390	0	32617	32695	32916	32435	33767	32818	32590	31982	
1391	0	32599	32573	33010	32607	34156	31527	35108	32647	
1392	0	32514	32367	32787	32708	34079	30855	35939	33687	
1393	0	32548	32515	32663	32775	33023	31767	35879	33798	
1394	0	32716	32809	32459	32531	32707	31732	35647	33767	
1395	0	32817	33029	32583	32295	32451	32543	33833	33839	
1396	0	32948	33005	32439	32565	31961	34012	32732	33521	
1397	0	32799	32903	32467	32595	31999	34207	32095	33013	
1398	0	32738	33024	32547	32407	32619	34484	31135	32893	
1399	0	32592	32847	32589	32535	32391	33895	31835	32839	
1400	0	32517	32596	32628	32429	32577	32519	33223	32471	
1401	0	32647	32595	32675	32443	33706	32583	33246	32151	
1402	0	32732	32726	32741	32701	34137	33411	32767	32487	
1403	0	32772	32829	32727	32535	33810	33322	32607	32155	
1404	0	32799	32799	32751	32795	33052	32897	33117	32134	
1405	0	32811	32559	32659	32687	32893	32841	33247	31679	
1406	0	32798	32625	32513	32828	33226	31976	32918	31783	
1407	0	32854	32591	32620	32835	32302	32454	32247	31911	
1408	0	32884	32623	32819	32999	31437	32535	31168	32850	
1409	0	32858	32793	32743	32851	31765	32105	30125	33341	
1410	0	32756	32583	32668	32985	31529	32135	30765	33709	
1411	0	32798	32815	32583	32838	32327	31783	31061	33383	
1412	0	32772	33055	32743	33039	33082	32051	31399	32991	
1413	0	32668	32795	32795	32973	32805	33635	32891	32295	
1414	0	32599	32426	32825	33106	32703	33701	33831	31874	
1415	0	32692	32535	32883	32962	32863	32763	33437	32633	
1416	0	32970	32775	32679	32703	32899	32716	32841	33667	
1417	0	32919	32885	32633	32589	32867	32623	32590	33151	
1418	0	32804	32927	32443	32455	32503	32471	32663	32797	
1419	0	32647	32935	32633	32594	32567	33323	32679	32683	
1420	0	32763	32734	32883	32455	32854	33058	32312	31857	
1421	0	32937	32645	32796	32487	32719	33327	32084	31159	
1422	0	32903	32703	32734	32343	32423	33439	31772	32309	
1423	0	32801	33015	32591	32522	31892	33229	31947	33632	
1424	0	32733	33010	32599	32415	32434	32295	31747	34199	
1425	0	32775	32747	32663	32689	32773	32157	31572	33919	
1426	0	32863	32786	32806	32519	33607	31388	31543	34267	
1427	0	32713	32898	32903	32503	33068	31447	31935	34173	
1428	0	32704	32935	32835	32567	32700	31893	32566	33373	
1429	0	32667	32834	32751	32577	33460	32497	31299	33577	
1430	0	32830	32843	32621	32497	34399	32447	32173	32251	
1431	0	33040	32927	32578	32466	33719	33074	33188	32018	
1432	0	32882	32810	32662	32647	33159	33663	33927	31910	
1433	0	32870	32615	32912	32690	32703	33271	33701	32101	
1434	0	32539	32571	32941	32599	32993	32681	33081	31511	
1435	0	32605	32775	32795	32818	33030	32702	33462	31067	
1436	0	32694	32759	32709	32647	32353	33095	32714	31733	
1437	0	32814	32839	32647	32775	32601	32428	32095	32167	
1438	0	32662	32679	32738	32827	31725	33830	32109	32975	
1439	0	32748	32708	32759	32710	32125	32929	31762	33463	
1440	0	33000	32959	32671	32677	32999	31643	30969	33111	
1441	0	32907	33018	32483	32646	33450	31862	30635	33319	
1442	0	32759	33005	32455	32763	33167	32643	31029	33951	
1443	0	32647	32877	32516	32850	32638	33277	31831	33383	
1444	0	32659	32887	32729	32711	33047	33061	32391	33031	
1445	0	32679	32855	32719	32623	32795	32942	32559	31703	
1446	0	32612	32830	32607	32558	32121	32427	33428	31486	
1447	0	32687	32709	32537	32733	30882	32935	33313	33104	
1448	0	32935	32530	32474	32671	32915	32799	32775	33990	
1449	0	32854	32579	32459	32630	33481	32071	32831	33531	
1450	0	32827	32694	32482	32639	33273	32628	33961	30867	
1451	0	32722	32732	32655	32591	33616	33791	34751	29531	
1452	0	32709	32749	32589	32597	32902	33613	33159	31001	
1453	0	32644	32685	32634	32671	32783	32959	32197	31941	
1454	0	32743	32763	32601	32511	32695	32727	32356	32123	
1455	0	32808	32729	32743	32453	32679	32323	32407	32445	
1456	0	32825	32631	32570	32383	32607	32469	32875	32185	
1457	0	32687	32421	32551	32682	32663	33119	32737	32293	
1458	0	32810	32540	32514	32591	32391	33029	32126	33222	
1459	0	32831	32717	32295	32791	32231	33055	31397	33895	
1460	0	32751	32823	32366	32733	32437	33025	32194	33759	
1461	0	32761	32817	32311	32775	32838	32566	33094	32903	
1462	0	32780	32755	32533	32815	32210	33283	33217	32791	
1463	0	32815	32751	32935	32732	31981	33295	32306	33859	
1464	0	32771	32783	32934	32867	32445	32349	31525	34171	
1465	0	32671	32534	32711	32983	33123	31849	31046	33863	
1466	0	32628	32667	32948	32711	32723	32109	30939	33275	
1467	0	32466	32481	33079	32896	32402	32582	29643	33721	
1468	0	32450	32603	32885	32671	32548	32367	30572	33899	
1469	0	32679	32895	32937	32607	33301	31201	32767	34131	
1470	0	32643	32881	32775	32491	33393	31623	33325	33479	
1471	0	32557	32683	32815	32526	33814	33063	33247	32850	
1472	0	32364	32671	32806	32476	33287	32817	33044	32861	
1473	0	32318	32711	32647	32605	32628	32942	31860	32621	
1474	0	32545	32871	32667	32502	32573	33583	32348	32300	
1475	0	32646	32875	32565	32549	32743	33895	33305	31975	
1476	0	32543	32821	32535	32483	33770	32876	34343	31468	
1477	0	32612	32786	32596	32471	34113	31330	34535	31023	
1478	0	32615	32933	32646	32367	33329	32567	33551	31351	
1479	0	32654	32981	32775	32503	33077	32916	33239	31467	
1480	0	32655	33039	32887	32359	32943	33087	33254	32353	
1481	0	32756	33103	32879	32437	32740	32965	32942	32479	
1482	0	32878	33250	32827	32333	32742	32636	32279	32806	
1483	0	32966	33287	32885	32580	32979	32455	32676	32903	
1484	0	32890	33301	32964	32628	31751	33211	32436	33366	
1485	0	32983	33407	32967	32794	31677	33380	32255	33939	
1486	0	33231	33491	32895	32871	31587	34414	32455	33538	
1487	0	33447	33630	32960	32723	31769	33639	32889	33454	
1488	0	33332	33526	33005	32831	31743	33143	32940	33261	
1489	0	33298	33381	32911	32731	32943	32642	32173	32949	
1490	0	33292	33207	32793	32903	33532	32802	32177	32027	
1491	0	33274	33135	32771	32837	32447	33799	31572	31607	
1492	0	33247	33133	32713	32795	32036	33561	30709	31967	
1493	0	33060	33206	32639	32583	32844	32693	30995	32363	
1494	0	32959	33039	32735	32561	33899	32559	33125	32588	
1495	0	32945	33143	32863	32631	34071	31498	34119	32799	
1496	0	33057	33098	32647	32470	33607	31127	32762	33455	
1497	0	32912	32822	32684	32617	33101	31986	32956	33595	
1498	0	32577	32407	32756	32683	32838	32349	32646	33577	
1499	0	32595	32391	32658	32861	33191	32633	32637	32103	
1500	0	32819	32570	32487	32642	32210	33115	31974	32565	
1501	0	32934	32658	32447	32743	31068	33218	32971	32361	
1502	0	33088	32527	32322	32774	31519	32375	33741	32403	
1503	0	33217	32109	32419	32841	33193	31893	35604	32244	
1504	0	33108	31908	32463	32974	33167	32045	36261	30911	
1505	0	33094	32055	32341	32942	33039	32278	34470	30991	
1506	0	33042	31910	32459	33051	32501	32885	33891	31615	
1507	0	32811	32033	32679	32974	32597	32929	33311	31847	
1508	0	32668	32209	32684	32771	33117	32787	32723	32439	
1509	0	32688	32322	32955	32726	33607	33134	31669	33060	
1510	0	32601	32223	32894	32612	33119	32655	31231	33275	
1511	0	32441	32135	32975	32804	32556	33395	31871	33403	
1512	0	32311	32103	32887	32758	32167	34199	32342	33462	
1513	0	32259	32248	32807	32873	32286	32843	31439	34470	
1514	0	32286	32396	32988	32855	32933	31819	31831	34021	
1515	0	32263	32354	32815	32903	33458	31413	32583	33467	
1516	0	32199	32359	32859	32839	32893	32382	32805	33924	
1517	0	32245	32501	32826	32662	32831	31699	32373	34277	
1518	0	32239	32580	32732	32639	32977	31781	32519	32851	
1519	0	32391	32671	32763	32543	33021	32301	32211	32831	
1520	0	32601	32759	32742	32553	32997	32789	31703	33023	
1521	0	32656	33047	32743	32391	32567	33683	31531	32858	
1522	0	32823	32967	32993	32298	32155	34638	31458	32583	
1523	0	32584	32597	33009	32262	32337	34495	31941	32103	
1524	0	32604	32655	33065	32023	33085	32423	32767	31483	
1525	0	32596	32737	33034	32113	32831	32238	32888	31607	
1526	0	32828	33095	33185	32007	32998	32258	32545	31900	
1527	0	32687	33005	33127	32317	32805	32685	32415	33036	
1528	0	32647	32859	32971	32514	32884	32327	33111	33027	
1529	0	32784	32903	32789	32323	32647	32123	32783	32389	
1530	0	32647	32862	32722	32647	32856	32647	32871	31467	
1531	0	32846	33039	32543	32751	32877	33231	32701	31591	
1532	0	32914	33052	32454	32911	33103	33713	32735	31770	
1533	0	32880	33047	32460	33079	32789	33619	32855	31919	
1534	0	32842	33119	32397	33127	33067	31995	32199	31806	
1535	0	32873	33055	32227	33014	32621	32165	32117	32357	
1536	0	32912	32861	32183	32943	31751	33226	32383	33687	
1537	0	32884	32922	32364	32943	31635	33186	32706	34221	
1538	0	32732	32647	32775	32927	31965	32803	33633	34089	
1539	0	32772	32683	33059	32980	32546	32287	33542	33819	
1540	0	32804	32955	33039	32745	33195	32428	32831	33281	
1541	0	32660	32903	32857	32734	33380	32899	32135	32998	
1542	0	32701	32615	32923	32677	32659	32655	32183	33661	
1543	0	32871	32750	32967	32583	33204	31647	31923	33799	
1544	0	32671	32836	33184	32642	32867	32439	32215	33679	
1545	0	32653	33019	33085	32565	32997	32966	33628	33351	
1546	0	32732	33039	32903	32581	33687	33154	34279	32525	
1547	0	32754	32823	32733	32502	33651	32543	33839	32531	
1548	0	32782	32701	32407	32663	32638	32278	32962	32748	
1549	0	32740	32615	32431	32571	32359	32702	33213	31829	
1550	0	32677	32739	32391	32489	32815	33257	32591	31623	
1551	0	32653	32703	32221	32693	33187	33709	31702	31300	
1552	0	32715	32657	32106	32741	33268	33281	31062	32404	
1553	0	32711	32708	32249	32693	33191	32423	31463	32659	
1554	0	32732	32670	32419	32483	32434	31821	31931	32318	
1555	0	32801	32690	32251	32562	31938	32030	30863	32451	
1556	0	32895	32791	32469	32591	32501	32207	30727	32501	
1557	0	32994	33197	32591	32679	32532	32355	32342	32638	
1558	0	33047	33065	32499	32663	33180	32552	34243	32903	
1559	0	33003	32791	32743	32631	32559	33143	35127	33247	
1560	0	32847	32899	32783	32647	32626	33022	34595	32927	
1561	0	32626	32827	32721	32567	33111	32647	34710	32431	
1562	0	32837	32903	32615	32687	33534	31963	34695	33534	
1563	0	32786	32791	32749	32635	33191	31819	33645	33796	
1564	0	32686	32726	32733	32895	32425	33235	32516	34031	
1565	0	32679	32915	32767	32746	32343	33111	31365	34183	
1566	0	32798	32825	32846	32698	32588	32887	32751	33506	
1567	0	32850	32789	33047	32506	32355	33075	32879	32806	
1568	0	32697	32771	32959	32595	31780	34350	32071	32383	
1569	0	32688	32479	32898	32515	32077	33750	30793	32167	
1570	0	32820	32492	32959	32303	32943	32702	30677	31818	
1571	0	32903	32815	32903	32349	33559	32550	32937	30874	
1572	0	32730	32855	32807	32298	34527	32804	33833	30338	
1573	0	32781	32879	32447	32500	33781	33243	32417	31772	
1574	0	32658	32883	32372	32474	32770	33887	31815	32471	
1575	0	32713	32827	32439	32647	31697	33404	31623	32594	
1576	0	32731	32693	32531	32806	31941	32159	31580	31623	
1577	0	32824	32567	32391	32941	32188	31511	31934	31877	
1578	0	32788	32732	32391	32723	32518	32089	34223	31895	
1579	0	32679	32822	32434	32719	33548	32129	35491	32229	
1580	0	32723	32617	32479	32749	33511	32391	35421	32676	
1581	0	32685	32551	32407	32788	33095	32423	34199	32935	
1582	0	32717	32655	32323	32791	32839	32175	33319	33223	
1583	0	32612	32794	32327	32719	32431	32309	33337	33927	
1584	0	32655	32815	32676	32743	32508	32519	32483	33943	
1585	0	32908	32726	32801	32659	32747	32069	31615	34155	
1586	0	33076	32858	32595	32641	32543	32731	31554	33763	
1587	0	32977	32963	32567	32630	32039	33203	31342	33783	
1588	0	32846	33102	32543	32559	32289	33143	31273	33527	
1589	0	32738	32953	32733	32805	32679	33191	31913	33079	
1590	0	32593	32871	32919	32767	32300	33566	30495	33551	
1591	0	32583	33003	32827	32639	32703	32655	29911	32963	
1592	0	32808	32903	33063	32516	32860	33255	31290	32735	
1593	0	32584	32858	33378	32410	32755	33402	32431	32981	
1594	0	32671	33052	33351	32307	33447	32559	32537	33235	
1595	0	32920	32709	33174	32203	33670	33647	33814	32117	
1596	0	32930	32564	32973	32263	33967	33003	34482	31941	
1597	0	32807	32639	32663	32245	33174	32306	34478	31783	
1598	0	32839	32668	32599	32327	32551	32258	33947	32084	
1599	0	33023	32663	32336	32111	32927	32737	32979	32116	
1600	0	33113	32707	32107	32413	32455	32676	32159	31519	
1601	0	33048	32775	32119	32477	31982	33250	32421	30999	
1602	0	32806	32767	32133	32407	32315	33551	32044	32119	
1603	0	32713	32935	32514	32741	32367	33343	32889	31695	
1604	0	32688	32885	32756	32823	32229	32481	33137	31137	
1605	0	32486	32775	32871	33118	32591	32981	33166	31840	
1606	0	32543	32587	32815	33021	33503	32417	32791	33627	
1607	0	32630	32583	32951	33186	33498	31767	31621	33981	
1608	0	32783	32785	33063	33051	33255	32095	31286	33885	
1609	0	32921	32815	33000	32903	32874	32083	31527	33501	
1610	0	32765	32575	32883	32775	32891	32285	32045	32892	
1611	0	32662	32583	32735	33037	32373	32359	32567	32903	
1612	0	32655	32669	32871	33111	31719	33335	33041	33055	
1613	0	32679	32687	32711	33213	32133	33017	32351	33235	
1614	0	32784	32927	32467	33169	32865	32947	34299	33220	
1615	0	32663	33133	32564	33031	32999	32703	34412	34533	
1616	0	32798	32802	32646	32903	33157	31975	34518	34259	
1617	0	32675	32453	32814	32742	32988	32461	34635	32535	
1618	0	32641	32617	32662	32771	32877	32327	33818	31615	
1619	0	32714	32747	32647	32683	32196	32621	31529	31735	
1620	0	32807	32887	33050	32586	32101	33155	31553	32295	
1621	0	32894	32968	33159	32692	32513	32868	31495	33220	
1622	0	32900	32883	32993	32586	32919	32527	31407	33543	
1623	0	32727	32971	32647	32763	33399	31874	31995	33075	
1624	0	32579	32696	32479	32664	33307	32154	32943	32389	
1625	0	32668	32685	32532	32527	32758	32898	33357	32045	
1626	0	32876	33206	32620	32468	32679	32672	34171	32057	
1627	0	32933	32979	32510	32261	33119	32030	34299	32233	
1628	0	32845	32701	32447	32275	33489	32410	34550	31684	
1629	0	32726	32383	32510	32173	33159	32655	33887	31844	
1630	0	32859	32537	32407	32359	32569	33065	31871	32772	
1631	0	32738	32641	32617	32178	32555	33116	31323	32391	
1632	0	32692	32843	32922	32487	32737	33493	32189	32055	
1633	0	32690	32903	33071	32461	32701	32871	32865	32708	
1634	0	32821	32824	33117	32419	32373	33046	33815	32909	
1635	0	32926	32843	33111	32443	32311	33754	34157	32983	
1636	0	32876	32931	33071	32418	31922	33637	32721	33234	
1637	0	32719	32927	32963	32644	32351	32571	33817	33415	
1638	0	32806	32833	32739	32365	32989	31364	33117	34085	
1639	0	32676	32927	32727	32583	32636	31516	31915	34535	
1640	0	32826	33069	32827	32647	32810	31447	31363	34343	
1641	0	32955	32855	32966	32856	32687	33257	32804	33125	
1642	0	32903	32582	32865	32935	32814	34083	33439	32303	
1643	0	32935	32751	32903	32871	32571	34055	33262	32251	
1644	0	32652	32751	32879	33042	33399	34575	33739	32388	
1645	0	32623	32887	32273	32866	34343	33437	34191	31414	
1646	0	32673	33195	32227	32951	33398	32771	33633	31087	
1647	0	32524	32791	32546	32911	32934	32605	32791	29979	
1648	0	32549	32647	32799	32861	31905	33012	31927	30957	
1649	0	32523	32752	32743	32828	32374	32437	30815	32276	
1650	0	32576	32692	32557	32611	32911	32615	30671	32767	
1651	0	32750	32812	32628	32710	33075	32579	31799	33087	
1652	0	32823	32627	32611	32681	33559	32243	32814	33455	
1653	0	32911	32455	32347	32494	33459	32035	32831	33439	
1654	0	32769	32487	32263	32574	31908	33146	32786	32807	
1655	0	32854	32564	32478	32551	31678	32993	31911	32494	
1656	0	32785	32775	32598	32692	32938	31837	31771	32967	
1657	0	32623	32699	32799	32655	32814	31527	31361	32863	
1658	0	32700	32790	33019	32829	32642	31378	32445	33349	
1659	0	32797	33257	33415	32703	32638	32211	31862	33837	
1660	0	32962	33183	33324	32711	32415	33094	31479	34144	
1661	0	32885	32819	32839	32663	32661	33351	32310	34614	
1662	0	32898	32547	32378	32628	32339	34194	32684	34717	
1663	0	32799	32727	32205	32698	32985	34039	32564	33665	
1664	0	32407	32858	31999	32819	32546	33287	32835	32331	
1665	0	32652	33470	31879	32835	33487	31945	34006	32210	
1666	0	32924	33363	31983	32562	33543	31732	33223	32308	
1667	0	32893	32679	31817	32507	32631	31615	31895	32388	
1668	0	32935	32962	32069	32301	31689	33071	31943	32376	
1669	0	32687	32699	32556	32587	31460	35165	34075	30979	
1670	0	32986	32623	33106	32489	32447	33405	34719	31179	
1671	0	32942	32775	33204	32543	33951	31337	33940	31679	
1672	0	32951	32981	33053	32463	33647	31375	35197	32578	
1673	0	32739	32877	33148	32531	33325	31663	35627	33622	
1674	0	32694	32647	33042	32643	33275	32215	35223	33353	
1675	0	32707	32610	33243	32653	32580	32598	33415	33595	
1676	0	32847	32663	33263	32506	32369	32605	30803	33381	
1677	0	32852	32706	33238	32545	32533	33262	30565	33055	
1678	0	32759	32723	32940	32565	33075	33251	31027	32391	
1679	0	32812	32887	32571	32610	32773	32263	30975	32485	
1680	0	32926	32783	32725	32588	31919	33705	31301	32047	
1681	0	32947	32931	32534	32671	32059	33943	31955	32049	
1682	0	32691	32995	32813	32829	33159	33197	33519	30811	
1683	0	32556	32807	32719	32801	32743	32685	33029	32530	
1684	0	32761	32835	32551	32759	32530	32834	31775	33549	
1685	0	32711	32833	32632	32715	32847	31637	31489	33295	
1686	0	32536	32739	32731	33110	32621	32057	31633	32507	
1687	0	32556	32722	32995	33139	32813	32575	32419	32949	
1688	0	32566	32718	32844	33313	33475	31544	33452	32839	
1689	0	32442	32774	32991	33300	33983	32063	36003	31898	
1690	0	32693	32743	33030	33074	33474	33074	35964	32406	
1691	0	32835	32588	33004	33061	32742	34146	33924	32619	
1692	0	32934	32860	33119	32709	32947	34461	32553	32856	
1693	0	32894	33022	33230	32743	32556	33086	31709	32921	
1694	0	32855	33063	33023	32515	32403	32349	30415	32541	
1695	0	32798	32582	32831	32535	32210	33735	28857	31532	
1696	0	32707	32527	32775	32660	32562	34098	30215	31166	
1697	0	32615	32731	32589	32477	32580	33567	32312	31831	
1698	0	32620	32818	32669	32527	33055	32735	34779	32405	
1699	0	32566	32775	32674	32487	33767	31923	35419	33225	
1700	0	32902	32823	32613	32419	33323	31939	33595	33287	
1701	0	32870	32939	32421	32423	33509	31389	34279	33332	
1702	0	32767	33115	32431	32339	33049	31623	33639	33491	
1703	0	32548	32999	32492	32423	31097	32101	33397	33671	
1704	0	32626	32735	32295	32543	31607	32580	32870	33706	
1705	0	32713	32654	32450	32417	32583	33420	34609	33447	
1706	0	32806	33038	32621	32493	33031	33012	34551	33669	
1707	0	32870	32995	32644	32575	33268	32433	33526	32853	
1708	0	32758	33149	32423	32573	32804	32631	31271	32731	
1709	0	32867	33031	32358	32565	33455	32325	29751	33127	
1710	0	32865	32746	32479	32519	32477	33190	29380	33156	
1711	0	32748	32679	32411	32631	31674	32991	28595	32919	
1712	0	32637	32727	32380	32662	32445	32159	31892	32501	
1713	0	32793	32989	32764	32602	33559	31919	33402	31839	
1714	0	32825	33004	33143	32783	33935	33127	34479	31103	
1715	0	32973	32895	33415	32811	32359	34331	32983	31549	
1716	0	32966	32797	33511	32525	31703	33209	31582	32785	
1717	0	32711	32575	33309	32637	32665	32714	34446	32391	
1718	0	32668	32667	32786	32679	32771	32569	35131	32863	
1719	0	32829	32795	32524	32691	33151	32028	33306	33245	
1720	0	32751	32773	32455	32647	32997	32101	30422	33453	
1721	0	32800	33095	32403	32628	32579	33005	30877	32945	
1722	0	32630	32751	32338	32751	32796	33279	31433	33071	
1723	0	32796	32197	32403	32682	32855	32548	29557	34259	
1724	0	32839	32515	32383	32506	32325	32419	30173	33715	
1725	0	32892	32919	32335	32594	32612	32274	31495	32515	
1726	0	32898	32958	32551	32583	33375	32347	32686	31863	
1727	0	32722	32615	32835	32551	33428	32925	34842	30772	
1728	0	32684	32641	33522	32681	33093	33455	35911	30614	
1729	0	32676	32795	33577	32622	33475	31997	36026	31653	
1730	0	32717	33119	33358	32607	33127	32028	34213	31485	
1731	0	32810	32948	33049	32866	32793	32167	32604	32841	
1732	0	32792	32767	32359	32833	31894	32783	31571	33956	
1733	0	32706	32887	31999	32787	31943	33428	30953	33503	
1734	0	32827	32764	31668	32995	32191	33283	32077	33047	
1735	0	32679	32831	31783	32727	32785	33147	32716	33117	
1736	0	32775	32793	32003	32837	32551	32486	32428	32983	
1737	0	32710	32758	32301	32806	32857	31649	32825	32067	
1738	0	32967	32952	32615	32589	32942	32615	32410	31590	
1739	0	33099	32710	32703	32827	32546	33589	31207	32325	
1740	0	32916	32617	32553	32759	32597	34145	31287	32492	
1741	0	32639	32763	32879	32580	33063	33718	33159	32516	
1742	0	32423	32935	33074	32818	32583	33206	34727	33206	
1743	0	32439	32687	33207	32706	32191	32861	34551	33668	
1744	0	32655	32711	33341	32562	32587	32287	33174	34277	
1745	0	32629	32858	33053	32399	32551	32715	32295	33618	
1746	0	32732	32791	33034	32315	32639	32150	30824	34046	
1747	0	32806	32667	33138	32338	33250	32258	29469	33303	
1748	0	32877	32791	33135	32295	32703	32946	29527	33058	
1749	0	32775	32691	32895	32582	32035	33759	31295	32967	
1750	0	32935	32851	32495	32493	32289	34134	31718	32814	
1751	0	33133	33031	32408	32259	33151	32505	31058	31570	
1752	0	33026	32895	32411	32631	34591	31746	31786	29925	
1753	0	32708	32881	32391	32950	34709	31076	33973	30586	
1754	0	32764	32479	32462	33050	34217	31623	33174	33075	
1755	0	32655	32079	32582	33156	32695	32221	32997	33886	
1756	0	32548	32261	32557	33159	32547	32228	34252	32935	
1757	0	32566	32477	32647	33060	31713	32836	34859	33302	
1758	0	32731	32799	32671	33068	32350	32538	34029	34429	
1759	0	32609	32823	32949	33005	31711	33249	32727	34363	
1760	0	32615	32755	33211	32881	31615	33471	32687	33535	
1761	0	32772	32731	33326	32852	31789	33281	32405	32775	
1762	0	32938	33039	33125	32743	32884	31825	30711	33348	
1763	0	32881	33062	32981	32770	32452	33062	31431	32759	
1764	0	32761	32659	32953	32767	32647	34119	32631	32263	
1765	0	32715	32631	32804	32593	33726	33362	34423	31401	
1766	0	32698	32593	32575	32605	34160	32045	35019	30836	
1767	0	32732	32639	32429	32542	34009	32689	34580	30099	
1768	0	32869	32677	32415	32647	33615	33254	33798	30325	
1769	0	32789	32959	32183	32452	32870	31942	33342	31362	
1770	0	32830	32753	32343	32231	31547	32087	32551	32707	
1771	0	32917	32711	32423	32196	31671	32923	31598	34541	
1772	0	32959	33039	32295	32175	32437	31970	30826	34839	
1773	0	32594	32839	32447	32221	32991	32175	30735	33303	
1774	0	32503	32742	32811	32389	33041	32519	30513	33031	
1775	0	32637	32702	33086	32583	32405	33279	31226	33953	
1776	0	32902	32962	33236	32663	32756	32183	32359	34263	
1777	0	32948	32982	32883	32751	32687	32311	34349	32935	
1778	0	32707	32978	32845	32775	32583	33037	33635	32181	
1779	0	32588	32807	32875	32997	32327	33060	33358	32334	
1780	0	32658	32643	32903	32801	33326	32570	34174	32121	
1781	0	32658	32721	33039	32647	33222	34421	34125	32033	
1782	0	32856	32721	32915	32711	33095	34263	32352	32179	
1783	0	32927	32733	32737	32507	33321	32752	32419	31775	
1784	0	32863	32860	32683	32571	33178	32711	31430	31887	
1785	0	32695	32956	32611	32642	33137	32455	32283	31602	
1786	0	32663	33001	32627	32620	33367	31811	32717	32418	
1787	0	32663	33159	32754	32773	32850	32671	32845	33299	
1788	0	32668	32945	32838	32567	32662	32020	32599	33806	
1789	0	32756	32815	32810	32647	31629	32391	32855	34427	
1790	0	32742	32915	32563	32732	31181	33145	32122	34565	
1791	0	32699	32895	32647	32995	31922	33415	32331	33695	
1792	0	32726	32828	32732	32937	32921	32818	33823	32503	
1793	0	32727	32519	32587	32615	33511	32133	33933	31678	
1794	0	32917	32475	32671	32759	33868	31975	32829	31475	
1795	0	32826	32391	32719	32789	33184	33285	32847	31618	
1796	0	32667	32263	32571	32893	32823	33118	32927	31855	
1797	0	32769	32355	32864	32839	32839	32847	32815	32063	
1798	0	32730	32641	32607	32719	32775	32715	32445	32759	
1799	0	32511	32519	32423	32930	32059	32708	32404	33123	
1800	0	32714	32503	32879	32878	31857	32973	33641	33207	
1801	0	32862	32783	32951	32607	32187	33055	33075	33349	
1802	0	32843	32855	32775	32854	32241	32938	32119	33031	
1803	0	32787	32862	33122	32775	32102	32710	30779	33220	
1804	0	32632	33187	33238	32663	32663	32339	30326	33793	
1805	0	32851	33099	33030	32493	33455	33055	30005	33145	
1806	0	32952	32866	32931	32454	33351	32902	29487	32519	
1807	0	32917	33111	32576	32421	33265	32295	31333	32447	
1808	0	32803	33119	32262	32415	33389	32825	33836	32179	
1809	0	32789	32749	32221	32529	33447	32500	36717	32005	
1810	0	32668	32559	32092	32644	32567	32871	35975	32579	
1811	0	32321	32459	31732	32511	32391	33159	34509	33652	
1812	0	32637	32749	31807	32589	33433	32971	33281	33852	
1813	0	32778	32945	32100	32526	33375	32516	32646	32989	
1814	0	32679	32988	32314	32772	32759	32991	32571	32615	
1815	0	32753	33282	32515	32721	33854	31474	33134	33559	
1816	0	32647	32722	32644	32671	32735	31849	32442	33304	
1817	0	32758	32976	32783	32519	32327	31698	30204	32943	
1818	0	32735	33149	32943	32297	32855	31383	29965	32831	
1819	0	32612	32771	32963	32646	32361	32590	31527	31975	
1820	0	33044	32509	33005	32477	32215	32441	31316	33278	
1821	0	33221	32675	33187	32676	31890	34439	31570	32549	
1822	0	33148	32749	33175	32594	32051	35523	32911	31751	
1823	0	32770	32698	33178	32858	32951	34051	34138	31378	
1824	0	32860	32679	32877	32789	33350	33670	34726	32058	
1825	0	32664	32797	32608	32918	32873	32858	35052	31972	
1826	0	32664	32597	32263	32822	33007	31814	33943	32620	
1827	0	32667	32710	32799	32797	32861	31732	33659	32810	
1828	0	32480	32882	32791	32749	32671	32553	33595	32167	
1829	0	32558	32555	32647	32647	32939	33049	33897	32041	
1830	0	32684	32275	32621	32788	32885	32421	32811	32475	
1831	0	32577	32517	32553	32683	32882	32807	32702	32487	
1832	0	32622	32767	32483	32788	32714	33303	32659	32831	
1833	0	32679	33137	32584	32761	32859	32151	32535	32807	
1834	0	32767	33159	32643	32755	32697	31915	32035	33281	
1835	0	32848	33095	32655	32487	32701	32015	31960	33874	
1836	0	32867	32915	32959	32547	32365	33446	32623	33027	
1837	0	32959	32457	33207	32687	32450	33903	32793	32110	
1838	0	32914	32391	33403	32685	31599	33679	32101	32609	
1839	0	32949	32775	33443	32543	32303	32711	31239	33039	
1840	0	32725	32892	33492	32471	32711	32315	31495	32029	
1841	0	32697	32835	33397	32551	33060	32099	30779	32199	
1842	0	32638	32583	33277	32477	32164	33251	31119	32730	
1843	0	32516	32439	33302	32700	33383	32663	32823	32865	
1844	0	32638	32742	33121	32557	34371	32758	33469	32341	
1845	0	32890	32991	32935	32583	34083	32647	33654	33232	
1846	0	32716	32791	32775	32551	33730	32839	34527	32598	
1847	0	32711	32847	33090	32658	33351	32653	34321	31746	
1848	0	32649	32775	33181	32581	33046	31948	32788	31197	
1849	0	32695	32812	33251	32666	32758	32007	32844	32188	
1850	0	32758	32884	32979	32605	32876	31940	34470	33437	
1851	0	32814	32889	32858	32640	32765	32303	34909	33739	
1852	0	32855	32804	32492	32843	32252	33177	33718	33828	
1853	0	32791	32519	32293	32711	32543	32903	32734	33285	
1854	0	32711	32810	32655	32820	32295	33111	32284	32389	
1855	0	32663	32759	32647	32799	31975	33503	31119	32738	
1856	0	32652	32576	32519	32735	32165	33080	30829	34054	
1857	0	32903	32623	32453	32738	32365	32927	29755	34402	
1858	0	32950	32839	32428	32478	32806	32982	29338	33501	
1859	0	32883	32899	32261	32630	33330	32199	29255	33285	
1860	0	32676	32810	32211	32662	33343	32069	31927	33453	
1861	0	32638	32623	32519	32761	32315	32841	32943	32979	
1862	0	32667	32613	32391	32739	32297	32359	34007	32693	
1863	0	32788	32775	32706	32659	32639	31958	34405	32421	
1864	0	32805	32912	33135	32591	31845	33004	34311	31043	
1865	0	32735	32859	33083	32645	31890	33053	33627	31271	
1866	0	32941	33061	32969	32507	32423	32711	32815	32013	
1867	0	32978	32935	32978	32671	33485	32646	32434	32591	
1868	0	32762	32671	32669	32567	33479	33616	32391	32550	
1869	0	32687	32679	32335	32767	32772	33493	30742	32869	
1870	0	32644	32719	32317	32751	32901	32607	30628	32783	
1871	0	32598	32735	32245	32767	33987	32763	33273	32507	
1872	0	32593	32701	32327	32845	33995	33045	34521	32195	
1873	0	32861	32673	32541	32962	32879	33533	33687	32685	
1874	0	32852	32878	32204	32902	32871	33307	32910	33074	
1875	0	33082	33183	32220	32932	32739	32325	31466	33623	
1876	0	33046	33007	32347	32883	31908	32893	31686	33060	
1877	0	32790	32435	32587	32975	31847	33323	33487	32263	
1878	0	32646	32437	32621	32875	32677	33159	34207	32542	
1879	0	32647	32380	32662	32991	33045	32197	33007	32868	
1880	0	32606	32503	32409	32914	32989	32411	32847	32367	
1881	0	32698	32741	32583	32775	33021	32973	33263	32391	
1882	0	32615	32621	32535	32789	33664	32212	33047	32538	
1883	0	32370	32519	32195	32646	33190	31945	33305	33519	
1884	0	32739	32913	32135	32471	32423	32402	31951	33471	
1885	0	32988	33103	32151	32295	32943	32345	29887	33197	
1886	0	33071	33089	32135	32455	32164	32659	29980	33779	
1887	0	32896	32815	32135	32391	31447	32681	31639	34454	
1888	0	32898	32923	32173	32278	31337	33063	33133	34295	
1889	0	33110	33234	32919	32711	31350	33541	33484	32263	
1890	0	33046	32743	33027	32500	32887	33096	33527	32217	
1891	0	33053	32823	32895	32391	33602	31630	33111	32836	
1892	0	32883	32757	33185	32513	33229	32465	34023	31389	
1893	0	32712	32605	33231	32293	33854	31879	33701	30318	
1894	0	32815	32911	33303	32239	33458	31075	32629	30983	
1895	0	32757	32844	33119	32351	32835	31719	31908	31355	
1896	0	32667	32795	32995	32543	33030	32951	31748	30919	
1897	0	32718	33043	32736	32641	33275	33488	32239	32147	
1898	0	32754	33175	32391	32599	33095	33900	32734	33359	
1899	0	32585	32447	32127	32766	33059	34027	33298	33873	
1900	0	32485	32342	31876	32775	33263	33317	33399	33611	
1901	0	32514	32740	31915	32739	33125	31921	34119	32755	
1902	0	32756	33247	31818	32711	33375	31845	32997	33831	
1903	0	32804	33151	32078	32731	32430	33791	31462	33303	
1904	0	32764	32684	32255	32747	31855	33662	32085	32167	
1905	0	32923	31991	32479	32607	31766	33666	32391	32411	
1906	0	32668	32274	32579	32751	32979	33049	30786	32135	
1907	0	32705	32655	32667	32759	33058	33553	31804	31314	
1908	0	32894	32873	32796	32663	32598	33577	32283	32019	
1909	0	32879	32599	33091	32903	31963	33342	31549	32759	
1910	0	32734	32546	33297	33052	32135	32601	31633	33231	
1911	0	32796	32810	33424	32845	32811	31487	32478	32715	
1912	0	32839	32949	33381	32959	33399	30747	33988	32106	
1913	0	32828	33015	33243	32899	33287	31332	35073	31680	
1914	0	32871	32816	33348	32767	32387	33480	35279	32013	
1915	0	32796	32637	33349	32771	32639	33455	35167	32431	
1916	0	32763	32647	33188	32597	33341	32442	33247	32827	
1917	0	32757	32747	33140	32727	32729	32818	32475	33879	
1918	0	32895	32995	32926	32463	32193	32939	32313	34145	
1919	0	32789	33060	32837	32389	31995	32797	32421	33745	
1920	0	32687	32991	32947	32525	31425	33069	31919	33344	
1921	0	32575	32851	32927	32565	32499	32575	32707	33375	
1922	0	32613	32866	32919	32635	33187	32229	32199	33307	
1923	0	32645	32706	32769	32391	33539	31717	31777	32887	
1924	0	32717	32883	32726	32527	33311	32159	31598	32889	
1925	0	32775	32621	32699	32461	33142	32843	30883	33250	
1926	0	32806	32839	32625	32551	32631	33415	30759	33823	
1927	0	32859	32915	32619	32468	32683	32926	32131	33053	
1928	0	32747	32868	32700	32571	32887	32367	33415	32093	
1929	0	32575	32738	32807	32687	33276	32169	34719	31155	
1930	0	32582	32639	32687	32590	32889	33206	34829	31239	
1931	0	32502	32655	32657	32695	32647	32903	33983	31999	
1932	0	32638	32721	32681	32683	32090	33138	33188	32699	
1933	0	32694	32807	32655	32690	32047	32835	32932	33666	
1934	0	32857	32871	32443	32691	32607	32854	32581	33522	
1935	0	32839	32918	32391	32535	33071	32997	32487	33935	
1936	0	32985	33143	32482	32587	33215	31935	31220	34482	
1937	0	32921	32731	32492	32511	33088	32132	30687	33579	
1938	0	33058	32863	32572	32647	32190	33107	32247	32191	
1939	0	32982	32663	32631	32535	32559	32878	32247	32147	
1940	0	32785	32397	32775	32639	33382	32135	32382	32191	
1941	0	32829	32439	32801	32660	33818	32509	32941	31826	
1942	0	32634	32474	32756	32643	32421	34395	31574	31178	
1943	0	32493	32578	32935	32916	31972	34103	29993	31791	
1944	0	32628	32931	32953	32911	32911	32738	30674	31234	
1945	0	32494	32795	32717	32757	33783	32349	33405	30623	
1946	0	32401	32887	32685	32887	33719	33357	35027	32262	
1947	0	32463	32955	32730	32791	33575	32918	33577	33943	
1948	0	32574	32765	32733	32755	32829	32361	33135	33927	
1949	0	32775	32803	32813	32711	32973	32378	33335	33413	
1950	0	32729	32687	32787	32693	32679	32692	33127	33014	
1951	0	32753	32623	32891	32735	32609	32319	31361	33259	
1952	0	33003	32917	32767	32639	33074	31167	30895	33667	
1953	0	33138	33127	32636	32471	33175	30822	32022	33341	
1954	0	33057	32773	32743	32606	31419	32743	34882	32743	
1955	0	32813	32791	32727	32699	30999	34013	34959	33062	
1956	0	32676	32673	32663	32572	31927	33940	33407	32910	
1957	0	32658	32529	32806	32630	32799	33305	34215	31703	
1958	0	32592	32519	32670	32647	32515	33407	34415	31487	
1959	0	32510	32623	32698	32505	31919	33725	32929	31955	
1960	0	32589	33083	32829	32625	32790	33017	30870	32775	
1961	0	32719	33142	32611	32623	33095	32301	30087	33591	
1962	0	32701	32727	32620	32519	32663	32146	29719	33501	
1963	0	32802	32771	32761	32629	33423	31711	30764	33513	
1964	0	32969	32943	32679	32372	33959	31301	31931	33957	
1965	0	33006	32711	32635	32498	34286	31391	34149	33862	
1966	0	32925	32660	32676	32465	33703	31699	34948	33573	
1967	0	32708	32647	32518	32485	33159	32063	34567	33294	
1968	0	32756	32720	32407	32791	32675	32964	33795	32550	
1969	0	32677	32553	32428	32903	32663	33586	33084	32159	
1970	0	32589	32423	32614	32919	32327	34211	32077	31996	
1971	0	32591	32628	32679	32959	32343	33707	31427	32948	
1972	0	32759	32943	32654	32839	32326	32884	31010	32754	
1973	0	32823	33047	32773	32675	33103	31983	31491	32356	
1974	0	32747	32826	32859	32863	33341	31924	32572	32033	
1975	0	32736	32634	32815	32845	32351	33099	33029	31965	
1976	0	32782	32927	32703	32607	32199	33235	33170	33062	
1977	0	32966	32775	32855	32838	31983	33545	33039	33634	
1978	0	32937	32612	32903	32839	32754	33987	33131	33317	
1979	0	32805	32967	33179	32677	32166	34003	32326	32517	
1980	0	32768	33234	33422	32810	32469	33509	32608	31220	
1981	0	32838	33095	33453	32662	32098	33191	32445	32201	
1982	0	32863	33022	33380	32706	32527	33093	32475	32422	
1983	0	32586	32710	33031	32746	33695	31679	33885	32047	
1984	0	32585	32459	32601	32594	33874	31102	34023	31451	
1985	0	32584	32501	32503	32770	33549	31215	34183	31094	
1986	0	32642	32841	32329	32642	33334	32381	33359	32067	
1987	0	32756	32703	32253	32359	32725	33411	32679	32069	
1988	0	32863	32727	32277	32205	32607	32389	32420	31879	
1989	0	32863	32823	32341	32203	32423	32663	31803	32895	
1990	0	32668	32743	32423	32213	32311	33391	31517	33191	
1991	0	32668	32900	32382	32311	32487	33420	31862	33199	
1992	0	32679	32859	32295	32239	32355	33001	32495	32756	
1993	0	32724	32895	32175	32541	32745	32722	32987	32923	
1994	0	32536	32799	32257	32647	32975	32351	32626	33577	
1995	0	32551	32957	32386	32830	32135	33382	32565	32758	
1996	0	32944	33027	32549	32987	32187	33302	32064	33655	
1997	0	32796	32276	32391	32788	33091	31601	30939	34212	
1998	0	32809	32647	32435	33123	33439	30967	30111	33967	
1999	0	32948	33116	32594	33423	32879	31923	32039	33814	
2000	0	32711	32773	32819	33207	32359	33314	33639	33593	
2001	0	32751	32391	33139	33315	32211	33644	34681	33023	
2002	0	32987	32309	33212	33103	32965	33060	34227	32391	
2003	0	32951	32500	33151	33159	33839	32086	34823	31871	
2004	0	32837	32637	33063	33195	33153	33543	33447	32249	
2005	0	32751	32935	32993	33142	32723	33279	33167	31663	
2006	0	32735	32875	33439	33042	32059	34098	32946	31367	
2007	0	32762	32819	33411	32662	32287	33529	32525	31554	
2008	0	32863	32806	33403	32419	32295	33277	32436	32575	
2009	0	32892	33185	33351	32093	32943	32363	31911	33629	
2010	0	32759	33087	32903	32191	32596	32965	32195	33159	
2011	0	32874	33204	32588	32285	32999	31921	32050	33146	
2012	0	32700	33031	32293	32287	33197	32566	31541	32466	
2013	0	32621	32743	31814	32548	33570	32007	30826	32939	
2014	0	32655	32717	31845	32839	33479	32278	30236	33327	
2015	0	32632	32919	32253	32870	31784	33927	29369	33375	
2016	0	32519	33183	33069	33133	31742	34019	29039	33263	
2017	0	32658	32471	32925	33135	33227	31969	31214	32401	
2018	0	32786	32095	32407	32743	34515	31089	33503	32052	
2019	0	32743	32287	32415	32625	32527	32231	34285	32500	
2020	0	32828	32659	32260	32252	31191	33126	34823	33023	
2021	0	32812	32690	32014	31913	32231	32469	36041	33275	
2022	0	32832	32844	32095	32127	34215	30757	36541	32347	
2023	0	32681	32839	32103	32071	34066	30815	36623	32370	
2024	0	32813	32974	32411	32015	33023	32271	35143	33453	
2025	0	32949	32869	32693	32468	32388	34201	34015	32479	
2026	0	32935	32825	33039	32619	32498	34150	33510	31941	
2027	0	32668	32855	33453	32679	32134	33999	32447	31716	
2028	0	32662	32763	33499	32879	32391	33402	32694	31996	
2029	0	32736	32804	33196	32894	32925	33309	33759	32847	
2030	0	32687	32677	33167	32809	32964	32807	33287	32828	
2031	0	32706	32803	33095	32982	32637	33062	31673	33123	
2032	0	32903	33055	32836	32978	32469	32454	31751	32663	
2033	0	32975	33191	32935	32877	32221	32413	31383	32711	
2034	0	32823	32803	32759	33051	32046	32758	30343	32671	
2035	0	32785	32349	32603	32914	32237	32367	29519	32678	
2036	0	32708	32295	32735	32767	32135	33679	29316	32645	
2037	0	32681	32556	32752	32743	32231	33254	30005	32884	
2038	0	32698	32623	32327	32583	33391	31941	30716	32954	
2039	0	32952	32607	32532	32431	33823	31922	31935	32786	
2040	0	32980	32789	32644	32653	33853	32423	33603	32436	
2041	0	32743	32765	32772	32703	32771	33839	34279	33567	
2042	0	32581	32807	32727	32487	33577	32943	34592	33841	
2043	0	32547	32551	32711	32615	33399	32807	34170	32033	
2044	0	32480	32599	32721	32631	33631	33101	33844	31204	
2045	0	32831	32823	32551	32487	33781	32002	34477	32191	
2046	0	32879	33202	32399	32382	32998	31513	32343	33707	
2047	0	32836	33159	32409	32295	32106	31606	32695	33927	
2048	0	32796	33059	32413	32124	31841	31980	32807	33637	
2049	0	32718	33082	32537	32473	31911	32307	33015	32692	
2050	0	32661	33221	32687	32575	31947	32587	34021	32078	
2051	0	32658	32955	32543	32551	32581	33046	34607	31799	
2052	0	32772	32709	32359	32654	32853	33773	33490	31879	
2053	0	32994	32507	32619	32567	32431	34132	32423	31616	
2054	0	32921	32587	32567	32647	32769	33549	32199	31819	
2055	0	32738	32599	32468	32707	32881	33093	31235	32836	
2056	0	32658	32655	32571	32775	33030	32717	30711	33511	
2057	0	32686	32775	32621	32726	32915	32841	31127	33551	
2058	0	32607	32711	32612	32769	32447	32975	31455	33655	
2059	0	32604	32615	32391	32757	32270	32699	31463	33893	
2060	0	32642	32631	32485	32679	32605	32722	31443	33633	
2061	0	32551	32437	32567	32755	32388	32551	31842	33453	
2062	0	32534	32293	32703	32530	33245	32147	31999	32756	
2063	0	32459	32258	32727	32743	33319	32055	32995	32410	
2064	0	32350	32217	32891	32595	32895	32475	33187	31762	
2065	0	32416	32335	32871	32696	32587	32647	33031	32723	
2066	0	32501	32594	33045	32563	32903	32370	32703	34183	
2067	0	32601	32631	32999	32685	33364	32383	33530	33511	
2068	0	32626	32815	33099	32631	33645	32499	34820	32319	
2069	0	32615	32742	33068	32567	32839	33185	34581	32540	
2070	0	32656	33239	32967	32599	33121	32916	34399	31834	
2071	0	32761	33255	32753	32325	33399	32371	34711	31671	
2072	0	32769	33223	32802	32557	33251	32582	33607	32132	
2073	0	32755	33117	32709	32655	31794	33693	32997	32210	
2074	0	32758	33223	32677	32531	31663	34015	31942	32533	
2075	0	32647	33447	32591	32475	31531	33738	30579	31809	
2076	0	32730	33609	32548	32453	32069	33541	30353	32047	
2077	0	32819	33531	32579	32300	32303	33007	29951	33229	
2078	0	32944	33695	32737	32387	32826	33505	29185	33261	
2079	0	33279	33404	32979	32418	33127	34225	29398	33750	
2080	0	33400	33711	32929	32439	33671	32567	31262	32988	
2081	0	33368	34075	32765	32381	34303	31575	32425	33415	
2082	0	33348	33475	32679	32615	33935	32276	33275	33265	
2083	0	33391	33287	32837	32706	34177	31825	34995	32903	
2084	0	33485	33296	32591	32588	33835	30898	37395	32756	
2085	0	33372	33228	32703	32799	32273	32135	35796	32495	
2086	0	33037	33287	32714	32827	31599	33495	34779	33033	
2087	0	33036	33051	32875	32822	32023	32659	34311	32150	
2088	0	33022	32631	32819	32804	31303	33005	32658	32082	
2089	0	32971	32549	32734	32987	31513	33121	31703	32223	
2090	0	32775	32743	32703	32865	31873	34701	32239	31991	
2091	0	32820	32604	32679	32975	32404	34183	32903	31159	
2092	0	32894	32165	32553	32919	32735	32830	32662	30812	
2093	0	32844	32225	32420	32629	32601	31907	33159	31403	
2094	0	32863	32181	32343	32791	32364	33043	32639	32825	
2095	0	33085	32130	32599	32769	32390	32580	32372	33693	
2096	0	33053	32018	32433	32827	32583	31933	33682	33030	
2097	0	32966	32093	32516	32961	32775	31977	33615	33017	
2098	0	32845	31903	32263	32948	32610	32820	32646	33111	
2099	0	32736	31803	32210	33118	32258	32926	31322	32740	
2100	0	32692	31917	32423	33233	32491	33335	30343	32297	
2101	0	32525	32147	32519	33005	32734	32518	30520	32039	
2102	0	32295	32275	32478	33083	33798	31539	31435	31892	
2103	0	32247	32337	32549	32742	32879	31780	32459	32254	
2104	0	31995	31988	32885	32711	33051	33164	32086	31471	
2105	0	32176	32135	33027	32575	33711	32703	31062	32457	
2106	0	32332	32661	33171	32610	33648	31668	34218	34143	
2107	0	32349	32570	33129	32710	33871	31751	36161	33145	
2108	0	32391	32414	33087	32903	33403	32299	36471	32605	
2109	0	32607	32519	33060	32783	33170	31973	35877	32807	
2110	0	32553	32727	32796	32662	33002	31339	34899	33268	
2111	0	32442	32402	32519	32827	32603	32293	34335	33455	
2112	0	32478	32447	32102	32693	33415	31823	32967	33991	
2113	0	32380	32383	32347	32634	33321	32113	32135	33554	
2114	0	32467	32295	32677	32587	33063	33313	31303	33408	
2115	0	32474	32362	32605	32525	33223	33106	30631	33581	
2116	0	32771	32679	32655	32647	32055	34345	30650	33513	
2117	0	32759	33104	32614	32548	31667	34269	28959	33983	
2118	0	32552	32853	32771	32510	31719	34407	28123	33698	
2119	0	32599	32975	32931	32605	31405	34679	29716	33187	
2120	0	32529	33039	32894	32567	31919	34298	32087	32239	
2121	0	32885	33005	33230	32647	32852	33629	32076	31978	
2122	0	32848	33087	33159	32673	32914	32613	32445	31894	
2123	0	32728	32908	33047	32577	33339	31918	34603	31619	
2124	0	32743	32931	32927	32703	33871	31183	34845	31943	
2125	0	33015	32749	33021	32635	33127	31631	33374	31975	
2126	0	33197	32871	32968	32531	32367	32431	32833	32773	
2127	0	32865	33015	32891	32611	32359	32169	32805	33068	
2128	0	32790	32836	32871	32687	32519	32237	33213	33199	
2129	0	32933	32962	33119	32598	32466	32382	33638	33287	
2130	0	32947	33063	33002	32594	32535	32067	32383	33559	
2131	0	32786	33083	32655	32592	32530	32215	31375	33239	
2132	0	32860	33031	32703	32347	32642	32903	30988	33095	
2133	0	33058	32861	32643	32593	32695	33939	32327	32274	
2134	0	33073	33073	32711	32431	32805	33775	32359	32731	
2135	0	32987	33133	32712	32333	32697	33071	32257	33015	
2136	0	32989	33154	32645	32465	32231	33603	31843	33131	
2137	0	32701	33143	32543	32633	32075	33692	31783	32865	
2138	0	32580	32877	32498	32682	33223	32258	32026	33323	
2139	0	32725	32541	32331	32903	33518	31942	33275	32943	
2140	0	32554	32487	32591	32753	33518	32403	35847	31514	
2141	0	32450	32655	32583	32715	34285	31535	36583	31806	
2142	0	32550	32500	32903	32599	33586	32364	37371	31188	
2143	0	32351	32327	32903	32711	32629	32341	36622	31418	
2144	0	32568	32619	33085	32733	32669	32703	34491	31979	
2145	0	32671	32787	33103	32534	33415	33272	32113	31579	
2146	0	33056	32963	32943	32679	33351	32759	30195	32634	
2147	0	33059	33103	32949	32743	32799	32773	29826	33245	
