# OpenSignals Text File Format
# {"00:07:80:3B:46:38": {"sensor": ["CUSTOM/0.5/1.0/V", "CUSTOM/0.5/1.0/V", "CUSTOM/0.5/1.0/V", "CUSTOM/0.5/1.0/V", "CUSTOM/0.5/1.0/V", "CUSTOM/0.5/1.0/V", "CUSTOM/0.5/1.0/V", "CUSTOM/0.5/1.0/V"], "device name": "EMGs", "column": ["nSeq", "DI", "RA_L", "RA_R", "OE_L", "OE:R", "IL_L", "IL_R", "MF_L", "MF_R"], "sync interval": 2, "time": "10:13:28.675", "comments": "", "device connection": "BTH00:07:80:3B:46:38", "channels": [1, 2, 3, 4, 5, 6, 7, 8], "date": "2017-6-2", "mode": 0, "digital IO": [0, 1], "firmware version": 772, "device": "biosignalsplux", "position": 0, "sampling rate": 1000, "label": ["RA_L", "RA_R", "OE_L", "OE:R", "IL_L", "IL_R", "MF_L", "MF_R"], "resolution": [16, 16, 16, 16, 16, 16, 16, 16], "special": [{}, {}, {}, {}, {}, {}, {}, {}]}}
# EndOfHeader
0	0	32752	32767	32578	32723	32751	32775	32798	32639	
1	0	32750	32813	32551	32764	32806	32773	32755	32573	
2	0	32751	32773	32599	32775	32726	32791	32749	32612	
3	0	32810	32773	32615	32703	32788	32765	32815	32721	
4	0	32815	32877	32661	32685	32797	32735	32727	32637	
5	0	32831	32646	32662	32767	32731	32743	32791	32694	
6	0	32841	32855	32655	32727	32809	32683	32805	32676	
7	0	32818	32621	32655	32756	32829	32756	32769	32527	
8	0	32737	32787	32635	32619	32717	32674	32771	32703	
9	0	32793	32663	32605	32655	32749	32817	32755	32697	
10	0	32769	32787	32590	32719	32743	32705	32709	32675	
11	0	32742	32862	32598	32643	32667	32799	32767	32739	
12	0	32732	32811	32694	32791	32786	32731	32775	32583	
13	0	32761	32826	32643	32727	32713	32775	32820	32583	
14	0	32770	32773	32614	32711	32795	32755	32751	32546	
15	0	32748	32806	32659	32700	32775	32812	32743	32660	
16	0	32745	32875	32679	32831	32743	32767	32763	32724	
17	0	32746	32549	32614	32854	32839	32727	32725	32701	
18	0	32774	32759	32615	32773	32871	32711	32775	32703	
19	0	32758	32762	32655	32836	32795	32671	32831	32663	
20	0	32775	32789	32631	32795	32871	32716	32767	32668	
21	0	32705	32786	32603	32803	32797	32562	32701	32527	
22	0	32713	32811	32690	32845	32749	32647	32679	32786	
23	0	32722	32837	32683	32741	32791	32669	32717	32703	
24	0	32740	32647	32694	32736	32723	32751	32711	32700	
25	0	32733	32791	32733	32799	32787	32673	32775	32775	
26	0	32767	32699	32671	32679	32775	32711	32790	32731	
27	0	32819	32757	32727	32735	32703	32755	32783	32583	
28	0	32759	32647	32628	32727	32775	32702	32788	32759	
29	0	32762	32789	32583	32725	32767	32678	32751	32743	
30	0	32792	32831	32729	32813	32707	32718	32725	32698	
31	0	32764	32606	32615	32807	32751	32775	32739	32723	
32	0	32750	32747	32623	32658	32789	32742	32813	32721	
33	0	32826	32726	32580	32639	32667	32831	32743	32545	
34	0	32737	32775	32607	32731	32771	32762	32790	32525	
35	0	32743	32829	32647	32724	32775	32663	32727	32738	
36	0	32796	32775	32663	32661	32743	32711	32743	32645	
37	0	32740	32871	32711	32823	32682	32634	32748	32754	
38	0	32764	32583	32637	32727	32825	32767	32749	32670	
39	0	32775	32790	32671	32643	32798	32755	32732	32659	
40	0	32760	32855	32647	32743	32697	32658	32738	32527	
41	0	32806	32797	32703	32797	32811	32699	32775	32791	
42	0	32751	32883	32647	32791	32787	32631	32801	32675	
43	0	32790	32639	32647	32775	32767	32753	32727	32770	
44	0	32741	32793	32643	32723	32815	32775	32724	32583	
45	0	32735	32839	32553	32685	32891	32679	32766	32613	
46	0	32775	32605	32515	32796	32865	32729	32787	32762	
47	0	32802	32903	32540	32743	32721	32733	32817	32669	
48	0	32725	32602	32794	32554	32695	32737	32757	32647	
49	0	32726	32854	32669	32719	32738	32732	32694	32615	
50	0	32743	32706	32613	32703	32809	32719	32707	32731	
51	0	32756	32817	32735	32796	32839	32749	32788	32711	
52	0	32786	32635	32743	32701	32684	32667	32737	32559	
53	0	32742	32807	32571	32855	32733	32615	32775	32603	
54	0	32722	32703	32525	32743	32799	32695	32733	32699	
55	0	32748	32844	32583	32775	32701	32662	32775	32700	
56	0	32756	32772	32767	32763	32662	32675	32831	32711	
57	0	32748	32797	32729	32705	32871	32666	32726	32548	
58	0	32735	32914	32586	32822	32797	32581	32736	32690	
59	0	32723	32646	32617	32727	32773	32677	32737	32663	
60	0	32710	32847	32679	32795	32725	32725	32806	32683	
61	0	32756	32662	32679	32671	32819	32622	32863	32591	
62	0	32804	32770	32660	32754	32759	32737	32797	32571	
63	0	32710	32861	32607	32775	32647	32681	32734	32700	
64	0	32775	32799	32455	32660	32834	32770	32797	32695	
65	0	32771	32827	32530	32771	32786	32775	32709	32747	
66	0	32815	32685	32491	32690	32734	32691	32701	32574	
67	0	32724	32807	32467	32727	32836	32715	32747	32631	
68	0	32694	32743	32738	32786	32799	32725	32742	32679	
69	0	32731	32803	32671	32775	32838	32738	32723	32743	
70	0	32705	32805	32679	32599	32729	32771	32802	32611	
71	0	32780	32843	32711	32775	32839	32614	32839	32646	
72	0	32758	32831	32725	32743	32771	32726	32775	32735	
73	0	32760	32700	32647	32687	32759	32694	32834	32726	
74	0	32799	32723	32571	32767	32765	32745	32727	32655	
75	0	32792	32798	32549	32788	32733	32665	32709	32743	
76	0	32743	32607	32479	32655	32845	32731	32758	32749	
77	0	32781	32795	32647	32775	32806	32775	32769	32583	
78	0	32854	32822	32535	32813	32787	32663	32809	32629	
79	0	32765	32839	32602	32898	32711	32747	32740	32658	
80	0	32769	32933	32691	32727	32917	32727	32691	32771	
81	0	32823	32725	32636	32819	32763	32693	32743	32623	
82	0	32780	32775	32620	32811	32702	32687	32812	32631	
83	0	32804	32635	32629	32751	32871	32609	32786	32745	
84	0	32794	32759	32646	32743	32775	32655	32789	32643	
85	0	32818	32834	32631	32735	32740	32641	32767	32667	
86	0	32769	32647	32635	32668	32850	32711	32771	32759	
87	0	32773	32783	32660	32769	32813	32695	32804	32511	
88	0	32762	32738	32607	32739	32727	32775	32733	32635	
89	0	32775	32751	32715	32803	32727	32818	32687	32695	
90	0	32725	32871	32733	32757	32791	32663	32723	32667	
91	0	32793	32592	32531	32615	32743	32757	32709	32653	
92	0	32720	32727	32585	32756	32676	32685	32783	32579	
93	0	32743	32711	32607	32826	32773	32715	32849	32607	
94	0	32775	32771	32775	32743	32743	32751	32796	32775	
95	0	32734	32903	32703	32771	32643	32695	32775	32699	
96	0	32766	32679	32627	32740	32861	32663	32738	32695	
97	0	32751	32767	32711	32655	32759	32599	32799	32607	
98	0	32757	32890	32663	32823	32739	32667	32723	32527	
99	0	32781	32676	32643	32883	32766	32629	32743	32739	
100	0	32815	32765	32631	32767	32783	32738	32725	32699	
101	0	32839	32853	32661	32766	32723	32692	32789	32675	
102	0	32743	32799	32643	32791	32819	32787	32818	32722	
103	0	32780	32823	32585	32699	32789	32695	32791	32703	
104	0	32838	32623	32669	32815	32719	32662	32773	32530	
105	0	32757	32844	32565	32799	32767	32751	32751	32793	
106	0	32784	32911	32549	32775	32774	32626	32723	32686	
107	0	32734	32583	32583	32749	32706	32751	32773	32713	
108	0	32703	32815	32461	32741	32865	32805	32708	32775	
109	0	32775	32687	32503	32645	32822	32655	32751	32663	
110	0	32746	32820	32774	32747	32767	32745	32799	32543	
111	0	32757	32807	32807	32767	32725	32719	32767	32743	
112	0	32791	32605	32735	32699	32854	32822	32743	32703	
113	0	32830	32775	32559	32696	32741	32735	32739	32695	
114	0	32791	32829	32531	32818	32799	32799	32775	32660	
115	0	32820	32775	32551	32679	32764	32748	32809	32711	
116	0	32745	32791	32609	32758	32687	32845	32742	32691	
117	0	32754	32727	32552	32811	32745	32714	32732	32700	
118	0	32740	32771	32590	32863	32683	32741	32788	32607	
119	0	32720	32845	32563	32791	32866	32683	32819	32647	
120	0	32730	32543	32541	32847	32807	32668	32721	32746	
121	0	32738	32731	32579	32745	32751	32738	32743	32631	
122	0	32719	32845	32548	32705	32847	32759	32731	32637	
123	0	32710	32621	32551	32691	32828	32775	32727	32711	
124	0	32759	32853	32505	32823	32822	32685	32751	32642	
125	0	32759	32775	32500	32725	32883	32759	32717	32529	
126	0	32751	32809	32559	32759	32903	32679	32743	32757	
127	0	32783	32891	32540	32695	32847	32773	32799	32683	
128	0	32788	32839	32735	32642	32885	32791	32775	32647	
129	0	32782	32813	32751	32783	32831	32771	32749	32657	
130	0	32811	32724	32575	32756	32893	32732	32787	32719	
131	0	32786	32734	32575	32742	32847	32698	32743	32708	
132	0	32791	32853	32575	32775	32726	32717	32695	32519	
133	0	32820	32671	32660	32694	32765	32681	32751	32599	
134	0	32828	32845	32807	32808	32647	32703	32735	32743	
135	0	32787	32739	32747	32814	32807	32643	32827	32727	
136	0	32780	32813	32742	32717	32791	32663	32823	32709	
137	0	32790	32788	32709	32767	32751	32647	32823	32692	
138	0	32764	32685	32610	32803	32725	32754	32807	32706	
139	0	32797	32743	32655	32662	32759	32673	32851	32623	
140	0	32730	32884	32674	32811	32707	32722	32826	32575	
141	0	32670	32596	32551	32743	32822	32745	32711	32762	
142	0	32660	32756	32553	32710	32799	32710	32711	32703	
143	0	32700	32715	32547	32523	32715	32715	32717	32709	
144	0	32732	32807	32642	32576	32803	32734	32703	32766	
145	0	32756	32811	32569	32751	32799	32823	32740	32642	
146	0	32679	32671	32608	32711	32773	32630	32771	32583	
147	0	32751	32817	32613	32710	32845	32734	32807	32751	
148	0	32751	32847	32720	32837	32775	32708	32841	32673	
149	0	32723	32663	32687	32627	32766	32754	32814	32726	
150	0	32741	32767	32706	32672	32823	32775	32767	32775	
151	0	32753	32843	32647	32773	32825	32735	32703	32799	
152	0	32766	32614	32661	32804	32710	32771	32725	32644	
153	0	32781	32758	32735	32821	32807	32687	32759	32494	
154	0	32771	32711	32623	32747	32775	32711	32759	32587	
155	0	32738	32759	32687	32694	32693	32687	32769	32697	
156	0	32767	32867	32709	32871	32818	32788	32797	32750	
157	0	32692	32621	32703	32855	32769	32647	32759	32721	
158	0	32764	32803	32695	32809	32839	32733	32783	32679	
159	0	32730	32939	32687	32823	32825	32647	32807	32742	
160	0	32738	32621	32479	32662	32831	32809	32751	32599	
161	0	32804	32859	32577	32793	32749	32799	32767	32567	
162	0	32821	32641	32540	32805	32901	32687	32742	32743	
163	0	32750	32745	32483	32755	32859	32711	32764	32659	
164	0	32775	32787	32543	32711	32735	32721	32813	32711	
165	0	32839	32599	32541	32667	32799	32699	32759	32766	
166	0	32781	32710	32615	32627	32722	32663	32735	32717	
167	0	32727	32828	32677	32718	32775	32766	32788	32711	
168	0	32782	32623	32686	32741	32775	32727	32802	32677	
169	0	32783	32716	32763	32717	32679	32806	32802	32665	
170	0	32775	32726	32703	32685	32722	32766	32771	32647	
171	0	32823	32615	32703	32705	32668	32684	32807	32579	
172	0	32781	32790	32723	32754	32839	32628	32814	32551	
173	0	32789	32868	32773	32647	32759	32723	32798	32693	
174	0	32854	32607	32663	32727	32735	32668	32767	32739	
175	0	32751	32867	32539	32771	32775	32743	32687	32623	
176	0	32728	32703	32537	32819	32755	32819	32735	32711	
177	0	32781	32806	32517	32671	32663	32733	32727	32767	
178	0	32736	32787	32438	32685	32815	32743	32719	32619	
179	0	32719	32679	32439	32842	32797	32633	32747	32593	
180	0	32718	32623	32434	32775	32727	32667	32751	32559	
181	0	32767	32749	32431	32851	32765	32631	32767	32545	
182	0	32703	32663	32352	32815	32707	32762	32765	32695	
183	0	32725	32754	32415	32775	32814	32687	32747	32684	
184	0	32760	32861	32543	32757	32759	32725	32773	32719	
185	0	32721	32641	32574	32631	32671	32638	32745	32687	
186	0	32791	32815	32495	32767	32783	32758	32735	32700	
187	0	32806	32855	32629	32850	32703	32739	32707	32695	
188	0	32768	32769	32563	32759	32707	32681	32790	32548	
189	0	32764	32845	32606	32823	32815	32711	32791	32575	
190	0	32799	32654	32595	32805	32775	32685	32749	32690	
191	0	32770	32845	32607	32698	32789	32749	32751	32715	
192	0	32820	32859	32523	32647	32723	32687	32751	32711	
193	0	32748	32653	32531	32751	32775	32747	32807	32695	
194	0	32759	32965	32498	32788	32717	32797	32783	32743	
195	0	32751	32679	32511	32702	32783	32767	32756	32730	
196	0	32756	32819	32519	32690	32743	32747	32786	32590	
197	0	32743	32719	32775	32683	32791	32659	32775	32626	
198	0	32765	32769	32727	32775	32822	32770	32807	32679	
199	0	32751	32879	32719	32815	32835	32694	32751	32647	
200	0	32771	32639	32799	32742	32724	32727	32734	32715	
201	0	32752	32821	32590	32795	32818	32687	32799	32679	
202	0	32745	32813	32508	32787	32743	32711	32745	32621	
203	0	32740	32809	32547	32646	32811	32767	32796	32572	
204	0	32764	32871	32569	32793	32843	32757	32801	32707	
205	0	32782	32631	32583	32775	32759	32859	32759	32770	
206	0	32775	32788	32599	32770	32842	32693	32769	32673	
207	0	32806	32835	32549	32846	32863	32783	32738	32709	
208	0	32780	32565	32484	32669	32757	32703	32731	32733	
209	0	32801	32694	32575	32539	32791	32783	32727	32735	
210	0	32809	32735	32471	32716	32823	32643	32739	32551	
211	0	32769	32745	32567	32694	32811	32749	32692	32559	
212	0	32740	32867	32567	32707	32833	32619	32790	32683	
213	0	32786	32589	32623	32759	32789	32685	32807	32701	
214	0	32741	32813	32615	32762	32775	32637	32714	32673	
215	0	32722	32807	32595	32647	32795	32707	32738	32707	
216	0	32739	32610	32647	32687	32719	32631	32751	32748	
217	0	32711	32823	32699	32855	32883	32716	32751	32647	
218	0	32753	32615	32647	32783	32783	32713	32793	32516	
219	0	32753	32783	32695	32785	32747	32767	32807	32610	
220	0	32764	32867	32706	32863	32735	32775	32759	32775	
221	0	32731	32571	32643	32709	32751	32658	32727	32671	
222	0	32699	32787	32643	32727	32791	32729	32711	32667	
223	0	32733	32663	32533	32841	32817	32615	32769	32775	
224	0	32719	32815	32749	32759	32782	32743	32751	32761	
225	0	32796	32894	32791	32759	32775	32669	32811	32599	
226	0	32764	32786	32727	32595	32743	32791	32751	32574	
227	0	32731	32843	32596	32775	32775	32751	32774	32735	
228	0	32734	32635	32551	32782	32731	32635	32763	32747	
229	0	32810	32831	32644	32675	32807	32687	32758	32655	
230	0	32745	32813	32593	32839	32747	32685	32731	32646	
231	0	32793	32587	32615	32773	32755	32765	32694	32718	
232	0	32799	32799	32663	32676	32786	32775	32735	32726	
233	0	32812	32887	32705	32799	32703	32807	32787	32749	
234	0	32788	32633	32709	32767	32811	32695	32715	32663	
235	0	32738	32798	32703	32804	32765	32751	32715	32605	
236	0	32783	32855	32719	32758	32775	32704	32735	32599	
237	0	32755	32599	32668	32775	32775	32773	32725	32647	
238	0	32756	32822	32669	32733	32820	32699	32763	32733	
239	0	32759	32629	32656	32767	32707	32707	32756	32751	
240	0	32767	32786	32607	32836	32859	32666	32787	32749	
241	0	32711	32832	32583	32863	32834	32799	32702	32747	
242	0	32732	32595	32547	32773	32791	32773	32783	32615	
243	0	32754	32845	32646	32775	32767	32701	32759	32507	
244	0	32805	32655	32647	32679	32710	32818	32716	32571	
245	0	32858	32733	32711	32619	32781	32718	32727	32668	
246	0	32766	32850	32719	32686	32673	32712	32775	32583	
247	0	32749	32647	32702	32711	32735	32647	32739	32647	
248	0	32775	32790	32703	32757	32799	32731	32731	32685	
249	0	32748	32860	32647	32775	32708	32695	32721	32620	
250	0	32719	32671	32647	32775	32767	32733	32797	32671	
251	0	32715	32762	32647	32702	32695	32679	32791	32726	
252	0	32745	32863	32681	32823	32839	32687	32723	32682	
253	0	32788	32647	32647	32717	32754	32621	32790	32596	
254	0	32732	32775	32669	32647	32745	32658	32821	32671	
255	0	32752	32711	32745	32770	32807	32687	32799	32707	
256	0	32744	32833	32647	32725	32855	32703	32686	32663	
257	0	32774	32799	32599	32858	32855	32743	32691	32771	
258	0	32796	32836	32569	32823	32775	32695	32693	32751	
259	0	32759	32811	32611	32753	32834	32770	32735	32647	
260	0	32822	32699	32587	32675	32748	32685	32775	32575	
261	0	32759	32822	32611	32679	32811	32786	32751	32582	
262	0	32767	32939	32655	32795	32703	32727	32767	32621	
263	0	32784	32590	32619	32729	32854	32739	32758	32738	
264	0	32721	32807	32531	32702	32805	32711	32757	32731	
265	0	32817	32719	32489	32755	32730	32739	32871	32681	
266	0	32781	32743	32539	32763	32789	32692	32821	32679	
267	0	32762	32823	32706	32775	32711	32711	32791	32795	
268	0	32738	32694	32679	32807	32813	32631	32743	32687	
269	0	32687	32743	32605	32743	32743	32679	32775	32689	
270	0	32698	32788	32647	32706	32856	32606	32802	32669	
271	0	32767	32611	32535	32626	32807	32685	32812	32543	
272	0	32731	32727	32563	32801	32797	32679	32805	32539	
273	0	32709	32827	32489	32745	32797	32675	32815	32659	
274	0	32748	32583	32527	32795	32685	32579	32789	32714	
275	0	32821	32747	32550	32767	32748	32631	32766	32711	
276	0	32790	32693	32515	32799	32739	32617	32812	32687	
277	0	32742	32747	32565	32839	32799	32662	32799	32647	
278	0	32692	32802	32608	32805	32671	32552	32765	32673	
279	0	32738	32660	32563	32767	32783	32660	32843	32687	
280	0	32757	32733	32563	32712	32799	32575	32815	32767	
281	0	32705	32871	32579	32673	32827	32701	32811	32739	
282	0	32753	32661	32759	32773	32719	32660	32679	32563	
283	0	32748	32799	32769	32751	32674	32775	32675	32609	
284	0	32815	32849	32583	32695	32787	32647	32713	32647	
285	0	32774	32667	32551	32786	32743	32775	32679	32677	
286	0	32760	32773	32630	32762	32743	32743	32727	32775	
287	0	32749	32609	32714	32788	32887	32712	32775	32749	
288	0	32711	32751	32791	32719	32900	32815	32812	32747	
289	0	32780	32775	32793	32727	32819	32695	32775	32743	
290	0	32809	32807	32775	32694	32842	32700	32783	32634	
291	0	32850	32887	32763	32771	32758	32619	32807	32577	
292	0	32804	32660	32718	32695	32887	32739	32711	32743	
293	0	32810	32819	32724	32685	32862	32677	32731	32717	
294	0	32782	32838	32727	32703	32750	32773	32709	32683	
295	0	32763	32594	32805	32695	32775	32681	32749	32647	
296	0	32780	32775	32733	32644	32787	32735	32694	32647	
297	0	32759	32831	32683	32815	32807	32671	32707	32775	
298	0	32813	32612	32589	32851	32705	32773	32745	32590	
299	0	32780	32867	32699	32762	32807	32753	32734	32599	
300	0	32763	32575	32763	32807	32775	32683	32711	32754	
301	0	32797	32813	32722	32791	32807	32743	32754	32622	
302	0	32751	32709	32590	32599	32765	32671	32795	32609	
303	0	32728	32843	32638	32647	32753	32737	32811	32770	
304	0	32806	32855	32671	32684	32711	32623	32775	32663	
305	0	32764	32759	32747	32593	32725	32717	32804	32633	
306	0	32839	32805	32727	32771	32719	32626	32847	32621	
307	0	32789	32919	32711	32790	32759	32765	32718	32533	
308	0	32708	32637	32677	32685	32758	32731	32695	32582	
309	0	32705	32788	32658	32734	32859	32670	32727	32695	
310	0	32736	32617	32603	32663	32773	32755	32773	32663	
311	0	32694	32775	32578	32586	32764	32683	32740	32675	
312	0	32760	32823	32594	32702	32769	32845	32775	32677	
313	0	32728	32665	32503	32796	32823	32740	32775	32667	
314	0	32704	32775	32503	32831	32771	32765	32717	32727	
315	0	32677	32819	32518	32749	32740	32647	32799	32660	
316	0	32761	32647	32518	32749	32821	32743	32770	32658	
317	0	32676	32761	32575	32771	32751	32627	32811	32668	
318	0	32726	32773	32580	32763	32798	32713	32803	32605	
319	0	32762	32687	32617	32703	32815	32647	32790	32553	
320	0	32712	32827	32692	32887	32826	32695	32715	32692	
321	0	32806	32767	32617	32812	32705	32723	32787	32742	
322	0	32748	32621	32663	32791	32805	32698	32759	32679	
323	0	32765	32810	32539	32786	32695	32719	32783	32743	
324	0	32774	32607	32619	32625	32647	32655	32767	32543	
325	0	32748	32783	32775	32751	32770	32764	32795	32583	
326	0	32762	32659	32775	32735	32758	32793	32734	32775	
327	0	32829	32823	32703	32647	32756	32780	32738	32715	
328	0	32847	32826	32743	32691	32860	32749	32691	32643	
329	0	32834	32796	32677	32555	32775	32717	32775	32711	
330	0	32769	32797	32656	32796	32819	32751	32775	32593	
331	0	32761	32762	32597	32773	32734	32703	32809	32639	
332	0	32786	32788	32615	32791	32855	32687	32743	32715	
333	0	32832	32765	32856	32551	32850	32767	32759	32695	
334	0	32748	32899	32711	32775	32775	32742	32775	32763	
335	0	32745	32799	32717	32681	32767	32621	32838	32569	
336	0	32745	32927	32751	32771	32719	32687	32783	32487	
337	0	32765	32643	32685	32806	32733	32679	32788	32633	
338	0	32757	32831	32643	32743	32804	32679	32759	32765	
339	0	32715	32868	32595	32743	32751	32738	32741	32751	
340	0	32745	32591	32508	32839	32743	32691	32730	32679	
341	0	32775	32791	32541	32915	32862	32697	32749	32733	
342	0	32770	32731	32507	32743	32767	32577	32819	32603	
343	0	32737	32823	32759	32783	32749	32633	32806	32606	
344	0	32784	32677	32675	32660	32679	32695	32811	32729	
345	0	32741	32764	32647	32756	32775	32594	32711	32726	
346	0	32713	32835	32645	32765	32771	32687	32735	32642	
347	0	32719	32791	32623	32647	32807	32647	32829	32743	
348	0	32748	32830	32659	32775	32807	32727	32717	32591	
349	0	32767	32772	32628	32629	32763	32775	32735	32549	
350	0	32823	32842	32598	32726	32675	32622	32733	32726	
351	0	32812	32633	32513	32823	32820	32773	32751	32716	
352	0	32806	32828	32555	32767	32786	32710	32677	32669	
353	0	32745	32813	32775	32804	32742	32799	32787	32763	
354	0	32762	32615	32655	32914	32785	32827	32815	32765	
355	0	32731	32751	32647	32851	32709	32753	32767	32725	
356	0	32735	32769	32735	32764	32847	32793	32762	32767	
357	0	32710	32612	32758	32703	32671	32799	32759	32679	
358	0	32729	32775	32703	32775	32834	32841	32775	32603	
359	0	32711	32703	32815	32743	32758	32854	32738	32583	
360	0	32790	32815	32812	32739	32699	32813	32732	32511	
361	0	32716	32721	32683	32786	32817	32731	32739	32807	
362	0	32757	32775	32679	32727	32830	32794	32766	32703	
363	0	32775	32767	32692	32743	32843	32767	32771	32711	
364	0	32729	32695	32647	32583	32795	32845	32755	32695	
365	0	32718	32577	32623	32743	32743	32699	32751	32711	
366	0	32754	32812	32679	32696	32784	32775	32739	32734	
367	0	32792	32827	32742	32726	32764	32719	32788	32703	
368	0	32709	32615	32719	32711	32819	32717	32759	32725	
369	0	32690	32811	32615	32727	32734	32707	32759	32677	
370	0	32742	32801	32639	32692	32767	32658	32820	32831	
371	0	32710	32789	32669	32789	32771	32607	32763	32737	
372	0	32719	32903	32743	32765	32698	32647	32804	32497	
373	0	32716	32677	32677	32647	32791	32556	32807	32534	
374	0	32789	32822	32725	32686	32711	32663	32831	32533	
375	0	32781	32877	32699	32865	32798	32683	32764	32519	
376	0	32804	32647	32677	32865	32743	32731	32835	32637	
377	0	32879	32805	32691	32799	32695	32663	32791	32687	
378	0	32773	32619	32685	32831	32823	32698	32814	32690	
379	0	32775	32721	32576	32705	32775	32750	32711	32674	
380	0	32738	32661	32499	32825	32711	32736	32711	32685	
381	0	32743	32791	32577	32791	32775	32807	32739	32519	
382	0	32772	32759	32702	32815	32850	32743	32750	32615	
383	0	32723	32769	32708	32647	32775	32787	32783	32703	
384	0	32734	32861	32647	32690	32863	32743	32823	32683	
385	0	32690	32607	32481	32663	32775	32828	32815	32708	
386	0	32715	32804	32439	32769	32879	32674	32793	32731	
387	0	32772	32759	32484	32731	32750	32726	32807	32784	
388	0	32711	32727	32487	32634	32747	32635	32775	32747	
389	0	32827	32759	32518	32748	32775	32695	32786	32695	
390	0	32793	32771	32479	32749	32819	32644	32738	32610	
391	0	32769	32583	32509	32686	32787	32745	32743	32655	
392	0	32791	32769	32491	32633	32767	32637	32826	32685	
393	0	32830	32879	32519	32843	32755	32662	32785	32711	
394	0	32756	32599	32515	32810	32702	32557	32749	32692	
395	0	32783	32775	32511	32749	32806	32677	32743	32519	
396	0	32793	32851	32530	32789	32739	32647	32691	32484	
397	0	32748	32559	32637	32756	32840	32695	32709	32461	
398	0	32793	32775	32757	32723	32706	32731	32719	32532	
399	0	32748	32871	32741	32731	32823	32695	32718	32506	
400	0	32731	32615	32703	32795	32751	32735	32701	32543	
401	0	32745	32799	32703	32769	32691	32743	32659	32615	
402	0	32765	32823	32612	32871	32791	32711	32700	32838	
403	0	32716	32633	32628	32759	32747	32754	32723	32791	
404	0	32808	32855	32678	32597	32834	32683	32719	32745	
405	0	32758	32887	32671	32631	32773	32759	32707	32709	
406	0	32772	32609	32567	32753	32786	32647	32711	32684	
407	0	32749	32775	32587	32740	32785	32790	32706	32711	
408	0	32805	32671	32647	32775	32722	32695	32769	32751	
409	0	32715	32795	32674	32790	32725	32699	32790	32675	
410	0	32745	32831	32727	32815	32815	32615	32726	32707	
411	0	32751	32687	32723	32877	32709	32683	32791	32671	
412	0	32703	32786	32757	32631	32839	32582	32817	32628	
413	0	32775	32828	32753	32723	32807	32701	32804	32647	
414	0	32730	32806	32834	32703	32735	32701	32775	32659	
415	0	32775	32598	32738	32699	32797	32703	32758	32547	
416	0	32773	32738	32671	32828	32670	32607	32789	32547	
417	0	32756	32814	32647	32789	32769	32647	32793	32660	
418	0	32724	32775	32547	32717	32771	32599	32882	32731	
419	0	32775	32879	32557	32769	32662	32755	32893	32695	
420	0	32765	32619	32455	32797	32775	32645	32877	32660	
421	0	32850	32767	32474	32801	32695	32722	32891	32607	
422	0	32727	32796	32515	32686	32759	32623	32804	32679	
423	0	32773	32695	32425	32720	32771	32735	32839	32727	
424	0	32743	32773	32476	32711	32685	32695	32838	32705	
425	0	32729	32839	32655	32711	32793	32749	32775	32698	
426	0	32788	32687	32711	32735	32755	32675	32743	32717	
427	0	32722	32807	32679	32655	32845	32751	32775	32671	
428	0	32774	32815	32638	32657	32732	32677	32735	32683	
429	0	32755	32641	32805	32717	32761	32735	32743	32613	
430	0	32722	32790	32852	32725	32775	32723	32807	32595	
431	0	32774	32850	32847	32637	32738	32822	32827	32553	
432	0	32772	32615	32718	32839	32863	32695	32700	32647	
433	0	32758	32807	32647	32851	32836	32797	32727	32682	
434	0	32793	32835	32685	32775	32739	32679	32684	32711	
435	0	32788	32627	32711	32847	32819	32741	32699	32695	
436	0	32762	32813	32662	32722	32790	32673	32743	32685	
437	0	32729	32642	32687	32717	32751	32765	32782	32703	
438	0	32814	32803	32715	32783	32810	32795	32759	32591	
439	0	32756	32863	32711	32786	32807	32703	32775	32503	
440	0	32748	32647	32647	32791	32739	32806	32713	32557	
441	0	32762	32855	32695	32859	32848	32620	32731	32711	
442	0	32775	32855	32655	32823	32827	32685	32738	32758	
443	0	32726	32591	32669	32635	32729	32654	32715	32711	
444	0	32762	32763	32726	32775	32723	32767	32727	32715	
445	0	32753	32687	32675	32831	32703	32811	32724	32735	
446	0	32805	32735	32607	32703	32807	32801	32763	32719	
447	0	32793	32819	32564	32769	32775	32819	32743	32683	
448	0	32756	32847	32505	32597	32733	32799	32679	32543	
449	0	32822	32573	32459	32615	32796	32647	32725	32515	
450	0	32795	32831	32542	32670	32742	32789	32738	32563	
451	0	32781	32914	32551	32804	32885	32655	32749	32626	
452	0	32796	32639	32551	32703	32751	32790	32807	32767	
453	0	32785	32795	32511	32814	32775	32775	32736	32671	
454	0	32751	32739	32525	32757	32813	32684	32830	32678	
455	0	32764	32607	32447	32695	32743	32807	32823	32647	
456	0	32718	32786	32483	32647	32829	32717	32831	32757	
457	0	32718	32839	32527	32781	32763	32775	32855	32758	
458	0	32742	32627	32492	32799	32710	32671	32738	32633	
459	0	32756	32786	32565	32703	32786	32659	32733	32527	
460	0	32799	32699	32517	32836	32734	32581	32765	32631	
461	0	32749	32639	32469	32755	32711	32658	32815	32579	
462	0	32766	32805	32407	32631	32775	32615	32771	32525	
463	0	32734	32933	32523	32655	32736	32733	32715	32549	
464	0	32734	32642	32487	32853	32790	32631	32734	32611	
465	0	32739	32839	32538	32863	32717	32743	32735	32642	
466	0	32775	32903	32559	32719	32797	32677	32751	32671	
467	0	32740	32599	32500	32724	32715	32701	32737	32692	
468	0	32788	32731	32541	32771	32678	32643	32719	32773	
469	0	32796	32847	32532	32663	32815	32763	32749	32729	
470	0	32765	32614	32722	32799	32835	32711	32738	32751	
471	0	32797	32781	32745	32743	32745	32726	32753	32635	
472	0	32823	32658	32632	32807	32699	32751	32743	32643	
473	0	32801	32788	32617	32679	32773	32668	32671	32711	
474	0	32766	32883	32633	32647	32831	32702	32685	32711	
475	0	32708	32607	32678	32639	32759	32709	32722	32775	
476	0	32766	32809	32717	32749	32797	32773	32714	32668	
477	0	32759	32850	32629	32807	32623	32671	32727	32679	
478	0	32694	32675	32679	32799	32745	32711	32743	32705	
479	0	32732	32721	32684	32767	32720	32703	32749	32653	
480	0	32770	32782	32587	32694	32754	32745	32717	32684	
481	0	32754	32807	32507	32719	32634	32666	32722	32647	
482	0	32740	32591	32501	32711	32759	32753	32735	32669	
483	0	32706	32757	32679	32761	32773	32703	32703	32647	
484	0	32719	32899	32563	32793	32719	32754	32719	32775	
485	0	32759	32638	32543	32647	32850	32622	32742	32725	
486	0	32770	32811	32559	32716	32795	32731	32717	32631	
487	0	32721	32927	32730	32799	32740	32626	32735	32543	
488	0	32729	32637	32773	32829	32871	32726	32805	32846	
489	0	32754	32831	32695	32747	32871	32712	32803	32796	
490	0	32786	32763	32631	32833	32786	32775	32773	32743	
491	0	32762	32762	32615	32719	32900	32786	32715	32723	
492	0	32809	32855	32647	32757	32767	32775	32737	32735	
493	0	32735	32854	32579	32700	32895	32825	32699	32753	
494	0	32761	32659	32605	32756	32773	32827	32690	32722	
495	0	32742	32831	32566	32846	32791	32711	32698	32775	
496	0	32727	32877	32499	32846	32839	32741	32612	32726	
497	0	32711	32599	32495	32821	32742	32662	32717	32769	
498	0	32660	32775	32493	32702	32839	32695	32631	32715	
499	0	32734	32807	32551	32663	32722	32610	32646	32715	
500	0	32681	32559	32557	32723	32916	32743	32658	32683	
501	0	32706	32723	32537	32669	32807	32726	32627	32732	
502	0	32670	32725	32526	32615	32775	32749	32635	32639	
503	0	32647	32582	32598	32525	32827	32677	32669	32604	
504	0	32702	32641	32484	32599	32775	32738	32647	32517	
505	0	32726	32765	32505	32633	32692	32659	32664	32535	
506	0	32646	32559	32502	32570	32775	32769	32671	32733	
507	0	32712	32745	32515	32623	32804	32757	32698	32749	
508	0	32699	32594	32543	32659	32713	32717	32647	32701	
509	0	32689	32727	32493	32427	32814	32719	32731	32628	
510	0	32723	32809	32459	32486	32703	32642	32727	32643	
511	0	32748	32563	32567	32545	32767	32764	32735	32673	
512	0	32745	32701	32500	32629	32747	32725	32751	32739	
513	0	32701	32791	32494	32678	32727	32822	32809	32657	
514	0	32695	32571	32479	32711	32695	32793	32710	32679	
515	0	32730	32711	32609	32671	32619	32685	32756	32715	
516	0	32745	32751	32570	32709	32757	32773	32757	32731	
517	0	32751	32790	32605	32659	32691	32615	32775	32679	
518	0	32735	32585	32631	32634	32727	32671	32751	32673	
519	0	32742	32719	32647	32739	32723	32667	32727	32711	
520	0	32716	32802	32730	32775	32821	32671	32775	32641	
521	0	32717	32765	32566	32807	32732	32775	32669	32671	
522	0	32708	32762	32694	32670	32783	32743	32703	32716	
523	0	32707	32903	32711	32831	32791	32677	32833	32583	
524	0	32739	32659	32815	32855	32671	32695	32845	32595	
525	0	32791	32859	32918	32875	32759	32655	32935	32518	
526	0	32915	32898	32813	32819	32799	32687	32925	32573	
527	0	32925	32711	32831	32932	32830	32687	32930	32527	
528	0	32992	32895	33017	33095	32743	32555	33079	32527	
529	0	33100	32943	33009	33035	32611	32596	33213	32455	
530	0	33121	33013	33135	33221	32674	32567	33349	32543	
531	0	33244	33095	33227	33298	32595	32534	33455	32471	
532	0	33295	32829	33263	33127	32512	32506	33431	32391	
533	0	33189	32927	33159	33061	32663	32507	33375	32423	
534	0	33082	32975	32997	33079	32711	32623	33155	32473	
535	0	33043	32711	32870	32855	32642	32549	33007	32639	
536	0	32929	32879	32850	32826	32755	32665	32865	32599	
537	0	32820	32885	32870	32888	32807	32631	32764	32542	
538	0	32718	32679	32469	32855	32837	32678	32679	32591	
539	0	32641	32815	32459	32751	32839	32647	32624	32579	
540	0	32615	32901	32310	32735	32830	32707	32607	32583	
541	0	32581	32606	32277	32766	32970	32660	32527	32855	
542	0	32630	32764	32263	32619	32887	32725	32593	32781	
543	0	32647	32642	32291	32594	32819	32695	32623	32695	
544	0	32629	32752	32359	32548	32947	32836	32557	32775	
545	0	32654	32839	32391	32623	32837	32767	32542	32701	
546	0	32615	32575	32305	32695	32767	32807	32594	32705	
547	0	32692	32703	32326	32687	32851	32773	32647	32751	
548	0	32701	32815	32423	32519	32741	32823	32583	32787	
549	0	32748	32701	32511	32662	32809	32749	32607	32630	
550	0	32734	32791	32591	32671	32831	32797	32663	32621	
551	0	32685	32591	32559	32767	32818	32751	32702	32643	
552	0	32701	32763	32611	32647	32803	32795	32690	32803	
553	0	32758	32815	32583	32610	32702	32724	32691	32851	
554	0	32686	32745	32615	32783	32823	32833	32747	32803	
555	0	32738	32740	32671	32743	32775	32727	32671	32796	
556	0	32743	32689	32662	32771	32751	32775	32694	32766	
557	0	32758	32789	32653	32754	32828	32801	32647	32731	
558	0	32679	32867	32663	32791	32835	32789	32690	32811	
559	0	32767	32567	32615	32661	32711	32757	32703	32754	
560	0	32698	32743	32647	32661	32791	32759	32732	32735	
561	0	32703	32843	32563	32647	32685	32659	32717	32679	
562	0	32708	32583	32685	32646	32773	32811	32663	32717	
563	0	32693	32739	32701	32807	32725	32727	32675	32669	
564	0	32738	32842	32797	32739	32823	32753	32711	32655	
565	0	32706	32639	32815	32743	32775	32711	32732	32573	
566	0	32743	32837	32761	32687	32798	32711	32690	32546	
567	0	32804	32874	32735	32811	32863	32663	32733	32537	
568	0	32808	32623	32713	32764	32687	32707	32694	32535	
569	0	32763	32740	32767	32711	32799	32642	32759	32537	
570	0	32804	32743	32716	32677	32766	32718	32743	32735	
571	0	32794	32743	32655	32711	32795	32759	32729	32735	
572	0	32796	32807	32679	32759	32775	32765	32739	32751	
573	0	32727	32658	32695	32751	32671	32770	32749	32683	
574	0	32758	32822	32711	32783	32715	32734	32767	32734	
575	0	32773	32827	32751	32787	32731	32619	32731	32743	
576	0	32730	32798	32783	32738	32799	32714	32723	32685	
577	0	32728	32803	32757	32853	32791	32659	32669	32783	
578	0	32716	32802	32723	32759	32831	32733	32684	32795	
579	0	32659	32807	32535	32709	32775	32669	32699	32771	
580	0	32726	32677	32473	32605	32735	32719	32751	32767	
581	0	32807	32807	32487	32571	32821	32711	32719	32743	
582	0	32774	32827	32455	32735	32724	32715	32705	32671	
583	0	32727	32566	32413	32799	32747	32643	32711	32548	
584	0	32727	32791	32431	32707	32787	32717	32765	32557	
585	0	32698	32703	32427	32719	32735	32626	32753	32625	
586	0	32758	32751	32514	32695	32815	32690	32681	32690	
587	0	32765	32773	32509	32663	32831	32675	32735	32761	
588	0	32755	32855	32591	32674	32767	32669	32738	32647	
589	0	32751	32770	32575	32653	32831	32647	32749	32715	
590	0	32765	32829	32547	32807	32823	32711	32735	32659	
591	0	32804	32692	32587	32732	32759	32674	32738	32621	
592	0	32806	32575	32665	32759	32769	32727	32790	32638	
593	0	32834	32769	32628	32727	32769	32701	32775	32673	
594	0	32799	32773	32642	32715	32829	32727	32775	32689	
595	0	32636	32625	32647	32794	32747	32747	32799	32717	
596	0	32729	32791	32623	32718	32855	32698	32747	32743	
597	0	32738	32764	32499	32671	32775	32775	32681	32757	
598	0	32708	32810	32567	32815	32869	32775	32699	32764	
599	0	32698	32881	32628	32839	32757	32694	32719	32637	
600	0	32774	32589	32635	32767	32694	32711	32751	32543	
601	0	32730	32770	32671	32801	32758	32660	32761	32583	
602	0	32844	32769	32610	32803	32647	32756	32719	32695	
603	0	32802	32854	32642	32847	32789	32807	32739	32695	
604	0	32753	32607	32647	32865	32717	32677	32719	32685	
605	0	32772	32767	32671	32771	32817	32745	32677	32519	
606	0	32763	32825	32714	32647	32699	32655	32679	32563	
607	0	32763	32571	32739	32703	32807	32711	32751	32647	
608	0	32690	32805	32711	32626	32684	32607	32755	32627	
609	0	32753	32843	32703	32615	32756	32769	32815	32700	
610	0	32793	32605	32810	32679	32738	32667	32791	32675	
611	0	32756	32799	32806	32810	32791	32775	32740	32590	
612	0	32757	32831	32619	32743	32815	32634	32743	32531	
613	0	32759	32587	32589	32745	32795	32711	32749	32526	
614	0	32796	32754	32551	32771	32726	32682	32759	32625	
615	0	32751	32692	32555	32805	32710	32684	32754	32607	
616	0	32765	32627	32599	32767	32765	32683	32812	32503	
617	0	32754	32775	32583	32683	32754	32733	32727	32556	
618	0	32769	32831	32646	32671	32759	32708	32863	32573	
619	0	32749	32583	32597	32679	32662	32719	32807	32611	
620	0	32749	32782	32615	32775	32807	32659	32775	32591	
621	0	32767	32687	32470	32791	32811	32789	32734	32670	
622	0	32758	32753	32543	32677	32719	32677	32695	32723	
623	0	32756	32847	32462	32775	32797	32669	32751	32708	
624	0	32732	32775	32527	32759	32775	32663	32708	32655	
625	0	32692	32873	32573	32767	32723	32727	32709	32687	
626	0	32775	32594	32740	32616	32881	32743	32751	32659	
627	0	32706	32757	32742	32707	32811	32775	32791	32588	
628	0	32773	32756	32745	32710	32775	32797	32764	32566	
629	0	32751	32587	32607	32679	32854	32762	32751	32579	
630	0	32735	32807	32535	32674	32799	32801	32763	32621	
631	0	32751	32890	32643	32679	32867	32681	32757	32581	
632	0	32838	32655	32612	32764	32781	32671	32769	32647	
633	0	32805	32820	32591	32775	32787	32724	32853	32771	
634	0	32765	32739	32551	32762	32723	32707	32818	32763	
635	0	32720	32615	32551	32709	32695	32802	32749	32743	
636	0	32740	32787	32519	32847	32783	32795	32751	32751	
637	0	32709	32855	32631	32826	32693	32839	32817	32685	
638	0	32773	32711	32628	32859	32830	32763	32786	32711	
639	0	32767	32591	32623	32767	32759	32663	32758	32587	
640	0	32775	32811	32551	32773	32839	32717	32735	32567	
641	0	32780	32786	32621	32695	32851	32685	32757	32773	
642	0	32773	32679	32575	32679	32731	32751	32754	32748	
643	0	32791	32815	32574	32753	32845	32627	32788	32711	
644	0	32764	32775	32657	32775	32762	32671	32787	32661	
645	0	32785	32739	32662	32733	32818	32695	32793	32677	
646	0	32740	32855	32685	32759	32775	32592	32775	32743	
647	0	32713	32605	32713	32709	32775	32703	32759	32683	
648	0	32784	32793	32754	32705	32703	32631	32830	32687	
649	0	32795	32823	32766	32583	32766	32771	32754	32702	
650	0	32822	32679	32783	32815	32753	32771	32799	32719	
651	0	32799	32759	32759	32826	32671	32747	32731	32631	
652	0	32780	32903	32711	32801	32789	32743	32721	32511	
653	0	32740	32643	32684	32754	32805	32763	32743	32567	
654	0	32759	32791	32598	32727	32731	32767	32719	32539	
655	0	32766	32852	32631	32900	32855	32599	32789	32641	
656	0	32755	32623	32611	32735	32830	32666	32753	32711	
657	0	32743	32798	32671	32711	32791	32655	32734	32693	
658	0	32738	32883	32647	32762	32829	32775	32705	32703	
659	0	32733	32738	32684	32775	32718	32702	32678	32719	
660	0	32716	32604	32762	32867	32748	32859	32723	32669	
661	0	32752	32755	32699	32837	32685	32722	32705	32735	
662	0	32684	32770	32703	32795	32797	32820	32694	32711	
663	0	32734	32615	32567	32756	32679	32740	32698	32724	
664	0	32807	32762	32519	32747	32747	32797	32713	32647	
665	0	32788	32859	32644	32773	32761	32739	32735	32727	
666	0	32764	32637	32775	32709	32667	32711	32718	32695	
667	0	32793	32726	32785	32667	32807	32623	32727	32671	
668	0	32834	32727	32711	32767	32827	32663	32775	32751	
669	0	32808	32799	32715	32735	32767	32698	32775	32743	
670	0	32730	32763	32749	32673	32771	32751	32747	32698	
671	0	32734	32723	32713	32783	32773	32639	32786	32695	
672	0	32746	32775	32755	32573	32815	32723	32743	32632	
673	0	32783	32818	32535	32647	32855	32689	32775	32530	
674	0	32798	32709	32519	32703	32808	32727	32782	32609	
675	0	32675	32775	32579	32791	32845	32695	32765	32635	
676	0	32677	32820	32603	32751	32731	32735	32727	32674	
677	0	32746	32638	32570	32743	32787	32647	32733	32667	
678	0	32732	32744	32535	32805	32757	32791	32715	32682	
679	0	32755	32839	32515	32807	32735	32677	32754	32683	
680	0	32804	32675	32606	32788	32767	32691	32719	32742	
681	0	32815	32802	32643	32773	32767	32655	32735	32763	
682	0	32760	32887	32499	32855	32727	32695	32756	32646	
683	0	32726	32798	32553	32743	32790	32677	32815	32735	
684	0	32694	32847	32549	32803	32769	32671	32795	32751	
685	0	32726	32703	32534	32811	32667	32757	32733	32797	
686	0	32730	32765	32658	32739	32703	32834	32749	32748	
687	0	32732	32805	32668	32555	32765	32775	32863	32669	
688	0	32807	32799	32700	32598	32666	32791	32809	32642	
689	0	32780	32801	32599	32693	32734	32727	32831	32540	
690	0	32794	32877	32459	32679	32803	32637	32749	32749	
691	0	32711	32575	32451	32757	32690	32821	32695	32743	
692	0	32741	32890	32551	32663	32820	32685	32759	32685	
693	0	32732	32683	32669	32847	32775	32809	32739	32763	
694	0	32783	32813	32685	32799	32706	32786	32767	32671	
695	0	32757	32625	32677	32795	32775	32749	32847	32511	
696	0	32801	32791	32679	32733	32783	32799	32823	32614	
697	0	32765	32821	32631	32690	32707	32771	32759	32575	
698	0	32783	32635	32711	32717	32775	32809	32803	32567	
699	0	32834	32775	32731	32847	32663	32797	32771	32591	
700	0	32770	32893	32703	32807	32829	32743	32695	32740	
701	0	32677	32611	32686	32679	32823	32811	32733	32749	
702	0	32758	32813	32749	32767	32679	32767	32709	32759	
703	0	32734	32695	32691	32567	32811	32726	32711	32711	
704	0	32695	32759	32749	32587	32751	32732	32663	32731	
705	0	32705	32887	32755	32775	32751	32669	32729	32767	
706	0	32800	32583	32639	32633	32887	32685	32749	32647	
707	0	32764	32797	32627	32647	32844	32661	32775	32571	
708	0	32825	32834	32623	32685	32775	32732	32759	32527	
709	0	32799	32615	32633	32551	32811	32677	32837	32615	
710	0	32813	32821	32682	32551	32749	32739	32803	32569	
711	0	32770	32843	32607	32743	32877	32655	32819	32587	
712	0	32732	32559	32581	32715	32757	32775	32826	32749	
713	0	32763	32761	32572	32791	32711	32775	32807	32631	
714	0	32754	32784	32543	32604	32799	32706	32722	32661	
715	0	32804	32801	32530	32754	32707	32767	32726	32627	
716	0	32722	32877	32519	32783	32663	32691	32805	32663	
717	0	32764	32580	32563	32730	32817	32743	32741	32670	
718	0	32733	32762	32587	32850	32732	32718	32694	32620	
719	0	32735	32877	32546	32839	32868	32757	32749	32684	
720	0	32751	32620	32477	32813	32767	32711	32749	32714	
721	0	32748	32799	32527	32673	32717	32782	32731	32681	
722	0	32782	32562	32775	32775	32718	32642	32749	32630	
723	0	32719	32775	32733	32799	32807	32687	32739	32563	
724	0	32742	32727	32748	32796	32799	32621	32751	32540	
725	0	32809	32797	32747	32756	32811	32663	32729	32571	
726	0	32745	32869	32739	32806	32759	32683	32747	32643	
727	0	32791	32579	32717	32740	32716	32695	32838	32687	
728	0	32829	32742	32700	32580	32842	32727	32823	32660	
729	0	32743	32695	32757	32605	32827	32713	32754	32699	
730	0	32716	32789	32796	32809	32739	32643	32747	32694	
731	0	32733	32813	32736	32703	32788	32758	32773	32701	
732	0	32727	32775	32660	32775	32790	32754	32749	32647	
733	0	32694	32735	32621	32631	32751	32679	32820	32590	
734	0	32771	32797	32647	32787	32703	32675	32828	32693	
735	0	32743	32914	32740	32806	32767	32647	32839	32773	
736	0	32791	32617	32647	32687	32775	32754	32799	32755	
737	0	32790	32753	32607	32821	32775	32722	32748	32703	
738	0	32771	32623	32619	32647	32739	32647	32759	32668	
739	0	32773	32804	32559	32803	32751	32721	32787	32593	
740	0	32750	32676	32748	32799	32722	32635	32823	32667	
741	0	32772	32830	32699	32821	32707	32663	32798	32771	
742	0	32784	32851	32771	32839	32855	32647	32783	32679	
743	0	32799	32722	32591	32750	32836	32739	32743	32775	
744	0	32767	32857	32775	32695	32757	32672	32775	32695	
745	0	32825	32743	32726	32743	32821	32743	32783	32692	
746	0	32799	32737	32757	32766	32813	32724	32764	32647	
747	0	32781	32850	32737	32765	32711	32659	32775	32519	
748	0	32788	32782	32659	32674	32727	32758	32739	32580	
749	0	32723	32794	32791	32822	32775	32703	32783	32620	
750	0	32756	32623	32662	32727	32803	32772	32741	32799	
751	0	32735	32749	32599	32791	32735	32757	32796	32686	
752	0	32798	32591	32673	32682	32773	32683	32839	32701	
753	0	32775	32711	32715	32751	32751	32721	32809	32635	
754	0	32736	32885	32663	32775	32711	32644	32745	32647	
755	0	32775	32789	32703	32711	32629	32707	32749	32557	
756	0	32791	32847	32748	32743	32775	32655	32727	32675	
757	0	32767	32647	32661	32647	32773	32751	32695	32734	
758	0	32719	32771	32625	32613	32706	32756	32771	32607	
759	0	32724	32806	32507	32831	32775	32655	32771	32715	
760	0	32724	32813	32495	32751	32749	32741	32775	32647	
761	0	32735	32854	32514	32823	32687	32628	32786	32583	
762	0	32815	32627	32491	32775	32836	32759	32789	32578	
763	0	32763	32787	32783	32711	32769	32775	32838	32668	
764	0	32716	32685	32643	32847	32729	32783	32732	32695	
765	0	32772	32859	32593	32775	32759	32717	32691	32645	
766	0	32782	32642	32713	32754	32797	32647	32735	32663	
767	0	32783	32775	32669	32679	32765	32719	32775	32626	
768	0	32748	32911	32583	32762	32799	32641	32743	32659	
769	0	32784	32643	32596	32828	32741	32700	32687	32631	
770	0	32828	32837	32647	32743	32725	32647	32727	32571	
771	0	32821	32807	32691	32825	32822	32815	32711	32751	
772	0	32854	32815	32673	32646	32823	32799	32743	32692	
773	0	32831	32899	32727	32855	32676	32637	32803	32675	
774	0	32779	32706	32711	32839	32813	32723	32799	32715	
775	0	32775	32853	32660	32763	32821	32613	32815	32722	
776	0	32769	32838	32743	32815	32695	32723	32775	32639	
777	0	32847	32786	32698	32685	32821	32767	32723	32522	
778	0	32802	32915	32607	32735	32830	32797	32701	32730	
779	0	32770	32799	32551	32804	32751	32758	32719	32647	
780	0	32703	32883	32643	32785	32826	32645	32718	32689	
781	0	32732	32565	32535	32807	32822	32727	32773	32644	
782	0	32685	32771	32556	32713	32647	32667	32775	32694	
783	0	32745	32751	32567	32796	32817	32703	32766	32615	
784	0	32752	32775	32604	32775	32833	32701	32711	32567	
785	0	32713	32815	32759	32743	32805	32687	32719	32543	
786	0	32751	32629	32583	32701	32803	32615	32787	32545	
787	0	32797	32823	32613	32716	32721	32738	32799	32577	
788	0	32803	32847	32543	32749	32755	32617	32831	32524	
789	0	32791	32663	32507	32739	32741	32639	32807	32515	
790	0	32772	32827	32479	32566	32879	32658	32755	32628	
791	0	32741	32925	32542	32575	32859	32735	32766	32719	
792	0	32777	32663	32501	32757	32769	32661	32741	32732	
793	0	32748	32805	32525	32804	32843	32749	32837	32700	
794	0	32849	32859	32503	32809	32797	32615	32815	32699	
795	0	32759	32609	32551	32685	32868	32675	32783	32709	
796	0	32726	32797	32646	32706	32722	32591	32795	32719	
797	0	32746	32899	32691	32837	32821	32679	32822	32695	
798	0	32680	32665	32714	32765	32754	32613	32786	32679	
799	0	32715	32842	32759	32717	32860	32695	32756	32786	
800	0	32828	32663	32659	32826	32775	32775	32749	32628	
801	0	32802	32827	32647	32838	32691	32727	32759	32595	
802	0	32783	32837	32683	32734	32767	32791	32819	32558	
803	0	32731	32647	32604	32789	32743	32787	32775	32553	
804	0	32757	32759	32663	32758	32821	32815	32791	32613	
805	0	32806	32738	32535	32615	32789	32690	32775	32709	
806	0	32797	32746	32539	32775	32685	32743	32735	32756	
807	0	32755	32747	32607	32723	32767	32705	32734	32765	
808	0	32764	32658	32607	32663	32679	32711	32754	32727	
809	0	32810	32743	32555	32739	32817	32719	32737	32680	
810	0	32744	32727	32745	32679	32735	32745	32791	32723	
811	0	32775	32727	32576	32867	32715	32819	32766	32775	
812	0	32788	32759	32541	32845	32789	32722	32742	32735	
813	0	32766	32631	32487	32875	32808	32815	32759	32694	
814	0	32760	32742	32571	32775	32692	32631	32831	32668	
815	0	32715	32825	32549	32865	32769	32684	32847	32564	
816	0	32725	32607	32583	32807	32659	32626	32895	32481	
817	0	32806	32805	32660	32671	32821	32726	32809	32609	
818	0	32781	32705	32631	32685	32735	32691	32771	32765	
819	0	32765	32813	32647	32746	32711	32642	32775	32714	
820	0	32739	32707	32646	32713	32767	32738	32742	32642	
821	0	32775	32775	32666	32787	32751	32694	32745	32703	
822	0	32823	32871	32727	32787	32635	32689	32759	32662	
823	0	32745	32685	32631	32593	32737	32662	32751	32730	
824	0	32800	32827	32647	32734	32743	32775	32731	32670	
825	0	32785	32731	32660	32797	32747	32742	32727	32583	
826	0	32778	32771	32687	32673	32911	32783	32767	32614	
827	0	32706	32841	32707	32732	32775	32727	32766	32559	
828	0	32718	32690	32575	32783	32900	32711	32789	32515	
829	0	32758	32763	32668	32743	32834	32679	32771	32511	
830	0	32690	32749	32737	32647	32823	32669	32787	32578	
831	0	32713	32660	32695	32575	32862	32685	32819	32623	
832	0	32735	32717	32647	32647	32701	32806	32743	32719	
833	0	32781	32847	32607	32823	32863	32627	32711	32837	
834	0	32755	32701	32583	32813	32711	32694	32795	32695	
835	0	32737	32815	32535	32791	32743	32727	32811	32692	
836	0	32784	32902	32514	32831	32775	32791	32722	32703	
837	0	32745	32619	32639	32711	32721	32691	32743	32685	
838	0	32756	32807	32663	32775	32804	32727	32755	32666	
839	0	32706	32685	32583	32692	32881	32772	32681	32607	
840	0	32767	32822	32671	32760	32739	32681	32685	32615	
841	0	32749	32693	32596	32802	32833	32775	32737	32647	
842	0	32721	32766	32703	32749	32755	32717	32806	32675	
843	0	32783	32783	32676	32815	32791	32735	32842	32647	
844	0	32745	32762	32739	32659	32756	32738	32788	32548	
845	0	32717	32803	32567	32797	32835	32663	32767	32718	
846	0	32758	32831	32588	32743	32771	32734	32747	32715	
847	0	32769	32903	32839	32783	32771	32727	32754	32698	
848	0	32796	32575	32705	32647	32783	32708	32767	32724	
849	0	32790	32815	32894	32767	32751	32695	32760	32787	
850	0	32696	32583	32742	32691	32799	32671	32729	32633	
851	0	32815	32757	32714	32823	32738	32743	32711	32591	
852	0	32806	32795	32745	32647	32788	32771	32757	32623	
853	0	32775	32735	32715	32647	32726	32775	32724	32615	
854	0	32695	32884	32598	32783	32799	32735	32751	32755	
855	0	32711	32603	32620	32691	32822	32660	32807	32759	
856	0	32726	32823	32631	32855	32743	32731	32791	32747	
857	0	32774	32635	32577	32668	32813	32759	32750	32807	
858	0	32745	32823	32628	32831	32834	32756	32731	32681	
859	0	32735	32623	32583	32802	32831	32768	32669	32665	
860	0	32740	32775	32571	32692	32885	32620	32727	32567	
861	0	32775	32851	32615	32783	32815	32683	32742	32519	
862	0	32775	32596	32747	32682	32710	32602	32807	32599	
863	0	32796	32835	32767	32703	32735	32751	32813	32615	
864	0	32802	32815	32727	32769	32814	32670	32743	32587	
865	0	32751	32804	32639	32759	32669	32802	32805	32791	
866	0	32748	32807	32637	32812	32815	32759	32811	32726	
867	0	32832	32609	32678	32695	32814	32679	32895	32669	
868	0	32834	32754	32647	32747	32743	32735	32790	32731	
869	0	32789	32603	32639	32674	32717	32707	32758	32647	
870	0	32763	32811	32518	32739	32751	32745	32711	32519	
871	0	32734	32775	32588	32711	32750	32710	32697	32621	
872	0	32738	32775	32642	32575	32759	32735	32692	32703	
873	0	32745	32818	32694	32758	32733	32795	32737	32719	
874	0	32770	32569	32623	32763	32743	32671	32727	32671	
875	0	32743	32727	32503	32775	32806	32759	32788	32735	
876	0	32745	32773	32584	32839	32796	32731	32797	32765	
877	0	32718	32598	32647	32867	32743	32709	32807	32751	
878	0	32684	32847	32720	32681	32925	32662	32791	32707	
879	0	32716	32795	32671	32661	32775	32686	32836	32711	
880	0	32684	32629	32663	32653	32857	32614	32821	32751	
881	0	32692	32820	32693	32679	32807	32715	32727	32663	
882	0	32729	32634	32643	32809	32702	32754	32701	32503	
883	0	32807	32771	32759	32749	32834	32681	32735	32513	
884	0	32829	32903	32645	32759	32703	32762	32671	32583	
885	0	32740	32619	32711	32819	32738	32655	32726	32743	
886	0	32775	32775	32707	32739	32811	32715	32759	32721	
887	0	32742	32687	32611	32671	32855	32658	32839	32749	
888	0	32771	32727	32679	32597	32831	32747	32783	32707	
889	0	32728	32871	32669	32646	32785	32684	32799	32638	
890	0	32775	32703	32675	32767	32735	32801	32791	32630	
891	0	32732	32799	32730	32813	32802	32708	32799	32717	
892	0	32716	32845	32710	32709	32799	32767	32815	32693	
893	0	32725	32789	32647	32807	32773	32663	32775	32647	
894	0	32816	32819	32675	32679	32861	32695	32718	32542	
895	0	32717	32726	32583	32722	32769	32621	32743	32563	
896	0	32716	32787	32642	32783	32815	32687	32757	32470	
897	0	32733	32813	32635	32791	32735	32690	32727	32605	
898	0	32731	32623	32566	32719	32839	32727	32699	32711	
899	0	32791	32715	32591	32669	32765	32707	32727	32795	
900	0	32756	32843	32654	32719	32819	32812	32725	32775	
901	0	32836	32605	32647	32818	32791	32743	32708	32690	
902	0	32759	32773	32631	32717	32802	32775	32719	32671	
903	0	32795	32773	32647	32575	32735	32739	32787	32639	
904	0	32765	32807	32638	32827	32678	32799	32758	32735	
905	0	32793	32807	32635	32751	32738	32782	32757	32693	
906	0	32780	32615	32615	32795	32770	32757	32751	32637	
907	0	32775	32775	32623	32751	32695	32703	32742	32579	
908	0	32766	32871	32727	32701	32703	32815	32783	32551	
909	0	32752	32631	32753	32695	32708	32694	32773	32549	
910	0	32775	32775	32775	32780	32775	32731	32765	32503	
911	0	32809	32599	32793	32742	32797	32711	32751	32667	
912	0	32804	32799	32807	32647	32678	32663	32735	32833	
913	0	32703	32871	32753	32658	32750	32711	32751	32751	
914	0	32756	32803	32703	32831	32738	32623	32727	32669	
915	0	32738	32775	32679	32745	32870	32773	32691	32655	
916	0	32743	32615	32746	32737	32813	32623	32723	32743	
917	0	32739	32813	32699	32647	32738	32679	32753	32694	
918	0	32721	32797	32681	32586	32866	32679	32775	32733	
919	0	32701	32621	32647	32788	32755	32754	32756	32599	
920	0	32705	32791	32660	32839	32775	32635	32775	32527	
921	0	32685	32733	32597	32859	32790	32713	32759	32667	
922	0	32759	32749	32611	32806	32685	32615	32802	32716	
923	0	32719	32852	32661	32635	32813	32726	32771	32723	
924	0	32765	32748	32731	32677	32806	32677	32721	32596	
925	0	32748	32799	32690	32767	32759	32703	32771	32669	
926	0	32775	32877	32749	32742	32754	32693	32769	32643	
927	0	32774	32687	32743	32747	32743	32727	32737	32639	
928	0	32724	32759	32609	32707	32797	32613	32687	32671	
929	0	32806	32751	32566	32751	32767	32615	32775	32676	
930	0	32729	32837	32566	32797	32757	32587	32855	32687	
931	0	32779	32628	32655	32791	32705	32718	32803	32709	
932	0	32813	32898	32598	32621	32833	32605	32775	32733	
933	0	32743	32612	32547	32692	32759	32685	32758	32623	
934	0	32753	32807	32663	32759	32687	32637	32723	32508	
935	0	32745	32885	32730	32775	32735	32813	32775	32558	
936	0	32801	32647	32722	32775	32663	32595	32739	32532	
937	0	32775	32819	32747	32807	32788	32709	32749	32620	
938	0	32760	32748	32658	32861	32759	32638	32759	32755	
939	0	32767	32718	32674	32738	32691	32715	32677	32790	
940	0	32701	32838	32666	32638	32847	32623	32716	32687	
941	0	32712	32647	32708	32647	32801	32727	32717	32695	
942	0	32738	32763	32701	32802	32811	32679	32773	32677	
943	0	32754	32859	32686	32731	32839	32711	32775	32692	
944	0	32798	32618	32662	32775	32669	32679	32783	32687	
945	0	32791	32845	32677	32783	32848	32765	32775	32591	
946	0	32813	32807	32615	32756	32805	32711	32775	32604	
947	0	32753	32767	32606	32743	32743	32789	32754	32586	
948	0	32792	32804	32671	32715	32757	32767	32855	32687	
949	0	32724	32727	32647	32885	32667	32679	32791	32807	
950	0	32751	32799	32671	32845	32758	32815	32794	32727	
951	0	32713	32775	32623	32856	32773	32775	32799	32735	
952	0	32758	32863	32609	32771	32821	32727	32823	32679	
953	0	32743	32567	32690	32796	32787	32703	32815	32727	
954	0	32807	32743	32641	32786	32689	32762	32775	32708	
955	0	32781	32751	32638	32647	32802	32627	32750	32661	
956	0	32813	32602	32675	32591	32871	32759	32799	32663	
957	0	32761	32731	32578	32810	32717	32780	32759	32716	
958	0	32707	32711	32511	32799	32867	32769	32759	32671	
959	0	32769	32766	32535	32694	32820	32797	32745	32533	
960	0	32794	32791	32519	32813	32783	32783	32770	32587	
961	0	32762	32635	32559	32794	32839	32773	32775	32551	
962	0	32796	32751	32551	32637	32659	32851	32714	32647	
963	0	32760	32855	32549	32686	32775	32767	32759	32741	
964	0	32725	32555	32556	32659	32739	32687	32759	32667	
965	0	32760	32795	32551	32699	32638	32691	32742	32647	
966	0	32826	32876	32705	32647	32718	32621	32735	32631	
967	0	32790	32556	32655	32785	32625	32663	32759	32725	
968	0	32791	32775	32733	32713	32711	32635	32835	32701	
969	0	32756	32919	32721	32719	32807	32771	32822	32647	
970	0	32733	32583	32676	32694	32737	32597	32775	32642	
971	0	32751	32763	32679	32783	32829	32681	32751	32588	
972	0	32764	32841	32594	32775	32715	32591	32767	32577	
973	0	32747	32799	32503	32763	32775	32667	32711	32735	
974	0	32852	32758	32487	32761	32871	32722	32759	32705	
975	0	32807	32627	32521	32658	32831	32679	32805	32786	
976	0	32814	32765	32519	32809	32759	32723	32805	32663	
977	0	32804	32717	32519	32851	32773	32708	32833	32663	
978	0	32766	32723	32565	32727	32716	32759	32767	32732	
979	0	32778	32871	32677	32919	32743	32607	32724	32675	
980	0	32830	32619	32711	32807	32786	32773	32727	32647	
981	0	32812	32829	32703	32647	32743	32698	32740	32623	
982	0	32813	32839	32583	32735	32903	32759	32764	32591	
983	0	32830	32631	32557	32775	32839	32755	32759	32527	
984	0	32818	32767	32519	32711	32697	32803	32765	32723	
985	0	32806	32647	32730	32811	32774	32717	32783	32765	
986	0	32763	32810	32647	32689	32819	32695	32843	32743	
987	0	32726	32647	32637	32821	32823	32773	32799	32735	
988	0	32726	32823	32647	32698	32749	32663	32724	32634	
989	0	32753	32825	32678	32659	32885	32799	32790	32587	
990	0	32763	32623	32631	32583	32830	32749	32739	32591	
991	0	32749	32822	32658	32787	32727	32831	32751	32749	
992	0	32712	32743	32607	32735	32839	32789	32773	32647	
993	0	32699	32767	32482	32773	32797	32670	32751	32730	
994	0	32678	32935	32519	32607	32731	32751	32749	32711	
995	0	32756	32615	32455	32758	32719	32727	32699	32583	
996	0	32761	32797	32741	32709	32789	32671	32735	32658	
997	0	32718	32655	32743	32727	32759	32631	32711	32815	
998	0	32759	32743	32655	32597	32677	32613	32827	32751	
999	0	32775	32711	32663	32739	32831	32694	32813	32788	
1000	0	32772	32771	32647	32662	32775	32723	32809	32739	
1001	0	32793	32773	32626	32813	32807	32647	32799	32727	
1002	0	32837	32603	32601	32770	32783	32710	32727	32630	
1003	0	32743	32797	32607	32631	32727	32685	32674	32542	
1004	0	32743	32621	32637	32735	32791	32690	32702	32637	
1005	0	32759	32775	32695	32691	32751	32738	32751	32679	
1006	0	32784	32659	32771	32796	32801	32670	32767	32677	
1007	0	32790	32738	32639	32627	32804	32643	32810	32669	
1008	0	32809	32903	32567	32747	32825	32647	32868	32703	
1009	0	32802	32605	32534	32775	32826	32767	32844	32645	
1010	0	32781	32789	32770	32719	32842	32619	32783	32551	
1011	0	32745	32595	32759	32804	32775	32682	32791	32487	
1012	0	32751	32775	32627	32659	32775	32625	32791	32543	
1013	0	32662	32567	32543	32817	32831	32669	32775	32679	
1014	0	32740	32751	32519	32715	32775	32698	32797	32673	
1015	0	32852	32605	32535	32663	32797	32731	32879	32716	
1016	0	32742	32883	32647	32815	32751	32643	32767	32516	
1017	0	32827	32611	32647	32647	32775	32699	32798	32595	
1018	0	32734	32799	32615	32821	32761	32710	32795	32556	
1019	0	32754	32731	32644	32679	32666	32739	32726	32683	
1020	0	32767	32795	32639	32827	32822	32743	32725	32739	
1021	0	32705	32887	32591	32818	32787	32751	32761	32703	
1022	0	32738	32631	32715	32900	32695	32823	32775	32693	
1023	0	32730	32821	32767	32642	32755	32789	32765	32773	
1024	0	32767	32703	32745	32639	32783	32837	32759	32753	
1025	0	32783	32783	32719	32727	32671	32773	32818	32769	
1026	0	32767	32915	32775	32745	32837	32796	32705	32767	
1027	0	32751	32615	32682	32685	32799	32647	32764	32692	
1028	0	32698	32789	32647	32703	32691	32668	32739	32623	
1029	0	32761	32670	32671	32785	32822	32739	32724	32551	
1030	0	32765	32799	32703	32695	32787	32683	32726	32564	
1031	0	32793	32823	32543	32695	32731	32759	32721	32677	
1032	0	32716	32759	32463	32775	32835	32827	32775	32732	
1033	0	32790	32903	32546	32687	32743	32719	32819	32763	
1034	0	32775	32621	32615	32739	32767	32775	32755	32635	
1035	0	32808	32891	32767	32775	32859	32751	32747	32714	
1036	0	32756	32627	32723	32735	32839	32738	32687	32709	
1037	0	32775	32765	32662	32845	32795	32606	32760	32675	
1038	0	32711	32635	32564	32841	32731	32812	32790	32540	
1039	0	32718	32765	32571	32845	32773	32787	32743	32500	
1040	0	32710	32829	32607	32775	32671	32726	32748	32487	
1041	0	32687	32579	32519	32799	32887	32667	32766	32532	
1042	0	32755	32823	32721	32827	32843	32687	32787	32713	
1043	0	32734	32635	32687	32775	32774	32631	32775	32767	
1044	0	32775	32767	32634	32653	32895	32630	32767	32738	
1045	0	32771	32771	32751	32671	32757	32743	32759	32711	
1046	0	32835	32596	32699	32743	32807	32714	32839	32724	
1047	0	32788	32903	32671	32775	32788	32757	32765	32743	
1048	0	32786	32583	32647	32767	32719	32702	32739	32699	
1049	0	32838	32741	32711	32841	32771	32703	32699	32732	
1050	0	32827	32814	32766	32758	32721	32663	32690	32711	
1051	0	32830	32559	32727	32756	32765	32741	32647	32727	
1052	0	32801	32869	32731	32727	32820	32713	32623	32679	
1053	0	32775	32637	32591	32758	32739	32775	32763	32535	
1054	0	32719	32797	32506	32679	32783	32727	32839	32679	
1055	0	32737	32629	32485	32821	32795	32605	32858	32647	
1056	0	32775	32813	32599	32844	32695	32712	32827	32677	
1057	0	32686	32819	32823	32790	32797	32739	32811	32731	
1058	0	32751	32797	32775	32703	32767	32717	32775	32726	
1059	0	32772	32794	32759	32762	32751	32662	32837	32737	
1060	0	32732	32729	32719	32762	32799	32836	32796	32644	
1061	0	32754	32821	32615	32674	32773	32775	32691	32563	
1062	0	32815	32818	32613	32747	32692	32751	32671	32589	
1063	0	32772	32583	32687	32713	32823	32683	32723	32706	
1064	0	32670	32879	32578	32789	32822	32811	32783	32807	
1065	0	32735	32644	32679	32699	32775	32753	32807	32733	
1066	0	32742	32781	32613	32740	32815	32647	32742	32679	
1067	0	32756	32590	32677	32639	32743	32653	32831	32607	
1068	0	32794	32852	32717	32757	32739	32607	32783	32583	
1069	0	32806	32599	32580	32731	32747	32756	32791	32716	
1070	0	32722	32775	32623	32719	32807	32713	32695	32827	
1071	0	32796	32619	32489	32725	32877	32741	32739	32698	
1072	0	32758	32757	32559	32621	32763	32805	32694	32610	
1073	0	32796	32873	32582	32741	32763	32811	32711	32631	
1074	0	32775	32605	32615	32771	32738	32797	32743	32698	
1075	0	32757	32731	32546	32775	32831	32756	32713	32662	
1076	0	32790	32640	32534	32759	32813	32717	32743	32547	
1077	0	32735	32798	32555	32785	32703	32635	32783	32527	
1078	0	32762	32687	32748	32669	32894	32677	32786	32684	
1079	0	32804	32795	32747	32831	32823	32587	32783	32685	
1080	0	32720	32847	32615	32873	32807	32647	32791	32687	
1081	0	32713	32691	32583	32839	32791	32701	32785	32721	
1082	0	32768	32631	32547	32851	32809	32773	32767	32773	
1083	0	32785	32843	32487	32755	32763	32758	32747	32717	
1084	0	32748	32621	32473	32706	32687	32767	32735	32711	
1085	0	32815	32803	32599	32757	32743	32719	32749	32775	
1086	0	32775	32803	32563	32687	32771	32719	32743	32756	
1087	0	32763	32807	32556	32607	32738	32631	32773	32646	
1088	0	32742	32839	32548	32607	32845	32783	32799	32661	
1089	0	32786	32667	32541	32685	32807	32685	32813	32575	
1090	0	32784	32799	32507	32775	32627	32724	32791	32508	
1091	0	32752	32867	32500	32799	32799	32583	32775	32605	
1092	0	32713	32559	32509	32669	32733	32699	32786	32713	
1093	0	32790	32759	32518	32732	32775	32605	32769	32700	
1094	0	32724	32642	32518	32619	32775	32679	32799	32663	
1095	0	32756	32783	32567	32555	32690	32639	32765	32671	
1096	0	32738	32903	32583	32739	32732	32642	32774	32647	
1097	0	32765	32757	32615	32802	32699	32633	32763	32628	
1098	0	32772	32871	32605	32687	32726	32715	32759	32550	
1099	0	32740	32623	32594	32863	32828	32775	32775	32558	
1100	0	32713	32827	32538	32873	32826	32719	32751	32599	
1101	0	32762	32867	32543	32837	32719	32743	32733	32639	
1102	0	32733	32658	32557	32679	32771	32691	32797	32797	
1103	0	32764	32759	32555	32841	32690	32775	32713	32724	
1104	0	32668	32679	32523	32843	32759	32631	32758	32694	
1105	0	32748	32805	32493	32790	32786	32705	32824	32706	
1106	0	32730	32838	32511	32735	32731	32726	32743	32729	
1107	0	32807	32589	32431	32747	32761	32767	32785	32695	
1108	0	32743	32805	32571	32796	32727	32679	32732	32719	
1109	0	32750	32827	32555	32799	32844	32775	32751	32639	
1110	0	32749	32663	32533	32679	32799	32711	32801	32714	
1111	0	32827	32773	32503	32763	32759	32829	32731	32749	
1112	0	32815	32671	32566	32818	32839	32811	32715	32551	
1113	0	32805	32749	32737	32743	32767	32662	32679	32532	
1114	0	32775	32863	32799	32829	32775	32766	32721	32575	
1115	0	32797	32615	32719	32767	32773	32733	32733	32679	
1116	0	32774	32775	32661	32647	32741	32794	32647	32683	
1117	0	32751	32611	32635	32811	32701	32711	32703	32655	
1118	0	32758	32787	32655	32745	32711	32807	32703	32749	
1119	0	32738	32751	32623	32681	32767	32743	32738	32711	
1120	0	32785	32755	32690	32717	32839	32711	32783	32555	
1121	0	32775	32775	32679	32614	32806	32687	32751	32607	
1122	0	32728	32759	32711	32691	32811	32639	32719	32711	
1123	0	32788	32869	32763	32687	32867	32701	32775	32663	
1124	0	32747	32615	32659	32575	32775	32598	32723	32732	
1125	0	32780	32830	32619	32717	32719	32749	32729	32691	
1126	0	32760	32743	32543	32699	32767	32644	32711	32762	
1127	0	32765	32771	32527	32632	32854	32738	32787	32585	
1128	0	32758	32829	32531	32790	32743	32679	32852	32625	
1129	0	32767	32635	32413	32757	32733	32707	32765	32587	
1130	0	32745	32951	32463	32751	32787	32603	32807	32756	
1131	0	32716	32603	32550	32838	32717	32647	32783	32598	
1132	0	32710	32829	32675	32830	32722	32764	32758	32763	
1133	0	32708	32540	32603	32839	32839	32621	32775	32575	
1134	0	32756	32757	32551	32797	32751	32711	32775	32532	
1135	0	32751	32620	32635	32869	32775	32711	32791	32717	
1136	0	32758	32758	32647	32765	32841	32655	32775	32690	
1137	0	32808	32723	32593	32870	32719	32663	32807	32647	
1138	0	32742	32695	32647	32870	32884	32647	32775	32618	
1139	0	32767	32877	32742	32844	32891	32647	32810	32661	
1140	0	32718	32597	32645	32743	32838	32719	32799	32751	
1141	0	32773	32751	32708	32805	32847	32726	32787	32663	
1142	0	32765	32892	32666	32737	32775	32743	32839	32695	
1143	0	32763	32647	32719	32711	32894	32770	32805	32626	
1144	0	32772	32895	32743	32603	32788	32727	32719	32639	
1145	0	32759	32647	32604	32703	32671	32814	32711	32799	
1146	0	32806	32858	32615	32663	32837	32677	32742	32665	
1147	0	32750	32551	32526	32687	32770	32751	32807	32697	
1148	0	32755	32791	32595	32703	32717	32687	32855	32713	
1149	0	32756	32711	32723	32582	32769	32769	32837	32683	
1150	0	32752	32799	32532	32595	32629	32735	32839	32607	
1151	0	32771	32853	32739	32711	32743	32749	32807	32501	
1152	0	32738	32639	32738	32743	32753	32647	32811	32647	
1153	0	32735	32791	32575	32699	32700	32709	32862	32669	
1154	0	32783	32716	32569	32733	32733	32699	32799	32703	
1155	0	32775	32783	32749	32745	32633	32786	32789	32668	
1156	0	32759	32879	32766	32643	32838	32709	32669	32690	
1157	0	32788	32801	32673	32835	32827	32718	32711	32720	
1158	0	32747	32946	32611	32830	32804	32715	32681	32578	
1159	0	32734	32631	32644	32730	32807	32669	32751	32607	
1160	0	32807	32811	32647	32838	32786	32749	32775	32743	
1161	0	32815	32655	32639	32692	32703	32655	32775	32717	
1162	0	32854	32823	32643	32692	32829	32743	32763	32688	
1163	0	32701	32893	32639	32799	32832	32739	32767	32675	
1164	0	32738	32579	32647	32871	32666	32763	32801	32727	
1165	0	32751	32844	32611	32831	32773	32726	32734	32638	
1166	0	32806	32575	32659	32839	32764	32683	32719	32555	
1167	0	32773	32795	32576	32615	32719	32703	32711	32795	
1168	0	32774	32699	32527	32677	32817	32679	32655	32751	
1169	0	32806	32807	32553	32747	32749	32722	32743	32758	
1170	0	32775	32813	32587	32782	32767	32644	32739	32687	
1171	0	32745	32606	32407	32726	32813	32703	32733	32775	
1172	0	32692	32749	32471	32745	32750	32710	32793	32603	
1173	0	32772	32722	32477	32663	32823	32733	32871	32537	
1174	0	32786	32841	32645	32866	32853	32799	32810	32743	
1175	0	32807	32807	32743	32783	32818	32655	32771	32743	
1176	0	32782	32799	32757	32791	32727	32737	32758	32732	
1177	0	32703	32887	32679	32677	32827	32807	32751	32617	
1178	0	32745	32598	32647	32646	32742	32748	32799	32534	
1179	0	32791	32722	32647	32669	32879	32679	32745	32551	
1180	0	32746	32786	32677	32803	32893	32721	32711	32669	
1181	0	32698	32607	32682	32783	32827	32610	32755	32757	
1182	0	32759	32823	32719	32788	32802	32717	32764	32711	
1183	0	32735	32799	32708	32731	32834	32751	32770	32702	
1184	0	32791	32791	32689	32692	32827	32719	32815	32753	
1185	0	32703	32727	32647	32646	32771	32685	32759	32687	
1186	0	32708	32807	32775	32583	32676	32631	32789	32591	
1187	0	32856	32831	32751	32583	32775	32711	32795	32563	
1188	0	32796	32659	32726	32759	32741	32679	32831	32591	
1189	0	32763	32763	32711	32791	32647	32693	32798	32767	
1190	0	32775	32703	32637	32786	32803	32683	32769	32741	
1191	0	32752	32769	32660	32660	32803	32755	32773	32669	
1192	0	32745	32899	32702	32815	32723	32671	32751	32631	
1193	0	32793	32615	32749	32789	32772	32727	32735	32685	
1194	0	32745	32772	32751	32774	32714	32695	32799	32719	
1195	0	32743	32857	32673	32690	32839	32667	32819	32710	
1196	0	32698	32611	32685	32621	32824	32639	32773	32603	
1197	0	32754	32767	32635	32767	32743	32726	32720	32554	
1198	0	32756	32775	32613	32831	32753	32671	32679	32543	
1199	0	32719	32759	32629	32785	32701	32791	32702	32749	
1200	0	32747	32807	32646	32694	32812	32669	32643	32775	
1201	0	32711	32743	32716	32738	32758	32727	32679	32687	
1202	0	32727	32821	32593	32706	32699	32674	32735	32731	
1203	0	32694	32615	32588	32735	32772	32755	32742	32775	
1204	0	32786	32759	32667	32726	32749	32642	32749	32699	
1205	0	32818	32645	32711	32687	32741	32716	32799	32556	
1206	0	32767	32803	32709	32687	32795	32710	32775	32511	
1207	0	32766	32863	32659	32731	32748	32660	32875	32711	
1208	0	32764	32565	32621	32575	32827	32734	32826	32729	
1209	0	32821	32751	32634	32723	32759	32639	32775	32635	
1210	0	32780	32679	32647	32734	32685	32703	32791	32710	
1211	0	32748	32745	32645	32742	32740	32647	32758	32695	
1212	0	32785	32871	32589	32772	32769	32731	32742	32511	
1213	0	32682	32599	32502	32719	32791	32754	32851	32548	
1214	0	32771	32775	32555	32647	32755	32683	32786	32757	
1215	0	32732	32703	32529	32661	32715	32740	32809	32716	
1216	0	32769	32773	32511	32809	32795	32678	32879	32675	
1217	0	32764	32847	32583	32757	32759	32785	32835	32725	
1218	0	32773	32775	32694	32783	32775	32759	32705	32687	
1219	0	32767	32898	32671	32673	32718	32663	32703	32621	
1220	0	32733	32773	32602	32867	32863	32705	32707	32755	
1221	0	32732	32875	32594	32835	32823	32803	32679	32718	
1222	0	32676	32791	32674	32815	32706	32675	32751	32706	
1223	0	32720	32885	32679	32675	32815	32699	32791	32605	
1224	0	32792	32658	32637	32775	32819	32659	32811	32575	
1225	0	32773	32887	32583	32787	32773	32694	32707	32687	
1226	0	32784	32647	32567	32807	32775	32742	32790	32647	
1227	0	32799	32819	32830	32845	32831	32684	32789	32607	
1228	0	32823	32579	32769	32695	32799	32747	32825	32549	
1229	0	32825	32762	32691	32706	32775	32679	32831	32503	
1230	0	32822	32897	32663	32737	32767	32711	32835	32558	
1231	0	32802	32662	32620	32818	32740	32715	32823	32557	
1232	0	32761	32809	32579	32803	32775	32773	32839	32599	
1233	0	32731	32863	32583	32700	32742	32642	32882	32607	
1234	0	32738	32847	32572	32839	32775	32685	32864	32671	
1235	0	32828	32869	32611	32718	32829	32720	32815	32647	
1236	0	32782	32599	32771	32694	32741	32711	32759	32711	
1237	0	32768	32775	32508	32831	32901	32691	32795	32775	
1238	0	32762	32859	32573	32764	32859	32717	32767	32687	
1239	0	32757	32647	32543	32759	32871	32671	32788	32721	
1240	0	32791	32763	32495	32643	32878	32754	32775	32727	
1241	0	32732	32843	32531	32727	32875	32687	32805	32687	
1242	0	32773	32567	32481	32839	32789	32747	32717	32623	
1243	0	32780	32765	32467	32678	32755	32695	32703	32548	
1244	0	32788	32643	32559	32647	32767	32740	32711	32663	
1245	0	32762	32797	32761	32775	32807	32783	32675	32758	
1246	0	32799	32823	32739	32702	32735	32647	32675	32687	
1247	0	32695	32747	32685	32719	32807	32756	32702	32775	
1248	0	32775	32839	32658	32695	32743	32674	32735	32603	
1249	0	32817	32756	32642	32603	32713	32815	32751	32667	
1250	0	32815	32775	32607	32642	32738	32751	32742	32707	
1251	0	32742	32695	32573	32807	32641	32663	32730	32783	
1252	0	32732	32791	32597	32795	32813	32647	32765	32761	
1253	0	32743	32834	32628	32775	32751	32735	32819	32707	
1254	0	32743	32565	32641	32727	32679	32717	32775	32639	
1255	0	32694	32767	32573	32733	32687	32717	32799	32647	
1256	0	32713	32895	32629	32804	32675	32691	32839	32661	
1257	0	32763	32655	32631	32756	32799	32748	32859	32735	
1258	0	32692	32839	32735	32711	32739	32759	32775	32647	
1259	0	32785	32703	32647	32807	32636	32701	32743	32525	
1260	0	32775	32775	32509	32863	32740	32764	32697	32767	
1261	0	32735	32660	32495	32823	32775	32639	32700	32695	
1262	0	32741	32755	32546	32713	32762	32709	32722	32671	
1263	0	32785	32883	32598	32562	32799	32647	32717	32644	
1264	0	32813	32578	32627	32561	32850	32683	32762	32725	
1265	0	32749	32804	32591	32733	32745	32667	32715	32767	
1266	0	32766	32863	32533	32695	32839	32774	32823	32663	
1267	0	32758	32647	32507	32716	32742	32691	32787	32631	
1268	0	32740	32763	32526	32666	32799	32695	32750	32563	
1269	0	32775	32775	32549	32755	32751	32671	32771	32555	
1270	0	32795	32775	32477	32761	32679	32759	32775	32679	
1271	0	32843	32795	32549	32659	32765	32698	32791	32731	
1272	0	32751	32515	32733	32752	32750	32695	32845	32711	
1273	0	32829	32835	32703	32795	32775	32759	32743	32758	
1274	0	32796	32795	32612	32847	32694	32701	32703	32607	
1275	0	32755	32795	32646	32691	32786	32775	32739	32527	
1276	0	32760	32561	32665	32727	32727	32708	32741	32639	
1277	0	32729	32775	32567	32795	32818	32675	32767	32687	
1278	0	32711	32623	32485	32807	32759	32659	32710	32679	
1279	0	32823	32871	32621	32749	32835	32722	32715	32702	
1280	0	32798	32763	32603	32734	32830	32732	32683	32702	
1281	0	32741	32796	32775	32871	32685	32741	32695	32558	
1282	0	32811	32943	32743	32878	32850	32639	32735	32613	
1283	0	32831	32695	32662	32743	32806	32791	32677	32711	
1284	0	32796	32878	32702	32828	32726	32775	32811	32693	
1285	0	32751	32645	32621	32677	32853	32667	32902	32767	
1286	0	32729	32903	32532	32743	32804	32671	32775	32601	
1287	0	32761	32647	32485	32742	32739	32647	32763	32579	
1288	0	32793	32829	32719	32706	32671	32747	32742	32823	
1289	0	32735	32655	32687	32719	32766	32727	32694	32699	
1290	0	32741	32798	32663	32695	32807	32683	32754	32691	
1291	0	32724	32595	32618	32843	32827	32775	32813	32586	
1292	0	32756	32788	32761	32775	32735	32751	32775	32595	
1293	0	32764	32637	32719	32739	32847	32727	32695	32769	
1294	0	32742	32775	32709	32739	32812	32715	32725	32717	
1295	0	32749	32687	32625	32731	32775	32695	32692	32711	
1296	0	32723	32763	32533	32615	32819	32723	32719	32703	
1297	0	32771	32662	32509	32763	32903	32803	32827	32599	
1298	0	32730	32743	32687	32775	32798	32647	32743	32629	
1299	0	32759	32642	32647	32823	32797	32751	32747	32675	
1300	0	32779	32797	32676	32643	32679	32775	32740	32751	
1301	0	32791	32864	32631	32641	32729	32723	32747	32613	
1302	0	32831	32863	32647	32846	32822	32710	32783	32621	
1303	0	32742	32887	32701	32831	32713	32726	32775	32791	
1304	0	32754	32775	32612	32735	32807	32819	32797	32741	
1305	0	32732	32879	32611	32847	32711	32875	32811	32765	
1306	0	32807	32597	32545	32774	32706	32807	32707	32775	
1307	0	32737	32871	32626	32865	32759	32799	32710	32679	
1308	0	32788	32722	32839	32759	32854	32735	32647	32621	
1309	0	32762	32857	32719	32833	32855	32871	32654	32737	
1310	0	32717	32607	32612	32594	32775	32804	32694	32711	
1311	0	32738	32865	32620	32689	32789	32710	32685	32816	
1312	0	32775	32623	32655	32636	32853	32796	32669	32567	
1313	0	32722	32775	32613	32743	32839	32758	32661	32594	
1314	0	32689	32631	32615	32601	32767	32707	32630	32789	
1315	0	32724	32770	32542	32619	32815	32742	32708	32691	
1316	0	32693	32742	32439	32706	32843	32695	32796	32708	
1317	0	32676	32795	32391	32630	32705	32738	32734	32687	
1318	0	32683	32783	32389	32743	32790	32751	32775	32491	
1319	0	32658	32738	32277	32621	32771	32659	32722	32731	
1320	0	32671	32726	32525	32799	32839	32772	32743	32671	
1321	0	32645	32713	32487	32692	32751	32799	32726	32632	
1322	0	32692	32647	32467	32713	32813	32708	32686	32514	
1323	0	32650	32647	32439	32611	32855	32734	32647	32660	
1324	0	32644	32839	32404	32614	32773	32669	32663	32783	
1325	0	32622	32685	32379	32687	32799	32719	32623	32671	
1326	0	32644	32716	32455	32631	32855	32730	32615	32682	
1327	0	32628	32511	32477	32535	32721	32719	32611	32647	
1328	0	32686	32706	32391	32583	32770	32647	32647	32490	
1329	0	32732	32663	32358	32543	32751	32603	32699	32501	
1330	0	32754	32727	32635	32611	32753	32695	32697	32647	
1331	0	32724	32633	32638	32637	32663	32584	32767	32621	
1332	0	32797	32718	32628	32589	32806	32703	32737	32767	
1333	0	32749	32742	32575	32734	32743	32745	32719	32631	
1334	0	32722	32775	32553	32559	32647	32647	32706	32525	
1335	0	32775	32846	32591	32695	32764	32647	32722	32610	
1336	0	32761	32642	32663	32783	32809	32694	32677	32715	
1337	0	32790	32854	32623	32743	32900	32767	32687	32717	
1338	0	32783	32623	32583	32871	32661	32835	32719	32831	
1339	0	32740	32797	32591	32678	32727	32710	32762	32662	
1340	0	32791	32647	32839	32900	32718	32733	32789	32699	
1341	0	32761	32891	32789	32887	32711	32679	32759	32786	
1342	0	32727	32670	32855	32935	32819	32743	32833	32732	
1343	0	32827	32903	32883	32821	32869	32699	32919	32694	
1344	0	32921	32715	33023	32999	32833	32715	33047	32571	
1345	0	33007	32951	33143	33101	32723	32711	33255	32565	
1346	0	33150	32831	33175	33209	32685	32526	33311	32551	
1347	0	33228	32981	33327	33238	32566	32592	33415	32505	
1348	0	33330	32935	33554	33140	32469	32506	33451	32489	
1349	0	33327	32949	33407	33227	32466	32541	33479	32231	
1350	0	33276	32863	33255	33109	32615	32527	33397	32446	
1351	0	33165	32927	33223	33050	32668	32559	33255	32415	
1352	0	33013	32807	33061	32839	32666	32703	33031	32543	
1353	0	32884	32791	32855	32722	32761	32767	32941	32668	
1354	0	32817	32891	32603	32815	32831	32683	32765	32460	
1355	0	32705	32818	32743	32719	32831	32727	32711	32694	
1356	0	32647	32847	32607	32669	32811	32742	32639	32783	
1357	0	32685	32567	32411	32615	32804	32875	32597	32735	
1358	0	32576	32693	32412	32511	32722	32729	32595	32717	
1359	0	32591	32566	32399	32762	32858	32771	32623	32775	
1360	0	32575	32742	32263	32633	32821	32751	32647	32695	
1361	0	32551	32635	32253	32697	32868	32716	32631	32663	
1362	0	32535	32765	32287	32627	32799	32783	32557	32597	
1363	0	32582	32797	32324	32506	32807	32831	32543	32735	
1364	0	32576	32582	32387	32647	32854	32775	32534	32767	
1365	0	32658	32820	32361	32637	32803	32767	32571	32807	
1366	0	32679	32591	32457	32647	32763	32668	32535	32764	
1367	0	32699	32729	32703	32668	32769	32691	32645	32814	
1368	0	32782	32645	32671	32658	32807	32663	32631	32548	
1369	0	32803	32739	32659	32647	32855	32770	32687	32615	
1370	0	32754	32759	32629	32753	32742	32714	32711	32565	
1371	0	32743	32583	32684	32751	32845	32727	32663	32661	
1372	0	32713	32698	32655	32721	32822	32679	32684	32587	
1373	0	32716	32843	32743	32695	32911	32743	32717	32675	
1374	0	32719	32607	32711	32815	32815	32655	32719	32770	
1375	0	32711	32804	32699	32780	32759	32783	32743	32653	
1376	0	32733	32823	32727	32669	32841	32655	32743	32731	
1377	0	32749	32775	32692	32727	32758	32709	32765	32791	
1378	0	32745	32903	32599	32733	32725	32733	32694	32575	
1379	0	32692	32647	32663	32783	32734	32615	32715	32567	
1380	0	32757	32846	32655	32784	32735	32700	32687	32607	
1381	0	32713	32852	32719	32756	32851	32729	32707	32676	
1382	0	32769	32682	32767	32686	32799	32737	32727	32797	
1383	0	32808	32791	32647	32774	32637	32674	32735	32758	
1384	0	32794	32827	32647	32733	32855	32743	32693	32767	
1385	0	32738	32759	32590	32709	32817	32701	32721	32690	
1386	0	32741	32775	32615	32679	32711	32799	32699	32551	
1387	0	32775	32561	32566	32621	32783	32743	32727	32628	
1388	0	32704	32743	32821	32742	32855	32690	32729	32699	
1389	0	32734	32732	32561	32671	32831	32726	32719	32711	
1390	0	32714	32719	32535	32719	32755	32687	32764	32647	
1391	0	32729	32879	32519	32717	32899	32757	32699	32667	
1392	0	32734	32559	32751	32743	32822	32743	32745	32567	
1393	0	32743	32799	32725	32795	32727	32647	32790	32617	
1394	0	32717	32663	32658	32791	32700	32807	32829	32771	
1395	0	32775	32855	32625	32647	32815	32783	32807	32695	
1396	0	32739	32639	32575	32820	32774	32587	32687	32611	
1397	0	32745	32775	32629	32709	32717	32714	32742	32589	
1398	0	32719	32738	32674	32839	32690	32727	32767	32766	
1399	0	32751	32829	32713	32647	32734	32710	32710	32695	
1400	0	32741	32796	32673	32818	32786	32706	32769	32705	
1401	0	32722	32818	32681	32716	32671	32655	32831	32711	
1402	0	32738	32863	32631	32820	32747	32739	32775	32548	
1403	0	32751	32767	32698	32683	32763	32742	32695	32727	
1404	0	32817	32855	32607	32722	32797	32733	32742	32730	
1405	0	32734	32575	32602	32659	32708	32773	32791	32687	
1406	0	32737	32815	32509	32671	32845	32789	32809	32682	
1407	0	32713	32615	32466	32694	32775	32679	32766	32502	
1408	0	32807	32845	32555	32681	32858	32729	32804	32675	
1409	0	32735	32605	32511	32759	32775	32627	32805	32692	
1410	0	32684	32757	32525	32611	32927	32703	32695	32675	
1411	0	32773	32599	32611	32813	32811	32683	32706	32675	
1412	0	32770	32787	32647	32711	32855	32642	32700	32511	
1413	0	32792	32695	32580	32823	32775	32775	32709	32647	
1414	0	32783	32757	32803	32711	32903	32727	32740	32759	
1415	0	32780	32631	32775	32796	32818	32599	32741	32679	
1416	0	32758	32775	32775	32755	32827	32714	32772	32708	
1417	0	32786	32711	32671	32857	32815	32749	32795	32567	
1418	0	32853	32806	32721	32705	32831	32626	32828	32775	
1419	0	32813	32862	32623	32883	32879	32788	32793	32711	
1420	0	32743	32775	32623	32763	32835	32801	32799	32659	
1421	0	32775	32903	32583	32751	32789	32647	32775	32630	
1422	0	32708	32561	32519	32785	32695	32719	32763	32509	
1423	0	32709	32751	32640	32647	32743	32569	32802	32671	
1424	0	32764	32606	32647	32762	32735	32683	32834	32707	
1425	0	32708	32819	32709	32775	32731	32775	32775	32679	
1426	0	32797	32833	32663	32693	32749	32799	32787	32719	
1427	0	32765	32600	32727	32658	32727	32775	32759	32771	
1428	0	32783	32775	32830	32699	32615	32753	32799	32703	
1429	0	32700	32663	32763	32615	32787	32745	32827	32579	
1430	0	32681	32748	32719	32858	32773	32707	32831	32535	
1431	0	32686	32785	32795	32773	32667	32772	32735	32670	
1432	0	32728	32769	32545	32775	32791	32643	32759	32713	
1433	0	32758	32815	32539	32806	32759	32711	32726	32748	
1434	0	32767	32655	32639	32673	32805	32739	32787	32719	
1435	0	32786	32854	32660	32690	32775	32749	32783	32735	
1436	0	32804	32927	32663	32797	32709	32699	32763	32633	
1437	0	32719	32621	32619	32803	32791	32773	32759	32681	
1438	0	32713	32811	32687	32739	32676	32689	32791	32759	
1439	0	32738	32823	32810	32775	32863	32759	32751	32723	
1440	0	32762	32789	32839	32807	32823	32799	32739	32607	
1441	0	32769	32763	32551	32727	32767	32799	32719	32564	
1442	0	32765	32809	32722	32660	32742	32699	32751	32611	
1443	0	32727	32610	32695	32627	32804	32707	32801	32705	
1444	0	32775	32775	32611	32899	32757	32683	32627	32623	
1445	0	32710	32647	32599	32764	32703	32694	32757	32661	
1446	0	32808	32804	32647	32694	32869	32647	32731	32738	
1447	0	32740	32860	32581	32757	32781	32663	32674	32679	
1448	0	32788	32675	32671	32646	32762	32646	32725	32632	
1449	0	32822	32769	32836	32711	32865	32567	32749	32659	
1450	0	32742	32839	32615	32775	32791	32607	32711	32669	
1451	0	32769	32787	32626	32731	32727	32612	32765	32535	
1452	0	32775	32855	32516	32789	32849	32759	32839	32631	
1453	0	32745	32583	32447	32719	32891	32718	32868	32705	
1454	0	32780	32743	32703	32799	32863	32607	32787	32626	
1455	0	32746	32647	32561	32851	32838	32711	32735	32671	
1456	0	32728	32805	32551	32751	32745	32594	32749	32715	
1457	0	32727	32847	32559	32748	32847	32725	32771	32567	
1458	0	32750	32595	32674	32738	32775	32669	32796	32517	
1459	0	32775	32775	32689	32715	32733	32719	32756	32597	
1460	0	32766	32787	32676	32807	32767	32681	32773	32762	
1461	0	32783	32755	32578	32775	32757	32771	32791	32740	
1462	0	32742	32833	32685	32813	32670	32783	32761	32742	
1463	0	32758	32587	32587	32791	32775	32708	32761	32681	
1464	0	32767	32799	32613	32679	32794	32719	32788	32695	
1465	0	32820	32847	32621	32655	32767	32671	32790	32679	
1466	0	32746	32617	32613	32841	32699	32724	32767	32533	
1467	0	32791	32812	32623	32687	32655	32647	32743	32570	
1468	0	32797	32855	32711	32711	32788	32718	32839	32594	
1469	0	32738	32635	32739	32635	32819	32743	32755	32629	
1470	0	32745	32807	32655	32575	32775	32775	32715	32701	
1471	0	32738	32770	32753	32757	32758	32715	32687	32749	
1472	0	32765	32775	32789	32721	32711	32790	32703	32745	
1473	0	32735	32771	32557	32725	32789	32823	32707	32702	
1474	0	32673	32615	32483	32798	32797	32791	32735	32725	
1475	0	32785	32797	32637	32801	32839	32643	32717	32711	
1476	0	32745	32797	32669	32761	32794	32755	32700	32631	
1477	0	32741	32775	32601	32701	32683	32703	32713	32614	
1478	0	32743	32823	32583	32749	32743	32788	32726	32589	
1479	0	32726	32617	32583	32818	32687	32663	32747	32541	
1480	0	32761	32757	32631	32850	32795	32713	32742	32715	
1481	0	32855	32691	32647	32822	32775	32738	32708	32663	
1482	0	32791	32765	32687	32813	32663	32679	32715	32676	
1483	0	32812	32826	32748	32813	32749	32695	32761	32733	
1484	0	32768	32612	32799	32764	32743	32607	32739	32743	
1485	0	32751	32775	32789	32733	32817	32685	32741	32743	
1486	0	32797	32823	32836	32663	32775	32623	32806	32743	
1487	0	32806	32635	32591	32756	32735	32735	32797	32717	
1488	0	32763	32759	32574	32789	32823	32662	32831	32731	
1489	0	32742	32727	32605	32761	32771	32747	32813	32734	
1490	0	32758	32798	32639	32727	32823	32670	32767	32660	
1491	0	32694	32793	32590	32767	32891	32775	32791	32668	
1492	0	32753	32711	32572	32721	32859	32669	32742	32647	
1493	0	32718	32775	32623	32775	32817	32775	32831	32501	
1494	0	32756	32927	32607	32811	32786	32715	32818	32583	
1495	0	32769	32619	32655	32631	32894	32715	32743	32679	
1496	0	32762	32805	32606	32739	32860	32701	32767	32669	
1497	0	32773	32803	32691	32811	32763	32740	32775	32685	
1498	0	32743	32791	32735	32711	32866	32692	32794	32676	
1499	0	32753	32903	32743	32748	32879	32794	32729	32743	
1500	0	32775	32579	32718	32807	32775	32775	32722	32755	
1501	0	32750	32711	32507	32791	32775	32791	32698	32717	
1502	0	32755	32869	32511	32647	32716	32762	32695	32706	
1503	0	32762	32590	32447	32607	32775	32743	32730	32675	
1504	0	32756	32767	32601	32595	32751	32795	32759	32627	
1505	0	32756	32711	32532	32788	32679	32711	32741	32570	
1506	0	32765	32799	32663	32789	32727	32734	32679	32615	
1507	0	32722	32867	32647	32727	32773	32747	32745	32742	
1508	0	32708	32629	32633	32725	32775	32810	32751	32801	
1509	0	32716	32762	32589	32719	32882	32663	32724	32742	
1510	0	32730	32635	32555	32623	32827	32829	32791	32749	
1511	0	32751	32764	32667	32761	32825	32751	32824	32591	
1512	0	32808	32727	32711	32743	32855	32663	32775	32503	
1513	0	32765	32766	32731	32694	32815	32721	32692	32743	
1514	0	32775	32799	32775	32775	32739	32695	32647	32698	
1515	0	32786	32582	32711	32804	32809	32745	32725	32725	
1516	0	32743	32766	32663	32727	32802	32647	32603	32690	
1517	0	32806	32763	32690	32829	32675	32717	32706	32699	
1518	0	32755	32812	32703	32869	32758	32769	32751	32735	
1519	0	32785	32851	32727	32813	32747	32811	32845	32756	
1520	0	32737	32759	32781	32799	32714	32818	32726	32709	
1521	0	32759	32787	32575	32791	32757	32786	32719	32583	
1522	0	32757	32823	32531	32838	32679	32647	32763	32487	
1523	0	32722	32690	32570	32695	32716	32655	32763	32733	
1524	0	32712	32834	32582	32604	32797	32702	32765	32771	
1525	0	32694	32621	32551	32773	32794	32623	32783	32657	
1526	0	32735	32767	32553	32742	32668	32739	32795	32755	
1527	0	32748	32835	32613	32710	32823	32652	32859	32719	
1528	0	32729	32615	32615	32795	32756	32742	32855	32694	
1529	0	32764	32739	32661	32647	32738	32668	32795	32627	
1530	0	32761	32775	32655	32665	32739	32723	32789	32626	
1531	0	32746	32775	32614	32690	32701	32607	32791	32634	
1532	0	32826	32887	32677	32771	32764	32647	32811	32775	
1533	0	32821	32623	32695	32799	32751	32679	32775	32725	
1534	0	32786	32815	32681	32771	32809	32767	32731	32684	
1535	0	32756	32734	32623	32793	32749	32759	32765	32737	
1536	0	32738	32751	32550	32855	32795	32813	32700	32716	
1537	0	32707	32854	32631	32705	32771	32787	32727	32590	
1538	0	32764	32629	32574	32629	32655	32735	32734	32527	
1539	0	32782	32804	32609	32751	32791	32775	32706	32575	
1540	0	32775	32711	32519	32795	32828	32734	32745	32567	
1541	0	32713	32783	32518	32827	32809	32703	32733	32764	
1542	0	32762	32894	32647	32775	32807	32686	32747	32738	
1543	0	32716	32789	32751	32788	32781	32662	32775	32663	
1544	0	32796	32844	32813	32669	32837	32679	32687	32733	
1545	0	32750	32735	32799	32647	32804	32735	32719	32751	
1546	0	32807	32771	32849	32763	32741	32589	32775	32647	
1547	0	32775	32887	32734	32653	32775	32626	32759	32569	
1548	0	32761	32773	32723	32701	32743	32708	32763	32642	
1549	0	32807	32901	32734	32739	32741	32838	32765	32723	
1550	0	32775	32599	32621	32631	32699	32801	32759	32713	
1551	0	32751	32813	32554	32658	32773	32774	32802	32696	
1552	0	32775	32726	32647	32669	32756	32749	32735	32647	
1553	0	32764	32741	32667	32759	32811	32690	32863	32647	
1554	0	32711	32765	32553	32775	32807	32727	32850	32615	
1555	0	32759	32715	32593	32740	32731	32710	32828	32655	
1556	0	32792	32679	32623	32791	32855	32706	32859	32613	
1557	0	32754	32762	32630	32727	32723	32767	32850	32711	
1558	0	32795	32691	32722	32695	32827	32786	32799	32671	
1559	0	32759	32759	32743	32644	32799	32814	32847	32731	
1560	0	32813	32775	32789	32903	32746	32773	32809	32627	
1561	0	32762	32587	32711	32887	32815	32703	32699	32646	
1562	0	32734	32751	32663	32811	32850	32717	32743	32723	
1563	0	32740	32789	32711	32876	32783	32694	32763	32723	
1564	0	32762	32582	32647	32797	32799	32732	32763	32687	
1565	0	32791	32743	32749	32694	32819	32621	32758	32685	
1566	0	32804	32786	32581	32604	32820	32676	32754	32647	
1567	0	32804	32571	32583	32655	32830	32629	32751	32727	
1568	0	32769	32759	32506	32717	32699	32679	32759	32717	
1569	0	32721	32711	32621	32751	32853	32683	32773	32655	
1570	0	32760	32813	32661	32711	32879	32751	32738	32615	
1571	0	32758	32727	32647	32775	32897	32747	32757	32639	
1572	0	32732	32823	32683	32807	32827	32775	32767	32551	
1573	0	32745	32594	32749	32831	32786	32769	32735	32631	
1574	0	32795	32801	32787	32827	32769	32647	32735	32743	
1575	0	32783	32839	32559	32775	32685	32735	32819	32661	
1576	0	32756	32647	32551	32756	32689	32717	32799	32631	
1577	0	32742	32823	32535	32671	32631	32775	32837	32605	
1578	0	32756	32985	32679	32683	32719	32667	32773	32614	
1579	0	32730	32659	32721	32723	32639	32775	32799	32639	
1580	0	32769	32803	32594	32702	32803	32751	32891	32617	
1581	0	32727	32902	32671	32644	32726	32753	32803	32685	
1582	0	32756	32687	32673	32871	32855	32663	32751	32601	
1583	0	32780	32791	32666	32767	32807	32687	32711	32511	
1584	0	32780	32894	32668	32719	32786	32610	32663	32543	
1585	0	32703	32807	32647	32703	32867	32710	32663	32759	
1586	0	32708	32892	32643	32809	32813	32677	32710	32804	
1587	0	32749	32661	32746	32793	32799	32715	32703	32719	
1588	0	32767	32839	32758	32635	32807	32655	32713	32775	
1589	0	32790	32775	32607	32579	32743	32775	32775	32765	
1590	0	32775	32722	32587	32733	32834	32762	32730	32701	
1591	0	32765	32757	32487	32739	32775	32695	32743	32711	
1592	0	32751	32660	32535	32775	32675	32631	32722	32551	
1593	0	32730	32742	32693	32742	32743	32775	32802	32495	
1594	0	32735	32865	32719	32732	32711	32687	32765	32527	
1595	0	32786	32621	32645	32894	32803	32767	32791	32567	
1596	0	32780	32723	32599	32719	32783	32749	32804	32735	
1597	0	32769	32799	32630	32715	32694	32751	32856	32687	
1598	0	32791	32773	32647	32851	32811	32706	32853	32615	
1599	0	32794	32820	32766	32867	32762	32727	32823	32647	
1600	0	32702	32614	32755	32713	32743	32758	32812	32619	
1601	0	32803	32830	32773	32764	32770	32635	32726	32562	
1602	0	32747	32803	32835	32658	32787	32765	32713	32527	
1603	0	32753	32749	32655	32669	32745	32676	32775	32594	
1604	0	32772	32843	32595	32767	32775	32717	32718	32725	
1605	0	32767	32643	32579	32775	32629	32687	32773	32775	
1606	0	32742	32791	32592	32685	32845	32775	32763	32675	
1607	0	32810	32833	32623	32743	32775	32743	32822	32703	
1608	0	32773	32823	32775	32639	32788	32762	32786	32735	
1609	0	32760	32806	32711	32607	32844	32711	32807	32583	
1610	0	32741	32627	32631	32804	32871	32663	32799	32690	
1611	0	32855	32806	32599	32737	32847	32775	32690	32775	
1612	0	32792	32671	32565	32780	32687	32788	32685	32703	
1613	0	32759	32789	32647	32803	32735	32693	32699	32699	
1614	0	32772	32677	32578	32695	32829	32786	32773	32655	
1615	0	32799	32772	32557	32775	32807	32730	32785	32609	
1616	0	32839	32807	32594	32758	32747	32775	32773	32732	
1617	0	32759	32655	32677	32807	32804	32747	32771	32743	
1618	0	32775	32831	32635	32795	32789	32694	32786	32685	
1619	0	32783	32631	32627	32817	32666	32707	32749	32735	
1620	0	32701	32775	32662	32710	32859	32647	32715	32679	
1621	0	32720	32847	32642	32721	32802	32708	32743	32571	
1622	0	32735	32605	32679	32773	32711	32731	32783	32573	
1623	0	32796	32815	32724	32899	32854	32759	32813	32655	
1624	0	32807	32687	32749	32711	32727	32669	32804	32783	
1625	0	32804	32771	32521	32820	32740	32807	32810	32719	
1626	0	32808	32855	32532	32839	32822	32837	32839	32666	
1627	0	32788	32562	32555	32755	32724	32802	32769	32694	
1628	0	32717	32727	32563	32759	32869	32771	32685	32725	
1629	0	32689	32765	32679	32690	32879	32765	32753	32735	
1630	0	32694	32839	32689	32627	32863	32687	32743	32669	
1631	0	32672	32605	32646	32633	32857	32685	32671	32631	
1632	0	32732	32775	32743	32655	32879	32703	32681	32628	
1633	0	32723	32871	32788	32773	32820	32687	32688	32677	
1634	0	32695	32784	32847	32769	32759	32643	32775	32695	
1635	0	32680	32642	32741	32705	32848	32687	32719	32711	
1636	0	32715	32823	32523	32687	32767	32715	32799	32707	
1637	0	32740	32847	32494	32821	32775	32734	32765	32701	
1638	0	32724	32583	32461	32715	32727	32623	32787	32539	
1639	0	32790	32802	32485	32669	32671	32743	32727	32516	
1640	0	32803	32855	32579	32677	32775	32630	32787	32575	
1641	0	32820	32595	32550	32708	32739	32741	32707	32538	
1642	0	32747	32575	32515	32621	32855	32743	32711	32500	
1643	0	32795	32791	32511	32706	32813	32750	32729	32510	
1644	0	32769	32809	32567	32685	32871	32715	32683	32658	
1645	0	32766	32627	32559	32703	32775	32631	32662	32782	
1646	0	32718	32795	32669	32645	32747	32765	32786	32743	
1647	0	32735	32875	32719	32685	32799	32727	32677	32700	
1648	0	32767	32583	32775	32723	32697	32803	32663	32727	
1649	0	32797	32706	32615	32717	32775	32715	32711	32683	
1650	0	32830	32681	32578	32676	32795	32767	32727	32711	
1651	0	32765	32805	32599	32683	32694	32701	32719	32751	
1652	0	32798	32815	32678	32787	32735	32647	32719	32687	
1653	0	32804	32762	32807	32769	32743	32693	32795	32539	
1654	0	32786	32807	32617	32895	32647	32631	32732	32543	
1655	0	32824	32631	32583	32831	32775	32739	32796	32625	
1656	0	32847	32799	32543	32799	32759	32717	32775	32691	
1657	0	32856	32740	32566	32827	32851	32747	32751	32711	
1658	0	32827	32823	32765	32893	32791	32673	32791	32679	
1659	0	32824	32786	32742	32816	32749	32769	32839	32679	
1660	0	32826	32767	32789	32869	32847	32759	32775	32582	
1661	0	32698	32855	32735	32663	32834	32727	32775	32586	
1662	0	32715	32596	32703	32901	32741	32799	32725	32695	
1663	0	32775	32751	32679	32839	32734	32679	32759	32655	
1664	0	32751	32751	32687	32709	32703	32771	32687	32669	
1665	0	32762	32757	32594	32790	32683	32679	32765	32775	
1666	0	32768	32901	32587	32647	32775	32690	32829	32647	
1667	0	32716	32621	32577	32739	32745	32673	32854	32557	
1668	0	32718	32791	32537	32775	32805	32745	32847	32524	
1669	0	32826	32775	32692	32873	32749	32671	32827	32519	
1670	0	32706	32746	32677	32719	32684	32695	32763	32721	
1671	0	32756	32795	32745	32775	32775	32710	32731	32722	
1672	0	32699	32707	32742	32683	32783	32692	32739	32701	
1673	0	32702	32727	32711	32647	32687	32717	32763	32647	
1674	0	32678	32851	32759	32783	32775	32646	32677	32767	
1675	0	32756	32662	32731	32751	32759	32735	32734	32685	
1676	0	32701	32870	32707	32775	32787	32708	32715	32575	
1677	0	32772	32711	32775	32719	32791	32770	32732	32511	
1678	0	32728	32831	32759	32756	32717	32669	32751	32577	
1679	0	32742	32829	32783	32662	32863	32747	32741	32670	
1680	0	32764	32647	32844	32617	32887	32718	32773	32726	
1681	0	32767	32798	32843	32786	32843	32711	32765	32735	
1682	0	32737	32899	32511	32775	32827	32657	32662	32735	
1683	0	32775	32655	32499	32742	32825	32734	32740	32775	
1684	0	32788	32810	32519	32743	32817	32691	32799	32695	
1685	0	32782	32851	32595	32774	32683	32807	32731	32623	
1686	0	32780	32599	32666	32795	32847	32751	32724	32687	
1687	0	32804	32739	32605	32791	32737	32669	32699	32635	
1688	0	32799	32855	32626	32791	32810	32655	32741	32679	
1689	0	32799	32679	32612	32867	32700	32642	32796	32731	
1690	0	32775	32769	32699	32858	32821	32735	32823	32783	
1691	0	32748	32789	32690	32687	32818	32679	32739	32603	
1692	0	32794	32799	32791	32698	32759	32711	32775	32583	
1693	0	32717	32775	32501	32732	32765	32746	32835	32579	
1694	0	32690	32804	32483	32780	32871	32823	32767	32543	
1695	0	32740	32775	32679	32775	32769	32829	32799	32607	
1696	0	32735	32762	32594	32759	32775	32702	32748	32492	
1697	0	32791	32759	32569	32691	32701	32726	32781	32574	
1698	0	32851	32763	32626	32677	32677	32679	32735	32699	
1699	0	32743	32855	32647	32767	32775	32706	32765	32755	
1700	0	32767	32663	32695	32775	32710	32715	32823	32807	
1701	0	32756	32790	32679	32586	32742	32712	32803	32705	
1702	0	32730	32699	32691	32793	32775	32669	32755	32692	
1703	0	32734	32827	32698	32795	32706	32769	32717	32722	
1704	0	32722	32975	32775	32666	32754	32711	32773	32647	
1705	0	32766	32631	32741	32711	32809	32628	32787	32538	
1706	0	32775	32813	32599	32727	32805	32691	32775	32519	
1707	0	32783	32773	32557	32747	32703	32685	32727	32617	
1708	0	32769	32807	32534	32605	32759	32695	32735	32763	
1709	0	32759	32775	32695	32658	32659	32599	32739	32709	
1710	0	32766	32612	32738	32717	32807	32671	32730	32717	
1711	0	32758	32785	32706	32831	32767	32647	32735	32710	
1712	0	32736	32711	32667	32807	32763	32751	32726	32759	
1713	0	32789	32773	32686	32767	32791	32673	32663	32766	
1714	0	32775	32853	32683	32885	32742	32743	32727	32671	
1715	0	32796	32685	32685	32732	32797	32687	32707	32603	
1716	0	32775	32759	32639	32647	32722	32746	32775	32591	
1717	0	32774	32775	32647	32783	32775	32761	32805	32626	
1718	0	32791	32735	32575	32765	32743	32692	32771	32747	
1719	0	32743	32767	32582	32735	32797	32723	32786	32740	
1720	0	32693	32541	32572	32797	32781	32683	32751	32723	
1721	0	32702	32743	32599	32671	32766	32743	32783	32742	
1722	0	32690	32851	32667	32595	32797	32551	32742	32703	
1723	0	32737	32577	32703	32669	32730	32709	32759	32663	
1724	0	32775	32785	32497	32628	32823	32687	32699	32711	
1725	0	32756	32887	32612	32810	32775	32711	32764	32755	
1726	0	32747	32623	32535	32748	32869	32663	32807	32667	
1727	0	32785	32855	32575	32751	32854	32755	32722	32444	
1728	0	32751	32871	32661	32727	32810	32751	32723	32508	
1729	0	32736	32787	32667	32799	32887	32827	32755	32583	
1730	0	32754	32903	32641	32685	32793	32625	32743	32775	
1731	0	32767	32655	32694	32635	32735	32717	32775	32685	
1732	0	32790	32818	32645	32751	32747	32708	32743	32695	
1733	0	32796	32795	32745	32885	32775	32751	32743	32638	
1734	0	32745	32774	32763	32873	32726	32647	32732	32679	
1735	0	32790	32804	32735	32887	32713	32685	32765	32699	
1736	0	32775	32775	32622	32845	32647	32709	32743	32763	
1737	0	32765	32726	32615	32775	32825	32705	32774	32815	
1738	0	32754	32855	32671	32787	32799	32607	32799	32786	
1739	0	32747	32663	32647	32807	32745	32699	32717	32557	
1740	0	32761	32787	32671	32775	32821	32596	32695	32467	
1741	0	32709	32886	32479	32763	32803	32663	32754	32527	
1742	0	32722	32795	32547	32711	32763	32671	32715	32503	
1743	0	32728	32759	32509	32588	32789	32731	32759	32647	
1744	0	32813	32863	32477	32741	32855	32647	32775	32726	
1745	0	32776	32611	32503	32706	32797	32703	32789	32775	
1746	0	32775	32838	32583	32807	32739	32676	32767	32685	
1747	0	32699	32855	32573	32722	32855	32715	32797	32732	
1748	0	32775	32599	32689	32677	32807	32663	32789	32708	
1749	0	32764	32745	32733	32755	32783	32692	32740	32741	
1750	0	32746	32799	32739	32679	32783	32647	32759	32743	
1751	0	32728	32599	32692	32661	32647	32677	32775	32609	
1752	0	32751	32747	32613	32605	32823	32629	32823	32527	
1753	0	32775	32791	32622	32657	32725	32738	32797	32535	
1754	0	32805	32663	32676	32677	32735	32723	32787	32542	
1755	0	32833	32706	32738	32668	32759	32789	32799	32611	
1756	0	32821	32751	32735	32855	32743	32719	32815	32735	
1757	0	32793	32647	32703	32839	32759	32732	32771	32699	
1758	0	32723	32813	32727	32797	32827	32677	32775	32705	
1759	0	32711	32869	32679	32863	32775	32795	32703	32764	
1760	0	32723	32607	32655	32809	32890	32639	32713	32599	
1761	0	32769	32818	32699	32669	32799	32712	32727	32558	
1762	0	32781	32911	32772	32647	32718	32591	32755	32615	
1763	0	32819	32639	32631	32691	32730	32609	32743	32751	
1764	0	32797	32790	32551	32821	32631	32511	32735	32731	
1765	0	32802	32875	32599	32751	32815	32695	32738	32765	
1766	0	32804	32607	32639	32727	32717	32653	32724	32743	
1767	0	32875	32827	32587	32730	32739	32685	32703	32687	
1768	0	32714	32838	32757	32701	32781	32698	32773	32631	
1769	0	32752	32603	32687	32766	32781	32757	32771	32631	
1770	0	32794	32807	32710	32775	32810	32631	32775	32701	
1771	0	32733	32855	32668	32738	32826	32717	32775	32711	
1772	0	32781	32695	32621	32684	32799	32662	32757	32685	
1773	0	32719	32839	32675	32693	32835	32775	32765	32679	
1774	0	32725	32803	32723	32831	32790	32739	32711	32677	
1775	0	32720	32591	32619	32873	32791	32735	32791	32559	
1776	0	32788	32757	32732	32821	32765	32757	32783	32611	
1777	0	32708	32834	32815	32799	32685	32791	32807	32667	
1778	0	32746	32578	32797	32799	32798	32797	32815	32647	
1779	0	32775	32797	32527	32885	32735	32711	32858	32717	
1780	0	32685	32757	32460	32828	32871	32813	32807	32734	
1781	0	32717	32615	32541	32781	32755	32679	32754	32732	
1782	0	32711	32833	32590	32667	32815	32748	32791	32686	
1783	0	32759	32647	32623	32775	32745	32731	32727	32667	
1784	0	32800	32855	32489	32829	32775	32726	32703	32693	
1785	0	32775	32895	32551	32820	32775	32807	32759	32717	
1786	0	32704	32589	32647	32717	32705	32750	32749	32679	
1787	0	32736	32829	32679	32727	32816	32692	32783	32655	
1788	0	32800	32871	32609	32743	32775	32747	32817	32583	
1789	0	32757	32583	32690	32767	32827	32690	32818	32602	
1790	0	32815	32743	32835	32855	32763	32710	32836	32571	
1791	0	32800	32810	32902	32820	32677	32710	32759	32629	
1792	0	32711	32566	32578	32799	32797	32775	32815	32607	
1793	0	32766	32799	32699	32877	32775	32682	32703	32527	
1794	0	32722	32879	32705	32870	32807	32749	32719	32607	
1795	0	32749	32621	32602	32763	32797	32698	32775	32682	
1796	0	32759	32812	32671	32743	32932	32759	32743	32739	
1797	0	32775	32805	32726	32663	32859	32615	32747	32679	
1798	0	32749	32750	32709	32815	32767	32695	32839	32647	
1799	0	32772	32859	32721	32823	32788	32599	32751	32767	
1800	0	32743	32647	32637	32733	32767	32655	32723	32581	
1801	0	32752	32727	32579	32719	32743	32592	32743	32571	
1802	0	32790	32591	32595	32647	32839	32788	32775	32666	
1803	0	32775	32765	32601	32563	32727	32803	32815	32669	
1804	0	32707	32813	32675	32711	32725	32796	32807	32685	
1805	0	32740	32617	32671	32679	32823	32766	32791	32735	
1806	0	32729	32827	32670	32710	32703	32791	32815	32655	
1807	0	32738	32623	32587	32607	32823	32839	32823	32583	
1808	0	32773	32790	32617	32699	32801	32751	32756	32603	
1809	0	32751	32771	32711	32731	32713	32771	32766	32631	
1810	0	32754	32811	32679	32655	32839	32605	32711	32815	
1811	0	32756	32911	32723	32530	32813	32769	32751	32711	
1812	0	32759	32607	32775	32591	32815	32647	32795	32671	
1813	0	32772	32829	32775	32775	32787	32773	32764	32678	
1814	0	32762	32749	32583	32769	32710	32661	32799	32740	
1815	0	32740	32775	32807	32711	32845	32679	32799	32609	
1816	0	32775	32845	32775	32695	32735	32699	32813	32571	
1817	0	32785	32586	32623	32807	32791	32739	32762	32548	
1818	0	32759	32759	32687	32797	32847	32621	32717	32499	
1819	0	32778	32775	32759	32831	32721	32723	32775	32517	
1820	0	32799	32647	32716	32711	32806	32658	32819	32660	
1821	0	32766	32799	32749	32690	32711	32707	32790	32715	
1822	0	32781	32850	32671	32734	32795	32626	32833	32711	
1823	0	32742	32781	32675	32811	32815	32692	32812	32657	
1824	0	32790	32759	32669	32719	32794	32663	32807	32628	
1825	0	32716	32717	32767	32773	32829	32699	32771	32602	
1826	0	32770	32751	32762	32749	32725	32682	32763	32642	
1827	0	32749	32839	32543	32855	32864	32789	32791	32713	
1828	0	32748	32690	32471	32823	32769	32719	32751	32729	
1829	0	32748	32739	32590	32727	32857	32675	32676	32685	
1830	0	32748	32773	32623	32761	32807	32715	32724	32738	
1831	0	32718	32679	32548	32754	32858	32655	32742	32710	
1832	0	32795	32756	32551	32895	32879	32713	32766	32687	
1833	0	32772	32863	32631	32847	32838	32677	32727	32722	
1834	0	32773	32613	32695	32815	32807	32679	32719	32743	
1835	0	32788	32850	32543	32731	32703	32671	32771	32605	
1836	0	32721	32877	32470	32813	32827	32687	32727	32535	
1837	0	32729	32627	32551	32797	32765	32660	32731	32634	
1838	0	32727	32843	32659	32767	32741	32655	32775	32771	
1839	0	32750	32647	32561	32828	32687	32674	32735	32703	
1840	0	32799	32805	32662	32843	32703	32724	32771	32729	
1841	0	32751	32879	32690	32687	32746	32742	32775	32685	
1842	0	32716	32771	32647	32629	32692	32699	32791	32671	
1843	0	32812	32887	32641	32795	32701	32767	32797	32699	
1844	0	32789	32626	32631	32771	32797	32748	32743	32743	
1845	0	32764	32751	32639	32751	32712	32803	32771	32743	
1846	0	32753	32775	32647	32645	32698	32791	32726	32643	
1847	0	32761	32631	32687	32637	32678	32815	32775	32631	
1848	0	32799	32846	32690	32615	32677	32719	32729	32493	
1849	0	32758	32645	32667	32535	32703	32739	32799	32562	
1850	0	32719	32807	32639	32589	32813	32615	32727	32647	
1851	0	32729	32865	32690	32743	32623	32742	32775	32621	
1852	0	32743	32563	32751	32751	32751	32676	32821	32655	
1853	0	32788	32743	32762	32819	32788	32754	32787	32763	
1854	0	32735	32815	32636	32759	32743	32703	32797	32681	
1855	0	32771	32599	32559	32797	32826	32759	32733	32637	
1856	0	32807	32763	32575	32707	32803	32721	32767	32687	
1857	0	32839	32807	32585	32685	32807	32794	32757	32763	
1858	0	32802	32644	32706	32621	32795	32715	32739	32738	
1859	0	32767	32831	32690	32867	32731	32727	32711	32647	
1860	0	32754	32613	32695	32799	32829	32721	32679	32679	
1861	0	32832	32823	32690	32775	32739	32759	32709	32667	
1862	0	32871	32850	32591	32743	32858	32735	32711	32689	
1863	0	32738	32610	32588	32860	32851	32717	32735	32688	
1864	0	32748	32791	32721	32743	32773	32799	32749	32735	
1865	0	32763	32863	32551	32822	32723	32732	32842	32727	
1866	0	32742	32615	32502	32775	32677	32786	32851	32734	
1867	0	32694	32786	32531	32699	32790	32751	32772	32775	
1868	0	32713	32866	32727	32711	32695	32707	32793	32751	
1869	0	32722	32647	32735	32659	32838	32797	32811	32733	
1870	0	32748	32815	32679	32604	32727	32719	32807	32717	
1871	0	32739	32783	32599	32791	32812	32759	32787	32715	
1872	0	32794	32815	32667	32847	32883	32679	32826	32681	
1873	0	32727	32903	32645	32835	32727	32725	32839	32677	
1874	0	32771	32607	32647	32855	32799	32615	32791	32703	
1875	0	32736	32775	32583	32846	32775	32683	32873	32771	
1876	0	32775	32859	32455	32781	32884	32591	32823	32721	
1877	0	32775	32639	32583	32711	32839	32655	32769	32671	
1878	0	32713	32831	32631	32687	32823	32652	32834	32719	
1879	0	32756	32902	32647	32679	32783	32692	32797	32695	
1880	0	32743	32556	32647	32759	32717	32623	32715	32749	
1881	0	32755	32751	32563	32799	32771	32733	32743	32691	
1882	0	32729	32850	32647	32786	32711	32775	32783	32735	
1883	0	32801	32677	32704	32839	32749	32662	32725	32735	
1884	0	32766	32775	32663	32775	32683	32699	32771	32717	
1885	0	32796	32804	32697	32743	32775	32719	32790	32575	
1886	0	32783	32583	32716	32771	32767	32858	32835	32511	
1887	0	32733	32767	32851	32820	32695	32711	32696	32559	
1888	0	32739	32773	32555	32817	32775	32839	32757	32607	
1889	0	32810	32787	32574	32739	32787	32717	32775	32775	
1890	0	32804	32889	32541	32719	32871	32775	32705	32763	
1891	0	32801	32567	32647	32629	32823	32667	32740	32718	
1892	0	32771	32733	32690	32813	32735	32711	32833	32684	
1893	0	32772	32645	32703	32727	32845	32671	32807	32711	
1894	0	32837	32762	32659	32758	32775	32806	32803	32711	
1895	0	32769	32799	32703	32747	32794	32701	32767	32612	
1896	0	32769	32802	32734	32786	32764	32712	32762	32647	
1897	0	32727	32579	32539	32735	32847	32743	32822	32679	
1898	0	32736	32759	32463	32773	32827	32770	32791	32708	
1899	0	32755	32845	32551	32722	32822	32711	32806	32685	
1900	0	32788	32647	32611	32751	32841	32639	32763	32825	
1901	0	32743	32759	32628	32747	32731	32695	32819	32679	
1902	0	32791	32891	32597	32687	32767	32679	32727	32745	
1903	0	32786	32615	32669	32757	32679	32755	32736	32658	
1904	0	32829	32815	32719	32677	32845	32695	32807	32659	
1905	0	32824	32865	32615	32743	32749	32719	32807	32638	
1906	0	32790	32671	32539	32713	32791	32741	32756	32574	
1907	0	32751	32775	32755	32715	32739	32788	32712	32647	
1908	0	32757	32895	32766	32711	32719	32701	32766	32700	
1909	0	32729	32633	32699	32790	32726	32735	32720	32583	
1910	0	32790	32819	32687	32775	32765	32671	32759	32578	
1911	0	32766	32933	32682	32758	32739	32775	32695	32588	
1912	0	32705	32641	32746	32703	32842	32719	32715	32541	
1913	0	32767	32814	32567	32775	32775	32678	32762	32591	
1914	0	32698	32836	32429	32847	32815	32679	32731	32619	
1915	0	32762	32570	32502	32803	32775	32690	32748	32775	
1916	0	32727	32726	32461	32766	32750	32614	32767	32747	
1917	0	32690	32775	32607	32721	32799	32703	32627	32741	
1918	0	32754	32629	32640	32711	32700	32681	32727	32765	
1919	0	32796	32771	32583	32833	32751	32603	32747	32685	
1920	0	32748	32845	32621	32873	32719	32743	32719	32666	
1921	0	32730	32871	32621	32838	32875	32711	32766	32671	
1922	0	32713	32826	32691	32767	32771	32686	32786	32732	
1923	0	32796	32935	32579	32781	32739	32703	32771	32711	
1924	0	32834	32674	32681	32838	32755	32821	32757	32756	
1925	0	32793	32803	32783	32722	32775	32819	32822	32767	
1926	0	32767	32802	32679	32712	32727	32837	32825	32775	
1927	0	32813	32676	32789	32637	32783	32883	32765	32755	
1928	0	32772	32797	32713	32727	32837	32739	32734	32725	
1929	0	32775	32791	32433	32791	32798	32805	32767	32596	
1930	0	32766	32823	32670	32698	32871	32763	32775	32543	
1931	0	32721	32647	32525	32719	32915	32854	32701	32575	
1932	0	32738	32775	32643	32771	32823	32749	32683	32613	
1933	0	32712	32755	32595	32718	32869	32571	32751	32663	
1934	0	32724	32773	32587	32811	32838	32655	32798	32681	
1935	0	32740	32559	32640	32790	32804	32678	32749	32731	
1936	0	32745	32775	32694	32836	32843	32803	32772	32663	
1937	0	32747	32929	32727	32695	32762	32671	32801	32726	
1938	0	32788	32653	32711	32751	32807	32718	32765	32583	
1939	0	32738	32811	32706	32766	32817	32570	32822	32567	
1940	0	32759	32847	32599	32791	32759	32758	32755	32629	
1941	0	32775	32605	32662	32719	32885	32636	32820	32639	
1942	0	32861	32831	32775	32773	32775	32775	32799	32587	
1943	0	32775	32895	32523	32727	32815	32730	32807	32699	
1944	0	32746	32659	32671	32711	32796	32753	32775	32703	
1945	0	32770	32727	32628	32751	32679	32719	32810	32775	
1946	0	32731	32889	32706	32695	32807	32851	32794	32745	
1947	0	32795	32631	32699	32823	32775	32719	32710	32711	
1948	0	32772	32805	32699	32807	32623	32811	32735	32775	
1949	0	32703	32646	32723	32769	32813	32683	32751	32705	
1950	0	32765	32783	32591	32773	32807	32773	32677	32558	
1951	0	32781	32775	32603	32710	32621	32707	32775	32659	
1952	0	32719	32755	32598	32637	32799	32770	32799	32674	
1953	0	32711	32854	32647	32827	32787	32775	32822	32687	
1954	0	32738	32609	32629	32763	32695	32734	32775	32678	
1955	0	32791	32749	32591	32702	32850	32741	32731	32692	
1956	0	32758	32764	32579	32775	32797	32681	32711	32681	
1957	0	32673	32647	32603	32796	32775	32789	32763	32755	
1958	0	32742	32771	32679	32847	32799	32813	32751	32707	
1959	0	32764	32841	32743	32709	32813	32679	32773	32743	
1960	0	32786	32655	32535	32747	32827	32707	32831	32676	
1961	0	32771	32749	32550	32699	32743	32679	32775	32746	
1962	0	32720	32862	32706	32666	32757	32751	32819	32679	
1963	0	32760	32645	32693	32581	32687	32665	32706	32711	
1964	0	32771	32806	32707	32759	32804	32715	32717	32647	
1965	0	32817	32831	32711	32794	32789	32615	32767	32563	
1966	0	32715	32630	32655	32673	32701	32703	32845	32583	
1967	0	32806	32850	32727	32699	32847	32615	32847	32639	
1968	0	32700	32787	32711	32809	32771	32671	32807	32788	
1969	0	32756	32807	32755	32668	32675	32644	32799	32751	
1970	0	32791	32813	32622	32609	32839	32697	32807	32677	
1971	0	32711	32815	32655	32637	32832	32647	32828	32639	
1972	0	32735	32595	32693	32724	32822	32702	32815	32671	
1973	0	32773	32724	32684	32839	32809	32613	32763	32631	
1974	0	32748	32845	32637	32834	32775	32711	32775	32647	
1975	0	32724	32579	32558	32837	32879	32647	32829	32679	
1976	0	32717	32707	32646	32833	32827	32665	32775	32730	
1977	0	32769	32775	32727	32798	32823	32749	32820	32759	
1978	0	32762	32796	32501	32826	32847	32707	32775	32731	
1979	0	32713	32610	32583	32819	32711	32763	32735	32795	
1980	0	32796	32741	32681	32836	32815	32661	32791	32751	
1981	0	32798	32860	32646	32855	32775	32801	32797	32702	
1982	0	32775	32855	32725	32807	32811	32799	32805	32711	
1983	0	32794	32639	32567	32757	32751	32741	32775	32679	
1984	0	32782	32791	32487	32661	32786	32757	32823	32751	
1985	0	32735	32866	32565	32659	32747	32671	32775	32575	
1986	0	32749	32639	32631	32710	32753	32775	32743	32660	
1987	0	32795	32597	32681	32698	32786	32738	32775	32636	
1988	0	32773	32759	32694	32685	32727	32797	32839	32609	
1989	0	32756	32607	32676	32671	32743	32631	32775	32639	
1990	0	32733	32807	32727	32709	32753	32765	32791	32679	
1991	0	32811	32817	32647	32726	32805	32683	32791	32702	
1992	0	32856	32851	32591	32719	32759	32803	32818	32751	
1993	0	32714	32641	32603	32623	32743	32775	32775	32727	
1994	0	32722	32815	32631	32759	32767	32710	32733	32676	
1995	0	32730	32913	32660	32763	32751	32775	32751	32694	
1996	0	32749	32727	32573	32775	32823	32631	32763	32698	
1997	0	32778	32815	32709	32806	32739	32647	32773	32738	
1998	0	32711	32775	32659	32763	32898	32567	32795	32711	
1999	0	32741	32707	32793	32759	32869	32647	32823	32727	
2000	0	32785	32820	32743	32763	32748	32543	32826	32645	
2001	0	32764	32795	32487	32797	32797	32691	32877	32684	
2002	0	32735	32663	32477	32775	32733	32689	32789	32630	
2003	0	32749	32811	32479	32621	32806	32751	32839	32553	
2004	0	32782	32812	32673	32669	32815	32711	32764	32587	
2005	0	32775	32679	32626	32790	32719	32681	32791	32557	
2006	0	32682	32783	32620	32751	32790	32730	32833	32718	
2007	0	32792	32903	32547	32722	32635	32663	32807	32741	
2008	0	32759	32717	32626	32719	32761	32727	32749	32639	
2009	0	32783	32767	32529	32687	32675	32667	32742	32773	
2010	0	32775	32821	32549	32854	32721	32695	32799	32762	
2011	0	32751	32575	32635	32639	32807	32613	32759	32731	
2012	0	32773	32815	32671	32663	32735	32671	32851	32734	
2013	0	32808	32879	32803	32815	32701	32660	32809	32631	
2014	0	32846	32727	32767	32751	32684	32809	32815	32657	
2015	0	32769	32613	32713	32868	32755	32836	32725	32671	
2016	0	32744	32775	32722	32903	32711	32750	32738	32678	
2017	0	32860	32903	32647	32831	32811	32783	32735	32647	
2018	0	32764	32711	32607	32823	32861	32797	32709	32679	
2019	0	32751	32802	32695	32759	32830	32823	32740	32694	
2020	0	32793	32871	32717	32823	32775	32823	32759	32693	
2021	0	32754	32591	32621	32706	32795	32767	32735	32719	
2022	0	32725	32851	32668	32757	32675	32707	32705	32717	
2023	0	32711	32643	32559	32723	32797	32747	32695	32631	
2024	0	32834	32725	32659	32655	32727	32711	32663	32547	
2025	0	32778	32851	32783	32705	32735	32743	32695	32508	
2026	0	32751	32603	32711	32830	32799	32703	32739	32730	
2027	0	32772	32823	32711	32839	32725	32823	32751	32760	
2028	0	32755	32548	32680	32711	32701	32691	32819	32723	
2029	0	32684	32775	32699	32749	32735	32751	32769	32807	
2030	0	32819	32562	32775	32739	32787	32759	32791	32671	
2031	0	32749	32743	32773	32773	32807	32695	32699	32575	
2032	0	32734	32740	32775	32801	32751	32718	32679	32661	
2033	0	32783	32805	32623	32599	32807	32677	32765	32634	
2034	0	32715	32790	32647	32622	32683	32769	32766	32655	
2035	0	32771	32623	32607	32741	32833	32620	32763	32707	
2036	0	32769	32738	32687	32729	32774	32647	32775	32646	
2037	0	32767	32855	32674	32687	32712	32611	32717	32629	
2038	0	32745	32589	32639	32807	32836	32747	32773	32719	
2039	0	32767	32827	32530	32655	32879	32732	32775	32627	
2040	0	32711	32639	32535	32835	32790	32773	32687	32557	
2041	0	32730	32831	32637	32818	32811	32702	32725	32643	
2042	0	32738	32821	32673	32703	32732	32697	32723	32534	
2043	0	32742	32827	32566	32815	32731	32603	32724	32567	
2044	0	32725	32707	32519	32726	32706	32703	32720	32543	
2045	0	32765	32855	32627	32747	32861	32691	32693	32758	
2046	0	32800	32645	32587	32824	32799	32706	32683	32763	
2047	0	32876	32791	32615	32711	32711	32711	32742	32690	
2048	0	32799	32775	32610	32683	32847	32726	32775	32743	
2049	0	32713	32759	32607	32770	32798	32691	32799	32687	
2050	0	32720	32843	32639	32775	32839	32775	32817	32675	
2051	0	32745	32647	32574	32715	32809	32707	32775	32686	
2052	0	32731	32788	32687	32815	32839	32725	32775	32730	
2053	0	32781	32855	32749	32812	32822	32671	32735	32707	
2054	0	32713	32731	32567	32727	32789	32708	32742	32718	
2055	0	32743	32775	32647	32726	32759	32663	32691	32670	
2056	0	32728	32818	32706	32687	32695	32747	32719	32679	
2057	0	32703	32711	32671	32742	32839	32711	32731	32695	
2058	0	32748	32775	32559	32833	32775	32762	32685	32725	
2059	0	32735	32884	32658	32795	32825	32714	32726	32751	
2060	0	32750	32607	32693	32764	32819	32783	32727	32734	
2061	0	32756	32757	32690	32743	32761	32775	32732	32759	
2062	0	32724	32802	32591	32686	32789	32655	32809	32735	
2063	0	32752	32751	32547	32743	32767	32751	32738	32667	
2064	0	32748	32637	32607	32810	32759	32748	32764	32695	
2065	0	32764	32782	32702	32775	32685	32679	32715	32703	
2066	0	32761	32863	32619	32757	32787	32690	32727	32703	
2067	0	32739	32871	32730	32773	32722	32749	32837	32773	
2068	0	32730	32583	32613	32739	32703	32647	32831	32759	
2069	0	32784	32807	32679	32631	32671	32690	32815	32738	
2070	0	32769	32903	32637	32583	32775	32657	32775	32701	
2071	0	32814	32611	32455	32762	32723	32715	32748	32647	
2072	0	32812	32804	32515	32799	32714	32631	32751	32724	
2073	0	32767	32879	32647	32759	32755	32709	32705	32749	
2074	0	32812	32639	32630	32727	32700	32596	32731	32726	
2075	0	32854	32791	32607	32791	32835	32734	32749	32714	
2076	0	32766	32871	32587	32846	32751	32735	32772	32725	
2077	0	32775	32601	32667	32903	32815	32757	32825	32660	
2078	0	32716	32827	32775	32807	32781	32743	32798	32612	
2079	0	32756	32871	32578	32743	32718	32679	32806	32695	
2080	0	32732	32699	32643	32732	32799	32692	32705	32690	
2081	0	32732	32836	32687	32839	32660	32637	32748	32670	
2082	0	32739	32783	32742	32843	32797	32751	32711	32687	
2083	0	32775	32775	32700	32821	32803	32727	32815	32737	
2084	0	32812	32846	32775	32825	32887	32671	32749	32687	
2085	0	32834	32892	32667	32799	32861	32767	32719	32571	
2086	0	32711	32647	32685	32783	32821	32775	32676	32567	
2087	0	32695	32759	32743	32687	32866	32754	32695	32570	
2088	0	32780	32871	32570	32589	32807	32718	32703	32577	
2089	0	32735	32655	32495	32675	32722	32807	32739	32647	
2090	0	32740	32811	32639	32627	32813	32647	32703	32615	
2091	0	32745	32775	32655	32631	32735	32767	32703	32527	
2092	0	32756	32759	32617	32645	32847	32773	32731	32533	
2093	0	32701	32743	32495	32751	32763	32789	32658	32539	
2094	0	32679	32751	32543	32679	32759	32751	32679	32590	
2095	0	32696	32677	32628	32671	32860	32719	32703	32551	
2096	0	32670	32763	32388	32633	32735	32782	32647	32567	
2097	0	32626	32775	32347	32607	32805	32699	32681	32584	
2098	0	32658	32575	32439	32645	32786	32703	32639	32727	
2099	0	32656	32687	32482	32690	32791	32698	32646	32703	
2100	0	32683	32775	32399	32643	32751	32851	32619	32727	
2101	0	32704	32563	32351	32503	32723	32719	32612	32751	
2102	0	32632	32763	32399	32499	32847	32775	32595	32748	
2103	0	32643	32715	32433	32609	32855	32678	32615	32619	
2104	0	32594	32699	32453	32603	32771	32775	32639	32695	
2105	0	32660	32799	32409	32586	32903	32771	32647	32663	
2106	0	32699	32562	32487	32684	32803	32711	32739	32487	
2107	0	32706	32719	32551	32679	32773	32675	32694	32539	
2108	0	32772	32771	32583	32617	32834	32707	32710	32551	
2109	0	32771	32517	32588	32602	32815	32623	32647	32511	
2110	0	32761	32685	32654	32647	32795	32731	32647	32574	
2111	0	32779	32735	32677	32797	32805	32647	32673	32660	
2112	0	32815	32751	32679	32687	32861	32743	32794	32710	
2113	0	32728	32748	32738	32775	32743	32703	32806	32631	
2114	0	32772	32831	32770	32767	32875	32747	32769	32711	
2115	0	32658	32903	32831	32623	32726	32726	32775	32683	
2116	0	32737	32615	32743	32743	32787	32719	32837	32519	
2117	0	32737	32868	32807	32743	32719	32750	32915	32575	
2118	0	32787	32668	32683	32843	32733	32587	32911	32633	
2119	0	32799	32855	32694	32918	32647	32639	32911	32743	
2120	0	32829	32847	32961	32738	32738	32598	32879	32711	
2121	0	32922	32943	32868	32915	32700	32642	32955	32683	
2122	0	32996	32991	33039	33070	32543	32571	33106	32583	
2123	0	33076	32814	33189	33135	32605	32583	33243	32519	
2124	0	33190	32978	33415	33223	32535	32504	33364	32461	
2125	0	33309	32895	33452	33327	32455	32511	33473	32271	
2126	0	33319	32935	33425	33133	32511	32575	33425	32247	
2127	0	33287	33039	33383	33127	32549	32615	33313	32342	
2128	0	33185	32758	33155	32957	32609	32559	33151	32455	
2129	0	32983	32837	32977	32983	32665	32646	32998	32660	
2130	0	32927	32899	32820	32887	32684	32541	32851	32691	
2131	0	32796	32820	32646	32837	32817	32767	32787	32705	
2132	0	32725	32775	32463	32743	32837	32675	32703	32655	
2133	0	32642	32815	32451	32678	32847	32759	32655	32747	
2134	0	32570	32607	32447	32609	32851	32766	32620	32695	
2135	0	32555	32775	32423	32682	32851	32773	32597	32812	
2136	0	32519	32823	32341	32629	32899	32758	32539	32869	
2137	0	32538	32711	32479	32501	32877	32771	32589	32615	
2138	0	32527	32735	32356	32594	32933	32727	32635	32615	
2139	0	32567	32587	32418	32623	32903	32766	32613	32767	
2140	0	32647	32771	32564	32647	32791	32757	32719	32723	
2141	0	32650	32839	32461	32758	32955	32850	32635	32717	
2142	0	32674	32759	32378	32809	32855	32809	32565	32724	
2143	0	32714	32771	32495	32715	32925	32813	32647	32731	
2144	0	32710	32803	32590	32663	32807	32733	32677	32796	
2145	0	32751	32684	32615	32775	32712	32827	32718	32839	
2146	0	32772	32758	32630	32827	32754	32773	32679	32837	
2147	0	32732	32791	32595	32775	32718	32823	32719	32831	
