# OpenSignals Text File Format
# {"00:07:80:3B:46:38": {"sensor": ["CUSTOM/0.5/1.0/V", "CUSTOM/0.5/1.0/V", "CUSTOM/0.5/1.0/V", "CUSTOM/0.5/1.0/V", "CUSTOM/0.5/1.0/V", "CUSTOM/0.5/1.0/V", "CUSTOM/0.5/1.0/V", "CUSTOM/0.5/1.0/V"], "device name": "EMGs", "column": ["nSeq", "DI", "RA_L", "RA_R", "OE_L", "OE:R", "IL_L", "IL_R", "MF_L", "MF_R"], "sync interval": 2, "time": "17:21:9.115", "comments": "", "device connection": "BTH00:07:80:3B:46:38", "channels": [1, 2, 3, 4, 5, 6, 7, 8], "date": "2017-6-1", "mode": 0, "digital IO": [0, 1], "firmware version": 772, "device": "biosignalsplux", "position": 0, "sampling rate": 1000, "label": ["RA_L", "RA_R", "OE_L", "OE:R", "IL_L", "IL_R", "MF_L", "MF_R"], "resolution": [16, 16, 16, 16, 16, 16, 16, 16], "special": [{}, {}, {}, {}, {}, {}, {}, {}]}}
# EndOfHeader
0	0	32742	32550	32691	32612	32679	32791	32774	32495	
1	0	32722	32599	32671	32879	32886	32715	32845	32659	
2	0	32735	32639	32676	32837	32812	32783	32786	32735	
3	0	32765	32811	32839	32655	32647	32767	32743	32749	
4	0	32725	32723	32811	32716	32703	32687	32801	32602	
5	0	32801	32619	32743	32791	32787	32775	32783	32667	
6	0	32834	32702	32749	32683	32807	32767	32701	32787	
7	0	32758	32505	32731	32789	32807	32723	32723	32738	
8	0	32766	32583	32759	32837	32693	32818	32685	32804	
9	0	32767	32674	32859	32683	32845	32743	32775	32719	
10	0	32773	32655	32732	32753	32743	32750	32755	32676	
11	0	32777	32713	32699	32762	32795	32791	32687	32620	
12	0	32740	32595	32719	32799	32622	32626	32791	32715	
13	0	32757	32647	32594	32838	32827	32703	32797	32767	
14	0	32738	32583	32607	32813	32914	32724	32727	32567	
15	0	32767	32740	32751	32725	32835	32721	32767	32758	
16	0	32771	32687	32671	32775	32711	32726	32698	32759	
17	0	32801	32773	32687	32620	32765	32695	32749	32671	
18	0	32863	32833	32711	32798	32775	32667	32755	32631	
19	0	32860	32772	32782	32917	32827	32790	32639	32775	
20	0	32844	32871	32803	32747	32671	32726	32711	32767	
21	0	32832	32869	32695	32799	32806	32668	32690	32890	
22	0	32831	32791	32695	32807	32914	32695	32711	32653	
23	0	32914	32751	32679	32687	32717	32743	32583	32855	
24	0	32931	32581	32735	32751	32695	32725	32759	32775	
25	0	32981	32661	32739	32757	32923	32819	32669	32699	
26	0	32977	32692	32743	32719	32925	32807	32733	32605	
27	0	33036	32717	32711	32626	32745	32735	32751	32621	
28	0	33063	32663	32575	32701	32775	32733	32783	32692	
29	0	33064	32647	32623	32754	32847	32719	32623	32732	
30	0	32999	32655	32550	32734	32807	32746	32690	32673	
31	0	33061	32629	32607	32450	32884	32735	32671	32727	
32	0	33052	32503	32668	32647	32819	32722	32721	32679	
33	0	33020	32594	32514	32695	32809	32807	32685	32605	
34	0	33095	32574	32439	32439	33010	32801	32669	32829	
35	0	33150	32739	32478	32555	32943	32759	32727	32823	
36	0	33101	32732	32503	32635	32910	32767	32641	32871	
37	0	33132	32591	32439	32572	32825	32855	32683	32715	
38	0	33096	32463	32461	32511	32823	32803	32786	32487	
39	0	33063	32382	32455	32359	32899	32815	32828	32679	
40	0	33003	32319	32311	32455	32903	32926	32751	32597	
41	0	33026	32399	32378	32548	32851	32870	32853	32643	
42	0	33007	32481	32490	32467	32775	32871	32815	32667	
43	0	32878	32456	32543	32599	32829	32859	32719	32487	
44	0	32842	32431	32561	32612	32839	32849	32679	32775	
45	0	32743	32171	32607	32447	32864	32847	32685	32703	
46	0	32674	32175	32607	32587	32819	32789	32628	32679	
47	0	32525	32123	32559	32703	32687	32875	32799	32491	
48	0	32502	32215	32599	32546	32716	32892	32943	32561	
49	0	32550	32261	32583	32751	32631	32837	32975	32388	
50	0	32524	32295	32715	32998	32562	32903	33110	32308	
51	0	32663	32423	32679	32838	32615	32839	33276	32246	
52	0	32608	32582	32647	33010	32513	32895	33223	32295	
53	0	32612	32539	32613	33012	32531	32799	33210	32093	
54	0	32485	32459	32722	32885	32427	32839	33069	32316	
55	0	32342	32381	32788	32811	32391	32935	33211	32263	
56	0	32166	32291	32844	33027	32337	32927	33213	32225	
57	0	32036	32263	32885	33111	32391	32884	33230	32295	
58	0	31989	32319	33039	32927	32459	32811	33095	32221	
59	0	31991	32385	33076	33187	32564	32775	33022	32559	
60	0	31997	32514	33159	33093	32343	32751	33026	32547	
61	0	31879	32759	33266	32917	32495	32775	32887	32567	
62	0	31837	32841	33323	33189	32437	32723	32951	32399	
63	0	31940	32943	33595	33173	32383	32711	33005	32476	
64	0	31944	32925	33543	33183	32443	32793	33023	32499	
65	0	32203	33079	33415	33157	32437	32724	32903	32558	
66	0	32405	32927	33239	32929	32635	32740	32903	32559	
67	0	32500	33021	33135	33049	32587	32671	32797	32631	
68	0	32489	33235	33023	33031	32769	32646	32551	32845	
69	0	32530	33199	32971	32791	32871	32615	32489	32919	
70	0	32644	33197	32935	32887	32829	32529	32482	32999	
71	0	32635	33186	32951	32893	32993	32623	32446	33100	
72	0	32663	33127	32960	32891	32951	32637	32309	33087	
73	0	32595	32978	32735	32637	32839	32641	32343	32949	
74	0	32713	32965	32519	32791	33029	32579	32399	32954	
75	0	32755	33007	32557	32775	33015	32663	32459	33017	
76	0	32756	32892	32549	32703	32975	32678	32630	32979	
77	0	32919	32844	32482	32710	32855	32647	32647	32735	
78	0	33069	33041	32495	32551	32982	32679	32553	32929	
79	0	33076	32887	32455	32573	33023	32726	32566	32996	
80	0	33103	32868	32571	32639	32869	32630	32555	32927	
81	0	32967	32887	32563	32631	33011	32683	32660	32923	
82	0	32968	32821	32557	32655	33024	32637	32621	32766	
83	0	32967	32895	32502	32812	32933	32699	32671	32903	
84	0	32911	32775	32513	32775	32991	32751	32532	32879	
85	0	32936	32669	32527	32772	32914	32685	32701	32754	
86	0	32890	32807	32565	32580	32733	32791	32657	32837	
87	0	32924	32647	32647	32621	32835	32735	32732	32809	
88	0	32895	32631	32710	32739	32850	32757	32731	32813	
89	0	32871	32633	32742	32603	32757	32735	32687	32647	
90	0	32995	32661	32527	32475	32809	32841	32685	32670	
91	0	32916	32605	32491	32623	32843	32767	32700	32788	
92	0	32999	32567	32615	32685	32684	32783	32735	32751	
93	0	32976	32599	32636	32702	32887	32783	32735	32623	
94	0	32951	32529	32559	32739	32707	32729	32772	32793	
95	0	32969	32443	32709	32556	32790	32771	32716	32654	
96	0	32899	32721	32723	32707	32759	32743	32663	32714	
97	0	32960	32665	32583	32751	32835	32834	32740	32567	
98	0	32941	32599	32531	32549	32863	32805	32762	32567	
99	0	32894	32595	32527	32743	32647	32806	32775	32705	
100	0	32828	32599	32631	32837	32823	32835	32827	32605	
101	0	32788	32620	32773	32598	32775	32803	32836	32671	
102	0	32781	32580	32749	32725	32703	32743	32823	32658	
103	0	32847	32591	32751	32863	32727	32735	32804	32669	
104	0	32834	32429	32762	32557	32783	32811	32839	32613	
105	0	32791	32733	32735	32831	32727	32851	32831	32563	
106	0	32743	32609	32758	32593	32775	32903	32839	32647	
107	0	32788	32614	32762	32821	32603	32763	32735	32754	
108	0	32772	32647	32707	32969	32834	32775	32761	32737	
109	0	32803	32698	32669	32631	32711	32811	32751	32605	
110	0	32840	32669	32669	32733	32765	32695	32845	32595	
111	0	32767	32583	32749	32717	32631	32807	32845	32639	
112	0	32805	32575	32805	32713	32813	32884	32786	32723	
113	0	32854	32663	32809	32719	32773	32771	32718	32737	
114	0	32775	32615	32807	32855	32870	32717	32811	32732	
115	0	32778	32566	32735	32611	32775	32799	32818	32495	
116	0	32797	32731	32616	32767	32807	32730	32850	32627	
117	0	32804	32718	32671	32855	32687	32785	32871	32663	
118	0	32783	32693	32535	32598	32756	32825	32790	32599	
119	0	32789	32699	32548	32679	32707	32797	32793	32539	
120	0	32745	32663	32617	32841	32775	32745	32831	32655	
121	0	32799	32670	32659	32645	32713	32759	32786	32613	
122	0	32765	32671	32642	32737	32762	32764	32757	32745	
123	0	32750	32695	32734	32855	32775	32735	32873	32549	
124	0	32735	32663	32717	32669	32639	32743	32837	32690	
125	0	32734	32669	32679	32781	32799	32879	32678	32671	
126	0	32754	32519	32620	32887	32677	32812	32803	32551	
127	0	32770	32571	32690	32607	32763	32711	32737	32508	
128	0	32758	32731	32663	32732	32671	32770	32769	32639	
129	0	32823	32639	32711	32622	32730	32667	32818	32695	
130	0	32813	32711	32724	32732	32805	32761	32725	32485	
131	0	32818	32687	32743	32807	32819	32765	32794	32743	
132	0	32821	32711	32749	32612	32701	32739	32815	32771	
133	0	32782	32663	32639	32677	32815	32799	32786	32726	
134	0	32786	32551	32717	32692	32859	32775	32715	32769	
135	0	32757	32615	32675	32711	32647	32723	32804	32643	
136	0	32827	32527	32607	32783	32758	32735	32765	32807	
137	0	32802	32563	32729	32846	32773	32719	32677	32815	
138	0	32764	32775	32765	32642	32803	32762	32751	32787	
139	0	32754	32722	32775	32759	32615	32761	32746	32637	
140	0	32716	32679	32765	32879	32821	32738	32716	32796	
141	0	32776	32644	32839	32615	32738	32743	32802	32639	
142	0	32742	32615	32775	32791	32788	32773	32716	32663	
143	0	32764	32669	32583	32708	32662	32789	32775	32519	
144	0	32717	32534	32583	32759	32823	32795	32843	32677	
145	0	32783	32604	32639	32931	32700	32745	32751	32623	
146	0	32807	32775	32703	32605	32773	32807	32804	32598	
147	0	32780	32723	32735	32783	32623	32747	32847	32594	
148	0	32772	32737	32715	32866	32799	32759	32699	32693	
149	0	32743	32647	32761	32571	32617	32786	32731	32709	
150	0	32786	32599	32760	32783	32804	32745	32863	32516	
151	0	32801	32607	32763	32819	32725	32775	32715	32647	
152	0	32791	32647	32717	32559	32783	32775	32804	32692	
153	0	32788	32638	32623	32655	32850	32786	32791	32659	
154	0	32804	32623	32604	32791	32695	32819	32765	32735	
155	0	32798	32579	32629	32831	32801	32695	32679	32602	
156	0	32781	32583	32621	32621	32862	32734	32822	32541	
157	0	32761	32699	32801	32820	32631	32769	32843	32683	
158	0	32772	32676	32647	32859	32811	32701	32810	32662	
159	0	32766	32639	32543	32647	32807	32759	32703	32703	
160	0	32738	32647	32679	32749	32610	32745	32807	32605	
161	0	32708	32661	32751	32767	32771	32725	32743	32519	
162	0	32699	32647	32742	32621	32803	32742	32756	32693	
163	0	32721	32526	32751	32859	32679	32735	32657	32647	
164	0	32711	32623	32717	32822	32799	32745	32837	32705	
165	0	32706	32639	32751	32879	32767	32807	32775	32743	
166	0	32715	32527	32763	32626	32729	32859	32837	32567	
167	0	32728	32794	32717	32759	32801	32729	32741	32581	
168	0	32745	32787	32775	32753	32815	32747	32796	32647	
169	0	32773	32815	32703	32677	32731	32739	32826	32739	
170	0	32795	32785	32685	32783	32759	32807	32743	32683	
171	0	32815	32711	32775	32813	32727	32807	32702	32735	
172	0	32821	32692	32762	32635	32711	32711	32711	32719	
173	0	32837	32677	32609	32548	32831	32677	32739	32668	
174	0	32773	32597	32599	32767	32815	32723	32740	32581	
175	0	32756	32655	32765	32775	32823	32799	32694	32587	
176	0	32700	32697	32703	32764	32862	32764	32737	32731	
177	0	32761	32679	32813	32627	32765	32783	32827	32731	
178	0	32740	32709	32599	32710	32695	32749	32843	32687	
179	0	32791	32773	32647	32735	32711	32743	32745	32738	
180	0	32742	32716	32855	32903	32791	32755	32775	32669	
181	0	32797	32647	32871	32687	32599	32718	32783	32582	
182	0	32799	32671	32903	32836	32771	32871	32819	32711	
183	0	32728	32663	32789	32875	32735	32820	32819	32612	
184	0	32722	32668	32730	32655	32759	32759	32767	32646	
185	0	32753	32668	32710	32791	32833	32745	32826	32622	
186	0	32815	32707	32791	32785	32611	32799	32693	32619	
187	0	32775	32696	32741	32679	32685	32819	32817	32679	
188	0	32775	32703	32802	32787	32815	32719	32845	32762	
189	0	32799	32615	32759	32807	32594	32767	32721	32726	
190	0	32754	32622	32647	32662	32815	32783	32775	32583	
191	0	32745	32621	32615	32711	32833	32813	32773	32495	
192	0	32836	32613	32719	32739	32626	32697	32826	32791	
193	0	32793	32620	32715	32795	32772	32743	32711	32803	
194	0	32791	32687	32680	32519	32807	32727	32766	32731	
195	0	32697	32773	32639	32743	32695	32749	32733	32684	
196	0	32754	32677	32592	32851	32835	32727	32715	32509	
197	0	32743	32571	32631	32679	32773	32813	32787	32631	
198	0	32772	32509	32615	32807	32867	32813	32759	32667	
199	0	32734	32503	32565	32870	32710	32758	32775	32711	
200	0	32770	32499	32639	32551	32759	32766	32815	32515	
201	0	32745	32845	32745	32845	32871	32789	32735	32581	
202	0	32769	32708	32789	32877	32571	32663	32727	32714	
203	0	32743	32711	32829	32707	32755	32806	32701	32773	
204	0	32772	32675	32775	32827	32698	32838	32775	32628	
205	0	32722	32767	32763	32608	32845	32747	32658	32763	
206	0	32726	32679	32799	32727	32807	32751	32735	32727	
207	0	32775	32663	32557	32835	32847	32805	32851	32827	
208	0	32785	32569	32589	32567	32805	32725	32719	32589	
209	0	32771	32597	32644	32783	32813	32740	32819	32663	
210	0	32788	32708	32675	32887	32598	32769	32791	32673	
211	0	32817	32803	32791	32832	32835	32663	32724	32659	
212	0	32773	32655	32743	32791	32750	32723	32819	32569	
213	0	32829	32695	32743	32823	32767	32767	32775	32621	
214	0	32879	32727	32738	32595	32789	32791	32732	32717	
215	0	32867	32722	32647	32804	32767	32673	32725	32722	
216	0	32817	32563	32599	32582	32719	32799	32831	32489	
217	0	32832	32775	32629	32788	32807	32813	32682	32772	
218	0	32820	32733	32633	32783	32629	32759	32799	32679	
219	0	32757	32669	32647	32725	32807	32751	32881	32657	
220	0	32719	32667	32775	32852	32727	32706	32717	32667	
221	0	32713	32743	32871	32743	32861	32748	32775	32673	
222	0	32731	32463	32775	32787	32723	32863	32839	32727	
223	0	32726	32519	32818	32901	32782	32743	32773	32647	
224	0	32751	32587	32631	32726	32811	32759	32711	32567	
225	0	32713	32727	32679	32799	32764	32786	32775	32743	
226	0	32737	32615	32731	32855	32703	32705	32749	32722	
227	0	32678	32737	32685	32638	32811	32735	32755	32693	
228	0	32698	32565	32697	32757	32672	32834	32751	32668	
229	0	32689	32506	32745	32598	32759	32723	32682	32699	
230	0	32767	32775	32791	32738	32743	32761	32771	32633	
231	0	32786	32687	32739	32839	32719	32805	32798	32517	
232	0	32771	32687	32630	32687	32851	32709	32675	32676	
233	0	32794	32685	32671	32747	32807	32767	32791	32726	
234	0	32820	32527	32623	32519	32823	32807	32854	32547	
235	0	32820	32559	32735	32705	32663	32791	32692	32727	
236	0	32760	32743	32698	32705	32830	32849	32796	32647	
237	0	32793	32711	32739	32769	32759	32740	32756	32557	
238	0	32802	32723	32799	32709	32711	32813	32799	32719	
239	0	32732	32559	32845	32703	32839	32745	32735	32723	
240	0	32762	32621	32705	32788	32662	32804	32743	32663	
241	0	32827	32799	32715	32664	32835	32807	32766	32541	
242	0	32773	32788	32631	32817	32765	32791	32687	32753	
243	0	32725	32759	32685	32851	32767	32827	32742	32667	
244	0	32773	32603	32765	32593	32703	32757	32795	32734	
245	0	32796	32571	32687	32738	32695	32749	32775	32623	
246	0	32796	32647	32751	32844	32847	32758	32711	32701	
247	0	32811	32703	32854	32647	32647	32839	32686	32703	
248	0	32796	32687	32660	32733	32724	32759	32727	32773	
249	0	32805	32571	32593	32862	32789	32799	32735	32655	
250	0	32747	32591	32727	32565	32801	32828	32759	32677	
251	0	32757	32759	32686	32775	32812	32695	32732	32740	
252	0	32818	32691	32716	32759	32613	32711	32797	32710	
253	0	32764	32669	32551	32701	32926	32771	32775	32595	
254	0	32783	32671	32530	32739	32775	32631	32695	32679	
255	0	32711	32579	32671	32727	32830	32801	32759	32719	
256	0	32772	32631	32749	32740	32815	32837	32867	32647	
257	0	32824	32663	32655	32755	32641	32709	32706	32647	
258	0	32829	32701	32700	32634	32819	32760	32819	32590	
259	0	32753	32631	32607	32725	32767	32775	32791	32715	
260	0	32751	32583	32751	32877	32798	32690	32687	32655	
261	0	32725	32747	32741	32647	32635	32740	32859	32659	
262	0	32701	32700	32829	32772	32839	32771	32851	32647	
263	0	32733	32581	32773	32631	32708	32710	32742	32706	
264	0	32737	32683	32795	32867	32823	32843	32797	32586	
265	0	32736	32590	32847	32659	32786	32766	32815	32724	
266	0	32699	32516	32799	32743	32628	32733	32765	32639	
267	0	32679	32557	32757	32850	32823	32799	32687	32707	
268	0	32775	32769	32755	32566	32735	32735	32711	32572	
269	0	32736	32735	32747	32725	32791	32771	32811	32733	
270	0	32783	32663	32775	32709	32625	32748	32825	32715	
271	0	32748	32635	32734	32735	32757	32791	32854	32733	
272	0	32749	32621	32709	32801	32852	32779	32695	32659	
273	0	32767	32679	32635	32575	32815	32727	32748	32847	
274	0	32784	32594	32643	32839	32815	32711	32761	32671	
275	0	32735	32481	32671	32774	32727	32815	32757	32647	
276	0	32773	32742	32566	32671	32823	32756	32804	32557	
277	0	32720	32708	32679	32734	32791	32739	32815	32485	
278	0	32799	32621	32756	32620	32775	32797	32754	32703	
279	0	32795	32623	32817	32775	32807	32761	32871	32629	
280	0	32793	32660	32775	32914	32692	32775	32743	32655	
281	0	32777	32719	32671	32821	32809	32839	32839	32527	
282	0	32742	32535	32662	32835	32767	32731	32892	32709	
283	0	32761	32503	32621	32605	32637	32791	32691	32698	
284	0	32797	32557	32679	32787	32767	32855	32759	32673	
285	0	32718	32595	32729	32853	32714	32765	32863	32775	
286	0	32740	32731	32775	32506	32775	32751	32655	32595	
287	0	32756	32623	32689	32761	32715	32775	32691	32741	
288	0	32723	32677	32679	32685	32903	32663	32668	32743	
289	0	32783	32730	32721	32807	32839	32717	32700	32741	
290	0	32767	32527	32735	32821	32807	32763	32775	32487	
291	0	32749	32500	32641	32587	32843	32743	32815	32575	
292	0	32813	32771	32684	32692	32735	32775	32647	32710	
293	0	32819	32679	32663	32623	32754	32749	32850	32711	
294	0	32734	32630	32683	32669	32759	32769	32766	32534	
295	0	32786	32723	32739	32620	32647	32745	32822	32634	
296	0	32739	32631	32686	32817	32739	32834	32711	32627	
297	0	32725	32723	32636	32839	32866	32803	32786	32547	
298	0	32719	32647	32675	32839	32735	32743	32891	32695	
299	0	32712	32659	32726	32887	32811	32813	32751	32693	
300	0	32730	32675	32719	32799	32788	32717	32818	32487	
301	0	32788	32645	32759	32731	32669	32769	32711	32615	
302	0	32812	32587	32723	32647	32827	32831	32775	32661	
303	0	32779	32713	32731	32771	32739	32699	32687	32713	
304	0	32813	32685	32717	32601	32822	32839	32775	32642	
305	0	32727	32709	32742	32758	32647	32739	32790	32804	
306	0	32743	32765	32737	32925	32813	32775	32851	32647	
307	0	32754	32551	32717	32813	32718	32857	32815	32587	
308	0	32713	32823	32798	32769	32795	32783	32743	32715	
309	0	32693	32759	32769	32641	32645	32743	32821	32669	
310	0	32751	32767	32647	32767	32783	32801	32799	32775	
311	0	32806	32685	32641	32887	32858	32677	32783	32647	
312	0	32788	32717	32594	32756	32838	32694	32775	32749	
313	0	32781	32742	32613	32747	32628	32775	32666	32739	
314	0	32833	32575	32677	32663	32877	32721	32775	32657	
315	0	32803	32506	32813	32711	32735	32763	32822	32663	
316	0	32732	32571	32685	32834	32659	32860	32703	32708	
317	0	32727	32499	32727	32919	32807	32685	32749	32671	
318	0	32709	32530	32615	32573	32767	32727	32727	32725	
319	0	32799	32747	32589	32797	32788	32775	32730	32518	
320	0	32841	32660	32677	32647	32679	32690	32828	32645	
321	0	32775	32707	32690	32755	32819	32698	32767	32641	
322	0	32712	32629	32815	32885	32857	32762	32717	32646	
323	0	32718	32770	32740	32671	32571	32759	32747	32703	
324	0	32710	32605	32709	32796	32743	32775	32772	32671	
325	0	32727	32541	32743	32675	32799	32809	32637	32691	
326	0	32706	32766	32739	32709	32804	32705	32763	32565	
327	0	32712	32709	32801	32749	32751	32793	32851	32681	
328	0	32786	32631	32795	32764	32617	32815	32783	32727	
329	0	32797	32583	32879	32871	32771	32759	32814	32580	
330	0	32753	32647	32790	32551	32708	32786	32742	32743	
331	0	32762	32471	32790	32755	32795	32703	32765	32623	
332	0	32725	32617	32783	32636	32775	32751	32812	32679	
333	0	32799	32596	32684	32735	32839	32758	32718	32549	
334	0	32812	32817	32683	32852	32775	32797	32775	32751	
335	0	32730	32662	32619	32614	32871	32754	32743	32633	
336	0	32797	32671	32655	32773	32767	32835	32797	32589	
337	0	32839	32637	32391	32769	32731	32742	32827	32543	
338	0	32784	32479	32647	32573	32726	32762	32743	32769	
339	0	32713	32729	32811	32879	32821	32807	32835	32599	
340	0	32791	32775	32749	32819	32658	32795	32818	32671	
341	0	32758	32647	32725	32551	32819	32783	32663	32557	
342	0	32754	32756	32757	32791	32845	32821	32799	32657	
343	0	32734	32594	32813	32660	32756	32679	32743	32655	
344	0	32726	32660	32699	32814	32759	32788	32775	32509	
345	0	32743	32791	32821	32791	32596	32724	32811	32775	
346	0	32784	32735	32830	32835	32809	32765	32758	32719	
347	0	32799	32668	32851	32919	32683	32813	32799	32751	
348	0	32789	32708	32807	32615	32855	32759	32775	32595	
349	0	32754	32575	32727	32771	32637	32759	32811	32751	
350	0	32717	32622	32581	32868	32775	32791	32743	32702	
351	0	32802	32763	32587	32593	32735	32699	32751	32773	
352	0	32823	32647	32620	32743	32838	32733	32731	32635	
353	0	32798	32766	32698	32685	32695	32767	32775	32773	
354	0	32747	32534	32701	32759	32719	32657	32743	32748	
355	0	32775	32566	32695	32794	32818	32758	32735	32562	
356	0	32751	32658	32695	32631	32827	32823	32867	32815	
357	0	32751	32735	32706	32691	32803	32759	32767	32715	
358	0	32775	32615	32759	32775	32706	32789	32751	32711	
359	0	32735	32566	32621	32647	32883	32819	32804	32621	
360	0	32731	32695	32679	32839	32757	32721	32795	32513	
361	0	32727	32629	32759	32871	32733	32775	32724	32693	
362	0	32703	32511	32646	32583	32627	32795	32788	32695	
363	0	32786	32775	32594	32797	32823	32708	32791	32687	
364	0	32801	32761	32773	32935	32799	32754	32738	32549	
365	0	32764	32707	32732	32662	32773	32791	32745	32554	
366	0	32711	32647	32793	32815	32739	32754	32775	32735	
367	0	32791	32697	32671	32773	32695	32773	32822	32647	
368	0	32761	32723	32699	32732	32801	32783	32711	32695	
369	0	32775	32727	32660	32775	32620	32843	32727	32547	
370	0	32775	32749	32831	32676	32743	32799	32749	32551	
371	0	32712	32603	32765	32737	32855	32723	32751	32671	
372	0	32811	32591	32743	32707	32646	32687	32711	32633	
373	0	32813	32543	32663	32543	32895	32783	32855	32735	
374	0	32758	32623	32665	32679	32823	32719	32721	32543	
375	0	32804	32687	32623	32663	32799	32706	32797	32709	
376	0	32743	32685	32647	32722	32623	32774	32847	32599	
377	0	32744	32677	32747	32847	32767	32719	32670	32642	
378	0	32767	32591	32665	32571	32711	32829	32804	32784	
379	0	32668	32527	32775	32775	32855	32759	32805	32711	
380	0	32737	32591	32836	32823	32731	32719	32770	32715	
381	0	32685	32748	32771	32837	32749	32846	32803	32683	
382	0	32728	32687	32791	32875	32775	32804	32735	32562	
383	0	32726	32619	32745	32628	32647	32711	32647	32732	
384	0	32785	32724	32722	32795	32775	32836	32754	32737	
385	0	32706	32543	32613	32635	32711	32679	32791	32629	
386	0	32743	32695	32647	32854	32775	32746	32719	32743	
387	0	32711	32711	32671	32633	32627	32796	32813	32703	
388	0	32749	32583	32687	32763	32727	32759	32719	32549	
389	0	32749	32721	32683	32799	32735	32811	32807	32663	
390	0	32775	32617	32671	32569	32819	32815	32827	32695	
391	0	32782	32577	32723	32751	32671	32733	32703	32615	
392	0	32740	32690	32662	32647	32839	32721	32763	32723	
393	0	32772	32683	32711	32719	32775	32741	32714	32683	
394	0	32791	32660	32708	32729	32867	32789	32826	32709	
395	0	32782	32724	32703	32541	32701	32741	32771	32552	
396	0	32783	32707	32735	32813	32804	32759	32731	32692	
397	0	32751	32455	32726	32563	32723	32727	32799	32659	
398	0	32743	32555	32738	32743	32839	32807	32783	32551	
399	0	32753	32705	32671	32602	32655	32741	32751	32711	
400	0	32738	32647	32731	32639	32679	32743	32797	32661	
401	0	32786	32662	32773	32951	32838	32786	32735	32657	
402	0	32764	32695	32647	32595	32820	32717	32757	32583	
403	0	32745	32551	32639	32839	32647	32790	32789	32727	
404	0	32745	32615	32612	32695	32747	32714	32726	32762	
405	0	32769	32749	32573	32839	32708	32727	32767	32550	
406	0	32764	32702	32731	32869	32823	32765	32775	32716	
407	0	32831	32607	32743	32767	32671	32707	32743	32727	
408	0	32815	32711	32763	32775	32720	32838	32751	32597	
409	0	32785	32605	32722	32567	32829	32775	32715	32607	
410	0	32798	32578	32810	32751	32767	32743	32811	32699	
411	0	32758	32711	32663	32647	32694	32775	32851	32717	
412	0	32782	32703	32725	32692	32783	32785	32722	32647	
413	0	32721	32693	32743	32747	32703	32741	32759	32791	
414	0	32722	32643	32812	32693	32754	32793	32764	32794	
415	0	32743	32703	32655	32551	32775	32811	32703	32735	
416	0	32748	32631	32633	32702	32775	32759	32687	32741	
417	0	32775	32644	32839	32874	32855	32711	32731	32687	
418	0	32715	32663	32791	32662	32714	32759	32797	32661	
419	0	32772	32676	32559	32819	32850	32775	32695	32679	
420	0	32825	32745	32667	32815	32823	32767	32817	32683	
421	0	32743	32633	32797	32635	32633	32791	32773	32647	
422	0	32773	32482	32775	32804	32807	32775	32785	32674	
423	0	32754	32743	32647	32691	32775	32739	32834	32708	
424	0	32732	32755	32711	32738	32860	32826	32627	32775	
425	0	32775	32663	32706	32769	32797	32775	32807	32587	
426	0	32798	32631	32683	32775	32627	32783	32763	32723	
427	0	32784	32699	32619	32899	32781	32841	32871	32679	
428	0	32784	32711	32668	32607	32863	32655	32791	32543	
429	0	32783	32675	32765	32759	32647	32734	32658	32711	
430	0	32796	32639	32711	32841	32815	32775	32772	32615	
431	0	32827	32601	32604	32602	32711	32758	32846	32670	
432	0	32863	32603	32687	32754	32808	32775	32743	32525	
433	0	32796	32693	32690	32759	32593	32794	32827	32685	
434	0	32769	32739	32725	32767	32839	32771	32667	32673	
435	0	32738	32677	32731	32837	32733	32781	32786	32481	
436	0	32827	32667	32689	32511	32775	32783	32839	32743	
437	0	32751	32683	32695	32775	32663	32775	32820	32647	
438	0	32708	32493	32789	32679	32819	32831	32823	32607	
439	0	32803	32807	32783	32732	32831	32757	32789	32613	
440	0	32742	32735	32628	32903	32815	32771	32739	32731	
441	0	32718	32621	32623	32639	32807	32798	32711	32802	
442	0	32733	32615	32679	32791	32827	32739	32739	32579	
443	0	32746	32677	32775	32775	32703	32787	32799	32755	
444	0	32720	32667	32811	32733	32733	32836	32791	32695	
445	0	32730	32631	32767	32783	32647	32701	32722	32765	
446	0	32759	32549	32767	32719	32876	32703	32735	32583	
447	0	32747	32484	32727	32783	32783	32837	32795	32765	
448	0	32775	32566	32641	32803	32851	32756	32679	32775	
449	0	32786	32551	32647	32647	32660	32743	32749	32764	
450	0	32806	32515	32646	32743	32692	32775	32702	32633	
451	0	32771	32551	32820	32711	32743	32799	32793	32575	
452	0	32740	32775	32790	32615	32719	32710	32764	32711	
453	0	32775	32634	32767	32775	32807	32729	32757	32727	
454	0	32825	32815	32692	32887	32847	32751	32685	32592	
455	0	32791	32709	32719	32586	32835	32775	32740	32743	
456	0	32742	32739	32624	32775	32793	32791	32754	32755	
457	0	32724	32557	32507	32623	32682	32695	32809	32659	
458	0	32756	32605	32615	32809	32858	32751	32830	32711	
459	0	32781	32619	32775	32759	32845	32775	32718	32711	
460	0	32748	32759	32747	32614	32703	32751	32786	32535	
461	0	32829	32707	32679	32811	32749	32765	32799	32715	
462	0	32758	32711	32673	32751	32773	32789	32719	32615	
463	0	32735	32599	32685	32735	32769	32735	32822	32647	
464	0	32803	32667	32754	32807	32756	32811	32813	32484	
465	0	32753	32727	32701	32797	32663	32821	32749	32724	
466	0	32743	32670	32631	32655	32725	32747	32679	32644	
467	0	32738	32694	32717	32786	32799	32759	32823	32743	
468	0	32749	32573	32839	32923	32646	32739	32883	32575	
469	0	32752	32551	32801	32631	32895	32831	32707	32762	
470	0	32774	32548	32767	32755	32703	32739	32804	32655	
471	0	32860	32734	32647	32791	32813	32707	32783	32831	
472	0	32847	32727	32709	32563	32666	32756	32751	32565	
473	0	32825	32771	32671	32743	32845	32773	32775	32655	
474	0	32780	32669	32603	32767	32775	32810	32782	32683	
475	0	32762	32655	32783	32757	32635	32845	32748	32547	
476	0	32725	32711	32903	32735	32808	32803	32783	32623	
477	0	32735	32708	32809	32749	32723	32746	32801	32623	
478	0	32768	32575	32791	32738	32759	32804	32735	32687	
479	0	32780	32607	32607	32807	32629	32791	32821	32775	
480	0	32846	32615	32413	32556	32855	32757	32767	32575	
481	0	32791	32677	32557	32775	32837	32817	32701	32759	
482	0	32756	32611	32675	32910	32815	32674	32693	32695	
483	0	32745	32689	32677	32553	32647	32719	32719	32587	
484	0	32783	32723	32719	32813	32803	32743	32763	32679	
485	0	32709	32687	32789	32804	32727	32742	32719	32706	
486	0	32719	32611	32710	32807	32839	32813	32767	32735	
487	0	32715	32532	32796	32854	32813	32843	32791	32549	
488	0	32746	32639	32815	32695	32579	32735	32797	32703	
489	0	32719	32772	32719	32729	32835	32823	32751	32716	
490	0	32686	32769	32703	32807	32695	32802	32871	32681	
491	0	32743	32742	32731	32587	32775	32723	32722	32527	
492	0	32767	32647	32701	32799	32660	32751	32796	32690	
493	0	32718	32711	32647	32762	32742	32763	32789	32671	
494	0	32767	32687	32645	32719	32839	32793	32719	32583	
495	0	32764	32527	32660	32843	32785	32837	32785	32705	
496	0	32759	32499	32798	32503	32831	32743	32775	32695	
497	0	32775	32775	32731	32708	32845	32747	32815	32575	
498	0	32687	32775	32719	32751	32711	32759	32807	32711	
499	0	32703	32621	32805	32875	32695	32749	32717	32732	
500	0	32807	32702	32766	32895	32743	32786	32775	32675	
501	0	32773	32644	32722	32642	32773	32731	32795	32647	
502	0	32764	32691	32733	32743	32838	32743	32707	32717	
503	0	32745	32605	32811	32847	32646	32823	32717	32718	
504	0	32742	32548	32727	32647	32829	32711	32804	32587	
505	0	32716	32543	32693	32802	32847	32817	32706	32583	
506	0	32749	32590	32738	32863	32713	32799	32811	32732	
507	0	32709	32543	32725	32698	32871	32775	32711	32679	
508	0	32719	32558	32731	32775	32799	32703	32727	32718	
509	0	32738	32526	32687	32794	32799	32703	32722	32647	
510	0	32811	32749	32563	32647	32715	32763	32788	32687	
511	0	32796	32737	32631	32719	32822	32679	32801	32719	
512	0	32793	32711	32693	32767	32663	32756	32757	32751	
513	0	32844	32661	32615	32516	32805	32775	32775	32621	
514	0	32766	32647	32687	32661	32629	32721	32801	32783	
515	0	32753	32559	32775	32751	32810	32757	32751	32667	
516	0	32779	32519	32710	32541	32775	32743	32829	32734	
517	0	32780	32623	32772	32743	32775	32675	32795	32547	
518	0	32732	32711	32799	32669	32675	32811	32883	32724	
519	0	32809	32599	32599	32751	32758	32769	32815	32659	
520	0	32793	32567	32603	32820	32775	32727	32739	32743	
521	0	32695	32615	32593	32671	32855	32831	32754	32559	
522	0	32762	32660	32561	32788	32786	32783	32807	32733	
523	0	32788	32703	32775	32867	32595	32735	32753	32590	
524	0	32735	32735	32855	32703	32748	32791	32839	32623	
525	0	32724	32719	32874	32797	32743	32767	32811	32607	
526	0	32713	32559	32799	32941	32838	32717	32741	32719	
527	0	32793	32603	32759	32607	32691	32733	32819	32727	
528	0	32758	32723	32690	32719	32828	32733	32809	32567	
529	0	32754	32775	32583	32772	32785	32782	32687	32693	
530	0	32722	32804	32727	32615	32751	32741	32756	32604	
531	0	32740	32755	32719	32761	32671	32803	32791	32676	
532	0	32759	32729	32811	32791	32747	32759	32805	32495	
533	0	32762	32687	32659	32615	32807	32711	32719	32765	
534	0	32709	32663	32692	32711	32722	32835	32771	32631	
535	0	32811	32675	32707	32692	32839	32809	32831	32647	
536	0	32804	32677	32759	32775	32729	32763	32719	32567	
537	0	32775	32717	32665	32789	32775	32751	32801	32615	
538	0	32787	32695	32697	32784	32741	32787	32775	32713	
539	0	32775	32691	32754	32733	32667	32740	32740	32685	
540	0	32759	32679	32719	32802	32775	32747	32727	32697	
541	0	32791	32591	32730	32675	32667	32823	32809	32567	
542	0	32742	32543	32738	32719	32837	32758	32788	32731	
543	0	32789	32519	32716	32738	32815	32759	32709	32727	
544	0	32760	32607	32758	32845	32631	32796	32787	32717	
545	0	32797	32583	32702	32783	32831	32756	32764	32683	
546	0	32759	32605	32631	32843	32841	32703	32671	32527	
547	0	32825	32807	32646	32694	32751	32802	32756	32719	
548	0	32738	32677	32695	32813	32615	32757	32791	32687	
549	0	32748	32655	32811	32927	32795	32835	32815	32662	
550	0	32774	32703	32697	32670	32735	32806	32805	32623	
551	0	32751	32685	32715	32821	32839	32738	32687	32647	
552	0	32727	32635	32695	32690	32679	32799	32805	32671	
553	0	32746	32551	32711	32751	32799	32677	32847	32534	
554	0	32730	32707	32701	32789	32683	32737	32751	32677	
555	0	32754	32627	32663	32593	32837	32741	32787	32647	
556	0	32755	32660	32676	32711	32679	32810	32749	32693	
557	0	32759	32685	32647	32769	32847	32707	32699	32517	
558	0	32790	32700	32601	32613	32823	32771	32737	32701	
559	0	32796	32655	32655	32703	32823	32791	32786	32757	
560	0	32719	32613	32797	32829	32771	32743	32671	32693	
561	0	32743	32573	32807	32813	32705	32743	32764	32765	
562	0	32775	32597	32799	32554	32761	32819	32771	32628	
563	0	32790	32583	32735	32795	32771	32699	32767	32623	
564	0	32738	32550	32633	32924	32795	32698	32667	32767	
565	0	32793	32487	32582	32647	32805	32775	32795	32690	
566	0	32713	32579	32801	32809	32789	32823	32806	32721	
567	0	32775	32803	32782	32822	32775	32733	32775	32681	
568	0	32788	32807	32788	32722	32819	32735	32759	32587	
569	0	32796	32747	32804	32573	32687	32795	32807	32677	
570	0	32706	32679	32831	32820	32831	32729	32706	32685	
571	0	32727	32647	32683	32797	32835	32727	32803	32715	
572	0	32718	32715	32621	32699	32647	32821	32780	32617	
573	0	32742	32595	32660	32791	32813	32775	32756	32661	
574	0	32739	32471	32579	32575	32783	32765	32782	32695	
575	0	32750	32503	32582	32767	32812	32759	32709	32735	
576	0	32772	32615	32823	32804	32691	32807	32793	32687	
577	0	32831	32729	32837	32615	32785	32647	32825	32559	
578	0	32749	32711	32769	32707	32783	32756	32763	32742	
579	0	32743	32619	32839	32735	32638	32866	32719	32735	
580	0	32745	32662	32666	32647	32815	32791	32773	32707	
581	0	32725	32631	32695	32749	32813	32815	32679	32532	
582	0	32763	32617	32636	32959	32899	32807	32761	32804	
583	0	32797	32629	32580	32757	32722	32738	32749	32719	
584	0	32790	32647	32605	32863	32852	32743	32735	32783	
585	0	32756	32751	32783	32884	32763	32802	32687	32623	
586	0	32775	32647	32629	32626	32694	32743	32751	32555	
587	0	32742	32723	32759	32735	32789	32731	32839	32745	
588	0	32787	32658	32630	32709	32790	32731	32739	32687	
589	0	32705	32617	32676	32796	32689	32739	32820	32701	
590	0	32708	32703	32687	32590	32807	32791	32858	32691	
591	0	32722	32647	32791	32787	32727	32715	32804	32524	
592	0	32775	32519	32751	32787	32733	32757	32685	32623	
593	0	32789	32549	32691	32585	32833	32815	32819	32709	
594	0	32799	32551	32727	32695	32751	32783	32831	32692	
595	0	32747	32575	32666	32791	32843	32699	32732	32661	
596	0	32799	32771	32551	32790	32693	32789	32845	32559	
597	0	32807	32711	32575	32796	32877	32807	32775	32719	
598	0	32829	32739	32597	32807	32703	32722	32805	32671	
599	0	32810	32679	32667	32581	32758	32767	32823	32644	
600	0	32795	32706	32658	32727	32638	32803	32719	32565	
601	0	32794	32686	32711	32788	32803	32754	32775	32663	
602	0	32745	32481	32783	32660	32679	32757	32807	32663	
603	0	32721	32511	32733	32806	32847	32771	32694	32775	
604	0	32737	32635	32773	32849	32606	32758	32823	32582	
605	0	32740	32711	32749	32731	32755	32783	32724	32685	
606	0	32825	32677	32735	32863	32799	32703	32775	32671	
607	0	32765	32679	32791	32731	32807	32723	32715	32655	
608	0	32748	32731	32663	32759	32647	32820	32786	32591	
609	0	32734	32679	32647	32703	32825	32791	32694	32700	
610	0	32754	32701	32727	32860	32876	32695	32665	32773	
611	0	32813	32687	32754	32625	32727	32683	32647	32798	
612	0	32807	32589	32765	32839	32845	32770	32751	32727	
613	0	32769	32567	32703	32855	32813	32748	32717	32699	
614	0	32793	32559	32739	32614	32791	32762	32769	32642	
615	0	32751	32623	32738	32717	32813	32751	32831	32603	
616	0	32738	32743	32775	32743	32847	32749	32775	32658	
617	0	32736	32735	32749	32874	32694	32804	32711	32721	
618	0	32756	32759	32771	32599	32791	32757	32831	32677	
619	0	32709	32727	32682	32719	32839	32731	32842	32676	
620	0	32773	32711	32682	32813	32647	32775	32679	32529	
621	0	32785	32723	32663	32821	32885	32773	32759	32743	
622	0	32759	32771	32647	32617	32835	32706	32839	32706	
623	0	32786	32594	32808	32897	32810	32723	32763	32627	
624	0	32774	32607	32731	32827	32727	32807	32827	32515	
625	0	32765	32787	32687	32637	32679	32751	32751	32719	
626	0	32734	32703	32572	32729	32837	32743	32663	32731	
627	0	32743	32717	32535	32765	32834	32855	32726	32687	
628	0	32786	32735	32767	32527	32719	32809	32809	32763	
629	0	32791	32635	32799	32743	32822	32740	32748	32503	
630	0	32753	32645	32735	32692	32663	32827	32819	32691	
631	0	32807	32693	32677	32684	32836	32837	32817	32687	
632	0	32775	32721	32719	32751	32871	32734	32695	32679	
633	0	32825	32671	32855	32607	32767	32720	32785	32613	
634	0	32821	32645	32775	32763	32701	32766	32775	32671	
635	0	32762	32749	32787	32675	32823	32730	32831	32612	
636	0	32760	32587	32829	32813	32747	32775	32783	32767	
637	0	32783	32679	32751	32684	32699	32734	32845	32659	
638	0	32734	32551	32655	32703	32765	32775	32804	32615	
639	0	32785	32515	32685	32775	32822	32838	32775	32540	
640	0	32803	32567	32559	32621	32729	32791	32807	32738	
641	0	32772	32797	32558	32751	32819	32771	32851	32701	
642	0	32764	32739	32607	32817	32699	32812	32803	32647	
643	0	32764	32623	32711	32775	32775	32740	32863	32594	
644	0	32740	32687	32771	32823	32603	32747	32767	32711	
645	0	32791	32671	32790	32759	32818	32815	32698	32715	
646	0	32807	32684	32823	32783	32795	32766	32724	32719	
647	0	32749	32553	32645	32783	32686	32733	32775	32523	
648	0	32799	32519	32679	32647	32715	32794	32667	32797	
649	0	32807	32735	32679	32711	32786	32853	32822	32727	
650	0	32715	32711	32642	32831	32775	32735	32694	32623	
651	0	32742	32605	32625	32570	32844	32738	32771	32631	
652	0	32745	32623	32682	32675	32695	32775	32807	32707	
653	0	32812	32647	32698	32565	32827	32733	32797	32663	
654	0	32775	32515	32726	32759	32707	32815	32743	32493	
655	0	32825	32547	32718	32827	32817	32709	32775	32736	
656	0	32797	32607	32629	32677	32671	32711	32771	32667	
657	0	32771	32839	32700	32735	32857	32797	32767	32685	
658	0	32762	32765	32748	32819	32807	32773	32749	32575	
659	0	32750	32647	32807	32647	32811	32695	32681	32767	
660	0	32793	32718	32693	32893	32687	32799	32759	32799	
661	0	32697	32548	32617	32663	32867	32698	32717	32524	
662	0	32727	32517	32645	32742	32734	32783	32799	32715	
663	0	32708	32532	32645	32781	32743	32827	32773	32645	
664	0	32694	32573	32695	32627	32627	32691	32706	32743	
665	0	32624	32487	32742	32775	32739	32735	32763	32658	
666	0	32703	32751	32695	32811	32775	32802	32732	32535	
667	0	32647	32743	32862	32669	32646	32811	32799	32700	
668	0	32733	32631	32821	32797	32799	32739	32775	32711	
669	0	32739	32635	32711	32883	32711	32773	32695	32749	
670	0	32769	32669	32615	32727	32827	32733	32710	32611	
671	0	32756	32507	32620	32791	32685	32707	32783	32783	
672	0	32742	32583	32718	32787	32704	32719	32823	32681	
673	0	32740	32759	32571	32559	32877	32751	32719	32641	
674	0	32750	32699	32702	32690	32817	32731	32734	32591	
675	0	32751	32647	32771	32791	32845	32755	32838	32786	
676	0	32813	32719	32747	32903	32687	32711	32687	32751	
677	0	32793	32810	32703	32983	32815	32742	32763	32692	
678	0	32772	32743	32775	32679	32740	32783	32829	32605	
679	0	32775	32706	32786	32748	32767	32757	32756	32738	
680	0	32751	32596	32797	32879	32758	32799	32790	32689	
681	0	32719	32551	32749	32647	32621	32855	32831	32531	
682	0	32743	32707	32727	32763	32735	32761	32876	32663	
683	0	32714	32749	32677	32647	32807	32823	32869	32581	
684	0	32737	32687	32606	32765	32775	32739	32833	32575	
685	0	32762	32647	32669	32807	32698	32802	32748	32535	
686	0	32805	32626	32639	32742	32767	32791	32785	32533	
687	0	32805	32715	32735	32709	32699	32853	32782	32647	
688	0	32793	32724	32717	32793	32775	32681	32707	32655	
689	0	32793	32647	32559	32762	32647	32727	32815	32743	
690	0	32841	32559	32637	32718	32871	32692	32845	32599	
691	0	32819	32743	32627	32813	32817	32756	32685	32765	
692	0	32784	32727	32681	32579	32795	32701	32826	32675	
693	0	32757	32611	32743	32748	32821	32727	32819	32724	
694	0	32797	32639	32803	32847	32643	32735	32735	32620	
695	0	32825	32694	32771	32630	32830	32761	32763	32547	
696	0	32774	32711	32822	32764	32849	32764	32771	32739	
697	0	32745	32513	32827	32886	32815	32842	32701	32685	
698	0	32767	32802	32711	32646	32687	32743	32803	32703	
699	0	32775	32663	32469	32771	32827	32719	32788	32583	
700	0	32745	32628	32607	32679	32751	32717	32737	32775	
701	0	32684	32715	32621	32751	32762	32719	32756	32821	
702	0	32744	32559	32583	32851	32738	32767	32667	32615	
703	0	32771	32543	32647	32629	32855	32735	32748	32818	
704	0	32711	32771	32663	32758	32743	32766	32735	32723	
705	0	32740	32719	32711	32735	32843	32769	32669	32724	
706	0	32745	32631	32805	32775	32823	32671	32769	32647	
707	0	32746	32711	32839	32855	32726	32717	32711	32709	
708	0	32757	32679	32791	32583	32722	32797	32717	32709	
709	0	32742	32709	32811	32743	32715	32811	32717	32710	
710	0	32751	32591	32754	32794	32597	32759	32823	32549	
711	0	32751	32575	32718	32631	32796	32811	32695	32647	
712	0	32757	32591	32726	32756	32727	32839	32817	32639	
713	0	32807	32749	32647	32839	32790	32703	32709	32681	
714	0	32791	32694	32596	32612	32685	32767	32771	32643	
715	0	32788	32679	32627	32903	32687	32749	32732	32720	
716	0	32756	32527	32663	32583	32821	32791	32775	32730	
717	0	32781	32733	32699	32715	32799	32811	32751	32551	
718	0	32748	32695	32709	32815	32731	32711	32703	32751	
719	0	32756	32679	32703	32647	32819	32720	32788	32725	
720	0	32810	32647	32743	32765	32786	32758	32749	32709	
721	0	32805	32679	32647	32759	32809	32847	32839	32722	
722	0	32766	32687	32647	32825	32757	32694	32703	32489	
723	0	32742	32647	32765	32735	32734	32791	32815	32708	
724	0	32703	32538	32719	32807	32775	32831	32805	32643	
725	0	32767	32715	32658	32682	32679	32735	32815	32626	
726	0	32732	32711	32734	32727	32823	32806	32844	32511	
727	0	32708	32594	32815	32823	32739	32803	32749	32647	
728	0	32763	32687	32738	32647	32855	32751	32783	32671	
729	0	32780	32559	32785	32786	32631	32773	32805	32556	
730	0	32744	32461	32693	32801	32841	32789	32709	32637	
731	0	32796	32567	32751	32557	32839	32738	32803	32715	
732	0	32807	32789	32729	32723	32677	32802	32863	32605	
733	0	32811	32707	32543	32655	32737	32807	32775	32573	
734	0	32829	32721	32543	32708	32803	32743	32803	32791	
735	0	32839	32623	32614	32775	32829	32750	32797	32737	
736	0	32763	32565	32711	32726	32707	32773	32625	32756	
737	0	32793	32517	32637	32739	32831	32711	32751	32742	
738	0	32730	32721	32667	32851	32711	32699	32791	32731	
739	0	32782	32683	32731	32581	32835	32757	32719	32772	
740	0	32785	32759	32700	32823	32679	32731	32734	32747	
741	0	32791	32755	32719	32887	32847	32724	32759	32745	
742	0	32840	32662	32787	32638	32731	32838	32698	32691	
743	0	32802	32487	32783	32807	32831	32743	32775	32719	
744	0	32782	32477	32666	32871	32629	32723	32749	32775	
745	0	32745	32759	32729	32647	32791	32773	32743	32583	
746	0	32711	32807	32721	32745	32687	32750	32806	32607	
747	0	32700	32681	32759	32823	32775	32806	32847	32707	
748	0	32782	32647	32727	32623	32621	32797	32695	32559	
749	0	32726	32742	32765	32813	32796	32775	32771	32581	
750	0	32767	32589	32663	32823	32765	32767	32775	32687	
751	0	32786	32550	32759	32647	32847	32829	32759	32604	
752	0	32754	32756	32702	32815	32679	32791	32797	32637	
753	0	32751	32681	32799	32615	32703	32810	32701	32703	
754	0	32703	32657	32885	32775	32822	32739	32773	32700	
755	0	32742	32655	32843	32631	32831	32795	32687	32573	
756	0	32742	32534	32757	32743	32688	32739	32817	32765	
757	0	32806	32604	32711	32835	32813	32759	32751	32708	
758	0	32787	32583	32706	32626	32703	32775	32731	32775	
759	0	32751	32789	32735	32753	32819	32803	32759	32591	
760	0	32783	32791	32885	32901	32795	32711	32791	32615	
761	0	32775	32647	32807	32663	32677	32767	32722	32726	
762	0	32762	32724	32823	32783	32615	32731	32775	32735	
763	0	32832	32715	32759	32879	32818	32719	32756	32615	
764	0	32887	32671	32686	32801	32743	32679	32685	32875	
765	0	32879	32685	32785	32821	32799	32695	32740	32775	
766	0	32921	32743	32751	32807	32787	32615	32637	32827	
767	0	32826	32711	32817	32677	32757	32670	32549	32783	
768	0	32866	32724	32751	32767	32878	32759	32647	32775	
769	0	32927	32663	32751	32827	32783	32703	32702	32861	
770	0	32837	32694	32719	32551	32854	32647	32599	32775	
771	0	32919	32827	32642	32663	32893	32775	32743	32834	
772	0	32975	32823	32444	32729	32711	32793	32694	32749	
773	0	33047	32805	32421	32519	32903	32719	32763	32636	
774	0	33105	32807	32495	32715	32835	32735	32767	32727	
775	0	33043	32765	32576	32807	32753	32783	32767	32690	
776	0	33025	32751	32594	32482	32858	32775	32769	32729	
777	0	32965	32759	32615	32730	32753	32687	32775	32535	
778	0	32989	32829	32605	32826	32887	32743	32819	32634	
779	0	33017	32743	32554	32543	32775	32805	32647	32764	
780	0	33047	32749	32569	32655	32825	32767	32647	32706	
781	0	33082	32685	32566	32711	32847	32735	32755	32747	
782	0	33109	32443	32587	32511	32706	32817	32741	32528	
783	0	33068	32386	32655	32671	32855	32879	32765	32547	
784	0	33154	32329	32467	32599	32883	32813	32755	32694	
785	0	33157	32284	32367	32375	32903	32803	32721	32647	
786	0	33071	32351	32423	32412	32789	32845	32655	32731	
787	0	33062	32309	32327	32495	32847	32910	32743	32598	
788	0	33028	32295	32255	32540	32973	32781	32747	32613	
789	0	32902	32391	32418	32251	32839	32820	32679	32719	
790	0	32884	32439	32543	32503	32973	32859	32725	32679	
791	0	32771	32327	32559	32359	32823	32825	32739	32557	
792	0	32671	32189	32607	32483	32834	32900	32700	32714	
793	0	32598	32195	32626	32623	32642	32847	32709	32763	
794	0	32570	32159	32598	32455	32763	32847	32903	32613	
795	0	32575	32142	32487	32775	32639	32815	32893	32479	
796	0	32565	32369	32566	32935	32626	32807	33077	32231	
797	0	32604	32391	32655	32799	32527	32870	33195	32203	
798	0	32601	32343	32607	32975	32431	32887	33135	32244	
799	0	32487	32293	32689	33002	32511	32855	33215	32207	
800	0	32391	32247	32771	32815	32510	32916	33221	32169	
801	0	32304	32377	32903	32999	32463	32923	33167	32252	
802	0	32178	32383	32919	33089	32329	32895	33234	32281	
803	0	32041	32431	33065	33063	32379	32903	33151	32375	
804	0	32025	32475	32927	32949	32449	32791	33014	32215	
805	0	32052	32519	32943	33055	32373	32807	33053	32431	
806	0	31997	32621	33177	33169	32498	32775	33073	32547	
807	0	31945	32671	33275	32958	32551	32829	32996	32405	
808	0	31993	32743	33327	33143	32369	32731	33052	32479	
809	0	31966	32999	33399	33263	32353	32711	33106	32335	
810	0	32070	32959	33487	33047	32407	32767	32977	32491	
811	0	32159	32993	33287	33155	32447	32722	32999	32479	
812	0	32391	33061	33141	33087	32447	32634	32915	32685	
813	0	32494	33213	33207	32967	32725	32701	32679	32582	
814	0	32563	33237	33195	32732	32795	32660	32562	32815	
815	0	32582	33139	33191	32894	32647	32615	32519	32951	
816	0	32676	33213	33071	32799	32967	32642	32385	33087	
817	0	32725	33095	33083	33035	32937	32607	32343	32943	
818	0	32683	33277	33015	32981	33085	32559	32315	33125	
819	0	32653	33159	32931	32665	32828	32635	32351	33023	
820	0	32590	32949	32871	32887	32967	32631	32489	32962	
821	0	32546	32967	32695	32743	32866	32639	32551	32871	
822	0	32660	32951	32621	32720	32987	32647	32470	32983	
823	0	32841	33013	32571	32749	32903	32695	32566	32953	
824	0	32893	32927	32515	32710	32974	32727	32543	32962	
825	0	32978	32878	32468	32667	32933	32658	32597	32877	
826	0	32997	32875	32525	32756	32851	32692	32591	32991	
827	0	33009	32719	32479	32525	32875	32655	32601	32854	
828	0	32993	32715	32541	32698	32955	32695	32541	32935	
829	0	32995	32919	32511	32790	32995	32719	32563	32791	
830	0	33001	32877	32438	32543	32813	32674	32647	32895	
831	0	32979	32871	32541	32629	32943	32710	32587	33037	
832	0	33011	32817	32628	32676	32999	32763	32583	32931	
833	0	33000	32703	32623	32607	32739	32715	32601	32843	
834	0	32916	32662	32694	32399	32839	32759	32703	32661	
835	0	32940	32699	32519	32639	32903	32729	32711	32669	
836	0	32937	32678	32535	32700	32887	32757	32725	32642	
837	0	32930	32535	32583	32677	32855	32791	32797	32621	
838	0	32885	32487	32681	32554	32710	32799	32698	32802	
839	0	32873	32455	32542	32727	32869	32839	32751	32725	
840	0	32917	32607	32588	32839	32871	32797	32781	32700	
841	0	32894	32705	32667	32599	32647	32761	32807	32708	
842	0	32871	32645	32647	32677	32893	32811	32751	32525	
843	0	32873	32629	32726	32819	32799	32801	32783	32661	
844	0	32902	32575	32674	32535	32753	32756	32815	32743	
845	0	32900	32647	32628	32736	32775	32747	32845	32675	
846	0	32837	32568	32629	32803	32787	32771	32733	32791	
847	0	32826	32679	32745	32694	32615	32863	32727	32687	
848	0	32787	32635	32741	32615	32785	32829	32791	32502	
849	0	32801	32637	32671	32757	32773	32758	32807	32538	
850	0	32812	32647	32593	32831	32615	32732	32852	32663	
851	0	32860	32659	32727	32591	32759	32775	32743	32606	
852	0	32826	32692	32635	32642	32797	32767	32700	32517	
853	0	32818	32687	32655	32785	32630	32742	32823	32573	
854	0	32769	32583	32773	32587	32815	32775	32843	32490	
855	0	32765	32679	32749	32717	32721	32803	32764	32623	
856	0	32809	32455	32755	32821	32799	32775	32843	32693	
857	0	32864	32423	32483	32535	32679	32780	32869	32667	
858	0	32864	32475	32545	32679	32762	32807	32739	32519	
859	0	32795	32519	32714	32846	32783	32850	32735	32575	
860	0	32783	32749	32708	32645	32647	32785	32891	32629	
861	0	32815	32707	32697	32806	32767	32764	32772	32748	
862	0	32765	32674	32726	32893	32703	32781	32825	32647	
863	0	32737	32636	32631	32563	32807	32703	32879	32627	
864	0	32720	32698	32737	32738	32643	32725	32694	32635	
865	0	32749	32677	32802	32715	32751	32751	32775	32647	
866	0	32698	32587	32875	32795	32707	32719	32775	32525	
867	0	32807	32551	32813	32835	32859	32819	32775	32711	
868	0	32770	32743	32867	32783	32681	32805	32863	32633	
869	0	32766	32663	32615	32852	32758	32751	32764	32615	
870	0	32791	32690	32724	32619	32828	32747	32855	32677	
871	0	32834	32583	32732	32732	32723	32741	32695	32633	
872	0	32844	32543	32573	32575	32810	32807	32791	32733	
873	0	32762	32577	32585	32694	32841	32711	32863	32559	
874	0	32765	32721	32601	32771	32769	32743	32715	32732	
875	0	32797	32748	32745	32563	32721	32791	32837	32643	
876	0	32831	32702	32727	32734	32783	32733	32823	32734	
877	0	32775	32581	32627	32719	32643	32757	32685	32547	
878	0	32759	32606	32679	32817	32727	32791	32754	32623	
879	0	32752	32629	32775	32841	32759	32823	32743	32755	
880	0	32732	32610	32647	32751	32814	32739	32811	32709	
881	0	32708	32623	32615	32783	32845	32735	32679	32687	
882	0	32721	32627	32731	32767	32763	32775	32846	32647	
883	0	32742	32677	32855	32871	32775	32803	32775	32593	
884	0	32751	32749	32846	32711	32775	32751	32861	32543	
885	0	32720	32671	32787	32844	32645	32754	32695	32702	
886	0	32737	32527	32775	32813	32821	32774	32817	32676	
887	0	32764	32495	32540	32571	32695	32703	32799	32732	
888	0	32775	32539	32609	32727	32797	32751	32775	32564	
889	0	32743	32789	32715	32691	32749	32814	32826	32732	
890	0	32809	32749	32738	32685	32803	32804	32839	32697	
891	0	32761	32621	32559	32743	32751	32745	32739	32719	
892	0	32799	32663	32593	32631	32791	32738	32749	32617	
893	0	32778	32627	32596	32766	32871	32818	32734	32677	
894	0	32812	32666	32569	32847	32717	32710	32711	32782	
895	0	32780	32738	32635	32582	32751	32759	32700	32684	
896	0	32790	32765	32743	32807	32811	32839	32715	32676	
897	0	32775	32697	32699	32885	32601	32775	32836	32631	
898	0	32765	32674	32647	32534	32783	32769	32709	32566	
899	0	32758	32667	32615	32711	32773	32769	32735	32741	
900	0	32785	32559	32729	32867	32673	32863	32775	32679	
901	0	32837	32507	32805	32647	32859	32735	32815	32691	
902	0	32789	32631	32703	32763	32879	32749	32727	32571	
903	0	32751	32685	32743	32871	32827	32775	32743	32659	
904	0	32729	32668	32833	32644	32802	32759	32819	32739	
905	0	32748	32663	32661	32805	32756	32724	32719	32707	
906	0	32805	32727	32687	32877	32791	32727	32775	32527	
907	0	32753	32613	32735	32745	32639	32799	32786	32711	
908	0	32787	32631	32775	32726	32731	32706	32754	32687	
909	0	32813	32596	32710	32863	32791	32739	32741	32671	
910	0	32807	32551	32837	32671	32822	32763	32717	32690	
911	0	32768	32581	32763	32799	32679	32791	32723	32609	
912	0	32773	32597	32715	32787	32773	32715	32786	32775	
913	0	32788	32837	32726	32623	32696	32727	32863	32727	
914	0	32748	32663	32775	32758	32823	32767	32863	32647	
915	0	32766	32683	32657	32827	32838	32751	32709	32543	
916	0	32825	32622	32591	32533	32820	32775	32815	32647	
917	0	32799	32575	32718	32705	32809	32803	32825	32655	
918	0	32762	32543	32613	32855	32749	32700	32775	32647	
919	0	32756	32761	32663	32631	32809	32766	32807	32596	
920	0	32722	32743	32685	32763	32633	32855	32811	32772	
921	0	32729	32702	32769	32821	32879	32791	32839	32677	
922	0	32801	32775	32757	32771	32791	32722	32719	32769	
923	0	32756	32735	32740	32647	32735	32748	32845	32631	
924	0	32708	32623	32647	32751	32574	32749	32844	32660	
925	0	32733	32685	32659	32727	32789	32787	32759	32647	
926	0	32722	32629	32687	32785	32831	32775	32799	32647	
927	0	32739	32501	32581	32815	32791	32732	32703	32587	
928	0	32760	32431	32685	32706	32703	32719	32743	32700	
929	0	32727	32719	32727	32677	32731	32735	32815	32759	
930	0	32744	32727	32735	32719	32843	32743	32759	32617	
931	0	32803	32701	32757	32655	32759	32767	32814	32671	
932	0	32772	32655	32765	32527	32655	32783	32759	32679	
933	0	32749	32671	32677	32845	32821	32700	32787	32694	
934	0	32767	32684	32562	32836	32749	32714	32710	32639	
935	0	32775	32725	32587	32573	32796	32823	32771	32551	
936	0	32771	32580	32700	32802	32679	32731	32775	32691	
937	0	32775	32463	32755	32749	32839	32807	32681	32759	
938	0	32732	32758	32747	32727	32801	32843	32775	32551	
939	0	32767	32647	32734	32854	32795	32757	32740	32703	
940	0	32764	32735	32689	32583	32773	32849	32839	32636	
941	0	32730	32667	32740	32767	32723	32749	32764	32711	
942	0	32703	32500	32799	32914	32743	32695	32663	32569	
943	0	32732	32773	32742	32623	32745	32821	32751	32695	
944	0	32733	32681	32873	32755	32806	32759	32841	32678	
945	0	32702	32641	32790	32843	32615	32791	32791	32621	
946	0	32758	32660	32737	32715	32855	32743	32793	32623	
947	0	32750	32775	32732	32811	32757	32643	32799	32740	
948	0	32730	32647	32903	32603	32747	32739	32696	32630	
949	0	32754	32587	32891	32749	32683	32823	32795	32628	
950	0	32847	32615	32711	32792	32788	32771	32761	32463	
951	0	32815	32835	32756	32575	32831	32765	32675	32749	
952	0	32784	32724	32643	32766	32843	32775	32787	32695	
953	0	32748	32685	32647	32895	32733	32757	32743	32773	
954	0	32780	32647	32561	32571	32658	32743	32717	32531	
955	0	32839	32681	32603	32690	32826	32713	32711	32722	
956	0	32780	32571	32597	32630	32814	32747	32793	32726	
957	0	32738	32749	32635	32735	32755	32711	32710	32623	
958	0	32786	32633	32617	32689	32787	32767	32742	32709	
959	0	32780	32615	32658	32759	32827	32804	32761	32647	
960	0	32749	32628	32743	32901	32671	32749	32749	32487	
961	0	32745	32679	32775	32675	32783	32759	32789	32727	
962	0	32773	32639	32815	32797	32707	32805	32762	32683	
963	0	32732	32529	32797	32854	32742	32735	32748	32706	
964	0	32697	32575	32705	32693	32579	32775	32811	32603	
965	0	32773	32788	32671	32795	32767	32807	32799	32671	
966	0	32807	32827	32647	32820	32751	32719	32747	32747	
967	0	32823	32641	32756	32655	32837	32775	32809	32745	
968	0	32759	32582	32741	32756	32757	32766	32822	32487	
969	0	32750	32722	32773	32887	32647	32756	32687	32852	
970	0	32818	32613	32647	32597	32815	32751	32775	32775	
971	0	32802	32581	32590	32659	32786	32797	32733	32677	
972	0	32820	32581	32559	32799	32837	32687	32655	32564	
973	0	32722	32574	32627	32727	32707	32706	32834	32717	
974	0	32738	32719	32684	32751	32783	32775	32847	32623	
975	0	32742	32775	32719	32751	32903	32721	32719	32671	
976	0	32756	32663	32755	32581	32833	32836	32787	32647	
977	0	32751	32626	32663	32735	32853	32725	32703	32647	
978	0	32785	32671	32715	32869	32615	32759	32785	32644	
979	0	32735	32595	32863	32615	32667	32745	32855	32455	
980	0	32748	32557	32887	32829	32819	32719	32757	32564	
981	0	32709	32479	32763	32922	32742	32837	32838	32609	
982	0	32743	32747	32754	32663	32759	32855	32799	32567	
983	0	32735	32631	32755	32786	32643	32743	32775	32771	
984	0	32738	32595	32615	32836	32775	32786	32803	32710	
985	0	32759	32692	32783	32634	32740	32767	32839	32743	
986	0	32756	32719	32829	32771	32807	32743	32607	32566	
987	0	32751	32607	32745	32667	32775	32815	32663	32838	
988	0	32726	32549	32708	32731	32718	32677	32711	32839	
989	0	32728	32532	32670	32743	32795	32733	32615	32891	
990	0	32773	32773	32711	32567	32822	32839	32742	32716	
991	0	32742	32639	32626	32711	32830	32743	32743	32829	
992	0	32817	32707	32551	32783	32743	32771	32663	32869	
993	0	32823	32715	32711	32719	32647	32767	32714	32647	
994	0	32788	32667	32745	32681	32899	32699	32827	32735	
995	0	32873	32543	32628	32663	32801	32793	32715	32755	
996	0	32855	32643	32691	32741	32831	32738	32791	32626	
997	0	32827	32791	32701	32868	32842	32799	32812	32583	
998	0	32751	32678	32660	32557	32677	32775	32756	32574	
999	0	32729	32685	32735	32802	32775	32739	32807	32617	
1000	0	32759	32655	32757	32715	32716	32731	32877	32439	
1001	0	32796	32703	32749	32775	32847	32745	32769	32623	
1002	0	32708	32717	32711	32839	32709	32775	32783	32612	
1003	0	32711	32595	32689	32567	32607	32823	32791	32613	
1004	0	32738	32551	32562	32758	32771	32868	32751	32487	
1005	0	32761	32549	32747	32828	32815	32751	32757	32714	
1006	0	32736	32775	32821	32663	32759	32809	32839	32647	
1007	0	32741	32742	32826	32812	32700	32831	32743	32690	
1008	0	32812	32679	32711	32935	32819	32743	32807	32559	
1009	0	32804	32615	32754	32670	32783	32751	32830	32740	
1010	0	32737	32604	32711	32787	32783	32747	32747	32663	
1011	0	32773	32647	32683	32743	32771	32705	32828	32719	
1012	0	32740	32623	32617	32685	32799	32701	32822	32540	
1013	0	32730	32463	32751	32679	32791	32827	32671	32732	
1014	0	32760	32541	32715	32694	32715	32727	32773	32659	
1015	0	32780	32775	32711	32707	32767	32737	32753	32639	
1016	0	32783	32749	32719	32617	32799	32791	32767	32575	
1017	0	32759	32647	32652	32783	32819	32796	32685	32740	
1018	0	32738	32623	32663	32689	32815	32773	32765	32687	
1019	0	32738	32717	32619	32783	32647	32815	32718	32629	
1020	0	32713	32643	32679	32903	32773	32732	32791	32610	
1021	0	32741	32583	32815	32591	32773	32819	32789	32668	
1022	0	32749	32517	32793	32823	32645	32791	32831	32684	
1023	0	32797	32574	32597	32879	32758	32815	32667	32724	
1024	0	32709	32543	32661	32751	32732	32709	32775	32663	
1025	0	32754	32617	32765	32550	32647	32756	32823	32567	
1026	0	32788	32679	32637	32734	32757	32767	32791	32637	
1027	0	32757	32674	32747	32847	32801	32775	32723	32681	
1028	0	32786	32671	32571	32582	32787	32706	32719	32695	
1029	0	32783	32614	32591	32703	32636	32717	32811	32709	
1030	0	32794	32759	32657	32743	32827	32809	32813	32532	
1031	0	32769	32698	32635	32758	32727	32809	32703	32593	
1032	0	32775	32567	32729	32540	32883	32743	32711	32769	
1033	0	32804	32479	32559	32711	32727	32671	32767	32679	
1034	0	32775	32587	32583	32771	32839	32775	32835	32799	
1035	0	32789	32609	32615	32587	32747	32767	32695	32590	
1036	0	32813	32775	32735	32772	32806	32735	32823	32599	
1037	0	32823	32757	32821	32806	32671	32715	32759	32783	
1038	0	32781	32719	32631	32854	32751	32764	32765	32775	
1039	0	32837	32766	32567	32575	32845	32775	32727	32775	
1040	0	32778	32762	32743	32850	32655	32763	32745	32775	
1041	0	32741	32771	32815	32917	32833	32727	32695	32646	
1042	0	32775	32815	32739	32844	32789	32719	32751	32647	
1043	0	32812	32727	32719	32659	32689	32767	32694	32772	
1044	0	32732	32695	32740	32831	32697	32749	32767	32699	
1045	0	32717	32671	32731	32903	32815	32743	32839	32687	
1046	0	32737	32717	32711	32605	32802	32746	32679	32503	
1047	0	32760	32719	32799	32775	32723	32763	32725	32647	
1048	0	32708	32563	32799	32841	32647	32754	32799	32635	
1049	0	32783	32531	32807	32626	32805	32813	32727	32621	
1050	0	32747	32764	32711	32758	32726	32743	32807	32725	
1051	0	32751	32701	32657	32711	32811	32733	32805	32726	
1052	0	32751	32663	32679	32711	32693	32765	32679	32691	
1053	0	32820	32703	32570	32767	32893	32697	32743	32565	
1054	0	32827	32607	32614	32551	32681	32759	32797	32708	
1055	0	32758	32743	32692	32689	32813	32791	32757	32743	
1056	0	32801	32626	32647	32705	32695	32695	32775	32613	
1057	0	32737	32587	32678	32603	32799	32765	32814	32559	
1058	0	32760	32719	32741	32751	32751	32805	32754	32676	
1059	0	32764	32557	32725	32686	32839	32791	32833	32671	
1060	0	32730	32551	32695	32748	32621	32839	32787	32539	
1061	0	32735	32628	32695	32901	32619	32815	32781	32681	
1062	0	32698	32567	32707	32631	32709	32743	32903	32709	
1063	0	32714	32702	32775	32797	32718	32775	32745	32503	
1064	0	32710	32669	32843	32887	32806	32758	32807	32591	
1065	0	32701	32541	32839	32903	32643	32767	32787	32663	
1066	0	32731	32807	32767	32962	32797	32815	32831	32539	
1067	0	32695	32683	32681	32757	32775	32759	32797	32695	
1068	0	32833	32711	32628	32876	32759	32827	32736	32727	
1069	0	32762	32660	32740	32575	32845	32709	32789	32631	
1070	0	32799	32607	32742	32775	32834	32759	32709	32724	
1071	0	32780	32811	32679	32847	32755	32855	32815	32671	
1072	0	32783	32757	32771	32596	32794	32758	32843	32551	
1073	0	32775	32763	32647	32771	32807	32791	32789	32532	
1074	0	32754	32731	32631	32772	32677	32831	32767	32639	
1075	0	32756	32663	32611	32647	32835	32719	32807	32599	
1076	0	32804	32732	32791	32791	32706	32739	32815	32567	
1077	0	32769	32697	32773	32567	32791	32838	32801	32583	
1078	0	32775	32695	32655	32655	32707	32733	32711	32711	
1079	0	32816	32727	32677	32775	32795	32775	32749	32775	
1080	0	32786	32759	32711	32859	32804	32743	32775	32748	
1081	0	32739	32636	32751	32725	32727	32761	32771	32743	
1082	0	32740	32669	32775	32775	32743	32670	32727	32629	
1083	0	32742	32695	32714	32807	32739	32690	32775	32611	
1084	0	32736	32647	32754	32629	32647	32773	32762	32807	
1085	0	32786	32545	32735	32730	32771	32748	32663	32733	
1086	0	32724	32562	32762	32739	32755	32757	32706	32699	
1087	0	32748	32573	32661	32775	32679	32773	32743	32511	
1088	0	32788	32727	32708	32665	32787	32813	32647	32811	
1089	0	32857	32767	32747	32787	32757	32677	32749	32749	
1090	0	32835	32729	32699	32845	32812	32743	32835	32775	
1091	0	32787	32711	32699	32582	32831	32751	32715	32701	
1092	0	32788	32743	32647	32745	32801	32647	32739	32662	
1093	0	32743	32670	32630	32726	32830	32749	32871	32711	
1094	0	32724	32642	32847	32609	32639	32839	32835	32663	
1095	0	32751	32595	32754	32762	32691	32855	32767	32692	
1096	0	32740	32623	32715	32775	32863	32825	32858	32514	
1097	0	32776	32725	32678	32631	32636	32763	32781	32631	
1098	0	32717	32543	32721	32766	32711	32775	32751	32715	
1099	0	32769	32575	32679	32791	32749	32749	32823	32701	
1100	0	32749	32747	32773	32589	32767	32785	32723	32615	
1101	0	32745	32701	32735	32793	32811	32741	32803	32687	
1102	0	32775	32635	32623	32669	32658	32755	32705	32727	
1103	0	32754	32687	32631	32935	32835	32679	32763	32613	
1104	0	32756	32645	32749	32887	32758	32759	32756	32695	
1105	0	32748	32431	32751	32597	32755	32803	32791	32711	
1106	0	32712	32534	32758	32823	32595	32757	32805	32579	
1107	0	32686	32567	32667	32853	32765	32713	32727	32676	
1108	0	32720	32751	32839	32598	32715	32823	32783	32623	
1109	0	32731	32759	32775	32767	32755	32769	32835	32662	
1110	0	32726	32787	32675	32871	32755	32763	32756	32631	
1111	0	32730	32748	32847	32612	32773	32694	32863	32523	
1112	0	32767	32791	32714	32758	32743	32734	32823	32700	
1113	0	32771	32759	32763	32829	32827	32763	32772	32669	
1114	0	32725	32686	32599	32751	32807	32711	32717	32661	
1115	0	32750	32703	32671	32815	32823	32742	32743	32607	
1116	0	32769	32647	32767	32806	32837	32773	32813	32607	
1117	0	32762	32679	32771	32623	32660	32775	32719	32711	
1118	0	32749	32668	32758	32775	32812	32781	32815	32748	
1119	0	32754	32565	32687	32867	32676	32819	32751	32599	
1120	0	32769	32439	32716	32526	32831	32786	32753	32755	
1121	0	32765	32755	32687	32811	32743	32839	32829	32655	
1122	0	32751	32644	32703	32580	32789	32751	32832	32646	
1123	0	32747	32727	32639	32887	32689	32671	32751	32588	
1124	0	32795	32679	32743	32903	32819	32733	32795	32595	
1125	0	32791	32747	32713	32671	32783	32829	32669	32765	
1126	0	32791	32790	32647	32703	32605	32870	32751	32679	
1127	0	32764	32471	32658	32797	32830	32745	32767	32687	
1128	0	32743	32589	32663	32610	32818	32727	32717	32617	
1129	0	32732	32671	32647	32773	32829	32769	32847	32751	
1130	0	32764	32646	32591	32654	32673	32679	32702	32615	
1131	0	32824	32676	32647	32745	32823	32707	32806	32684	
1132	0	32806	32707	32674	32845	32815	32773	32831	32559	
1133	0	32797	32538	32687	32559	32761	32767	32661	32681	
1134	0	32799	32503	32591	32719	32826	32757	32791	32703	
1135	0	32761	32551	32549	32799	32825	32727	32759	32738	
1136	0	32790	32587	32655	32675	32791	32723	32693	32583	
1137	0	32831	32775	32829	32775	32663	32757	32801	32743	
1138	0	32801	32757	32823	32933	32795	32761	32735	32647	
1139	0	32753	32611	32722	32543	32711	32743	32799	32549	
1140	0	32754	32527	32775	32663	32647	32740	32727	32563	
1141	0	32701	32575	32605	32783	32851	32743	32838	32739	
1142	0	32743	32583	32715	32885	32806	32807	32703	32679	
1143	0	32767	32706	32775	32609	32679	32747	32790	32775	
1144	0	32708	32711	32796	32763	32835	32734	32845	32566	
1145	0	32692	32580	32775	32791	32683	32813	32710	32730	
1146	0	32827	32525	32559	32583	32805	32695	32827	32677	
1147	0	32758	32767	32599	32823	32647	32735	32789	32647	
1148	0	32735	32687	32727	32751	32830	32829	32677	32709	
1149	0	32748	32679	32817	32614	32825	32767	32767	32727	
1150	0	32788	32699	32742	32731	32711	32796	32827	32706	
1151	0	32829	32687	32756	32735	32799	32759	32759	32607	
1152	0	32780	32759	32693	32711	32738	32773	32855	32741	
1153	0	32793	32647	32655	32699	32775	32741	32859	32623	
1154	0	32808	32519	32623	32609	32642	32813	32700	32578	
1155	0	32769	32708	32591	32796	32775	32701	32748	32749	
1156	0	32798	32727	32715	32903	32813	32729	32734	32647	
1157	0	32772	32717	32742	32641	32851	32775	32727	32711	
1158	0	32783	32775	32773	32775	32647	32759	32751	32591	
1159	0	32771	32711	32814	32783	32813	32727	32835	32767	
1160	0	32751	32638	32635	32647	32887	32727	32745	32718	
1161	0	32809	32703	32711	32745	32726	32757	32791	32783	
1162	0	32756	32519	32723	32795	32769	32807	32799	32607	
1163	0	32790	32535	32695	32671	32823	32715	32727	32729	
1164	0	32788	32574	32739	32685	32647	32775	32734	32665	
1165	0	32790	32783	32690	32855	32635	32773	32807	32591	
1166	0	32756	32660	32681	32549	32783	32735	32791	32719	
1167	0	32813	32663	32565	32767	32775	32829	32799	32709	
1168	0	32754	32659	32730	32715	32797	32673	32647	32730	
1169	0	32791	32725	32695	32799	32741	32735	32709	32677	
1170	0	32802	32538	32629	32731	32817	32687	32647	32685	
1171	0	32802	32591	32695	32716	32755	32823	32791	32642	
1172	0	32754	32723	32703	32735	32764	32807	32807	32534	
1173	0	32783	32738	32707	32743	32690	32831	32636	32764	
1174	0	32823	32727	32677	32698	32836	32794	32749	32707	
1175	0	32770	32647	32677	32751	32811	32807	32827	32560	
1176	0	32751	32671	32659	32567	32829	32694	32775	32754	
1177	0	32818	32573	32679	32717	32631	32721	32795	32687	
1178	0	32738	32598	32751	32792	32815	32814	32759	32518	
1179	0	32706	32699	32631	32793	32789	32735	32764	32711	
1180	0	32763	32699	32703	32830	32743	32790	32735	32727	
1181	0	32791	32723	32692	32707	32647	32769	32695	32575	
1182	0	32705	32551	32725	32747	32831	32711	32807	32735	
1183	0	32673	32534	32679	32903	32741	32759	32677	32713	
1184	0	32753	32534	32769	32647	32767	32767	32775	32578	
1185	0	32775	32791	32775	32707	32671	32743	32839	32719	
1186	0	32767	32783	32839	32837	32863	32759	32677	32694	
1187	0	32780	32767	32767	32587	32775	32837	32745	32775	
1188	0	32721	32691	32661	32803	32693	32748	32797	32562	
1189	0	32741	32668	32617	32967	32885	32731	32701	32695	
1190	0	32743	32564	32603	32637	32749	32795	32773	32611	
1191	0	32737	32679	32647	32759	32783	32802	32806	32671	
1192	0	32805	32692	32709	32801	32846	32747	32741	32526	
1193	0	32719	32621	32686	32548	32791	32738	32743	32699	
1194	0	32780	32587	32783	32723	32806	32852	32891	32725	
1195	0	32727	32551	32647	32739	32647	32749	32787	32663	
1196	0	32759	32807	32661	32795	32869	32783	32795	32775	
1197	0	32711	32665	32711	32823	32754	32817	32782	32647	
1198	0	32734	32581	32745	32733	32793	32679	32707	32751	
1199	0	32756	32602	32775	32606	32794	32685	32743	32590	
1200	0	32690	32647	32717	32743	32743	32730	32773	32595	
1201	0	32746	32719	32691	32813	32820	32788	32765	32762	
1202	0	32783	32537	32615	32767	32661	32685	32743	32764	
1203	0	32798	32754	32663	32855	32767	32813	32835	32595	
1204	0	32756	32685	32807	32673	32673	32735	32647	32717	
1205	0	32745	32619	32709	32818	32791	32719	32734	32685	
1206	0	32773	32710	32663	32805	32735	32805	32739	32487	
1207	0	32745	32663	32721	32786	32795	32722	32743	32747	
1208	0	32725	32554	32787	32823	32838	32763	32825	32759	
1209	0	32758	32597	32670	32577	32786	32799	32724	32623	
1210	0	32768	32647	32729	32764	32791	32711	32742	32731	
1211	0	32797	32663	32695	32731	32675	32789	32740	32690	
1212	0	32828	32767	32781	32764	32799	32729	32751	32508	
1213	0	32784	32631	32775	32743	32799	32723	32804	32735	
1214	0	32788	32539	32765	32603	32821	32811	32719	32765	
1215	0	32773	32835	32743	32725	32767	32758	32822	32603	
1216	0	32749	32749	32774	32671	32621	32754	32663	32748	
1217	0	32735	32679	32743	32743	32769	32772	32775	32735	
1218	0	32716	32610	32615	32903	32801	32766	32757	32501	
1219	0	32836	32751	32647	32738	32699	32775	32719	32733	
1220	0	32791	32698	32663	32791	32773	32745	32775	32647	
1221	0	32734	32517	32639	32837	32719	32692	32745	32589	
1222	0	32756	32559	32775	32590	32799	32759	32751	32719	
1223	0	32813	32757	32749	32747	32786	32751	32870	32669	
1224	0	32723	32684	32735	32663	32659	32757	32727	32519	
1225	0	32799	32621	32727	32726	32807	32831	32771	32700	
1226	0	32804	32734	32695	32763	32795	32756	32854	32700	
1227	0	32769	32723	32699	32638	32661	32733	32733	32701	
1228	0	32795	32503	32711	32767	32873	32743	32732	32587	
1229	0	32759	32519	32764	32903	32765	32796	32815	32789	
1230	0	32763	32493	32687	32607	32825	32725	32757	32695	
1231	0	32775	32727	32767	32740	32627	32771	32815	32573	
1232	0	32775	32735	32583	32834	32858	32875	32807	32644	
1233	0	32807	32742	32567	32567	32787	32679	32749	32735	
1234	0	32783	32669	32599	32773	32622	32771	32724	32689	
1235	0	32746	32619	32695	32738	32730	32871	32819	32719	
1236	0	32696	32695	32775	32788	32742	32753	32837	32621	
1237	0	32748	32527	32753	32843	32775	32799	32771	32610	
1238	0	32800	32631	32773	32647	32607	32834	32830	32503	
1239	0	32816	32690	32743	32787	32773	32742	32807	32583	
1240	0	32781	32647	32741	32839	32797	32754	32683	32711	
1241	0	32775	32591	32817	32799	32791	32717	32767	32694	
1242	0	32759	32551	32695	32807	32868	32753	32743	32715	
1243	0	32750	32583	32743	32739	32740	32790	32727	32801	
1244	0	32748	32607	32731	32719	32751	32786	32802	32605	
1245	0	32726	32663	32685	32829	32798	32735	32759	32743	
1246	0	32740	32715	32725	32668	32711	32797	32751	32721	
1247	0	32788	32715	32687	32737	32887	32819	32751	32630	
1248	0	32797	32607	32647	32917	32801	32727	32703	32708	
1249	0	32785	32795	32695	32727	32833	32727	32671	32814	
1250	0	32789	32717	32729	32783	32731	32748	32583	32743	
1251	0	32814	32621	32771	32751	32783	32756	32687	32716	
1252	0	32815	32546	32727	32638	32799	32710	32711	32703	
1253	0	32773	32517	32580	32741	32773	32795	32767	32725	
1254	0	32717	32805	32663	32818	32631	32797	32771	32605	
1255	0	32751	32749	32587	32615	32828	32703	32829	32610	
1256	0	32764	32767	32721	32727	32902	32727	32735	32675	
1257	0	32763	32695	32775	32853	32687	32858	32810	32599	
1258	0	32734	32647	32775	32615	32804	32759	32867	32541	
1259	0	32723	32636	32741	32765	32735	32755	32742	32665	
1260	0	32729	32555	32814	32775	32852	32846	32775	32670	
1261	0	32787	32735	32725	32805	32628	32733	32835	32528	
1262	0	32806	32701	32565	32807	32799	32809	32735	32727	
1263	0	32727	32597	32599	32679	32703	32895	32839	32609	
1264	0	32734	32671	32676	32709	32771	32743	32833	32585	
1265	0	32726	32671	32767	32727	32759	32749	32818	32581	
1266	0	32741	32647	32711	32837	32775	32711	32738	32783	
1267	0	32749	32729	32775	32679	32791	32773	32827	32732	
1268	0	32719	32583	32679	32785	32711	32756	32814	32751	
1269	0	32790	32509	32743	32799	32775	32725	32815	32582	
1270	0	32838	32541	32743	32687	32767	32775	32732	32695	
1271	0	32805	32519	32775	32581	32844	32782	32762	32709	
1272	0	32793	32581	32629	32749	32835	32831	32795	32647	
1273	0	32767	32689	32564	32775	32809	32709	32807	32734	
1274	0	32815	32759	32732	32674	32835	32711	32747	32543	
1275	0	32748	32727	32663	32759	32735	32764	32743	32673	
1276	0	32765	32751	32748	32727	32749	32791	32807	32703	
1277	0	32755	32719	32583	32748	32810	32767	32770	32722	
1278	0	32739	32743	32719	32903	32740	32751	32715	32737	
1279	0	32763	32567	32727	32675	32655	32719	32863	32620	
1280	0	32735	32570	32627	32668	32767	32748	32799	32585	
1281	0	32783	32551	32795	32789	32795	32773	32671	32535	
1282	0	32809	32581	32707	32807	32831	32787	32764	32735	
1283	0	32792	32549	32747	32802	32851	32855	32791	32719	
1284	0	32734	32583	32692	32599	32611	32852	32867	32645	
1285	0	32743	32575	32749	32633	32679	32731	32780	32715	
1286	0	32747	32613	32842	32820	32751	32735	32729	32679	
1287	0	32724	32635	32837	32827	32647	32755	32841	32603	
1288	0	32756	32827	32703	32532	32743	32791	32775	32675	
1289	0	32718	32706	32755	32703	32821	32720	32735	32685	
1290	0	32788	32660	32811	32790	32705	32771	32687	32690	
1291	0	32765	32676	32671	32506	32817	32783	32703	32570	
1292	0	32785	32763	32669	32711	32855	32715	32727	32751	
1293	0	32825	32529	32582	32775	32838	32739	32731	32751	
1294	0	32783	32549	32541	32561	32714	32775	32766	32581	
1295	0	32684	32745	32581	32739	32851	32791	32775	32623	
1296	0	32746	32677	32754	32799	32795	32711	32785	32719	
1297	0	32729	32629	32733	32627	32834	32757	32795	32662	
1298	0	32738	32655	32695	32749	32767	32748	32782	32614	
1299	0	32722	32683	32726	32813	32751	32719	32807	32647	
1300	0	32735	32631	32647	32775	32781	32759	32684	32725	
1301	0	32743	32663	32597	32740	32739	32773	32823	32751	
1302	0	32742	32573	32743	32711	32615	32804	32817	32567	
1303	0	32756	32547	32791	32742	32845	32713	32789	32719	
1304	0	32759	32527	32775	32791	32773	32668	32717	32647	
1305	0	32792	32553	32679	32892	32655	32765	32727	32607	
1306	0	32703	32622	32807	32559	32743	32831	32775	32663	
1307	0	32733	32775	32765	32787	32745	32794	32861	32567	
1308	0	32756	32757	32821	32903	32795	32741	32727	32717	
1309	0	32793	32698	32631	32535	32625	32804	32735	32667	
1310	0	32775	32684	32662	32811	32863	32819	32727	32765	
1311	0	32775	32591	32748	32807	32803	32767	32829	32563	
1312	0	32775	32687	32699	32566	32799	32735	32685	32775	
1313	0	32738	32726	32763	32783	32837	32773	32757	32743	
1314	0	32772	32715	32599	32763	32775	32773	32839	32763	
1315	0	32746	32643	32551	32807	32881	32755	32799	32631	
1316	0	32791	32511	32719	32743	32684	32699	32787	32582	
1317	0	32759	32531	32791	32751	32877	32799	32685	32737	
1318	0	32775	32647	32839	32783	32767	32813	32757	32747	
1319	0	32761	32700	32759	32903	32763	32763	32850	32631	
1320	0	32686	32699	32671	32621	32805	32775	32727	32762	
1321	0	32799	32591	32705	32810	32625	32765	32837	32692	
1322	0	32775	32693	32679	32787	32766	32679	32807	32615	
1323	0	32800	32693	32623	32692	32703	32755	32658	32535	
1324	0	32775	32639	32677	32775	32805	32839	32773	32615	
1325	0	32836	32685	32747	32811	32803	32733	32759	32645	
1326	0	32797	32623	32673	32859	32787	32705	32793	32719	
1327	0	32763	32605	32647	32903	32759	32711	32683	32559	
1328	0	32795	32567	32657	32620	32661	32805	32679	32587	
1329	0	32828	32615	32563	32709	32862	32795	32739	32734	
1330	0	32815	32639	32669	32807	32729	32719	32726	32694	
1331	0	32743	32589	32679	32578	32813	32719	32689	32671	
1332	0	32839	32583	32738	32727	32740	32799	32791	32551	
1333	0	32769	32791	32759	32759	32775	32839	32799	32686	
1334	0	32799	32769	32787	32567	32815	32805	32836	32703	
1335	0	32797	32644	32719	32687	32671	32762	32719	32692	
1336	0	32723	32629	32647	32775	32773	32765	32703	32671	
1337	0	32772	32646	32687	32820	32686	32791	32783	32562	
1338	0	32734	32707	32713	32732	32839	32742	32851	32767	
1339	0	32654	32643	32719	32775	32695	32741	32775	32669	
1340	0	32679	32711	32645	32639	32793	32811	32713	32698	
1341	0	32735	32681	32647	32700	32789	32839	32772	32750	
1342	0	32738	32714	32702	32687	32605	32738	32812	32621	
1343	0	32775	32519	32839	32679	32802	32775	32679	32745	
1344	0	32727	32571	32877	32883	32751	32727	32723	32722	
1345	0	32751	32629	32855	32821	32771	32775	32789	32748	
1346	0	32736	32789	32835	32647	32627	32732	32807	32543	
1347	0	32739	32737	32775	32763	32751	32735	32834	32567	
1348	0	32775	32679	32642	32711	32821	32764	32726	32732	
1349	0	32743	32647	32695	32758	32743	32838	32801	32709	
1350	0	32775	32613	32767	32887	32743	32705	32863	32623	
1351	0	32836	32711	32783	32556	32823	32797	32735	32735	
1352	0	32808	32615	32687	32711	32756	32802	32763	32655	
1353	0	32806	32540	32510	32519	32831	32775	32759	32647	
1354	0	32815	32759	32433	32786	32679	32765	32771	32715	
1355	0	32792	32703	32461	32646	32647	32722	32823	32679	
1356	0	32775	32662	32601	32804	32891	32743	32703	32563	
1357	0	32759	32669	32687	32879	32813	32765	32786	32595	
1358	0	32763	32687	32727	32679	32783	32711	32823	32751	
1359	0	32740	32483	32724	32807	32711	32750	32733	32775	
1360	0	32711	32511	32783	32621	32767	32689	32769	32524	
1361	0	32751	32740	32759	32687	32667	32759	32679	32695	
1362	0	32751	32703	32827	32702	32759	32796	32805	32762	
1363	0	32738	32647	32671	32773	32691	32758	32842	32577	
1364	0	32796	32627	32675	32837	32803	32759	32677	32823	
1365	0	32756	32665	32718	32603	32755	32783	32763	32747	
1366	0	32771	32541	32802	32733	32831	32818	32748	32623	
1367	0	32775	32566	32844	32739	32647	32767	32743	32837	
1368	0	32735	32773	32791	32639	32767	32727	32742	32719	
1369	0	32724	32691	32738	32727	32767	32786	32717	32733	
1370	0	32764	32637	32658	32705	32831	32821	32807	32514	
1371	0	32780	32647	32683	32735	32679	32690	32813	32735	
1372	0	32759	32724	32711	32791	32811	32717	32786	32647	
1373	0	32750	32599	32641	32677	32863	32773	32749	32647	
1374	0	32802	32588	32724	32735	32667	32739	32774	32711	
1375	0	32817	32788	32819	32839	32775	32730	32829	32495	
1376	0	32808	32727	32561	32685	32835	32743	32773	32723	
1377	0	32813	32707	32577	32679	32775	32755	32815	32647	
1378	0	32762	32573	32714	32749	32732	32743	32869	32723	
1379	0	32740	32674	32687	32604	32805	32767	32711	32586	
1380	0	32713	32711	32765	32767	32731	32819	32749	32749	
1381	0	32705	32611	32743	32863	32814	32782	32791	32698	
1382	0	32720	32500	32757	32644	32685	32773	32711	32669	
1383	0	32689	32575	32646	32809	32700	32821	32749	32527	
1384	0	32711	32715	32657	32727	32750	32757	32819	32735	
1385	0	32831	32767	32812	32739	32871	32770	32671	32722	
1386	0	32751	32821	32748	32763	32655	32801	32692	32769	
1387	0	32707	32715	32723	32834	32788	32775	32719	32631	
1388	0	32757	32677	32647	32677	32745	32752	32847	32619	
1389	0	32807	32639	32583	32791	32775	32741	32747	32806	
1390	0	32758	32615	32795	32764	32860	32788	32759	32711	
1391	0	32775	32749	32743	32526	32771	32796	32787	32739	
1392	0	32772	32709	32773	32839	32871	32715	32783	32531	
1393	0	32775	32607	32662	32735	32676	32785	32805	32701	
1394	0	32786	32594	32671	32527	32738	32858	32867	32639	
1395	0	32759	32733	32743	32743	32767	32738	32774	32663	
1396	0	32733	32668	32702	32748	32644	32743	32763	32493	
1397	0	32738	32674	32738	32755	32751	32813	32799	32700	
1398	0	32796	32677	32734	32891	32833	32743	32685	32657	
1399	0	32755	32683	32694	32655	32802	32799	32827	32687	
1400	0	32765	32743	32659	32819	32604	32723	32759	32621	
1401	0	32735	32647	32698	32807	32911	32805	32639	32775	
1402	0	32742	32557	32757	32722	32799	32703	32705	32647	
1403	0	32740	32541	32775	32735	32827	32797	32743	32633	
1404	0	32741	32617	32789	32786	32660	32807	32658	32645	
1405	0	32772	32743	32685	32713	32803	32692	32731	32719	
1406	0	32746	32639	32639	32743	32804	32773	32813	32773	
1407	0	32758	32623	32703	32819	32775	32742	32699	32694	
1408	0	32728	32719	32701	32737	32757	32668	32703	32615	
1409	0	32758	32721	32749	32795	32695	32743	32803	32735	
1410	0	32775	32647	32709	32819	32799	32767	32785	32717	
1411	0	32814	32661	32623	32736	32641	32787	32738	32764	
1412	0	32783	32655	32727	32575	32783	32770	32854	32575	
1413	0	32717	32623	32775	32726	32831	32759	32804	32615	
1414	0	32763	32507	32679	32716	32703	32825	32687	32643	
1415	0	32745	32743	32682	32527	32623	32758	32830	32699	
1416	0	32797	32757	32665	32775	32772	32719	32835	32535	
1417	0	32786	32690	32603	32769	32765	32767	32706	32687	
1418	0	32719	32663	32559	32587	32855	32807	32807	32607	
1419	0	32767	32693	32548	32743	32775	32663	32798	32645	
1420	0	32765	32543	32693	32621	32813	32775	32687	32567	
1421	0	32739	32550	32788	32711	32852	32818	32706	32765	
1422	0	32753	32547	32827	32820	32615	32763	32707	32675	
1423	0	32766	32509	32607	32759	32751	32715	32879	32708	
1424	0	32791	32541	32635	32564	32887	32775	32813	32663	
1425	0	32742	32685	32775	32759	32769	32879	32690	32554	
1426	0	32788	32635	32758	32799	32645	32783	32754	32749	
1427	0	32725	32615	32747	32659	32823	32687	32865	32725	
1428	0	32754	32719	32771	32875	32791	32759	32795	32695	
1429	0	32804	32699	32657	32898	32731	32799	32785	32631	
1430	0	32739	32766	32694	32741	32809	32799	32807	32535	
1431	0	32803	32749	32735	32793	32837	32773	32767	32759	
1432	0	32797	32717	32811	32789	32765	32736	32784	32679	
1433	0	32799	32715	32647	32715	32759	32743	32735	32695	
1434	0	32788	32739	32683	32557	32733	32743	32813	32557	
1435	0	32799	32693	32661	32739	32799	32786	32783	32663	
1436	0	32743	32703	32751	32811	32671	32747	32740	32769	
1437	0	32775	32705	32732	32615	32791	32713	32767	32655	
1438	0	32805	32679	32676	32735	32771	32727	32737	32626	
1439	0	32709	32674	32743	32843	32653	32804	32765	32525	
1440	0	32715	32701	32735	32687	32790	32715	32751	32589	
1441	0	32742	32645	32615	32762	32815	32771	32766	32655	
1442	0	32743	32685	32655	32717	32615	32759	32813	32687	
1443	0	32742	32709	32785	32871	32719	32819	32790	32693	
1444	0	32745	32711	32711	32679	32847	32769	32761	32485	
1445	0	32730	32683	32774	32767	32703	32723	32741	32727	
1446	0	32738	32639	32733	32772	32811	32775	32789	32790	
1447	0	32785	32577	32641	32815	32775	32754	32709	32563	
1448	0	32695	32576	32655	32827	32799	32681	32647	32775	
1449	0	32783	32799	32851	32825	32631	32828	32741	32672	
1450	0	32821	32683	32753	32549	32775	32717	32759	32699	
1451	0	32756	32623	32807	32719	32734	32759	32775	32567	
1452	0	32748	32621	32693	32718	32790	32832	32803	32663	
1453	0	32759	32647	32718	32533	32735	32796	32775	32731	
1454	0	32796	32619	32749	32773	32855	32690	32733	32625	
1455	0	32748	32615	32790	32898	32830	32739	32831	32543	
1456	0	32761	32605	32775	32582	32775	32795	32815	32743	
1457	0	32777	32519	32727	32715	32724	32741	32695	32701	
1458	0	32813	32549	32679	32804	32879	32709	32791	32764	
1459	0	32761	32759	32583	32647	32811	32762	32805	32643	
1460	0	32815	32671	32587	32763	32687	32743	32723	32747	
1461	0	32743	32643	32677	32807	32686	32717	32813	32683	
1462	0	32747	32682	32739	32807	32799	32775	32803	32597	
1463	0	32744	32611	32791	32943	32715	32751	32663	32755	
1464	0	32793	32603	32715	32743	32795	32775	32853	32701	
1465	0	32751	32676	32805	32859	32623	32733	32805	32677	
1466	0	32748	32783	32679	32791	32753	32716	32837	32734	
1467	0	32767	32763	32719	32812	32791	32758	32759	32599	
1468	0	32788	32665	32727	32586	32717	32796	32679	32693	
1469	0	32790	32668	32669	32755	32786	32734	32715	32797	
1470	0	32821	32729	32615	32767	32815	32794	32740	32755	
1471	0	32817	32663	32615	32703	32831	32747	32783	32708	
1472	0	32759	32674	32817	32551	32807	32807	32749	32691	
1473	0	32800	32751	32747	32723	32775	32775	32690	32435	
1474	0	32805	32737	32719	32813	32757	32773	32823	32581	
1475	0	32869	32729	32647	32615	32718	32797	32827	32719	
1476	0	32815	32671	32711	32765	32799	32815	32711	32767	
1477	0	32804	32567	32603	32783	32865	32724	32827	32595	
1478	0	32783	32599	32550	32535	32769	32739	32831	32722	
1479	0	32714	32751	32751	32783	32775	32819	32691	32719	
1480	0	32727	32711	32793	32815	32782	32739	32783	32719	
1481	0	32743	32663	32602	32559	32783	32747	32770	32595	
1482	0	32781	32679	32543	32759	32653	32758	32745	32637	
1483	0	32726	32499	32490	32671	32861	32707	32807	32716	
1484	0	32788	32739	32613	32858	32729	32749	32847	32590	
1485	0	32655	32621	32711	32869	32699	32799	32797	32685	
1486	0	32695	32647	32859	32679	32791	32725	32827	32737	
1487	0	32743	32647	32783	32807	32655	32775	32737	32583	
1488	0	32759	32562	32775	32717	32762	32855	32791	32623	
1489	0	32745	32597	32887	32624	32743	32804	32829	32610	
1490	0	32767	32716	32685	32843	32803	32735	32658	32489	
1491	0	32734	32613	32623	32543	32695	32773	32796	32726	
1492	0	32775	32637	32603	32655	32815	32735	32802	32790	
1493	0	32765	32706	32629	32743	32775	32713	32707	32555	
1494	0	32802	32647	32751	32705	32815	32775	32753	32741	
1495	0	32776	32583	32597	32835	32722	32799	32796	32743	
1496	0	32742	32669	32687	32655	32885	32755	32725	32599	
1497	0	32783	32811	32733	32773	32754	32791	32790	32759	
1498	0	32796	32679	32605	32835	32871	32727	32647	32764	
1499	0	32851	32679	32671	32815	32859	32695	32705	32599	
1500	0	32756	32703	32703	32897	32659	32757	32785	32783	
1501	0	32671	32743	32767	32662	32863	32755	32727	32683	
1502	0	32753	32543	32615	32771	32733	32705	32775	32635	
1503	0	32735	32738	32683	32754	32797	32839	32748	32781	
1504	0	32694	32757	32847	32835	32671	32759	32791	32701	
1505	0	32766	32781	32823	32876	32807	32717	32739	32703	
1506	0	32729	32749	32773	32615	32699	32787	32775	32516	
1507	0	32775	32642	32661	32741	32790	32813	32709	32743	
1508	0	32771	32603	32765	32812	32799	32677	32783	32647	
1509	0	32757	32623	32687	32575	32637	32771	32827	32591	
1510	0	32733	32727	32807	32771	32815	32773	32739	32719	
1511	0	32752	32667	32775	32671	32729	32750	32775	32686	
1512	0	32831	32594	32739	32718	32822	32770	32855	32703	
1513	0	32816	32591	32611	32749	32687	32807	32727	32539	
1514	0	32890	32463	32565	32633	32739	32711	32755	32686	
1515	0	32845	32549	32603	32717	32858	32771	32701	32666	
1516	0	32767	32615	32754	32739	32735	32767	32775	32647	
1517	0	32761	32647	32797	32796	32789	32767	32775	32613	
1518	0	32791	32711	32569	32739	32775	32803	32749	32738	
1519	0	32781	32591	32679	32839	32742	32789	32839	32666	
1520	0	32743	32547	32775	32551	32751	32711	32815	32691	
1521	0	32716	32517	32795	32727	32811	32818	32739	32594	
1522	0	32679	32511	32754	32835	32662	32803	32832	32767	
1523	0	32673	32606	32879	32633	32790	32685	32767	32807	
1524	0	32775	32742	32663	32823	32726	32668	32687	32679	
1525	0	32725	32739	32647	32923	32762	32795	32791	32519	
1526	0	32738	32683	32743	32631	32708	32819	32838	32735	
1527	0	32726	32625	32797	32836	32679	32765	32730	32579	
1528	0	32735	32623	32797	32751	32783	32757	32791	32714	
1529	0	32751	32639	32769	32539	32775	32804	32791	32577	
1530	0	32785	32791	32815	32757	32687	32749	32699	32595	
1531	0	32827	32695	32539	32743	32820	32767	32799	32761	
1532	0	32775	32711	32599	32598	32775	32851	32825	32743	
1533	0	32793	32573	32759	32763	32807	32749	32715	32563	
1534	0	32818	32547	32791	32775	32658	32749	32771	32605	
1535	0	32831	32820	32742	32698	32788	32837	32756	32699	
1536	0	32745	32743	32803	32786	32749	32773	32798	32685	
1537	0	32799	32679	32623	32879	32859	32707	32837	32786	
1538	0	32717	32630	32575	32671	32717	32741	32804	32615	
1539	0	32772	32758	32574	32786	32816	32764	32775	32703	
1540	0	32722	32647	32735	32859	32695	32707	32807	32674	
1541	0	32700	32647	32757	32575	32775	32757	32854	32683	
1542	0	32747	32615	32771	32759	32692	32821	32735	32742	
1543	0	32778	32623	32663	32783	32775	32775	32810	32623	
1544	0	32754	32563	32661	32807	32827	32692	32799	32661	
1545	0	32795	32797	32647	32759	32801	32735	32711	32719	
1546	0	32692	32671	32748	32762	32637	32727	32756	32679	
1547	0	32757	32641	32747	32815	32727	32717	32775	32693	
1548	0	32791	32694	32829	32591	32832	32743	32700	32603	
1549	0	32796	32703	32695	32748	32647	32766	32759	32547	
1550	0	32796	32663	32695	32751	32903	32775	32759	32675	
1551	0	32807	32613	32775	32627	32805	32711	32693	32623	
1552	0	32773	32671	32719	32797	32633	32791	32821	32659	
1553	0	32775	32677	32729	32747	32788	32790	32813	32645	
1554	0	32748	32631	32599	32695	32719	32823	32743	32551	
1555	0	32737	32727	32667	32751	32795	32762	32763	32559	
1556	0	32800	32499	32687	32733	32647	32762	32868	32674	
1557	0	32773	32661	32749	32615	32831	32747	32813	32659	
1558	0	32773	32738	32822	32821	32823	32751	32799	32519	
1559	0	32772	32685	32727	32867	32725	32812	32687	32559	
1560	0	32726	32623	32741	32583	32727	32757	32805	32767	
1561	0	32748	32565	32564	32788	32709	32751	32807	32663	
1562	0	32710	32711	32591	32751	32791	32820	32716	32743	
1563	0	32751	32647	32555	32745	32621	32730	32743	32589	
1564	0	32747	32508	32739	32775	32845	32683	32807	32851	
1565	0	32757	32535	32756	32631	32697	32791	32771	32781	
1566	0	32785	32551	32671	32759	32823	32750	32751	32799	
1567	0	32787	32593	32766	32816	32790	32743	32711	32679	
1568	0	32762	32605	32671	32803	32764	32727	32642	32643	
1569	0	32761	32775	32639	32637	32841	32725	32841	32817	
1570	0	32759	32799	32725	32719	32643	32702	32823	32694	
1571	0	32799	32695	32775	32647	32775	32769	32719	32755	
1572	0	32796	32641	32665	32735	32903	32809	32763	32550	
1573	0	32740	32663	32753	32859	32655	32703	32773	32631	
1574	0	32780	32636	32745	32604	32827	32685	32817	32714	
1575	0	32790	32727	32594	32789	32775	32811	32787	32673	
1576	0	32756	32639	32677	32772	32647	32819	32711	32671	
1577	0	32725	32509	32751	32575	32845	32775	32798	32495	
1578	0	32764	32475	32791	32749	32773	32850	32804	32699	
1579	0	32766	32567	32775	32738	32724	32815	32719	32665	
1580	0	32725	32736	32783	32733	32670	32735	32766	32679	
1581	0	32748	32662	32676	32769	32679	32735	32790	32615	
1582	0	32745	32671	32621	32727	32843	32794	32695	32578	
1583	0	32742	32683	32636	32773	32671	32775	32807	32735	
1584	0	32755	32637	32669	32876	32815	32773	32823	32695	
1585	0	32748	32691	32874	32659	32799	32775	32727	32575	
1586	0	32756	32591	32756	32799	32755	32690	32732	32605	
1587	0	32764	32519	32849	32754	32615	32788	32762	32640	
1588	0	32723	32771	32727	32797	32791	32767	32758	32583	
1589	0	32795	32615	32675	32885	32797	32725	32785	32639	
1590	0	32820	32701	32525	32572	32869	32703	32775	32681	
1591	0	32782	32670	32500	32713	32687	32764	32775	32742	
1592	0	32774	32719	32674	32775	32739	32751	32839	32679	
1593	0	32799	32697	32735	32663	32843	32803	32700	32565	
1594	0	32789	32573	32709	32695	32708	32743	32827	32724	
1595	0	32805	32557	32721	32767	32773	32804	32775	32691	
1596	0	32772	32599	32676	32663	32788	32748	32735	32711	
1597	0	32742	32599	32711	32791	32743	32736	32711	32569	
1598	0	32717	32775	32749	32807	32823	32810	32769	32687	
1599	0	32813	32706	32815	32719	32767	32767	32706	32637	
1600	0	32685	32692	32839	32847	32692	32775	32789	32691	
1601	0	32723	32647	32775	32823	32816	32811	32797	32607	
1602	0	32713	32551	32751	32647	32751	32767	32712	32495	
1603	0	32691	32676	32635	32815	32729	32791	32745	32667	
1604	0	32762	32647	32694	32917	32783	32801	32735	32692	
1605	0	32780	32615	32742	32679	32743	32795	32771	32691	
1606	0	32756	32509	32861	32829	32769	32791	32731	32564	
1607	0	32796	32595	32749	32871	32782	32738	32772	32663	
1608	0	32713	32539	32706	32643	32695	32797	32807	32735	
1609	0	32740	32623	32711	32767	32759	32749	32738	32663	
1610	0	32764	32623	32607	32799	32611	32749	32775	32669	
1611	0	32799	32749	32551	32561	32791	32839	32811	32535	
1612	0	32817	32703	32635	32730	32731	32817	32825	32676	
1613	0	32831	32715	32743	32793	32787	32762	32695	32742	
1614	0	32763	32666	32639	32571	32635	32767	32809	32601	
1615	0	32852	32738	32534	32804	32869	32795	32893	32679	
1616	0	32826	32671	32575	32661	32790	32749	32683	32471	
1617	0	32769	32660	32710	32731	32727	32763	32732	32679	
1618	0	32788	32595	32613	32823	32827	32735	32759	32717	
1619	0	32732	32578	32743	32869	32701	32843	32789	32735	
1620	0	32744	32484	32699	32551	32743	32747	32687	32771	
1621	0	32827	32551	32803	32783	32801	32727	32780	32791	
1622	0	32734	32733	32591	32844	32797	32797	32801	32573	
1623	0	32735	32743	32669	32647	32799	32758	32751	32690	
1624	0	32758	32671	32775	32831	32684	32699	32603	32743	
1625	0	32735	32711	32647	32714	32727	32695	32741	32804	
1626	0	32741	32591	32698	32729	32821	32711	32803	32647	
1627	0	32780	32671	32674	32667	32775	32740	32767	32735	
1628	0	32721	32767	32662	32757	32829	32758	32775	32719	
1629	0	32751	32709	32808	32821	32679	32771	32743	32559	
1630	0	32737	32643	32694	32642	32775	32743	32745	32631	
1631	0	32773	32691	32655	32773	32742	32804	32759	32671	
1632	0	32716	32758	32727	32867	32743	32763	32841	32645	
1633	0	32775	32700	32687	32587	32666	32711	32756	32660	
1634	0	32739	32535	32615	32722	32791	32786	32739	32579	
1635	0	32729	32571	32783	32775	32831	32815	32775	32735	
1636	0	32738	32748	32706	32567	32631	32815	32791	32686	
1637	0	32794	32711	32787	32757	32738	32787	32726	32623	
1638	0	32836	32683	32621	32815	32783	32775	32799	32666	
1639	0	32862	32726	32575	32725	32759	32751	32839	32591	
1640	0	32756	32687	32787	32763	32791	32802	32775	32567	
1641	0	32707	32631	32738	32829	32855	32735	32730	32685	
1642	0	32731	32582	32806	32731	32691	32740	32833	32699	
1643	0	32719	32590	32597	32607	32767	32749	32861	32687	
1644	0	32717	32623	32759	32735	32757	32759	32815	32676	
1645	0	32721	32621	32820	32815	32827	32767	32767	32690	
1646	0	32767	32615	32881	32757	32789	32703	32655	32509	
1647	0	32803	32714	32699	32805	32659	32677	32769	32717	
1648	0	32804	32736	32591	32775	32763	32775	32805	32735	
1649	0	32810	32695	32667	32775	32838	32839	32767	32705	
1650	0	32749	32699	32655	32587	32673	32743	32727	32734	
1651	0	32793	32719	32609	32723	32729	32751	32687	32717	
1652	0	32761	32647	32638	32690	32839	32726	32719	32689	
1653	0	32814	32723	32807	32737	32814	32764	32795	32541	
1654	0	32799	32765	32738	32623	32845	32828	32708	32829	
1655	0	32767	32581	32772	32802	32853	32701	32663	32737	
1656	0	32726	32567	32737	32903	32730	32711	32739	32758	
1657	0	32775	32759	32703	32519	32727	32770	32787	32751	
1658	0	32745	32736	32788	32775	32757	32807	32711	32503	
1659	0	32716	32647	32679	32898	32641	32763	32834	32727	
1660	0	32749	32723	32757	32815	32637	32743	32823	32697	
1661	0	32740	32567	32820	32805	32767	32817	32827	32734	
1662	0	32742	32610	32821	32685	32687	32767	32846	32560	
1663	0	32785	32735	32629	32775	32767	32781	32759	32723	
1664	0	32725	32695	32635	32891	32823	32775	32815	32717	
1665	0	32751	32695	32663	32615	32597	32807	32819	32644	
1666	0	32780	32676	32663	32791	32839	32679	32732	32623	
1667	0	32759	32722	32821	32759	32719	32743	32751	32667	
1668	0	32751	32711	32684	32628	32738	32772	32767	32599	
1669	0	32749	32757	32663	32770	32695	32775	32735	32743	
1670	0	32809	32767	32647	32821	32742	32803	32761	32507	
1671	0	32757	32707	32791	32629	32805	32793	32754	32469	
1672	0	32775	32607	32709	32775	32669	32797	32791	32701	
1673	0	32761	32481	32717	32799	32822	32719	32789	32647	
1674	0	32757	32531	32775	32551	32799	32743	32804	32767	
1675	0	32780	32493	32711	32715	32639	32727	32859	32629	
1676	0	32756	32564	32719	32780	32852	32733	32743	32571	
1677	0	32775	32516	32787	32701	32861	32804	32714	32667	
1678	0	32766	32819	32659	32597	32668	32695	32775	32692	
1679	0	32775	32815	32703	32737	32839	32738	32807	32700	
1680	0	32775	32783	32598	32925	32858	32743	32831	32674	
1681	0	32775	32690	32637	32621	32791	32801	32709	32462	
1682	0	32767	32631	32735	32809	32634	32739	32745	32689	
1683	0	32726	32670	32829	32903	32838	32749	32733	32715	
1684	0	32711	32717	32790	32647	32839	32751	32677	32741	
1685	0	32775	32655	32455	32690	32692	32743	32733	32607	
1686	0	32807	32655	32663	32757	32748	32767	32847	32639	
1687	0	32742	32711	32803	32807	32769	32766	32835	32735	
1688	0	32811	32692	32787	32615	32851	32791	32764	32721	
1689	0	32809	32785	32706	32719	32799	32743	32647	32647	
1690	0	32796	32583	32767	32751	32811	32749	32757	32762	
1691	0	32780	32594	32751	32807	32789	32745	32834	32637	
1692	0	32811	32839	32727	32615	32739	32715	32699	32731	
1693	0	32791	32597	32593	32703	32795	32695	32739	32725	
1694	0	32769	32551	32659	32804	32836	32735	32775	32694	
1695	0	32780	32543	32707	32894	32771	32855	32817	32735	
1696	0	32815	32741	32738	32662	32679	32755	32727	32671	
1697	0	32742	32687	32812	32743	32847	32749	32743	32583	
1698	0	32751	32647	32751	32743	32815	32811	32743	32705	
1699	0	32726	32603	32751	32861	32685	32799	32823	32663	
1700	0	32698	32669	32871	32606	32765	32811	32767	32695	
1701	0	32734	32669	32775	32754	32755	32767	32791	32548	
1702	0	32741	32695	32799	32839	32647	32735	32812	32570	
1703	0	32770	32524	32482	32634	32855	32830	32700	32710	
1704	0	32748	32487	32487	32767	32719	32804	32788	32699	
1705	0	32749	32595	32637	32871	32799	32731	32793	32775	
1706	0	32751	32730	32710	32679	32735	32743	32671	32526	
1707	0	32734	32823	32674	32765	32775	32783	32723	32646	
1708	0	32749	32647	32742	32813	32753	32695	32775	32687	
1709	0	32733	32631	32799	32701	32852	32749	32775	32723	
1710	0	32753	32717	32733	32849	32671	32759	32685	32690	
1711	0	32773	32703	32793	32803	32735	32783	32763	32545	
1712	0	32767	32687	32727	32823	32871	32715	32763	32631	
1713	0	32748	32639	32775	32599	32715	32795	32675	32709	
1714	0	32774	32707	32721	32706	32811	32771	32742	32679	
1715	0	32809	32613	32679	32717	32743	32835	32798	32811	
1716	0	32806	32660	32663	32775	32646	32791	32861	32708	
1717	0	32698	32553	32783	32633	32783	32775	32807	32527	
1718	0	32745	32559	32740	32761	32793	32756	32826	32698	
1719	0	32773	32550	32743	32790	32831	32724	32783	32731	
1720	0	32794	32749	32583	32762	32772	32694	32787	32839	
1721	0	32751	32679	32581	32687	32759	32755	32754	32627	
1722	0	32727	32711	32735	32826	32775	32789	32807	32514	
1723	0	32690	32635	32765	32871	32739	32805	32815	32671	
1724	0	32724	32697	32781	32667	32679	32731	32719	32595	
1725	0	32738	32671	32666	32701	32823	32765	32805	32639	
1726	0	32726	32727	32643	32804	32679	32727	32811	32613	
1727	0	32761	32581	32660	32629	32839	32811	32698	32556	
1728	0	32789	32764	32724	32719	32715	32757	32703	32692	
1729	0	32770	32671	32713	32772	32815	32759	32795	32730	
1730	0	32706	32587	32751	32713	32679	32751	32771	32571	
1731	0	32764	32815	32775	32759	32819	32707	32815	32743	
1732	0	32756	32519	32639	32733	32743	32766	32733	32693	
1733	0	32791	32575	32685	32645	32884	32829	32655	32697	
1734	0	32791	32804	32733	32686	32663	32773	32711	32591	
1735	0	32810	32733	32815	32767	32867	32747	32718	32741	
1736	0	32829	32743	32799	32767	32815	32762	32801	32813	
1737	0	32807	32692	32717	32673	32657	32763	32711	32719	
1738	0	32786	32751	32671	32886	32814	32667	32785	32773	
1739	0	32765	32662	32695	32619	32775	32797	32827	32606	
1740	0	32822	32545	32667	32847	32765	32775	32749	32751	
1741	0	32748	32765	32695	32903	32847	32749	32767	32693	
1742	0	32745	32604	32631	32527	32703	32843	32871	32631	
1743	0	32782	32623	32655	32735	32719	32773	32719	32484	
1744	0	32782	32575	32781	32822	32775	32756	32797	32551	
1745	0	32800	32603	32631	32711	32626	32721	32756	32615	
1746	0	32745	32655	32647	32775	32826	32767	32807	32647	
1747	0	32818	32706	32805	32809	32763	32807	32762	32599	
1748	0	32745	32711	32663	32685	32655	32767	32786	32555	
1749	0	32788	32715	32687	32711	32767	32797	32766	32740	
1750	0	32781	32671	32554	32753	32763	32839	32775	32707	
1751	0	32820	32591	32647	32766	32757	32783	32721	32742	
1752	0	32833	32543	32743	32559	32607	32775	32819	32671	
1753	0	32807	32557	32679	32731	32731	32755	32835	32599	
1754	0	32775	32517	32598	32855	32801	32770	32727	32594	
1755	0	32784	32505	32671	32617	32796	32755	32771	32695	
1756	0	32766	32708	32786	32743	32839	32829	32835	32655	
1757	0	32804	32647	32753	32791	32813	32719	32767	32695	
1758	0	32754	32647	32759	32706	32838	32803	32842	32487	
1759	0	32753	32673	32775	32763	32671	32805	32836	32709	
1760	0	32711	32621	32684	32567	32821	32745	32719	32639	
1761	0	32764	32615	32711	32667	32687	32759	32855	32663	
1762	0	32719	32687	32814	32895	32799	32829	32804	32585	
1763	0	32662	32557	32763	32686	32682	32815	32775	32581	
1764	0	32692	32567	32795	32759	32743	32807	32663	32738	
1765	0	32742	32543	32727	32827	32849	32773	32772	32623	
1766	0	32788	32559	32751	32687	32683	32803	32767	32715	
1767	0	32779	32611	32751	32775	32835	32789	32823	32711	
1768	0	32783	32551	32791	32775	32775	32743	32751	32559	
1769	0	32795	32791	32701	32551	32747	32769	32771	32764	
1770	0	32801	32733	32745	32755	32709	32775	32759	32772	
1771	0	32855	32671	32551	32767	32860	32679	32711	32631	
1772	0	32847	32667	32606	32748	32764	32715	32735	32901	
1773	0	32785	32743	32713	32759	32811	32826	32759	32817	
1774	0	32749	32765	32803	32687	32803	32740	32663	32717	
1775	0	32756	32735	32717	32551	32694	32700	32643	32743	
1776	0	32796	32791	32603	32770	32827	32699	32743	32628	
1777	0	32764	32590	32683	32738	32703	32743	32745	32739	
1778	0	32736	32555	32685	32783	32759	32679	32679	32647	
1779	0	32756	32605	32703	32804	32900	32751	32775	32595	
1780	0	32730	32647	32679	32778	32731	32821	32745	32745	
1781	0	32702	32775	32775	32903	32791	32725	32838	32647	
1782	0	32673	32501	32601	32607	32775	32827	32823	32539	
1783	0	32717	32518	32769	32819	32554	32662	32747	32799	
1784	0	32727	32715	32714	32773	32821	32775	32759	32766	
1785	0	32696	32647	32786	32786	32767	32797	32791	32773	
1786	0	32684	32615	32621	32828	32769	32743	32735	32519	
1787	0	32699	32609	32587	32691	32735	32713	32775	32599	
1788	0	32691	32645	32599	32748	32711	32847	32741	32647	
1789	0	32721	32623	32703	32763	32773	32775	32830	32698	
1790	0	32699	32555	32716	32747	32795	32831	32839	32596	
1791	0	32674	32687	32695	32788	32787	32738	32716	32629	
1792	0	32700	32671	32687	32707	32695	32743	32785	32669	
1793	0	32788	32737	32710	32810	32877	32783	32692	32717	
1794	0	32676	32555	32833	32583	32692	32718	32820	32701	
1795	0	32773	32559	32758	32765	32797	32761	32879	32755	
1796	0	32767	32631	32717	32919	32735	32739	32847	32583	
1797	0	32759	32694	32595	32603	32821	32775	32721	32629	
1798	0	32775	32639	32647	32803	32815	32791	32734	32708	
1799	0	32832	32749	32647	32605	32799	32731	32679	32590	
1800	0	32822	32567	32671	32835	32842	32735	32735	32711	
1801	0	32763	32599	32683	32811	32796	32771	32732	32756	
1802	0	32718	32823	32798	32829	32660	32846	32743	32725	
1803	0	32782	32749	32789	32927	32725	32749	32863	32511	
1804	0	32805	32682	32743	32647	32807	32791	32738	32677	
1805	0	32797	32637	32669	32679	32783	32803	32749	32703	
1806	0	32831	32684	32604	32807	32755	32703	32647	32711	
1807	0	32826	32731	32647	32571	32663	32739	32738	32535	
1808	0	32839	32623	32658	32719	32750	32837	32831	32725	
1809	0	32804	32838	32639	32645	32834	32764	32775	32564	
1810	0	32771	32727	32663	32765	32815	32736	32775	32655	
1811	0	32844	32699	32671	32759	32719	32715	32743	32530	
1812	0	32786	32709	32749	32707	32731	32743	32863	32683	
1813	0	32807	32646	32692	32700	32811	32758	32859	32733	
1814	0	32773	32713	32663	32791	32735	32727	32731	32641	
1815	0	32812	32675	32647	32580	32659	32759	32803	32631	
1816	0	32767	32590	32798	32791	32803	32767	32803	32715	
1817	0	32689	32511	32732	32837	32829	32791	32668	32773	
1818	0	32772	32540	32735	32599	32727	32831	32799	32549	
1819	0	32789	32762	32694	32749	32738	32687	32695	32831	
1820	0	32822	32623	32799	32803	32831	32747	32770	32775	
1821	0	32788	32748	32863	32791	32867	32767	32775	32679	
1822	0	32764	32738	32771	32839	32847	32731	32643	32775	
1823	0	32775	32575	32661	32647	32831	32775	32734	32735	
1824	0	32775	32597	32623	32811	32743	32791	32918	32735	
1825	0	32701	32645	32679	32791	32821	32722	32715	32543	
1826	0	32788	32748	32687	32770	32737	32738	32751	32717	
1827	0	32797	32702	32709	32887	32785	32708	32725	32685	
1828	0	32802	32725	32687	32613	32787	32719	32699	32583	
1829	0	32780	32754	32671	32759	32695	32799	32761	32775	
1830	0	32759	32567	32745	32767	32812	32751	32697	32709	
1831	0	32751	32538	32809	32740	32807	32719	32811	32663	
1832	0	32744	32801	32660	32854	32773	32805	32806	32498	
1833	0	32739	32679	32710	32767	32635	32791	32743	32647	
1834	0	32799	32642	32671	32775	32743	32695	32859	32663	
1835	0	32701	32605	32621	32609	32690	32797	32766	32547	
1836	0	32724	32647	32595	32693	32817	32759	32775	32771	
1837	0	32786	32489	32714	32662	32765	32745	32807	32655	
1838	0	32769	32783	32695	32710	32694	32813	32745	32581	
1839	0	32799	32647	32655	32723	32694	32758	32766	32747	
1840	0	32804	32675	32675	32740	32814	32745	32750	32666	
1841	0	32717	32695	32692	32887	32740	32775	32791	32645	
1842	0	32706	32487	32775	32775	32775	32801	32795	32694	
1843	0	32729	32743	32708	32859	32797	32796	32695	32727	
1844	0	32716	32679	32623	32575	32796	32703	32763	32709	
1845	0	32776	32645	32749	32739	32694	32814	32743	32775	
1846	0	32736	32668	32689	32583	32690	32751	32869	32623	
1847	0	32733	32643	32638	32807	32786	32711	32869	32699	
1848	0	32762	32551	32647	32911	32831	32749	32645	32569	
1849	0	32786	32547	32671	32663	32823	32695	32796	32751	
1850	0	32733	32767	32767	32718	32723	32751	32837	32727	
1851	0	32812	32758	32743	32711	32852	32727	32715	32655	
1852	0	32757	32677	32823	32575	32795	32781	32759	32735	
1853	0	32809	32669	32783	32786	32823	32682	32790	32753	
1854	0	32786	32663	32647	32807	32647	32751	32695	32658	
1855	0	32804	32723	32647	32735	32830	32815	32814	32599	
1856	0	32828	32621	32637	32805	32703	32709	32727	32592	
1857	0	32804	32526	32805	32623	32842	32713	32765	32695	
1858	0	32757	32565	32806	32767	32721	32831	32807	32713	
1859	0	32748	32561	32855	32807	32859	32804	32871	32739	
1860	0	32719	32505	32669	32689	32785	32719	32775	32495	
1861	0	32812	32463	32695	32732	32758	32775	32765	32603	
1862	0	32786	32762	32671	32711	32580	32835	32829	32549	
1863	0	32809	32655	32711	32630	32609	32765	32719	32621	
1864	0	32661	32722	32804	32791	32756	32767	32775	32597	
1865	0	32715	32495	32749	32594	32791	32757	32711	32715	
1866	0	32724	32735	32844	32764	32705	32775	32773	32580	
1867	0	32729	32807	32839	32941	32834	32803	32767	32637	
1868	0	32749	32611	32775	32895	32658	32703	32711	32715	
1869	0	32762	32647	32783	32873	32660	32775	32743	32719	
1870	0	32866	32607	32865	32613	32845	32775	32668	32684	
1871	0	32887	32827	32631	32791	32827	32755	32751	32695	
1872	0	32858	32687	32518	32610	32815	32763	32775	32751	
1873	0	32803	32694	32567	32773	32903	32703	32762	32615	
1874	0	32837	32705	32439	32719	32674	32721	32770	32766	
1875	0	32785	32733	32626	32751	32750	32783	32767	32711	
1876	0	32723	32527	32711	32823	32839	32740	32711	32677	
1877	0	32790	32487	32717	32692	32839	32743	32692	32671	
1878	0	32793	32553	32693	32601	32723	32775	32747	32791	
1879	0	32802	32522	32567	32732	32875	32692	32615	32711	
1880	0	32811	32629	32557	32850	32855	32741	32783	32698	
1881	0	32796	32821	32765	32586	32605	32783	32799	32659	
1882	0	32700	32903	32836	32773	32815	32759	32799	32535	
1883	0	32722	32903	32887	32815	32734	32773	32735	32677	
1884	0	32737	32829	32775	32761	32759	32715	32794	32701	
1885	0	32756	32771	32759	32831	32793	32695	32757	32814	
1886	0	32774	32883	32821	32953	32871	32743	32589	32675	
1887	0	32813	32799	32769	32647	32885	32635	32658	32930	
1888	0	32849	32719	32715	32791	32903	32647	32677	32909	
1889	0	32892	32683	32745	32775	32863	32719	32631	32839	
1890	0	32924	32590	32727	32519	32819	32791	32587	32639	
1891	0	32943	32679	32617	32659	32775	32737	32813	32745	
1892	0	32993	32695	32733	32775	32756	32681	32855	32783	
1893	0	33044	32917	32759	32612	32767	32775	32711	32727	
1894	0	33068	32775	32670	32647	32847	32743	32732	32724	
1895	0	33044	32759	32609	32773	32819	32756	32795	32615	
1896	0	32995	32663	32531	32564	32927	32698	32699	32769	
1897	0	32988	32711	32541	32675	32879	32755	32713	32731	
1898	0	33036	32754	32612	32759	32935	32733	32719	32775	
1899	0	33018	32647	32647	32530	32857	32708	32603	32684	
1900	0	33086	32583	32495	32613	32892	32775	32619	32805	
1901	0	33061	32433	32583	32695	32919	32751	32705	32713	
1902	0	33124	32493	32367	32423	32679	32815	32803	32679	
1903	0	33107	32495	32351	32493	32927	32871	32773	32555	
1904	0	33079	32463	32405	32530	32863	32843	32716	32582	
1905	0	33117	32391	32411	32271	32708	32775	32727	32685	
1906	0	33110	32458	32412	32453	32965	32927	32815	32677	
1907	0	33096	32391	32455	32479	32867	32847	32638	32575	
1908	0	33016	32274	32470	32471	32919	32775	32709	32743	
1909	0	32964	32429	32461	32537	32903	32877	32773	32679	
1910	0	32850	32323	32501	32407	32747	32820	32670	32743	
1911	0	32699	32255	32557	32479	32911	32879	32694	32627	
1912	0	32533	32079	32563	32587	32822	32834	32707	32615	
1913	0	32581	32311	32503	32635	32783	32879	32761	32559	
1914	0	32498	32243	32541	32749	32727	32885	32903	32471	
1915	0	32549	32215	32527	32683	32695	32865	32996	32367	
1916	0	32535	32379	32571	32845	32566	32916	33135	32292	
1917	0	32548	32439	32686	32935	32513	32887	33268	32012	
1918	0	32548	32487	32761	32999	32551	32799	33189	32231	
1919	0	32492	32511	32859	33075	32511	32893	33297	32212	
1920	0	32421	32412	32743	32999	32323	32801	33189	32109	
1921	0	32295	32343	32794	33092	32407	32839	33247	32175	
1922	0	32239	32383	32916	32923	32431	32866	33263	32247	
1923	0	32086	32391	33021	33030	32367	32841	33171	32156	
1924	0	32036	32309	32895	33069	32287	32796	33087	32323	
1925	0	32042	32599	33030	32968	32573	32827	33085	32447	
1926	0	32041	32647	33131	33131	32435	32719	32970	32399	
1927	0	32038	32791	33245	33091	32505	32722	32943	32487	
1928	0	32085	32941	33341	33178	32361	32790	33031	32535	
1929	0	32053	32978	33469	33243	32482	32756	33020	32569	
1930	0	32061	32923	33332	33084	32487	32637	32884	32509	
1931	0	32260	32999	33239	33187	32553	32767	32971	32647	
1932	0	32401	33306	33167	33043	32519	32668	32859	32732	
1933	0	32461	33224	33191	32968	32613	32631	32717	32627	
1934	0	32511	33083	33211	33091	32787	32723	32582	32887	
1935	0	32593	33085	33100	32699	32871	32582	32463	32971	
1936	0	32660	33141	33135	32915	32891	32590	32373	33014	
1937	0	32687	33045	33159	32773	32847	32541	32420	32949	
1938	0	32638	32975	32902	32845	33011	32577	32399	33110	
1939	0	32687	33011	32797	32895	32951	32614	32458	33059	
1940	0	32613	33107	32647	32797	32964	32719	32417	32883	
1941	0	32595	32997	32559	32887	32954	32675	32471	32982	
1942	0	32708	32929	32619	32565	32847	32631	32557	32879	
1943	0	32758	32919	32687	32707	32991	32742	32540	32959	
1944	0	32884	32859	32598	32635	32919	32764	32660	32843	
1945	0	32930	32789	32541	32734	33003	32647	32445	33010	
1946	0	32955	32927	32533	32679	32829	32598	32551	32981	
1947	0	32956	32847	32605	32687	32903	32647	32503	33039	
1948	0	33030	32775	32502	32807	33024	32731	32459	32956	
1949	0	32990	32807	32468	32722	32935	32669	32579	33003	
1950	0	32992	32746	32583	32647	32939	32647	32599	32867	
1951	0	33023	32635	32567	32484	32823	32683	32511	33026	
1952	0	32918	32546	32557	32643	32855	32800	32643	32867	
1953	0	32948	32454	32623	32676	32951	32741	32647	32813	
1954	0	32912	32471	32667	32627	32927	32799	32647	32711	
1955	0	32970	32455	32577	32613	32785	32825	32637	32879	
1956	0	32940	32719	32559	32525	32758	32731	32758	32703	
1957	0	32937	32702	32559	32685	32743	32820	32767	32734	
1958	0	32935	32663	32659	32775	32850	32847	32783	32563	
1959	0	32966	32643	32668	32543	32643	32764	32775	32697	
1960	0	32945	32647	32553	32751	32775	32775	32823	32679	
1961	0	32890	32631	32615	32667	32867	32839	32734	32507	
1962	0	32927	32587	32719	32700	32839	32749	32740	32558	
1963	0	32813	32469	32602	32794	32739	32758	32809	32669	
1964	0	32839	32403	32725	32545	32669	32805	32799	32627	
1965	0	32893	32455	32791	32741	32743	32829	32876	32513	
1966	0	32838	32717	32695	32773	32813	32739	32725	32535	
1967	0	32816	32708	32659	32607	32711	32761	32879	32693	
1968	0	32799	32722	32613	32723	32711	32835	32881	32637	
1969	0	32795	32723	32679	32819	32701	32933	32783	32659	
1970	0	32831	32683	32682	32589	32806	32735	32716	32498	
1971	0	32865	32671	32647	32719	32669	32791	32807	32727	
1972	0	32847	32671	32687	32745	32837	32815	32849	32669	
1973	0	32822	32581	32788	32582	32731	32763	32735	32711	
1974	0	32818	32639	32757	32855	32813	32787	32846	32567	
1975	0	32801	32707	32702	32599	32673	32794	32827	32679	
1976	0	32786	32589	32557	32700	32679	32759	32764	32722	
1977	0	32781	32509	32525	32631	32852	32846	32860	32563	
1978	0	32826	32735	32527	32738	32799	32743	32789	32681	
1979	0	32799	32703	32731	32690	32804	32789	32805	32623	
1980	0	32708	32671	32773	32767	32743	32759	32845	32564	
1981	0	32708	32557	32671	32858	32709	32801	32771	32685	
1982	0	32725	32633	32690	32631	32783	32795	32787	32741	
1983	0	32761	32519	32743	32955	32759	32789	32746	32572	
1984	0	32829	32675	32647	32786	32724	32757	32823	32615	
1985	0	32832	32591	32667	32837	32823	32810	32803	32676	
1986	0	32786	32647	32791	32667	32625	32813	32853	32549	
1987	0	32743	32639	32615	32786	32733	32775	32843	32627	
1988	0	32755	32499	32581	32722	32757	32809	32709	32603	
1989	0	32767	32559	32561	32677	32759	32740	32791	32543	
1990	0	32852	32687	32606	32703	32829	32807	32807	32715	
1991	0	32757	32671	32606	32739	32783	32751	32783	32684	
1992	0	32819	32570	32670	32695	32839	32813	32851	32588	
1993	0	32813	32757	32743	32675	32759	32725	32757	32629	
1994	0	32829	32662	32769	32697	32655	32767	32757	32541	
1995	0	32838	32767	32775	32631	32807	32813	32772	32663	
1996	0	32786	32495	32703	32727	32785	32765	32751	32743	
1997	0	32802	32685	32615	32514	32877	32783	32804	32721	
1998	0	32751	32633	32627	32749	32775	32660	32646	32615	
1999	0	32788	32759	32739	32775	32727	32727	32717	32734	
2000	0	32748	32669	32795	32831	32850	32796	32797	32767	
2001	0	32736	32540	32773	32599	32759	32732	32759	32581	
2002	0	32775	32583	32703	32775	32791	32731	32838	32698	
2003	0	32701	32773	32615	32759	32709	32815	32855	32695	
2004	0	32706	32621	32706	32814	32637	32766	32743	32539	
2005	0	32718	32691	32669	32797	32647	32837	32775	32685	
2006	0	32751	32590	32730	32763	32731	32750	32796	32676	
2007	0	32767	32495	32713	32882	32676	32735	32771	32545	
2008	0	32813	32587	32676	32603	32830	32791	32771	32803	
2009	0	32807	32751	32698	32775	32818	32743	32711	32686	
2010	0	32784	32637	32699	32609	32663	32828	32775	32690	
2011	0	32713	32694	32775	32797	32821	32719	32810	32647	
2012	0	32780	32711	32830	32835	32695	32743	32691	32629	
2013	0	32818	32669	32623	32582	32831	32795	32789	32724	
2014	0	32766	32459	32695	32775	32743	32711	32751	32565	
2015	0	32745	32605	32742	32671	32751	32775	32681	32723	
2016	0	32726	32703	32639	32747	32771	32751	32773	32719	
2017	0	32681	32684	32658	32861	32799	32775	32809	32501	
2018	0	32734	32701	32747	32831	32771	32863	32786	32687	
2019	0	32725	32583	32811	32887	32789	32812	32858	32676	
2020	0	32781	32575	32823	32518	32631	32722	32775	32543	
2021	0	32804	32587	32764	32754	32874	32813	32785	32719	
2022	0	32775	32775	32726	32863	32766	32798	32774	32682	
2023	0	32791	32655	32692	32742	32871	32755	32756	32743	
2024	0	32769	32646	32596	32829	32663	32787	32759	32578	
2025	0	32695	32679	32660	32623	32847	32731	32703	32773	
2026	0	32761	32437	32727	32767	32783	32769	32775	32767	
2027	0	32834	32539	32612	32851	32807	32793	32743	32551	
2028	0	32835	32703	32582	32551	32709	32730	32727	32712	
2029	0	32799	32721	32718	32775	32679	32797	32839	32647	
2030	0	32762	32643	32732	32562	32775	32767	32755	32554	
2031	0	32775	32772	32683	32751	32861	32765	32757	32793	
2032	0	32832	32662	32705	32811	32878	32811	32799	32614	
2033	0	32754	32541	32754	32567	32671	32755	32703	32759	
2034	0	32739	32567	32718	32791	32839	32759	32815	32562	
2035	0	32823	32628	32610	32639	32775	32748	32838	32703	
2036	0	32863	32734	32571	32671	32773	32679	32742	32685	
2037	0	32771	32714	32669	32783	32653	32767	32766	32605	
2038	0	32766	32644	32797	32647	32839	32802	32829	32617	
2039	0	32761	32620	32772	32767	32815	32695	32715	32756	
2040	0	32733	32647	32845	32924	32727	32767	32673	32755	
2041	0	32711	32663	32816	32669	32751	32775	32759	32679	
2042	0	32714	32669	32714	32799	32797	32797	32783	32515	
2043	0	32743	32501	32699	32771	32735	32791	32794	32719	
2044	0	32791	32492	32583	32738	32743	32743	32751	32740	
2045	0	32764	32743	32623	32887	32605	32729	32749	32615	
2046	0	32751	32719	32742	32639	32849	32751	32710	32773	
2047	0	32740	32707	32783	32826	32726	32763	32773	32663	
2048	0	32751	32637	32804	32687	32798	32791	32795	32731	
2049	0	32748	32735	32799	32725	32671	32771	32695	32517	
2050	0	32799	32687	32759	32797	32642	32788	32846	32677	
2051	0	32801	32583	32628	32551	32823	32745	32847	32647	
2052	0	32749	32762	32726	32799	32807	32703	32773	32515	
2053	0	32775	32719	32845	32731	32787	32804	32754	32647	
2054	0	32769	32703	32725	32790	32691	32717	32799	32669	
2055	0	32775	32719	32671	32767	32823	32764	32751	32711	
2056	0	32759	32655	32581	32789	32813	32847	32793	32573	
2057	0	32761	32517	32695	32799	32789	32775	32751	32771	
2058	0	32764	32734	32769	32551	32647	32731	32775	32775	
2059	0	32751	32735	32615	32775	32898	32727	32775	32643	
2060	0	32793	32631	32643	32707	32775	32721	32733	32751	
2061	0	32721	32647	32587	32757	32867	32759	32690	32714	
2062	0	32690	32634	32631	32889	32679	32775	32731	32799	
2063	0	32758	32516	32687	32647	32807	32662	32719	32620	
2064	0	32760	32739	32711	32817	32727	32741	32774	32783	
2065	0	32713	32645	32799	32629	32821	32829	32805	32707	
2066	0	32775	32619	32775	32791	32647	32694	32671	32591	
2067	0	32784	32683	32826	32703	32799	32751	32763	32676	
2068	0	32839	32716	32839	32743	32708	32821	32765	32703	
2069	0	32800	32591	32713	32875	32775	32751	32791	32766	
2070	0	32793	32527	32635	32695	32663	32707	32715	32623	
2071	0	32813	32617	32794	32790	32700	32785	32714	32477	
2072	0	32764	32711	32729	32786	32735	32775	32718	32675	
2073	0	32809	32702	32747	32524	32647	32733	32701	32662	
2074	0	32743	32755	32717	32807	32723	32799	32807	32508	
2075	0	32673	32535	32760	32613	32815	32815	32775	32689	
2076	0	32737	32628	32695	32743	32769	32706	32775	32679	
2077	0	32748	32677	32564	32621	32865	32823	32835	32563	
2078	0	32813	32647	32573	32711	32823	32719	32733	32636	
2079	0	32791	32709	32695	32683	32707	32772	32775	32679	
2080	0	32756	32525	32791	32799	32775	32756	32755	32559	
2081	0	32748	32551	32809	32773	32769	32756	32871	32673	
2082	0	32742	32785	32731	32815	32796	32773	32771	32643	
2083	0	32707	32798	32670	32861	32660	32835	32797	32647	
2084	0	32667	32655	32759	32612	32639	32763	32735	32527	
2085	0	32711	32631	32745	32823	32817	32788	32828	32711	
2086	0	32727	32693	32743	32563	32747	32773	32795	32713	
2087	0	32769	32573	32759	32702	32811	32743	32730	32647	
2088	0	32729	32819	32687	32711	32614	32850	32795	32813	
2089	0	32757	32587	32501	32698	32854	32733	32735	32787	
2090	0	32791	32765	32621	32638	32854	32755	32703	32637	
2091	0	32742	32743	32703	32671	32623	32719	32727	32827	
2092	0	32757	32514	32604	32735	32797	32821	32663	32717	
2093	0	32712	32749	32735	32706	32775	32815	32713	32743	
2094	0	32751	32711	32647	32645	32694	32709	32683	32636	
2095	0	32795	32562	32751	32764	32801	32743	32791	32613	
2096	0	32794	32708	32717	32803	32715	32843	32813	32773	
2097	0	32769	32679	32604	32821	32805	32789	32866	32771	
2098	0	32759	32563	32780	32831	32706	32757	32751	32613	
2099	0	32732	32679	32788	32891	32743	32867	32783	32601	
2100	0	32745	32676	32669	32803	32759	32783	32810	32660	
2101	0	32739	32487	32765	32834	32807	32717	32825	32679	
2102	0	32759	32523	32694	32949	32639	32719	32793	32573	
2103	0	32751	32671	32711	32885	32811	32705	32827	32519	
2104	0	32799	32730	32612	32873	32805	32719	32807	32643	
2105	0	32790	32634	32713	32863	32785	32804	32676	32658	
2106	0	32751	32638	32775	32798	32743	32765	32701	32691	
2107	0	32793	32601	32626	32851	32725	32719	32709	32750	
2108	0	32769	32734	32703	32687	32885	32715	32727	32629	
2109	0	32710	32511	32605	32726	32747	32765	32813	32647	
2110	0	32788	32711	32812	32751	32789	32799	32803	32715	
2111	0	32830	32687	32774	32815	32732	32767	32751	32754	
2112	0	32786	32591	32685	32815	32841	32742	32711	32534	
2113	0	32775	32518	32743	32759	32804	32695	32711	32537	
2114	0	32809	32733	32685	32647	32782	32759	32721	32701	
2115	0	32773	32711	32759	32677	32723	32870	32836	32621	
2116	0	32748	32635	32756	32767	32772	32741	32799	32747	
2117	0	32763	32615	32807	32691	32811	32733	32804	32686	
2118	0	32797	32711	32711	32736	32702	32751	32831	32550	
2119	0	32741	32787	32719	32660	32775	32690	32735	32796	
2120	0	32754	32532	32723	32633	32775	32829	32759	32687	
2121	0	32704	32637	32634	32647	32751	32836	32676	32675	
2122	0	32724	32671	32852	32623	32827	32731	32861	32583	
2123	0	32774	32535	32763	32679	32722	32705	32851	32567	
2124	0	32780	32516	32693	32675	32749	32703	32772	32726	
2125	0	32752	32643	32723	32633	32847	32815	32743	32690	
2126	0	32790	32775	32525	32694	32647	32727	32719	32739	
2127	0	32879	32612	32657	32647	32834	32692	32751	32551	
2128	0	32879	32703	32549	32559	32805	32727	32775	32579	
2129	0	32793	32775	32655	32603	32791	32815	32743	32655	
2130	0	32717	32679	32679	32751	32788	32789	32737	32751	
2131	0	32813	32669	32831	32647	32659	32772	32734	32775	
2132	0	32745	32745	32732	32572	32775	32767	32711	32628	
2133	0	32738	32559	32743	32503	32791	32747	32692	32623	
2134	0	32775	32751	32714	32621	32679	32748	32703	32735	
2135	0	32788	32759	32755	32641	32863	32799	32828	32710	
2136	0	32753	32732	32647	32771	32740	32727	32754	32748	
2137	0	32726	32647	32695	32775	32775	32763	32725	32587	
2138	0	32749	32607	32741	32534	32735	32738	32771	32775	
2139	0	32781	32671	32631	32827	32873	32759	32713	32727	
2140	0	32815	32711	32692	32740	32743	32707	32799	32763	
2141	0	32759	32681	32773	32805	32743	32757	32775	32567	
2142	0	32655	32771	32695	33029	32759	32783	32822	32599	
2143	0	32639	32535	32797	32676	32791	32643	32763	32687	
2144	0	32676	32485	32723	32733	32671	32807	32828	32711	
2145	0	32705	32799	32810	32775	32819	32827	32764	32775	
2146	0	32786	32647	32747	32543	32719	32775	32775	32628	
2147	0	32806	32668	32726	32843	32790	32765	32814	32717	
