# OpenSignals Text File Format
# {"00:07:80:3B:46:38": {"sensor": ["CUSTOM/0.5/1.0/V", "CUSTOM/0.5/1.0/V", "CUSTOM/0.5/1.0/V", "CUSTOM/0.5/1.0/V", "CUSTOM/0.5/1.0/V", "CUSTOM/0.5/1.0/V", "CUSTOM/0.5/1.0/V", "CUSTOM/0.5/1.0/V"], "device name": "EMGs", "column": ["nSeq", "DI", "RA_L", "RA_R", "OE_L", "OE:R", "IL_L", "IL_R", "MF_L", "MF_R"], "sync interval": 2, "time": "14:31:30.337", "comments": "", "device connection": "BTH00:07:80:3B:46:38", "channels": [1, 2, 3, 4, 5, 6, 7, 8], "date": "2017-6-2", "mode": 0, "digital IO": [0, 1], "firmware version": 772, "device": "biosignalsplux", "position": 0, "sampling rate": 1000, "label": ["RA_L", "RA_R", "OE_L", "OE:R", "IL_L", "IL_R", "MF_L", "MF_R"], "resolution": [16, 16, 16, 16, 16, 16, 16, 16], "special": [{}, {}, {}, {}, {}, {}, {}, {}]}}
# EndOfHeader
0	0	32756	32755	32767	32583	32470	32631	32615	32900	
1	0	32734	32731	32782	32591	32469	32164	32820	32932	
2	0	32807	32562	32719	32715	32669	32269	33346	32498	
3	0	32783	32627	32701	32885	33019	32895	32858	32715	
4	0	32708	32583	32687	32611	32775	33255	32492	33185	
5	0	32749	32673	32711	32735	32733	32989	32527	32970	
6	0	32806	32748	32735	32791	32623	32482	32711	32743	
7	0	32823	32693	32743	32765	32589	32107	32617	32689	
8	0	32790	32745	32775	32631	32540	32543	32581	32929	
9	0	32775	32762	32705	32718	32802	33174	32567	33087	
10	0	32775	32660	32722	32601	32717	33197	32603	32775	
11	0	32790	32695	32599	32573	32916	32989	32513	32742	
12	0	32804	32575	32647	32735	32685	32494	32642	32885	
13	0	32748	32732	32711	32639	32700	32522	32639	32807	
14	0	32746	32762	32685	32726	32711	32968	32818	32594	
15	0	32759	32548	32753	32647	32671	33354	32823	32562	
16	0	32834	32702	32750	32733	32775	33274	32762	32319	
17	0	32753	32735	32806	32699	32757	32926	32761	32540	
18	0	32791	32617	32806	32513	32578	32433	32743	32742	
19	0	32740	32633	32712	32679	32574	32589	32634	33077	
20	0	32839	32555	32731	32631	32861	32996	32413	33285	
21	0	32780	32707	32741	32645	32612	33271	32727	32701	
22	0	32742	32690	32756	32679	32668	33159	32751	32495	
23	0	32738	32526	32789	32543	32690	32591	32615	32574	
24	0	32727	32735	32685	32511	32831	32275	32804	32664	
25	0	32699	32748	32767	32711	32732	32598	32756	32623	
26	0	32745	32535	32661	32824	32999	33085	32788	32527	
27	0	32726	32713	32709	32730	32757	33099	32771	32757	
28	0	32775	32621	32735	32479	32811	32891	32733	33127	
29	0	32728	32797	32715	32621	32846	32358	32767	32957	
30	0	32699	32815	32751	32749	32729	32348	32662	32799	
31	0	32709	32756	32757	32750	32559	32601	32742	33014	
32	0	32705	32711	32775	32707	32759	33067	32694	32943	
33	0	32719	32663	32771	32423	32756	33217	32775	32763	
34	0	32781	32795	32727	32603	32687	32747	32645	32753	
35	0	32753	32718	32741	32647	32641	32310	32738	32717	
36	0	32722	32587	32742	32806	32679	32255	32671	32724	
37	0	32789	32711	32785	32677	32735	32859	32703	32743	
38	0	32780	32559	32809	32749	32581	33238	32739	32687	
39	0	32721	32717	32831	32694	32671	33189	32762	32557	
40	0	32762	32709	32802	32684	32702	32491	32699	32527	
41	0	32769	32821	32729	32551	32603	32092	32743	32655	
42	0	32796	32695	32822	32542	32489	32323	32713	32548	
43	0	32772	32708	32813	32477	32578	32813	32863	32439	
44	0	32724	32677	32685	32579	32830	33127	32620	32781	
45	0	32726	32647	32666	32615	32735	33057	32582	32970	
46	0	32709	32709	32692	32775	32647	32534	32588	32991	
47	0	32703	32621	32807	32783	32934	32250	32633	32871	
48	0	32729	32687	32758	32509	32754	32629	32647	32736	
49	0	32757	32703	32786	32844	32775	32998	32882	32659	
50	0	32733	32478	32815	32721	32775	33251	32932	32687	
51	0	32769	32671	32841	32759	32694	32874	32775	32751	
52	0	32772	32700	32850	32549	32711	32327	32677	32885	
53	0	32767	32731	32772	32324	32628	32345	32647	33011	
54	0	32765	32719	32670	32514	32329	32582	32733	32983	
55	0	32807	32719	32721	32660	32590	33221	32551	33005	
56	0	32780	32815	32716	32705	33003	33188	32623	33109	
57	0	32751	32631	32765	32674	33003	32759	32549	32782	
58	0	32785	32687	32735	32634	32775	32171	32641	32809	
59	0	32759	32518	32842	32729	32617	32197	32629	32815	
60	0	32719	32709	32885	32795	32737	32786	32607	32607	
61	0	32758	32694	32783	32875	32703	33095	32559	32254	
62	0	32775	32767	32828	32838	32655	32984	32665	32886	
63	0	32772	32854	32674	32660	32567	32387	32506	33270	
64	0	32785	32861	32646	32671	32692	32089	32647	32879	
65	0	32743	32741	32791	32717	32653	32391	32799	32519	
66	0	32736	32551	32735	32742	32743	33037	32923	32390	
67	0	32772	32655	32730	32818	32743	33107	32843	32372	
68	0	32775	32539	32737	32733	32722	33082	32893	31871	
69	0	32695	32711	32815	32623	32881	32370	32871	32660	
70	0	32721	32566	32855	32630	32663	32312	32877	32819	
71	0	32801	32743	32763	32623	32599	32548	32871	32764	
72	0	32730	32754	32799	32698	32699	33063	32722	32718	
73	0	32793	32527	32897	32541	32628	33365	32741	32807	
74	0	32783	32691	32771	32603	32691	32982	32747	32663	
75	0	32786	32663	32723	32691	32610	32455	32765	32589	
76	0	32795	32756	32726	32714	32604	32455	32609	32838	
77	0	32798	32671	32710	32892	32742	32818	32623	33015	
78	0	32759	32815	32828	32531	32766	33255	32751	33060	
79	0	32740	32789	32847	32671	32719	33167	32797	33073	
80	0	32827	32519	32775	32617	32839	32741	32706	32965	
81	0	32775	32645	32789	32695	32804	32283	32551	32970	
82	0	32724	32524	32772	32536	32526	32314	32832	32903	
83	0	32696	32738	32761	32471	32479	32897	33009	32812	
84	0	32710	32727	32855	32630	32635	33343	32690	32871	
85	0	32749	32825	32718	32546	32847	33223	32655	32922	
86	0	32743	32743	32732	32455	32527	32611	32615	32847	
87	0	32743	32671	32636	32461	32655	32207	32537	32704	
88	0	32768	32679	32701	32582	32741	32639	32756	32835	
89	0	32728	32661	32703	32647	32762	33103	32806	32823	
90	0	32733	32687	32718	32605	32693	33367	32700	32885	
91	0	32809	32503	32727	32743	33129	32919	32707	32727	
92	0	32768	32751	32822	32555	32749	32249	32812	32806	
93	0	32775	32687	32775	32690	32941	32357	32679	32751	
94	0	32818	32692	32676	32639	32903	32679	32740	32733	
95	0	32788	32709	32663	32655	32886	33201	32741	32642	
96	0	32759	32732	32715	32671	32672	33119	33014	32547	
97	0	32700	32727	32743	32595	32487	32831	32873	32625	
98	0	32724	32540	32763	32677	32695	32357	32647	32516	
99	0	32743	32682	32754	32703	32958	32319	32609	32612	
100	0	32698	32508	32763	32637	32763	32971	32602	32527	
101	0	32727	32700	32807	32717	32527	33213	32786	32619	
102	0	32798	32703	32775	32636	32879	33125	32655	32897	
103	0	32719	32711	32805	32930	32277	32724	32773	32783	
104	0	32756	32759	32795	32879	32161	32306	32997	32595	
105	0	32804	32685	32831	32687	32892	32502	32787	32944	
106	0	32780	32718	32766	32391	32934	33129	32436	33195	
107	0	32754	32579	32751	32420	32821	33301	32371	32933	
108	0	32809	32690	32772	32567	32537	32935	32827	32415	
109	0	32819	32799	32666	32675	32409	32482	32479	33159	
110	0	32725	32729	32742	32743	32183	32358	32731	33447	
111	0	32710	32686	32775	32591	32097	32722	32710	33293	
112	0	32777	32684	32727	32674	33232	33281	33060	32200	
113	0	32759	32749	32749	32873	33903	33229	32809	32291	
114	0	32696	32583	32807	32811	33287	32847	32633	32690	
115	0	32772	32773	32772	32831	32882	32454	32533	32340	
116	0	32853	32783	32795	32780	32659	32446	32503	32365	
117	0	32871	32832	32769	32565	32775	32863	32660	32562	
118	0	32771	32771	32835	32460	32714	33220	33007	32580	
119	0	32769	32623	32806	32498	32735	33059	33031	32553	
120	0	32809	32821	32806	32591	33193	32742	32621	32895	
121	0	32731	32551	32734	32607	32372	32207	32180	33375	
122	0	32655	32687	32751	32633	32371	32376	32350	33405	
123	0	32686	32548	32722	32903	32415	32790	33330	32883	
124	0	32716	32788	32726	32871	32600	33071	33247	32415	
125	0	32696	32671	32663	32799	32739	33087	32755	32543	
126	0	32683	32745	32678	32540	32677	32455	32661	32561	
127	0	32707	32762	32714	32647	32728	32181	32722	32757	
128	0	32752	32712	32709	32731	32839	32415	32848	32903	
129	0	32775	32684	32705	32815	32735	32865	32691	32793	
130	0	32782	32635	32749	32627	32615	33255	32797	32709	
131	0	32741	32756	32823	32553	32663	33020	32671	32722	
132	0	32678	32767	32825	32647	32595	32327	32601	32775	
133	0	32764	32743	32790	32497	32469	32072	32759	32796	
134	0	32772	32751	32814	32647	32800	32295	32641	32833	
135	0	32751	32535	32765	32596	32722	32759	32722	32751	
136	0	32781	32685	32811	32583	32775	33181	32655	32783	
137	0	32799	32671	32799	32646	32878	32805	32708	32740	
138	0	32796	32739	32787	32575	32833	32247	32715	32711	
139	0	32830	32775	32715	32454	32890	32150	32851	32717	
140	0	32712	32566	32759	32642	32643	32487	32820	32711	
141	0	32704	32647	32692	32699	32407	33085	32819	32556	
142	0	32802	32647	32726	32819	32604	33106	32935	32180	
143	0	32787	32717	32709	32658	32633	32724	32291	33023	
144	0	32711	32545	32718	32580	32501	32246	32039	33367	
145	0	32724	32706	32742	32775	32569	32375	32281	33071	
146	0	32788	32503	32803	32750	32903	32844	32551	32838	
147	0	32758	32726	32771	32593	32670	33271	32207	32879	
148	0	32764	32719	32687	32628	32593	33099	32415	32996	
149	0	32818	32793	32599	32623	32948	32485	33061	32686	
150	0	32813	32747	32631	32647	32974	32263	33401	32432	
151	0	32740	32702	32673	32703	32750	32547	33282	32372	
152	0	32785	32747	32711	32703	32696	33207	33079	32487	
153	0	32765	32611	32755	32743	32734	33159	32423	32862	
154	0	32749	32678	32895	32671	32870	33109	31975	32694	
155	0	32780	32673	32786	32535	32782	32519	32073	32852	
156	0	32794	32692	32759	32541	32671	32340	32551	32994	
157	0	32832	32627	32788	32556	32836	32625	32991	32887	
158	0	32797	32715	32769	32660	32682	33167	33463	32903	
159	0	32791	32517	32797	32615	32809	33306	33215	33077	
160	0	32748	32708	32819	32591	32631	32790	33367	32736	
161	0	32728	32727	32812	32439	32282	32413	32898	32685	
162	0	32838	32634	32790	32595	32581	32516	32611	32399	
163	0	32809	32733	32825	32759	32802	32870	32578	32591	
164	0	32724	32631	32773	32735	32683	33401	32697	32630	
165	0	32761	32757	32740	32771	32568	33255	32846	32541	
166	0	32690	32755	32671	32595	33089	32625	32735	32605	
167	0	32757	32551	32727	32687	33295	32179	32726	32836	
168	0	32748	32719	32766	32818	32967	32511	32787	33090	
169	0	32780	32762	32679	32756	32610	33079	32861	32903	
170	0	32717	32602	32647	32725	32597	33393	32893	32850	
171	0	32713	32622	32711	32591	32601	33173	32676	32592	
172	0	32783	32673	32721	32749	32741	32420	32415	32599	
173	0	32738	32533	32812	32773	32609	32372	32487	32646	
174	0	32774	32767	32903	32697	32703	32647	32559	32767	
175	0	32806	32627	32984	32594	32935	33287	32484	32719	
176	0	32799	32735	32949	32679	32974	33367	32359	32903	
177	0	32789	32791	32839	32516	32933	32831	32535	32916	
178	0	32761	32623	32791	32843	32581	32333	32607	32830	
179	0	32762	32748	32724	32846	32351	32451	32453	32804	
180	0	32758	32786	32679	32836	32271	32806	32726	32740	
181	0	32757	32681	32647	32841	32575	33327	32215	32765	
182	0	32770	32727	32591	32617	33111	33233	32411	32855	
183	0	32731	32714	32663	32794	33031	32671	32751	32933	
184	0	32719	32662	32754	32694	32949	32198	33323	32774	
185	0	32711	32679	32804	32703	32919	32454	32849	32886	
186	0	32756	32525	32811	32494	32614	32868	32887	32860	
187	0	32684	32677	32903	32563	32231	33309	33523	32769	
188	0	32671	32566	32883	32646	32345	33011	33281	32703	
189	0	32685	32671	32785	32614	32762	32647	32892	32739	
190	0	32763	32559	32783	32703	32806	32317	32800	32903	
191	0	32756	32738	32663	32661	32655	32385	32655	32895	
192	0	32840	32727	32669	32487	32791	33041	32724	32581	
193	0	32817	32775	32623	32583	32251	33219	33261	32359	
194	0	32736	32717	32775	32655	32066	33018	32893	32955	
195	0	32692	32727	32795	32559	32317	32307	32607	32806	
196	0	32742	32758	32797	32602	32956	32258	32409	32375	
197	0	32681	32620	32801	32705	33333	32551	32489	32545	
198	0	32692	32692	32766	32550	32903	32891	32615	32681	
199	0	32775	32533	32720	32486	33117	33159	32485	32859	
200	0	32723	32695	32699	32621	33095	32631	32358	32935	
201	0	32714	32553	32756	32690	32679	32291	32868	32919	
202	0	32771	32692	32707	32745	32655	32212	32847	32770	
203	0	32778	32576	32719	32854	32599	32682	32900	32700	
204	0	32738	32698	32736	32639	32644	33196	32510	32822	
205	0	32766	32767	32717	32815	32795	33239	32479	32823	
206	0	32815	32731	32719	32730	32834	32563	32453	32743	
207	0	32765	32759	32775	32585	32607	32210	32767	32732	
208	0	32808	32639	32772	32492	32567	32437	32809	32634	
209	0	32796	32816	32751	32681	32751	32883	32740	32716	
210	0	32763	32615	32727	32699	32774	33227	32607	32900	
211	0	32791	32703	32629	32625	32727	32837	32636	32903	
212	0	32780	32549	32635	32535	32887	32472	32809	32893	
213	0	32740	32663	32674	32588	32844	32223	32690	32839	
214	0	32799	32598	32799	32727	32807	32647	32758	32630	
215	0	32781	32671	32821	32821	32783	33206	32561	32831	
216	0	32757	32538	33014	32722	32719	33443	32775	32743	
217	0	32820	32692	32973	32795	32673	32943	32735	32735	
218	0	32709	32745	32854	32566	32711	32548	32719	32834	
219	0	32745	32516	32869	32672	32752	32497	32756	32871	
220	0	32804	32759	32911	32613	32679	32875	32739	32759	
221	0	32720	32654	32847	32735	32624	33355	33030	32719	
222	0	32708	32719	32796	32633	32621	33175	32727	32845	
223	0	32645	32511	32877	32519	32611	32853	32631	32679	
224	0	32772	32699	32867	32767	32695	32304	32354	32493	
225	0	32716	32783	32790	32751	32836	32316	32342	32566	
226	0	32669	32609	32802	32831	32647	32637	32628	32813	
227	0	32710	32711	32853	32583	32443	33012	32875	32619	
228	0	32783	32751	32751	32635	32423	32976	32870	32573	
229	0	32803	32748	32698	32625	33043	32599	32703	32924	
230	0	32786	32756	32677	32499	33227	32214	33077	32941	
231	0	32748	32662	32654	32615	32933	32388	33101	32874	
232	0	32762	32679	32732	32418	32407	32755	32577	32754	
233	0	32791	32637	32817	32631	32473	33250	32369	32755	
234	0	32800	32699	32835	32756	32640	33047	32306	32575	
235	0	32817	32548	32836	32694	32615	32519	32475	32579	
236	0	32804	32741	32663	32607	32829	32156	33151	32584	
237	0	32809	32613	32557	32730	32839	32676	33079	32647	
238	0	32751	32687	32636	32934	32821	32980	32667	32809	
239	0	32724	32588	32655	32802	32455	33231	32677	32741	
240	0	32773	32647	32673	32645	32561	32869	32775	32771	
241	0	32788	32546	32687	32721	32623	32403	32369	33511	
242	0	32751	32642	32758	32684	32643	32535	32228	33653	
243	0	32679	32532	32732	32532	32609	32919	32623	32795	
244	0	32719	32694	32677	32623	32815	33511	32487	32729	
245	0	32773	32763	32787	32523	32676	33347	32898	32621	
246	0	32687	32807	32823	32679	32749	32721	32925	32391	
247	0	32775	32799	32741	32756	32707	32162	33204	32391	
248	0	32819	32765	32717	32775	32843	32482	33362	32486	
249	0	32775	32694	32722	32749	32645	32895	33320	32721	
250	0	32738	32611	32706	32706	32555	33303	32663	32791	
251	0	32743	32703	32775	32511	32678	32887	32495	32795	
252	0	32794	32596	32661	32759	32647	32439	32524	32844	
253	0	32838	32706	32679	32637	32700	32227	32557	32807	
254	0	32770	32515	32791	32585	32647	32451	32708	32663	
255	0	32799	32743	32901	32601	32705	33023	32759	32673	
256	0	32782	32562	32943	32824	32775	33257	32802	32745	
257	0	32799	32703	32895	32637	32831	32838	32647	32797	
258	0	32724	32591	32783	32594	32717	32371	32751	32812	
259	0	32727	32677	32750	32775	32677	32285	32677	32717	
260	0	32823	32601	32743	32862	32820	32775	32646	32636	
261	0	32734	32677	32767	32753	32743	33200	32499	32662	
262	0	32700	32511	32898	32756	32657	33191	32509	32551	
263	0	32711	32639	32807	32711	32487	32639	32550	32966	
264	0	32724	32627	32814	32463	32391	32369	32503	33175	
265	0	32720	32813	32743	32623	32444	32480	32721	32735	
266	0	32720	32899	32679	32658	32593	32894	33191	32733	
267	0	32830	32700	32694	32763	32821	33375	32899	32803	
268	0	32820	32758	32647	32447	32836	33146	32819	32903	
269	0	32829	32587	32716	32754	32852	32372	32919	32721	
270	0	32791	32787	32804	32714	32700	32361	32564	32813	
271	0	32721	32762	32831	32791	32598	32633	32413	32903	
272	0	32732	32613	32751	32607	33041	33213	32551	32845	
273	0	32784	32694	32775	32670	32498	33294	32647	32868	
274	0	32719	32591	32837	32546	32499	32775	32634	32815	
275	0	32772	32795	32661	32487	33101	32375	32786	32788	
276	0	32775	32801	32715	32654	33468	32329	32871	32757	
277	0	32823	32786	32793	32519	33220	32850	32871	32708	
278	0	32742	32785	32745	32547	32493	33215	32453	32715	
279	0	32720	32538	32775	32623	32431	33332	32399	32708	
280	0	32719	32727	32797	32677	32641	32868	32058	32727	
281	0	32767	32613	32775	32636	32695	32444	31782	32840	
282	0	32802	32666	32712	32460	32477	32498	32207	32922	
283	0	32813	32764	32762	32756	32957	32919	32869	32788	
284	0	32863	32812	32722	32770	32791	33367	33198	32706	
285	0	32820	32804	32655	32764	32615	33095	33491	32721	
286	0	32786	32591	32671	32717	32669	32572	33948	32594	
287	0	32749	32731	32639	32698	32337	32126	33705	32583	
288	0	32704	32660	32612	32758	32512	32503	33542	32592	
289	0	32726	32631	32735	32791	32551	33074	33102	32681	
290	0	32736	32679	32804	32615	32508	33207	32829	32722	
291	0	32730	32647	32793	32743	33091	33038	32546	32763	
292	0	32626	32671	32909	32605	33028	32310	32295	32749	
293	0	32756	32607	32830	32641	33094	32266	32299	32629	
294	0	32718	32785	32845	32657	33024	32637	32355	32727	
295	0	32778	32791	32855	32586	32615	33063	32423	32370	
296	0	32733	32669	32868	32763	32365	33175	32615	32293	
297	0	32745	32775	32799	32647	32608	32845	32763	32627	
298	0	32683	32594	32863	32721	32597	32364	32925	32932	
299	0	32749	32710	32731	32524	32546	32378	32877	33375	
300	0	32782	32681	32646	32676	32639	32630	32402	33455	
301	0	32745	32630	32647	32696	32839	33183	32321	33434	
302	0	32773	32783	32615	32503	32775	33181	32793	33287	
303	0	32749	32621	32703	32417	32527	32707	33007	32931	
304	0	32756	32701	32762	32463	32487	32179	32718	32775	
305	0	32725	32743	32710	32669	32589	32237	32589	32847	
306	0	32746	32588	32738	32673	33098	32869	32668	32498	
307	0	32713	32647	32715	32821	32859	33250	32572	32476	
308	0	32737	32671	32679	32719	32950	33004	32675	32457	
309	0	32758	32775	32671	32729	32655	32597	32758	32591	
310	0	32718	32720	32734	32630	32450	32129	32823	32551	
311	0	32716	32534	32743	32626	32497	32391	32895	32687	
312	0	32767	32749	32705	32671	32623	32982	32959	32727	
313	0	32803	32663	32791	32767	33142	33261	32741	32701	
314	0	32778	32567	32814	32603	33120	33007	32487	32773	
315	0	32828	32647	32815	32630	32711	32327	32610	32743	
316	0	32887	32589	32882	32721	32589	32291	32593	32761	
317	0	32783	32608	32865	32641	32898	32621	32572	32871	
318	0	32740	32628	32870	32653	32703	33071	32519	32823	
319	0	32781	32658	32836	32745	32647	33229	32747	32775	
320	0	32756	32714	32715	32647	32750	32685	32948	32852	
321	0	32784	32589	32623	32642	32877	32331	32701	32637	
322	0	32712	32751	32695	32684	32672	32270	32839	32629	
323	0	32703	32679	32703	32434	32468	32607	32575	32885	
324	0	32719	32756	32695	32447	32587	33012	32492	33015	
325	0	32741	32780	32809	32589	32699	33123	32591	32871	
326	0	32698	32583	32773	32611	32775	32586	32767	32719	
327	0	32731	32623	32759	32692	32975	32066	32596	32861	
328	0	32800	32511	32771	32591	32769	32222	32933	32927	
329	0	32800	32639	32851	32693	32614	32963	32873	32775	
330	0	32732	32598	32922	32865	32605	33394	32973	32643	
331	0	32756	32665	32791	32855	32583	33023	32903	32666	
332	0	32750	32743	32692	32743	32695	32497	32869	32667	
333	0	32767	32731	32692	32879	32681	32276	32692	32631	
334	0	32713	32655	32751	32775	32487	32300	32599	32631	
335	0	32828	32677	32775	32686	32698	32973	32471	32843	
336	0	32740	32541	32811	32487	32802	33253	32321	32869	
337	0	32799	32683	32759	32457	32873	33031	32591	32895	
338	0	32716	32590	32655	32631	32775	32423	32925	32756	
339	0	32769	32597	32743	32455	32756	32379	32967	32633	
340	0	32796	32640	32715	32599	32781	32903	32941	32519	
341	0	32726	32543	32748	32546	32615	33306	32941	32665	
342	0	32690	32751	32710	32923	32503	33396	32775	33007	
343	0	32727	32708	32711	32823	32406	32847	32695	32903	
344	0	32770	32575	32716	32767	32668	32135	32946	32756	
345	0	32732	32740	32747	32471	32871	32278	32826	32713	
346	0	32739	32662	32782	32593	32583	32860	32621	32787	
347	0	32809	32511	32845	32591	32612	33263	32655	32757	
348	0	32719	32711	32722	32610	32746	33087	32573	32895	
349	0	32671	32676	32739	32391	32935	32669	32573	32793	
350	0	32766	32603	32775	32614	32786	32045	32685	32751	
351	0	32801	32735	32748	32748	32543	32388	32601	32731	
352	0	32788	32599	32698	32795	32674	32978	32773	32773	
353	0	32728	32646	32847	32829	32823	33182	32787	32735	
354	0	32740	32572	32826	32675	32740	33003	32828	32621	
355	0	32797	32659	32803	32687	32690	32489	32914	32391	
356	0	32784	32708	32727	32582	32694	32365	32772	32669	
357	0	32734	32639	32803	32473	32647	32537	32566	32858	
358	0	32756	32702	32826	32605	32719	33124	32525	33031	
359	0	32675	32583	32799	32519	32330	33365	32748	32855	
360	0	32655	32741	32743	32743	33026	32813	32495	32999	
361	0	32703	32719	32667	32743	33039	32468	32548	32903	
362	0	32762	32599	32723	32599	32703	32364	32517	32730	
363	0	32768	32734	32647	32769	32957	32684	32559	32663	
364	0	32794	32789	32665	32835	33059	33202	32879	32591	
365	0	32788	32657	32670	32561	32803	33227	32911	32813	
366	0	32775	32831	32727	32719	32742	32931	33106	32807	
367	0	32793	32759	32786	32662	32482	32303	32903	32921	
368	0	32789	32628	32773	32701	32404	32254	32613	32967	
369	0	32742	32730	32860	32552	32340	32878	32685	32894	
370	0	32663	32715	32922	32633	32532	33238	32487	32820	
371	0	32687	32599	32868	32637	32924	33245	32410	32615	
372	0	32738	32645	32743	32595	32921	32743	32417	32751	
373	0	32769	32591	32804	32740	32663	32208	32362	33025	
374	0	32813	32706	32719	32773	32715	32431	32437	32771	
375	0	32791	32715	32820	32684	32807	32677	32727	32615	
376	0	32775	32449	32791	32514	32566	33252	33015	32357	
377	0	32788	32699	32804	32455	32919	33093	32903	32663	
378	0	32716	32611	32854	32591	32820	32597	33099	32775	
379	0	32765	32737	32855	32583	32631	32313	32839	32719	
380	0	32742	32668	32806	32644	32455	32356	32719	32541	
381	0	32728	32564	32751	32685	32695	32911	32525	32636	
382	0	32668	32719	32775	32775	32663	33349	32742	32743	
383	0	32729	32786	32630	32725	32769	32999	33095	32487	
384	0	32752	32567	32644	32662	32557	32479	32951	32455	
385	0	32760	32705	32628	32758	32871	32293	32807	32628	
386	0	32830	32599	32677	32732	32924	32512	32812	32911	
387	0	32780	32734	32681	32757	33021	32999	32550	33159	
388	0	32756	32740	32729	32543	32775	33309	32772	32983	
389	0	32764	32585	32734	32691	32757	32949	32885	32990	
390	0	32713	32587	32710	32586	32663	32451	32541	33126	
391	0	32825	32551	32861	32771	32772	32249	32090	32870	
392	0	32799	32770	32821	32605	32727	32591	32018	32914	
393	0	32750	32711	32894	32621	32828	33157	32129	32356	
394	0	32759	32527	32917	32711	32551	33342	33183	32217	
395	0	32765	32723	32931	32563	32719	32827	33231	33063	
396	0	32759	32691	32903	32703	32704	32430	33410	32938	
397	0	32773	32796	32811	32706	32707	32420	33439	32668	
398	0	32758	32782	32751	32639	32727	32871	33111	32639	
399	0	32795	32783	32663	32615	32633	33356	32599	32647	
400	0	32775	32823	32711	32663	32685	33279	32515	32741	
401	0	32775	32791	32647	32589	32807	32547	32772	32748	
402	0	32735	32782	32767	32706	32436	32370	32759	32646	
403	0	32698	32711	32716	32818	32071	32503	32538	32731	
404	0	32741	32674	32695	32693	32789	33117	32518	32816	
405	0	32762	32551	32742	32661	32619	33183	32527	32804	
406	0	32758	32730	32692	32767	32455	32799	32363	32903	
407	0	32775	32804	32667	32677	33039	32391	32012	32903	
408	0	32759	32727	32671	32750	33317	32260	32431	32767	
409	0	32788	32749	32755	32708	33191	32612	32820	32729	
410	0	32724	32710	32894	32735	32858	33159	33351	32633	
411	0	32786	32729	32924	32555	32686	33167	33630	32575	
412	0	32735	32703	33047	32611	32639	32663	32999	32679	
413	0	32759	32595	32845	32717	32565	32327	32436	32718	
414	0	32753	32738	32759	32494	32718	32279	32356	32662	
415	0	32730	32623	32762	32645	32567	32812	32668	32749	
416	0	32836	32815	32679	32630	32687	33274	33159	33049	
417	0	32837	32799	32634	32727	32639	33026	32989	33078	
418	0	32749	32553	32553	32505	32559	32645	32740	32797	
419	0	32778	32721	32527	32502	32522	32263	32447	32769	
420	0	32812	32738	32639	32619	32390	32434	32111	32841	
421	0	32777	32543	32690	32588	32370	32917	32175	32836	
422	0	32817	32678	32639	32638	32647	33315	32621	32679	
423	0	32731	32639	32711	32699	32797	33105	33191	32683	
424	0	32801	32483	32727	32703	33309	32369	33050	32871	
425	0	32791	32679	32807	32471	33025	32127	32812	32647	
426	0	32749	32502	32897	32582	32824	32523	32872	32819	
427	0	32770	32665	32868	32681	32826	33050	32903	32623	
428	0	32773	32569	32811	32605	32748	33261	32561	32827	
429	0	32751	32707	32836	32719	32703	32814	32749	32671	
430	0	32743	32739	32735	32567	32615	32348	32647	32466	
431	0	32716	32582	32647	32740	32763	32375	32559	33086	
432	0	32730	32751	32727	32724	32674	32705	32467	33071	
433	0	32756	32615	32805	32806	32612	33157	32756	33047	
434	0	32723	32687	32866	32620	32743	33119	32783	33111	
435	0	32735	32647	32873	32823	32849	32798	32703	32855	
436	0	32767	32771	32895	32757	32847	32319	32818	32796	
437	0	32751	32669	32859	32795	32868	32381	32796	32555	
438	0	32783	32746	32788	32626	32641	32818	32801	32549	
439	0	32708	32695	32799	32733	32673	32941	32626	32559	
440	0	32740	32565	32797	32701	32706	33071	32458	32639	
441	0	32700	32671	32675	32439	32774	32497	32431	32708	
442	0	32749	32677	32669	32620	32741	32153	32563	32827	
443	0	32841	32775	32647	32701	32687	32295	32478	32591	
444	0	32710	32753	32703	32773	32756	33071	32482	32739	
445	0	32692	32556	32791	32698	32733	33303	32563	32731	
446	0	32745	32699	32757	32695	32691	33023	32711	32786	
447	0	32751	32603	32802	32867	32563	32287	32851	32775	
448	0	32765	32730	32751	32831	32691	32281	32995	32725	
449	0	32804	32654	32686	32551	32615	32599	33565	32740	
450	0	32751	32775	32756	32668	32239	33037	33174	32887	
451	0	32708	32583	32892	32439	32169	33029	32646	33221	
452	0	32767	32701	32767	32473	32101	32863	32590	33135	
453	0	32833	32783	32679	32677	32484	32316	32887	32999	
454	0	32815	32698	32677	32544	33422	32363	32607	32930	
455	0	32826	32811	32671	32601	33459	32643	32198	33133	
456	0	32820	32611	32623	32463	33221	33327	32263	32686	
457	0	32813	32765	32686	32619	32743	33287	32583	32103	
458	0	32748	32671	32631	32604	32524	32659	32577	32764	
459	0	32791	32741	32654	32612	32556	32372	32766	32804	
460	0	32823	32791	32640	32755	32960	32378	32807	32423	
461	0	32720	32581	32788	32780	32736	32827	32654	32403	
462	0	32727	32684	32874	32804	32553	33308	32951	32506	
463	0	32680	32715	32940	32623	32551	33053	32747	32554	
464	0	32645	32610	32925	32739	32751	32549	32795	32703	
465	0	32698	32711	32900	32630	32767	32196	32825	32987	
466	0	32646	32492	32902	32678	32769	32625	32903	33127	
467	0	32725	32693	32835	32480	32545	33055	32517	33332	
468	0	32682	32687	32734	32631	32612	33157	32599	33129	
469	0	32718	32445	32663	32647	32655	33029	32615	32972	
470	0	32772	32598	32552	32503	32539	32441	32647	32631	
471	0	32808	32679	32511	32615	32647	32452	32535	32081	
472	0	32877	32775	32605	32647	32788	32859	32589	32391	
473	0	32821	32431	32577	32711	32559	33300	32775	33053	
474	0	32793	32626	32532	32683	32564	33283	32865	32809	
475	0	32868	32578	32551	32462	32691	32762	32819	32846	
476	0	32871	32431	32477	32457	32743	32390	32903	32559	
477	0	32903	32633	32422	32487	32677	32311	32903	32433	
478	0	32878	32604	32441	32321	32914	32708	32852	32477	
479	0	32764	32382	32423	32414	32796	33143	32935	32365	
480	0	32771	32543	32511	32623	32882	32955	32868	32373	
481	0	32747	32519	32543	32483	33047	32525	32935	32326	
482	0	32706	32527	32516	32519	32772	32177	33254	32356	
483	0	32724	32532	32420	32338	32795	32341	33028	32751	
484	0	32708	32500	32511	32311	32751	32805	32788	33114	
485	0	32712	32605	32647	32437	32623	33247	32135	33102	
486	0	32694	32563	32775	32527	32720	33005	32391	33043	
487	0	32679	32673	32797	32623	32464	32551	32166	33709	
488	0	32631	32723	33010	32454	32671	32247	32295	33236	
489	0	32647	32555	33037	32397	32863	32580	32172	32466	
490	0	32687	32671	32939	32495	33018	33172	31971	32647	
491	0	32781	32642	33007	32951	32673	33315	32324	32775	
492	0	32801	32829	33090	33255	32543	33045	33585	32621	
493	0	32748	32687	33111	33095	32555	32391	33847	32455	
494	0	32770	32833	33041	33117	32601	32479	33635	32553	
495	0	32698	32813	33139	33191	32502	32769	33124	32406	
496	0	32720	32962	33245	33127	32771	33471	32797	32647	
497	0	32758	33057	33287	33260	32967	33403	32580	32879	
498	0	32751	33087	33266	32961	33351	32871	32663	33047	
499	0	32644	32914	33212	33067	32757	32491	32797	32910	
500	0	32568	32805	33091	33058	32521	32614	33116	32721	
501	0	32722	32761	32942	32969	33019	33078	33102	32455	
502	0	32730	32843	32969	33011	32799	33287	32954	32427	
503	0	32775	32731	32919	33071	32701	33229	32669	32753	
504	0	32775	32807	32753	32775	32573	32636	32475	33054	
505	0	32813	32726	32647	32813	32804	32276	32229	33278	
506	0	32799	32828	32743	32848	32615	32477	32613	33204	
507	0	32773	32617	32698	32669	32298	32939	32662	33063	
508	0	32796	32663	32643	32709	32499	33249	32391	32903	
509	0	32871	32553	32647	32461	33051	32887	32173	32409	
510	0	32868	32735	32724	32581	32691	32402	32615	32263	
511	0	32826	32690	32727	32551	32357	32271	33158	32501	
512	0	32828	32538	32709	32463	32749	32465	33127	33018	
513	0	32782	32687	32722	32389	32524	33107	32767	33119	
514	0	32812	32519	32699	32472	32583	33207	32263	32661	
515	0	32772	32671	32637	32445	32895	32821	32074	32543	
516	0	32807	32673	32676	32554	32882	32335	32165	32765	
517	0	32726	32724	32738	32383	32919	32204	32589	32725	
518	0	32756	32708	32758	32557	32638	32598	32826	32953	
519	0	32671	32713	32811	32551	32398	33012	32819	33302	
520	0	32728	32623	32748	32535	32655	32924	32431	32811	
521	0	32721	32519	32740	32469	32703	32588	32583	32545	
522	0	32701	32638	32742	32626	32701	31955	32322	33044	
523	0	32775	32455	32653	32552	32705	32087	32324	33017	
524	0	32797	32672	32589	32647	32725	32647	32347	33180	
525	0	32756	32584	32591	32545	32671	33011	32815	33215	
526	0	32758	32743	32628	32719	32647	33147	33113	33062	
527	0	32794	32737	32703	32540	32557	32773	33269	32487	
528	0	32804	32583	32655	32566	32812	32295	33325	32297	
529	0	32793	32719	32742	32537	32886	32541	32711	32550	
530	0	32768	32563	32620	32791	32815	32889	32476	32662	
531	0	32765	32707	32601	32628	32890	33251	32819	32851	
532	0	32755	32527	32667	32855	32641	32869	33115	32655	
533	0	32716	32655	32733	32739	32644	32519	33281	32697	
534	0	32810	32537	32820	32775	32780	32280	33016	32818	
535	0	32786	32681	32801	32591	32692	32553	32806	32836	
536	0	32874	32567	32711	32533	32550	32978	32831	32623	
537	0	32751	32647	32663	32687	32707	33230	32767	32741	
538	0	32748	32525	32700	32699	32719	32767	32403	32751	
539	0	32762	32687	32749	32775	32885	32301	32465	32945	
540	0	32756	32542	32827	32571	32672	32247	32484	33070	
541	0	32708	32663	32858	32735	32735	32819	32508	32852	
542	0	32685	32647	32861	32762	32695	33319	32472	32807	
543	0	32716	32739	32878	32826	32717	33230	32579	32863	
544	0	32740	32726	32839	32586	32709	32836	32738	32970	
545	0	32660	32499	32815	32443	32735	32364	32802	32742	
546	0	32709	32668	32844	32415	32660	32695	32791	32447	
547	0	32708	32543	32793	32615	32709	33283	32830	32494	
548	0	32748	32657	32765	32607	32850	33586	32775	32487	
549	0	32785	32507	32703	32359	32863	33052	32814	32355	
550	0	32715	32607	32703	32599	32543	32620	32659	32383	
551	0	32773	32425	32710	32647	32615	32364	32804	32577	
552	0	32709	32725	32775	32830	32532	32675	32543	33050	
553	0	32748	32698	32713	32724	32343	32964	32582	33230	
554	0	32748	32819	32683	32926	32471	32965	32514	33215	
555	0	32838	32791	32711	32820	33319	32839	32495	32834	
556	0	32749	32647	32691	32693	33076	32322	32646	32804	
557	0	32813	32694	32740	32767	32885	32286	32569	33197	
558	0	32760	32608	32703	32635	32446	32813	32391	33100	
559	0	32821	32764	32655	32581	32383	33201	32333	32963	
560	0	32781	32799	32679	32583	32519	33079	32583	32978	
561	0	32775	32732	32753	32633	32535	32858	33077	32642	
562	0	32859	32716	32735	32551	32629	32458	33259	32719	
563	0	32844	32710	32613	32632	32733	32485	32763	32871	
564	0	32695	32615	32667	32653	32679	33047	32647	33095	
565	0	32748	32799	32587	32727	32692	33309	33215	32898	
566	0	32764	32693	32583	32764	32771	33191	33046	32597	
567	0	32735	32797	32701	32823	32769	32609	32487	32603	
568	0	32781	32723	32855	32654	32653	32263	32804	32709	
569	0	32739	32570	32982	32647	32743	32484	32850	32196	
570	0	32757	32711	33034	32644	32614	33002	33234	32016	
571	0	32797	32553	32891	32783	32592	33275	33331	32315	
572	0	32727	32738	32937	32599	32699	32851	32903	32567	
573	0	32716	32631	32860	32758	32801	32389	32730	32994	
574	0	32799	32763	32773	32629	32893	32203	32689	32934	
575	0	32772	32711	32790	32603	32717	32596	32687	32880	
576	0	32686	32763	32813	32653	32602	33229	32487	32965	
577	0	32800	32759	32711	32593	32772	33175	32506	32828	
578	0	32740	32599	32757	32647	32686	32631	32404	32859	
579	0	32697	32627	32858	32533	32772	32254	32483	32842	
580	0	32783	32505	32679	32660	32613	32297	32734	32871	
581	0	32860	32665	32639	32662	32707	32711	32839	32839	
582	0	32756	32659	32636	32743	32623	33259	32918	32610	
583	0	32775	32775	32711	32431	32677	33089	32787	32595	
584	0	32799	32587	32825	32591	32989	32327	32591	33083	
585	0	32806	32705	32919	32556	33019	31985	32508	33298	
586	0	32745	32713	32817	32716	32903	32036	32519	32747	
587	0	32762	32566	32775	32629	32783	32677	32357	32607	
588	0	32719	32663	32763	32822	32605	33047	32426	32359	
589	0	32730	32717	32710	32849	32721	32863	32587	32436	
590	0	32807	32669	32694	32719	32783	32300	32567	32743	
591	0	32836	32735	32647	32956	32640	32088	32845	32825	
592	0	32797	32726	32684	32868	32541	32556	32590	32838	
593	0	32754	32710	32668	32657	32599	33019	32789	32628	
594	0	32804	32740	32691	32519	33028	33151	33104	32551	
595	0	32796	32698	32655	32617	32967	32895	32859	32399	
596	0	32700	32684	32759	32626	32669	32351	32514	32381	
597	0	32743	32519	32775	32699	32655	32434	32628	32681	
598	0	32706	32717	32751	32532	32715	32727	33108	32725	
599	0	32708	32573	32809	32655	32670	33151	32988	32899	
600	0	32696	32647	32871	32470	32548	33245	32730	33170	
601	0	32745	32661	32767	32370	32503	32838	32665	33252	
602	0	32766	32471	32735	32535	32963	32468	32600	33316	
603	0	32740	32726	32742	32676	32826	32628	32743	33223	
604	0	32684	32679	32763	32791	32634	33262	32723	33191	
605	0	32704	32767	32749	32519	32719	33350	32683	33044	
606	0	32701	32727	32769	32664	32727	33191	32570	32847	
607	0	32775	32852	32775	32739	32799	32524	32775	32319	
608	0	32780	32805	32721	32719	32640	32297	32700	32518	
609	0	32716	32578	32761	32751	32534	32474	32350	32846	
610	0	32773	32674	32807	32807	32867	32951	32639	32476	
611	0	32783	32549	32851	32935	32791	33275	32741	32057	
612	0	32738	32674	32817	32620	32631	32959	32735	32006	
613	0	32807	32596	32871	32701	32628	32563	32677	32459	
614	0	32789	32699	32827	32662	32751	32461	32881	33089	
615	0	32879	32793	32804	32506	32807	32929	32994	33359	
616	0	32818	32617	32775	32676	32575	33564	33031	33167	
617	0	32746	32734	32809	32599	32697	33395	32751	33002	
618	0	32751	32641	32829	32486	32629	32970	32420	32903	
619	0	32685	32775	32695	32714	32795	32375	32619	32519	
620	0	32736	32809	32654	32666	32686	32396	32769	32463	
621	0	32774	32627	32663	32710	32611	33003	32975	32413	
622	0	32793	32707	32591	32550	32625	33263	32783	32915	
623	0	32727	32590	32645	32647	32589	32839	32359	32869	
624	0	32749	32749	32611	32745	32451	32388	32507	32613	
625	0	32756	32735	32585	32545	32727	31810	32471	33001	
626	0	32756	32812	32615	32700	32709	32149	32715	33060	
627	0	32729	32709	32652	32647	33151	32761	32910	32175	
628	0	32725	32595	32713	32795	33067	33277	32939	32043	
629	0	32756	32687	32795	32575	32711	32997	33095	32647	
630	0	32772	32643	32775	32709	32452	32425	32873	33023	
631	0	32756	32647	32775	32733	32666	32261	32767	33415	
632	0	32732	32732	32863	32631	32724	32477	32582	33283	
633	0	32716	32569	32911	32617	32671	32983	32742	33089	
634	0	32729	32766	32821	32795	32775	33041	32563	33069	
635	0	32766	32647	32843	32708	32614	32663	32630	32729	
636	0	32743	32847	32793	32884	32493	32229	32559	32698	
637	0	32727	32924	32796	32687	32487	32203	32508	32575	
638	0	32732	32633	32762	32567	32455	32760	32535	32592	
639	0	32718	32665	32780	32431	32563	33158	32594	32646	
640	0	32775	32775	32762	32535	33287	33237	32759	32691	
641	0	32750	32527	32681	32593	33231	32775	32731	32727	
642	0	32803	32621	32669	32797	32551	32295	32903	32449	
643	0	32781	32598	32724	32687	32505	32596	32900	32711	
644	0	32810	32765	32706	32732	32895	33018	32763	32930	
645	0	32753	32769	32797	32684	32836	33366	32916	32607	
646	0	32766	32786	32967	32655	32859	33047	32749	32772	
647	0	32759	32713	32947	32751	32583	32535	32639	32663	
648	0	32686	32541	32807	32627	32534	32279	32577	32532	
649	0	32692	32712	32849	32716	32957	32601	32639	32549	
650	0	32757	32672	32775	32699	33099	33159	32553	32749	
651	0	32712	32783	32695	32549	32863	33357	32735	32968	
652	0	32784	32748	32711	32739	32756	32927	32775	32881	
653	0	32759	32626	32635	32868	32721	32546	32731	32974	
654	0	32769	32785	32565	32509	32457	32480	32827	33251	
655	0	32814	32786	32553	32665	32540	32687	32735	33083	
656	0	32767	32615	32583	32607	32673	33277	32714	32887	
657	0	32767	32687	32685	32533	32695	33150	32554	32955	
658	0	32830	32461	32772	32389	32703	32877	32743	33031	
659	0	32742	32711	32835	32468	32642	32414	32791	32856	
660	0	32757	32743	32865	32575	32783	32505	32441	32929	
661	0	32766	32585	32883	32679	32756	32869	32602	32879	
662	0	32761	32661	32871	32850	32743	33303	32490	32783	
663	0	32761	32662	32879	33011	32647	33167	32669	32595	
664	0	32767	32793	32851	32828	32595	32508	32975	32359	
665	0	32759	32716	32785	32444	32615	32284	33055	32487	
666	0	32745	32789	32837	32569	32900	32413	32698	32613	
667	0	32780	32767	32810	32655	32687	33035	32673	32382	
668	0	32762	32543	32787	32612	32711	33159	32807	32797	
669	0	32849	32679	32638	32631	32938	32999	32858	32979	
670	0	32734	32567	32655	32423	32635	32431	32695	32987	
671	0	32774	32685	32637	32646	32565	32322	33023	32948	
672	0	32794	32625	32677	32562	32574	32465	32847	32588	
673	0	32708	32687	32797	32623	32690	33158	32903	32423	
674	0	32734	32615	32855	32767	32740	33223	32845	32247	
675	0	32684	32725	32871	32787	32629	32690	32743	32415	
676	0	32715	32733	32837	32828	32558	32335	32717	32670	
677	0	32741	32642	32853	32820	32731	32334	32551	33052	
678	0	32756	32671	32823	32851	32679	32587	32770	32743	
679	0	32773	32527	32810	32802	32741	33199	32719	32798	
680	0	32804	32707	32871	32726	32680	33114	32711	32541	
681	0	32775	32775	32711	32843	32641	32479	32716	31895	
682	0	32749	32725	32660	32574	32780	32055	32815	32038	
683	0	32771	32844	32626	32545	32813	32247	32541	32919	
684	0	32756	32756	32591	32685	32528	32531	32539	32942	
685	0	32775	32578	32571	32545	32528	33095	32579	32977	
686	0	32858	32692	32628	32453	32749	32829	32527	33153	
687	0	32765	32594	32647	32598	32757	32327	32497	32842	
688	0	32821	32725	32646	32607	32647	32173	32978	33159	
689	0	32824	32775	32707	32718	32725	32316	32740	33184	
690	0	32820	32601	32765	32551	32762	33048	32637	33181	
691	0	32692	32667	32917	32405	32845	33151	32590	32911	
692	0	32705	32573	32959	32588	32787	33071	32935	32837	
693	0	32751	32701	33007	32611	32702	32516	32810	32853	
694	0	32751	32588	32964	32749	32827	32331	32736	32561	
695	0	32766	32781	32748	32554	32677	32717	32508	32617	
696	0	32743	32751	32629	32637	32567	33107	32625	32671	
697	0	32775	32509	32549	32591	32900	33230	32615	32807	
698	0	32828	32773	32405	32599	32931	32927	32655	32691	
699	0	32841	32727	32461	32739	32749	32391	32903	32588	
700	0	32767	32495	32585	32871	32844	32463	32967	32487	
701	0	32748	32743	32668	32730	32815	32847	32612	32358	
702	0	32735	32812	32679	32788	32873	33334	32826	32549	
703	0	32769	32772	32775	32717	32862	33267	32797	32730	
704	0	32866	32743	32753	32588	32819	32617	32647	33087	
705	0	32791	32583	32782	32677	32766	32215	32697	33047	
706	0	32806	32655	32878	32694	32535	32407	32964	33006	
707	0	32695	32540	32971	32756	32447	32815	33159	33020	
708	0	32685	32695	33061	32547	32562	33394	32959	33175	
709	0	32701	32671	32999	32614	32587	33159	32997	33149	
710	0	32778	32731	32935	32647	32703	32483	32516	32819	
711	0	32714	32699	32803	32709	32703	32279	32322	32516	
712	0	32700	32620	32699	32550	32578	32519	32103	32786	
713	0	32801	32804	32659	32758	32673	33021	32346	32761	
714	0	32775	32636	32708	32676	32561	33189	32679	32239	
715	0	32778	32711	32685	32547	32675	32914	32955	32275	
716	0	32743	32703	32617	32583	32709	32517	33071	32443	
717	0	32724	32739	32594	32589	32760	32378	33001	32902	
718	0	32734	32677	32731	32713	32428	32763	32871	33202	
719	0	32748	32798	32679	32527	32331	33095	33060	32636	
720	0	32775	32612	32683	32715	32431	33379	32793	32370	
721	0	32782	32687	32666	32795	33298	32775	32507	32847	
722	0	32749	32647	32562	32959	33639	32347	32329	32577	
723	0	32785	32709	32576	32644	33068	32237	32410	32668	
724	0	32808	32575	32655	32644	32557	32795	32364	32867	
725	0	32798	32683	32718	32634	32524	33197	32399	33129	
726	0	32695	32642	32799	32860	32519	33191	32982	32915	
727	0	32719	32755	32787	32715	32473	32683	32885	32873	
728	0	32727	32749	32829	32739	32575	32187	32529	32965	
729	0	32768	32596	32861	32614	32477	32343	32564	32546	
730	0	32745	32756	32797	32439	32636	33094	32541	32674	
731	0	32769	32743	32871	32543	32679	33359	32646	32903	
732	0	32748	32743	32979	32743	32743	33244	32727	32838	
733	0	32780	32817	33003	32789	32633	32519	32791	32763	
734	0	32713	32815	33037	32567	32702	32380	32813	32743	
735	0	32726	32604	32898	32586	32732	32689	32603	32855	
736	0	32765	32741	32841	32576	32623	33095	32845	32809	
737	0	32669	32683	32800	32500	32961	33235	32903	32757	
738	0	32797	32743	32821	32590	32807	32806	32775	32858	
739	0	32802	32786	32743	32573	33005	32399	32455	33079	
740	0	32786	32735	32644	32753	32710	32327	32522	32979	
741	0	32783	32769	32821	32724	32289	32758	32986	32742	
742	0	32745	32655	32685	32663	32639	33093	32801	32698	
743	0	32812	32647	32711	32567	32751	33188	32540	33023	
744	0	32783	32663	32711	32615	32699	32723	32657	32859	
745	0	32740	32815	32775	32684	32738	32135	32964	32685	
746	0	32751	32749	32732	32640	32628	32391	32789	32702	
747	0	32778	32703	32621	32692	32711	32898	32852	32717	
748	0	32731	32679	32653	32615	32775	33228	32607	32732	
749	0	32676	32710	32709	32610	32711	33079	32723	32799	
750	0	32692	32709	32725	32364	32715	32403	32930	32795	
751	0	32679	32787	32758	32632	32775	32233	32782	32716	
752	0	32774	32844	32735	32727	32655	32418	32758	32689	
753	0	32816	32876	32799	32873	32642	33010	32753	32703	
754	0	32806	32925	32831	32726	32839	33079	32674	32695	
755	0	32825	32767	32807	32891	32895	32941	32734	32735	
756	0	32780	32742	32831	32858	32862	32367	32615	32683	
757	0	32729	32532	32903	32933	32834	32284	32709	32590	
758	0	32764	32597	32761	32978	32804	32549	32622	32554	
759	0	32733	32607	32704	32642	32833	33146	32698	32747	
760	0	32678	32663	32718	32599	32871	33220	32599	32838	
761	0	32695	32630	32712	32723	32835	32873	32689	32895	
762	0	32733	32617	32684	32617	32705	32339	32570	32903	
763	0	32807	32749	32703	32581	32719	32231	32647	32932	
764	0	32871	32725	32749	32303	32775	32765	32591	32855	
765	0	32776	32798	32773	32420	32723	33171	32679	32835	
766	0	32733	32669	32883	32557	32739	33234	32658	32817	
767	0	32717	32692	32963	32637	32733	32527	32698	32911	
768	0	32703	32565	32756	32503	32704	32249	32566	32951	
769	0	32796	32708	32725	32719	32694	32468	32694	32827	
770	0	32743	32748	32690	32679	32757	33001	32719	32765	
771	0	32756	32807	32586	32623	32735	33223	32775	32644	
772	0	32781	32734	32730	32415	32773	33117	32718	32635	
773	0	32731	32717	32989	32711	32731	32519	32706	32603	
774	0	32775	32739	33061	32628	32617	32289	32803	32612	
775	0	32746	32743	32978	32711	32596	32361	32748	32782	
776	0	32730	32697	32631	32762	32655	32802	32823	32814	
777	0	32652	32732	32398	32966	32563	33065	32679	32763	
778	0	32673	32783	32263	32996	32543	32835	32757	32699	
779	0	32725	32712	32251	32903	32676	32090	32750	32742	
780	0	32694	32772	32407	32663	32596	32148	32748	32756	
781	0	32746	32489	32438	32710	32684	32559	32724	32770	
782	0	32793	32631	32655	32663	32670	33057	32645	32815	
783	0	32734	32453	32834	32493	32735	33143	32679	32739	
784	0	32806	32642	32839	32542	32676	32828	32677	32813	
785	0	32716	32535	32839	32637	32479	32364	32715	32804	
786	0	32780	32743	32852	32561	32687	32441	32764	32731	
787	0	32792	32733	32802	32671	32924	32945	32734	32793	
788	0	32788	32775	32775	32499	32838	33298	32655	32775	
789	0	32768	32597	32818	32605	32821	33179	32727	32711	
790	0	32822	32647	32802	32659	32647	32669	32701	32925	
791	0	32834	32510	32543	32916	32668	32364	32695	32911	
792	0	32774	32585	32603	32740	32727	32532	32704	32727	
793	0	32743	32583	32629	32783	32793	33022	32769	32591	
794	0	32763	32631	32636	32559	32734	33327	32675	32751	
795	0	32783	32551	32663	32533	32727	33087	32705	32873	
796	0	32762	32643	32690	32449	32687	32599	32735	32799	
797	0	32833	32642	32796	32423	32620	32364	32852	32684	
798	0	32836	32763	32983	32615	32775	32647	32790	32639	
799	0	32801	32748	33010	32703	32669	33125	32727	32799	
800	0	32775	32775	33052	32825	32527	33030	32775	32715	
801	0	32735	32647	33103	32709	32731	32863	32775	32655	
802	0	32705	32747	32964	32813	32983	32380	32719	32535	
803	0	32695	32552	32910	32673	32973	32564	32783	32719	
804	0	32717	32690	32850	32839	32689	32989	32724	32847	
805	0	32739	32690	32635	32679	32718	33242	32671	32803	
806	0	32724	32623	32634	32726	32797	33092	32771	32707	
807	0	32775	32805	32628	32743	32698	32683	32710	32811	
808	0	32762	32639	32668	32519	32642	32351	32766	32783	
809	0	32782	32807	32729	32454	32707	32451	32803	32869	
810	0	32834	32708	32761	32580	32490	32949	32701	32943	
811	0	32681	32739	32835	32507	32705	33396	32806	32745	
812	0	32770	32557	32879	32724	32914	33071	32677	32671	
813	0	32706	32713	32781	32720	32847	32460	32583	32745	
814	0	32708	32599	32887	32820	32752	32302	32665	32551	
815	0	32730	32791	32924	32861	32729	32727	32687	32499	
816	0	32767	32678	32887	32601	32771	33271	32791	32775	
817	0	32859	32831	33009	32549	32685	33279	32775	32799	
818	0	32820	32719	32909	32438	32771	33013	32732	32687	
819	0	32775	32623	32740	32327	32749	32334	32643	32647	
820	0	32742	32575	32647	32457	32644	32305	32717	32870	
821	0	32733	32612	32692	32631	32743	32647	32574	32855	
822	0	32696	32668	32643	33033	32639	33060	32729	32855	
823	0	32671	32724	32623	33081	32591	33053	32679	33023	
824	0	32695	32645	32707	33078	32859	32574	32671	32903	
825	0	32729	32490	32847	32749	32813	32098	32793	32879	
826	0	32724	32667	32863	32892	32739	32085	32759	32807	
827	0	32729	32615	32807	32582	32501	32612	32703	32783	
828	0	32745	32735	32735	32535	32677	33131	32619	32693	
829	0	32700	32574	32677	32391	32693	32938	32711	32683	
830	0	32761	32695	32548	32284	32706	32484	32717	32719	
831	0	32788	32609	32795	32611	32726	32026	32734	32738	
832	0	32783	32806	32839	32661	32754	32420	32643	32759	
833	0	32812	32579	32809	32789	32884	33031	32691	32739	
834	0	32709	32713	32871	32808	32815	33470	32659	32791	
835	0	32717	32693	32751	32891	32735	32927	32671	32751	
836	0	32743	32839	32661	32862	32691	32359	32671	32757	
837	0	32784	32775	32613	32597	32549	32309	32634	32726	
838	0	32751	32767	32638	32739	32583	32647	32791	32714	
839	0	32736	32643	32723	32623	32692	33167	32793	32746	
840	0	32748	32511	32742	32458	32671	33238	32871	32858	
841	0	32852	32602	32903	32577	32694	32935	32859	32813	
842	0	32823	32468	33037	32647	32583	32455	32761	32775	
843	0	32767	32700	32956	32706	32481	32319	32835	32756	
844	0	32785	32580	32876	32495	32665	32875	32743	32621	
845	0	32741	32692	32855	32469	32753	33367	32694	32647	
846	0	32748	32707	32845	32474	32751	33297	32602	32903	
847	0	32774	32711	32816	32466	32718	32919	32719	32727	
848	0	32783	32607	32823	32566	32659	32335	32695	32630	
849	0	32751	32647	32848	32673	32698	32461	32691	32647	
850	0	32735	32687	32843	32647	32679	33121	32567	32876	
851	0	32730	32713	32699	32767	32749	33465	32679	32930	
852	0	32738	32734	32599	32809	32839	33157	32749	32672	
853	0	32757	32813	32735	32794	32694	32589	32775	32615	
854	0	32773	32807	32717	32491	32598	32383	32710	32654	
855	0	32771	32695	32434	32646	32808	32515	32786	32617	
856	0	32678	32699	32558	32523	32871	33018	32734	32815	
857	0	32682	32781	32579	32679	32626	33239	32761	32791	
858	0	32774	32679	32519	32601	32507	32901	32807	32855	
859	0	32775	32530	32550	32978	32815	32367	32644	32991	
860	0	32830	32782	32695	33045	32975	32344	32793	32851	
861	0	32831	32757	32854	33044	32893	32720	32715	32863	
862	0	32767	32758	32859	32845	32597	33119	32682	32812	
863	0	32709	32647	32903	32711	32477	33217	32757	32663	
864	0	32783	32751	32819	32761	32692	32571	32611	32844	
865	0	32741	32637	32593	32451	32699	32111	32601	32883	
866	0	32734	32701	32563	32535	32830	32259	32522	32885	
867	0	32768	32681	32719	32655	32700	32829	32767	32677	
868	0	32745	32587	32645	32548	32771	33188	32866	32647	
869	0	32756	32676	32647	32703	32684	32911	32762	32785	
870	0	32794	32621	32773	32573	32775	32299	32873	32759	
871	0	32806	32771	32931	32727	32747	32007	32679	32842	
872	0	32801	32750	33029	32562	32791	32213	32775	32879	
873	0	32751	32702	32811	32729	32817	32687	32615	32811	
874	0	32688	32581	32619	32631	32868	33193	32719	32805	
875	0	32762	32775	32679	32631	32809	32941	32715	32713	
876	0	32737	32623	32647	32471	32719	32285	32807	32647	
877	0	32684	32689	32546	32531	32613	32229	32753	32803	
878	0	32744	32736	32533	32534	32672	32524	32663	32738	
879	0	32729	32771	32583	32707	32725	32931	32707	32636	
880	0	32773	32591	32668	32735	32783	33227	32705	32595	
881	0	32799	32647	32961	32490	32759	32863	32793	32588	
882	0	32734	32470	33063	32508	32751	32379	32739	32661	
883	0	32742	32625	32823	32574	32471	32496	32679	32671	
884	0	32746	32612	32646	32647	32435	32947	32573	32879	
885	0	32703	32692	32897	32663	32563	33264	32757	33076	
886	0	32773	32593	32805	32644	32767	33217	32764	32972	
887	0	32716	32701	32687	32761	32714	32839	32702	32815	
888	0	32775	32597	32757	32559	32797	32359	32561	32718	
889	0	32836	32671	32806	32457	32685	32517	32714	32684	
890	0	32756	32537	32770	32632	32676	32998	32685	32683	
891	0	32700	32756	32879	32665	32690	33470	32756	32646	
892	0	32694	32709	33015	32686	32743	33332	32679	32801	
893	0	32735	32825	32895	32570	32823	32787	32763	32671	
894	0	32790	32799	32766	33029	32775	32389	32716	32534	
895	0	32797	32814	32726	33100	32793	32708	32754	32606	
896	0	32829	32846	32751	33145	32846	33191	32754	32585	
897	0	32835	32854	32775	32865	32695	33215	32793	32623	
898	0	32773	32833	32828	32783	32671	32992	32675	32791	
899	0	32753	32837	32721	32717	32736	32455	32763	32788	
900	0	32756	32751	32646	32867	32660	32403	32663	32898	
901	0	32679	32717	32615	32506	32581	32647	32548	32863	
902	0	32676	32503	32610	32322	32572	33111	32615	32832	
903	0	32729	32673	32625	32439	32733	33153	32629	32941	
904	0	32711	32597	32679	32519	32810	32586	32715	32967	
905	0	32742	32683	32807	32549	32676	32098	32617	33018	
906	0	32735	32718	32809	32412	32655	32329	32655	32923	
907	0	32743	32673	32716	32634	32751	32709	32692	32767	
908	0	32775	32714	32685	32743	32726	33069	32812	32823	
909	0	32723	32775	32702	32850	32695	33119	32786	32711	
910	0	32727	32775	32705	32636	32692	32525	32894	32673	
911	0	32703	32879	32701	32807	32677	32079	32560	32775	
912	0	32730	32679	32775	32662	32701	32327	32535	32695	
913	0	32763	32819	32773	32556	32595	32775	32663	32733	
914	0	32774	32773	32710	32503	32600	33042	32799	32731	
915	0	32823	32671	32743	32461	32583	32877	32586	32743	
916	0	32828	32663	32715	32621	32663	32343	32738	32763	
917	0	32829	32551	32709	32543	32683	32317	32658	32785	
918	0	32788	32694	32786	32441	32663	32551	32615	32895	
919	0	32769	32721	32767	32487	32691	33158	32572	32732	
920	0	32746	32743	32706	32484	32674	33199	32765	32699	
921	0	32773	32631	32631	32813	32578	32813	32811	32775	
922	0	32826	32789	32605	33063	32665	32247	32887	32829	
923	0	32820	32647	32615	32724	32739	32359	32923	32738	
924	0	32781	32796	32696	32911	32758	32847	32827	32751	
925	0	32748	32620	32799	32840	32702	33287	32803	32695	
926	0	32655	32671	32867	32745	32729	33378	32638	32631	
927	0	32719	32559	32793	32603	32783	32879	32775	32593	
928	0	32742	32617	32766	32617	32895	32247	32684	32748	
929	0	32665	32459	32764	32535	32873	32508	32756	32807	
930	0	32711	32646	32763	32647	32788	33053	32793	32802	
931	0	32762	32585	32698	32569	32838	33298	32789	32801	
932	0	32805	32703	32864	32519	32735	33159	32710	32815	
933	0	32797	32679	32975	32576	32706	32546	32787	32759	
934	0	32804	32612	32943	32591	32665	32186	32726	32643	
935	0	32772	32693	32812	32727	32841	32626	32677	32745	
936	0	32804	32608	32841	32751	32772	33156	32703	32775	
937	0	32756	32687	32911	32647	32807	33254	32743	32767	
938	0	32775	32691	32847	32798	32773	32917	32692	32717	
939	0	32710	32725	32839	32713	32831	32214	32773	32726	
940	0	32782	32534	32791	32644	32735	32347	32705	32743	
941	0	32828	32722	32684	32646	32629	32737	32706	32796	
942	0	32795	32563	32583	32526	32626	33149	32751	32775	
943	0	32820	32729	32545	32645	32727	33279	32772	32727	
944	0	32727	32573	32659	32615	32667	32731	32775	32646	
945	0	32758	32647	32757	32738	32755	32270	32765	32690	
946	0	32749	32513	32737	32527	32679	32497	32714	32702	
947	0	32812	32644	32682	32691	32704	32885	32775	32667	
948	0	32821	32710	32637	32775	32655	33219	32675	32711	
949	0	32751	32773	32631	32740	32683	32965	32647	32733	
950	0	32789	32795	32541	32743	32662	32594	32511	32694	
951	0	32827	32677	32735	32727	32761	32203	32644	32676	
952	0	32820	32816	32771	32559	32698	32328	32634	32706	
953	0	32760	32745	32745	32586	32727	32876	32715	32839	
954	0	32751	32681	32752	32566	32601	33089	32743	32879	
955	0	32717	32724	32671	32619	32591	32919	32484	32847	
956	0	32725	32609	32615	32477	32756	32317	32647	32724	
957	0	32799	32775	32716	32538	32829	32407	32727	32719	
958	0	32805	32823	32786	32559	32861	32769	32727	32871	
959	0	32743	32677	32890	32694	32823	33359	32762	32774	
960	0	32746	32735	32903	32855	32797	33279	32694	32783	
961	0	32727	32638	32974	32775	32638	32705	32663	32761	
962	0	32724	32743	32975	32866	32603	32271	32724	32797	
963	0	32689	32644	32978	32642	32791	32301	32679	32669	
964	0	32692	32703	32928	32701	32869	32566	32657	32791	
965	0	32727	32527	32917	32735	32789	33198	32623	32815	
966	0	32756	32621	32903	32669	32803	33031	32815	32807	
967	0	32789	32567	32767	32673	32647	32683	32703	32703	
968	0	32725	32573	32723	32439	32575	32185	32711	32839	
969	0	32698	32564	32743	32496	32636	32349	32684	32758	
970	0	32756	32754	32729	32583	32738	32999	32786	32751	
971	0	32745	32775	32715	32623	32743	33184	32726	32694	
972	0	32815	32716	32855	32832	32741	33159	32807	32719	
973	0	32767	32749	32877	32679	32711	32594	32817	32711	
974	0	32710	32557	32987	32659	32557	32263	32876	32613	
975	0	32775	32775	33060	32559	32729	32567	32839	32687	
976	0	32749	32669	33053	32534	32636	33068	32870	32689	
977	0	32740	32866	32903	32359	32716	33351	32835	32725	
978	0	32660	32647	32759	32555	32643	33119	32581	32725	
979	0	32683	32767	32743	32407	32659	32602	32679	32741	
980	0	32626	32623	32694	32676	32692	32492	32719	32786	
981	0	32640	32739	32813	32764	32660	32943	32742	32870	
982	0	32692	32711	32729	32793	32620	33254	32646	32940	
983	0	32754	32655	32543	32851	32655	33315	32631	32919	
984	0	32781	32662	32566	32838	32708	32807	32807	32848	
985	0	32758	32667	32594	32518	32782	32263	32876	32870	
986	0	32741	32760	32685	32844	32772	32487	32790	32804	
987	0	32754	32551	32732	32899	32755	32841	32845	32814	
988	0	32734	32679	32690	32865	32759	33261	32694	32835	
989	0	32762	32633	32644	32805	32775	32991	32695	32771	
990	0	32655	32671	32642	32687	32657	32461	32647	32801	
991	0	32720	32589	32583	32437	32639	32247	32740	32809	
992	0	32776	32766	32685	32676	32625	32382	32683	32834	
993	0	32754	32759	32773	32683	32646	33065	32690	32818	
994	0	32794	32795	32749	32773	32654	33241	32611	32783	
995	0	32820	32861	32835	32671	32735	32807	32703	32789	
996	0	32847	32795	32770	32719	32797	32299	32663	32781	
997	0	32748	32811	32773	32762	32687	32169	32757	32731	
998	0	32779	32582	32743	32732	32663	32671	32607	32791	
999	0	32698	32710	32679	32658	32655	33170	32589	32750	
1000	0	32703	32685	32623	32655	32647	33205	32617	32847	
1001	0	32768	32751	32599	32330	32733	32675	32636	32772	
1002	0	32839	32718	32685	32575	32709	32318	32727	32771	
1003	0	32808	32753	32806	32674	32759	32364	32671	32791	
1004	0	32758	32695	32799	32655	32810	32815	32679	32660	
1005	0	32743	32435	32846	32547	32728	33261	32775	32655	
1006	0	32654	32621	32763	32395	32669	33068	32749	32747	
1007	0	32687	32466	32727	32794	32734	32471	32719	32731	
1008	0	32691	32705	32727	32742	32791	32243	32601	32775	
1009	0	32720	32578	32782	32858	32753	32434	32758	32790	
1010	0	32766	32639	32831	32618	32759	32935	32775	32703	
1011	0	32772	32530	32781	32766	32605	33223	32785	32709	
1012	0	32756	32618	32878	32751	32698	33109	32689	32758	
1013	0	32797	32578	32855	32745	32732	32439	32693	32901	
1014	0	32773	32855	32631	32641	32711	32230	32627	32895	
1015	0	32805	32732	32658	32612	32703	32484	32720	32930	
1016	0	32782	32612	32647	32703	32672	33075	32831	32850	
1017	0	32749	32705	32647	32647	32699	33199	32719	32825	
1018	0	32759	32793	32615	32578	32723	32822	32804	32692	
1019	0	32833	32850	32726	32654	32742	32415	32784	32632	
1020	0	32790	32795	32802	32673	32631	32378	32814	32681	
1021	0	32745	32702	32758	32443	32576	32679	32724	32823	
1022	0	32774	32804	32806	32731	32682	33245	32657	32815	
1023	0	32806	32743	32775	32734	32670	33215	32735	32757	
1024	0	32837	32746	32831	32813	32767	32630	32691	32815	
1025	0	32809	32621	32833	32551	32849	32333	32724	32805	
1026	0	32738	32716	32765	32774	32669	32466	32679	32824	
1027	0	32704	32533	32790	32730	32657	32911	32739	32867	
1028	0	32652	32579	32729	32655	32662	33359	32667	32791	
1029	0	32653	32484	32655	32388	32803	33053	32698	32735	
1030	0	32695	32587	32762	32495	32860	32407	32659	32731	
1031	0	32678	32497	32829	32495	32751	32279	32679	32839	
1032	0	32644	32626	32868	32743	32879	32454	32647	32803	
1033	0	32679	32559	32809	32909	32743	32748	32765	32773	
1034	0	32740	32761	32765	32711	32709	33101	32693	32749	
1035	0	32806	32695	32783	32693	32743	32671	32767	32783	
1036	0	32828	32791	32767	32765	32826	32002	32763	32830	
1037	0	32784	32795	32675	32650	32716	32119	32871	32592	
1038	0	32829	32846	32689	32899	32742	32582	32808	32775	
1039	0	32768	32642	32829	32749	32557	33074	32655	32851	
1040	0	32709	32758	32791	32690	32723	33298	32711	32791	
1041	0	32757	32687	32681	32607	32754	32773	32658	32767	
1042	0	32814	32734	32696	32516	32843	32273	32793	32789	
1043	0	32788	32677	32711	32599	32566	32443	32794	32783	
1044	0	32856	32719	32764	32615	32694	32804	32732	32754	
1045	0	32855	32791	32682	32735	32684	33372	32717	32726	
1046	0	32864	32775	32771	32742	32757	33141	32623	32743	
1047	0	32787	32739	32732	32463	32662	32805	32751	32691	
1048	0	32775	32749	32851	32647	32670	32391	32646	32789	
1049	0	32688	32756	32791	32660	32729	32367	32719	32763	
1050	0	32615	32671	32802	32540	32756	32867	32695	32759	
1051	0	32716	32735	32709	32583	32738	33247	32732	32806	
1052	0	32808	32775	32613	32690	32817	33079	32719	32825	
1053	0	32756	32791	32643	32623	32705	32596	32677	32789	
1054	0	32791	32668	32739	32460	32791	32263	32774	32717	
1055	0	32854	32851	32751	32425	32772	32758	32679	32807	
1056	0	32793	32790	32635	32621	32743	33159	32758	32879	
1057	0	32739	32756	32663	32676	32716	33287	32606	32823	
1058	0	32767	32771	32541	32615	32659	33119	32683	32716	
1059	0	32762	32571	32623	32519	32621	32471	32626	32671	
1060	0	32751	32703	32750	32664	32743	32279	32768	32639	
1061	0	32751	32587	32805	32711	32751	32823	32723	32623	
1062	0	32692	32705	32798	32717	32729	33297	32723	32679	
1063	0	32724	32647	32775	32895	32829	33188	32803	32736	
1064	0	32773	32715	32775	32763	32679	32939	32815	32758	
1065	0	32712	32577	32786	32747	32727	32213	32781	32735	
1066	0	32692	32738	32767	32647	32703	32333	32727	32801	
1067	0	32708	32591	32756	32755	32706	32757	32801	32804	
1068	0	32736	32762	32810	32654	32681	33133	32767	32731	
1069	0	32751	32640	32811	32819	32708	33179	32794	32775	
1070	0	32749	32711	32754	32663	32631	32500	32679	32826	
1071	0	32764	32485	32796	32722	32610	32263	32684	32860	
1072	0	32801	32679	32764	32791	32765	32446	32697	32840	
1073	0	32751	32720	32839	32647	32756	32968	32791	32711	
1074	0	32771	32631	32815	32903	32679	33334	32721	32693	
1075	0	32783	32756	32788	32819	32708	33174	32703	32759	
1076	0	32706	32611	32837	32703	32751	32643	32733	32822	
1077	0	32743	32634	32895	32814	32799	32516	32708	32782	
1078	0	32745	32759	32937	32580	32815	32766	32647	32810	
1079	0	32712	32548	32865	32364	32796	33261	32821	32719	
1080	0	32761	32647	32735	32420	32895	33221	32748	32659	
1081	0	32721	32519	32639	32479	32831	32863	32709	32685	
1082	0	32695	32671	32565	32563	32676	32292	32767	32743	
1083	0	32751	32762	32675	32703	32772	32307	32769	32705	
1084	0	32793	32708	32668	32662	32684	32666	32775	32687	
1085	0	32740	32785	32646	32835	32684	33095	32804	32748	
1086	0	32791	32716	32698	32587	32639	33159	32663	32767	
1087	0	32847	32775	32695	32709	32681	32855	32724	32817	
1088	0	32886	32631	32738	32463	32671	32223	32734	32838	
1089	0	32813	32767	32793	32607	32673	32146	32780	32860	
1090	0	32775	32558	32735	32530	32654	32627	32738	32815	
1091	0	32784	32612	32743	32647	32617	33031	32711	32887	
1092	0	32770	32535	32733	32722	32663	33018	32791	32807	
1093	0	32802	32674	32799	32583	32721	32551	32678	32829	
1094	0	32804	32615	32753	32731	32725	31951	32728	32822	
1095	0	32842	32811	32818	32949	32694	32157	32699	32761	
1096	0	32799	32685	32842	33003	32615	32590	32765	32791	
1097	0	32852	32807	32874	33001	32557	32805	32683	32807	
1098	0	32781	32882	32827	32679	32679	32739	32831	32775	
1099	0	32743	32851	32771	32661	32760	32175	32710	32826	
1100	0	32809	32711	32815	32594	32773	31587	32743	32837	
1101	0	32722	32681	32808	32477	32662	31735	32775	32739	
1102	0	32734	32527	32854	32761	32607	32479	32735	32708	
1103	0	32727	32541	32933	32849	32775	33109	32807	32845	
1104	0	32710	32497	32935	32950	32719	33127	32767	32736	
1105	0	32701	32726	32927	32825	32676	32635	32749	32719	
1106	0	32711	32804	32833	32982	32751	32239	32681	32824	
1107	0	32790	32775	32806	32815	32740	32419	32630	32729	
1108	0	32751	32798	32745	32625	32751	32903	32703	32679	
1109	0	32732	32647	32709	32584	32743	33020	32668	32742	
1110	0	32759	32769	32637	32675	32716	33091	32771	32775	
1111	0	32791	32611	32647	32479	32842	32679	32765	32709	
1112	0	32728	32658	32693	32541	32788	32425	32629	32801	
1113	0	32721	32572	32739	32577	32689	32604	32718	32833	
1114	0	32828	32714	32790	32426	32788	33131	32799	32677	
1115	0	32767	32735	32857	32533	32811	33227	32663	32796	
1116	0	32822	32818	32803	32741	32891	32847	32722	32822	
1117	0	32820	32813	32787	32557	32764	32273	32711	32811	
1118	0	32809	32655	32775	32681	32672	32369	32727	32865	
1119	0	32711	32763	32831	32660	32711	32884	32723	32809	
1120	0	32766	32591	32822	32847	32799	33383	32772	32786	
1121	0	32844	32823	32773	32789	32790	33414	32757	32769	
1122	0	32817	32759	32797	32951	32843	32991	32823	32767	
1123	0	32841	32837	32835	32799	32705	32439	32735	32884	
1124	0	32807	32686	32859	32748	32835	32426	32711	32828	
1125	0	32819	32867	32806	32820	32815	33001	32747	32858	
1126	0	32790	32695	32811	32754	32875	33460	32709	32891	
1127	0	32687	32719	32771	32581	32731	33285	32773	32815	
1128	0	32698	32801	32851	32331	32679	32807	32732	32751	
1129	0	32730	32643	32855	32543	32686	32532	32653	32769	
1130	0	32743	32732	32865	32444	32621	32549	32763	32751	
1131	0	32760	32552	32890	32500	32573	33052	32708	32780	
1132	0	32826	32687	32782	32343	32596	33409	32787	32818	
1133	0	32815	32623	32677	32615	32731	33198	32775	32719	
1134	0	32828	32797	32665	32663	32724	32628	32709	32726	
1135	0	32802	32881	32647	32710	32694	32289	32809	32831	
1136	0	32783	32718	32677	32807	32679	32689	32782	32831	
1137	0	32684	32743	32633	32807	32767	33246	32690	32895	
1138	0	32771	32711	32607	32660	32727	33340	32738	32743	
1139	0	32758	32807	32701	32693	32695	32975	32822	32771	
1140	0	32797	32683	32759	32669	32745	32391	32727	32821	
1141	0	32807	32607	32753	32463	32793	32254	32775	32839	
1142	0	32775	32742	32793	32717	32697	32690	32748	32791	
1143	0	32761	32631	32780	32710	32647	33223	32820	32749	
1144	0	32699	32749	32860	32756	32823	33215	32804	32711	
1145	0	32670	32709	32831	32814	32845	32859	32631	32695	
1146	0	32797	32725	32847	32799	32743	32439	32767	32738	
1147	0	32737	32732	32804	32670	32719	32505	32729	32826	
1148	0	32822	32643	32855	32790	32767	32811	32717	32838	
1149	0	32791	32769	32873	32717	32771	33367	32719	32903	
1150	0	32767	32743	32818	32677	32755	33197	32610	32859	
1151	0	32781	32718	32903	32635	32705	32727	32733	32771	
1152	0	32767	32587	32892	32799	32767	32239	32613	32775	
1153	0	32793	32775	32877	32892	32838	32421	32692	32806	
1154	0	32850	32647	32951	32967	32831	33007	32645	32871	
1155	0	32770	32695	32982	32699	32719	33245	32727	32755	
1156	0	32812	32630	32965	32732	32709	33173	32775	32775	
1157	0	32775	32764	32855	32807	32831	32805	32695	32872	
1158	0	32687	32591	32795	32647	32815	32453	32715	32875	
1159	0	32708	32806	32586	32622	32775	32793	32630	32951	
1160	0	32707	32745	32487	32639	32665	33329	32737	32879	
1161	0	32775	32813	32383	32492	32637	33426	32703	32854	
1162	0	32830	32775	32379	32647	32699	33069	32749	32807	
1163	0	32903	32839	32463	32655	32772	32636	32686	32751	
1164	0	32923	32731	32463	32784	32668	32657	32689	32901	
1165	0	32925	32854	32548	32570	32695	32847	32663	32867	
1166	0	32887	32747	32613	32622	32749	33530	32717	32790	
1167	0	32908	32783	32687	32647	32603	33395	32732	32815	
1168	0	32862	32818	32671	32937	32731	33006	32626	32903	
1169	0	32810	32722	32755	32855	32735	32679	32724	32879	
1170	0	32765	32725	32811	32775	32726	32602	32715	32890	
1171	0	32788	32576	32943	32808	32612	33025	32647	32742	
1172	0	32806	32692	32947	32503	32602	33532	32754	32715	
1173	0	32729	32463	32871	32492	32713	33415	32629	32719	
1174	0	32791	32717	32887	32559	32692	32895	32797	32765	
1175	0	32806	32615	32836	32429	32713	32251	32749	32694	
1176	0	32760	32679	32843	32551	32739	32612	32766	32727	
1177	0	32758	32659	32711	32647	32671	33153	32887	32727	
1178	0	32774	32676	32535	32583	32725	33447	32790	32647	
1179	0	32748	32647	32526	32647	32791	33235	32903	32647	
1180	0	32728	32427	32381	32599	32721	32607	32815	32627	
1181	0	32743	32575	32345	32364	32690	32390	32804	32641	
1182	0	32754	32512	32530	32364	32805	32679	32849	32643	
1183	0	32796	32623	32450	32455	32775	33260	32767	32659	
1184	0	32695	32513	32407	32423	32861	33383	32849	32600	
1185	0	32705	32655	32431	32333	32794	33039	32995	32543	
1186	0	32756	32531	32583	32149	32791	32543	32935	32552	
1187	0	32742	32326	32687	32324	32831	32533	32935	32537	
1188	0	32736	32545	32868	32425	32735	32903	32880	32503	
1189	0	32754	32583	32909	32286	32710	33369	32783	32665	
1190	0	32766	32647	33018	32543	32773	33351	32781	32727	
1191	0	32775	32685	33017	32647	32775	32846	32711	32718	
1192	0	32676	32689	32927	32725	32783	32431	32769	32734	
1193	0	32683	32660	32863	32653	32722	32399	32646	32684	
1194	0	32655	32663	32866	32808	32687	32788	32635	32801	
1195	0	32674	32575	32822	32857	32678	33337	32583	32833	
1196	0	32727	32807	32805	32952	32772	33195	32615	32887	
1197	0	32720	32803	32829	32873	32742	32591	32647	32831	
1198	0	32772	32951	32973	33212	32775	32308	32727	32802	
1199	0	32773	32893	32999	33069	32647	32389	32758	32771	
1200	0	32724	32937	33195	32983	32758	32836	32735	32704	
1201	0	32756	33107	33244	33095	32890	33215	32855	32765	
1202	0	32725	33022	33159	33267	32871	32967	32919	32767	
1203	0	32689	32927	33099	33204	32823	32333	33005	32748	
1204	0	32647	32859	33167	33199	32815	32187	32935	32689	
1205	0	32604	32703	33287	33213	32794	32375	32932	32695	
1206	0	32584	32836	33359	32965	32707	32987	32749	32775	
1207	0	32687	32671	33236	32959	32607	33159	32847	32775	
1208	0	32719	32825	32959	32805	32589	32692	32739	32806	
1209	0	32782	32930	32783	32788	32643	32249	32703	32791	
1210	0	32832	32829	32852	32804	32707	32099	32606	32877	
1211	0	32846	32860	32885	32887	32679	32607	32479	32914	
1212	0	32859	32643	32871	32574	32589	33079	32521	32923	
1213	0	32823	32707	32655	32505	32594	32999	32470	32903	
1214	0	32838	32530	32695	32559	32519	32567	32552	32935	
1215	0	32821	32603	32647	32607	32515	32209	32495	32838	
1216	0	32895	32525	32668	32647	32647	32205	32609	32818	
1217	0	32880	32663	32743	32418	32660	32637	32485	32815	
1218	0	32800	32493	32751	32495	32717	33135	32591	32735	
1219	0	32804	32587	32700	32493	32637	33011	32583	32839	
1220	0	32848	32587	32607	32663	32671	32413	32623	32863	
1221	0	32868	32663	32573	32431	32724	32105	32625	32731	
1222	0	32901	32561	32580	32479	32743	32168	32705	32741	
1223	0	32903	32607	32601	32578	32749	32799	32647	32829	
1224	0	32731	32481	32573	32605	32823	33103	32719	32858	
1225	0	32681	32597	32437	32466	32719	32855	32623	32885	
1226	0	32727	32535	32391	32559	32685	32237	32724	32785	
1227	0	32733	32721	32447	32669	32706	31994	32615	32810	
1228	0	32735	32579	32620	32727	32738	32434	32668	32806	
1229	0	32782	32707	32613	32407	32722	32988	32607	32843	
1230	0	32727	32466	32763	32455	32602	33191	32711	32775	
1231	0	32762	32695	32789	32445	32676	32879	32725	32748	
1232	0	32740	32583	32853	32443	32555	32175	32655	32787	
1233	0	32725	32687	32871	32338	32726	32154	32707	32703	
1234	0	32764	32754	32884	32637	32743	32607	32683	32663	
1235	0	32751	32743	32795	32752	32679	32983	32733	32655	
1236	0	32735	32772	32711	32806	32775	33172	32775	32685	
1237	0	32732	32519	32622	32821	32755	32743	32647	32775	
1238	0	32838	32655	32662	32642	32634	32271	32725	32765	
1239	0	32778	32601	32609	32745	32634	32277	32737	32734	
1240	0	32797	32716	32655	32562	32726	32783	32679	32719	
1241	0	32748	32727	32661	32459	32711	33145	32635	32713	
1242	0	32742	32701	32695	32559	32723	33173	32755	32722	
1243	0	32745	32748	32756	32775	32775	32607	32687	32787	
1244	0	32770	32584	32876	32701	32782	32213	32681	32836	
1245	0	32712	32631	32836	32607	32733	32320	32729	32794	
1246	0	32730	32509	32878	32573	32658	32933	32719	32743	
1247	0	32730	32671	32893	32685	32634	33285	32695	32812	
1248	0	32742	32542	32915	32775	32694	32987	32734	32695	
1249	0	32667	32661	32916	32669	32731	32367	32785	32814	
1250	0	32637	32623	32862	32679	32709	32238	32762	32729	
1251	0	32646	32687	32824	32721	32780	32614	32762	32708	
1252	0	32637	32597	32825	32455	32757	33099	32731	32753	
1253	0	32672	32797	32751	32511	32693	33287	32695	32690	
1254	0	32713	32728	32615	32615	32575	32751	32775	32743	
1255	0	32723	32775	32661	32717	32711	32390	32691	32743	
1256	0	32736	32695	32701	32775	32687	32196	32809	32674	
1257	0	32738	32759	32775	32687	32741	32450	32724	32731	
1258	0	32835	32715	32753	32721	32697	33038	32795	32749	
1259	0	32755	32722	32683	32629	32643	32805	32679	32801	
1260	0	32701	32662	32726	32765	32812	32647	32709	32775	
1261	0	32713	32671	32695	32610	32767	32150	32564	32820	
1262	0	32720	32572	32715	32709	32795	32194	32657	32791	
1263	0	32676	32702	32719	32782	32717	32781	32743	32850	
1264	0	32832	32564	32702	32671	32743	33190	32703	32798	
1265	0	32765	32679	32663	32797	32775	33223	32742	32836	
1266	0	32733	32539	32639	32625	32706	32612	32735	32876	
1267	0	32783	32711	32694	32639	32775	32301	32782	32846	
1268	0	32839	32686	32743	32735	32751	32485	32785	32723	
1269	0	32756	32775	32729	32546	32739	33151	32827	32729	
1270	0	32785	32695	32751	32620	32733	33378	32703	32743	
1271	0	32748	32754	32831	32807	32621	33225	32807	32739	
1272	0	32793	32645	32835	32471	32417	32638	32748	32592	
1273	0	32799	32803	32783	32601	32921	32439	32668	32623	
1274	0	32784	32655	32831	32545	32868	32687	32626	32711	
1275	0	32788	32794	32948	32595	32751	33234	32655	32749	
1276	0	32787	32685	32856	32743	32655	33231	32539	32819	
1277	0	32773	32722	32799	32543	32885	33015	32773	32726	
1278	0	32748	32574	32719	32669	32685	32431	32791	32591	
1279	0	32796	32735	32641	32708	32642	32415	32700	32699	
1280	0	32759	32769	32613	32684	32723	32877	32533	32892	
1281	0	32748	32679	32673	32807	32785	33415	32717	32874	
1282	0	32713	32676	32822	32912	32639	33173	32615	32903	
1283	0	32773	32500	32797	32555	32601	32815	32701	32814	
1284	0	32774	32703	32903	32643	32638	32303	32790	32703	
1285	0	32762	32524	32976	32552	32706	32503	32764	32773	
1286	0	32775	32625	33020	32535	32743	33011	32694	32783	
1287	0	32709	32551	33100	32425	32726	33243	32708	32750	
1288	0	32609	32717	33063	32471	32647	33203	32555	32749	
1289	0	32654	32672	32999	32647	32711	32691	32579	32724	
1290	0	32694	32767	32883	32567	32775	32407	32716	32666	
1291	0	32760	32807	32791	32837	32751	32701	32935	32594	
1292	0	32789	32770	32735	32877	32640	33303	33067	32668	
1293	0	32727	32788	32615	32991	32719	33318	33179	32611	
1294	0	32780	32775	32673	32695	32588	33053	32935	32621	
1295	0	32800	32658	32623	32823	32587	32518	32671	32855	
1296	0	32811	32815	32688	32677	32742	32358	32535	32751	
1297	0	32818	32802	32798	32713	32797	32789	32635	32804	
1298	0	32812	32801	32751	32797	32694	33206	32475	32846	
1299	0	32752	32718	32613	32775	32559	33119	32437	32870	
1300	0	32783	32647	32655	32836	32535	32833	32583	32775	
1301	0	32738	32587	32640	32407	32607	32307	32969	32720	
1302	0	32799	32583	32669	32551	32552	32442	32927	32792	
1303	0	32788	32644	32761	32607	32815	32772	32807	32745	
1304	0	32772	32681	32767	32607	32889	33283	32579	32711	
1305	0	32770	32518	32684	32617	32903	33111	32569	32775	
1306	0	32734	32685	32612	32387	32819	32495	32509	32675	
1307	0	32707	32515	32569	32431	32641	31947	32540	32702	
1308	0	32640	32647	32518	32533	32615	32252	32594	32719	
1309	0	32625	32428	32606	32613	32647	32817	32810	32725	
1310	0	32687	32586	32642	32492	32694	33129	32890	32743	
1311	0	32775	32495	32687	32452	32735	32903	32899	32751	
1312	0	32783	32693	32709	32622	32775	32135	32615	32691	
1313	0	32804	32543	32784	32566	32647	31927	32684	32732	
1314	0	32776	32738	32678	32543	32687	32156	32639	32707	
1315	0	32775	32570	32701	32598	32771	32767	32695	32762	
1316	0	32668	32711	32717	32756	32630	33118	32793	32689	
1317	0	32686	32467	32747	32659	32631	32748	32763	32727	
1318	0	32809	32647	32683	32527	32735	32285	32647	32775	
1319	0	32790	32733	32733	32678	32735	32279	32730	32788	
1320	0	32773	32653	32839	32869	32659	32384	32711	32767	
1321	0	32756	32711	32835	32903	32600	32982	32734	32813	
1322	0	32730	32561	32647	32719	32629	32989	32639	32829	
1323	0	32754	32759	32579	32814	32747	32643	32671	32832	
1324	0	32822	32708	32439	32695	32775	32147	32685	32825	
1325	0	32774	32773	32540	32691	32795	32203	32751	32715	
1326	0	32791	32796	32641	32647	32722	32871	32671	32775	
1327	0	32743	32812	32756	32726	32712	33274	32683	32785	
1328	0	32695	32690	32903	32791	32647	33062	32655	32804	
1329	0	32744	32655	32891	32599	32658	32484	32783	32748	
1330	0	32676	32487	32828	32647	32721	32038	32647	32754	
1331	0	32763	32637	32732	32689	32775	32388	32774	32722	
1332	0	32673	32604	32704	32567	32735	32918	32775	32801	
1333	0	32743	32719	32663	32676	32734	33427	32687	32775	
1334	0	32750	32775	32610	32539	32763	33060	32775	32743	
1335	0	32804	32807	32727	32775	32623	32743	32658	32747	
1336	0	32778	32815	32839	32647	32716	32480	32738	32828	
1337	0	32748	32731	32726	32683	32729	32574	32581	32671	
1338	0	32690	32671	32767	32425	32743	33146	32685	32679	
1339	0	32745	32520	32667	32455	32688	33199	32586	32703	
1340	0	32748	32628	32757	32733	32674	32989	32719	32788	
1341	0	32761	32535	32783	32839	32607	32375	32679	32806	
1342	0	32775	32747	32769	32647	32605	32489	32734	32852	
1343	0	32773	32644	32765	32740	32643	32852	32714	32810	
1344	0	32793	32775	32749	32710	32719	33461	32755	32801	
1345	0	32820	32670	32595	32623	32662	33223	32631	32775	
1346	0	32855	32862	32581	32719	32740	32847	32687	32867	
1347	0	32782	32743	32671	32447	32786	32306	32677	32788	
1348	0	32852	32567	32698	32358	32735	32717	32759	32788	
1349	0	32775	32685	32709	32479	32671	33191	32733	32767	
1350	0	32822	32563	32637	32512	32621	33453	32692	32741	
1351	0	32807	32686	32604	32605	32527	32966	32709	32807	
1352	0	32751	32705	32702	32643	32603	32515	32678	32823	
1353	0	32807	32588	32729	32442	32733	32355	32738	32814	
1354	0	32721	32658	32699	32644	32707	32748	32657	32724	
1355	0	32733	32593	32711	32807	32663	33057	32687	32759	
1356	0	32726	32727	32903	32849	32863	33205	32598	32735	
1357	0	32751	32550	32839	32793	32766	32717	32678	32717	
1358	0	32721	32655	32831	32569	32679	32212	32642	32742	
1359	0	32710	32477	32780	32657	32663	32274	32709	32724	
1360	0	32696	32720	32788	32710	32703	32757	32620	32767	
1361	0	32676	32590	32741	32859	32839	33215	32692	32712	
1362	0	32720	32647	32679	32818	32818	33063	32677	32738	
1363	0	32761	32849	32607	32671	32799	32551	32735	32753	
1364	0	32758	32837	32654	32767	32756	32071	32711	32748	
1365	0	32828	32775	32553	32540	32749	32454	32855	32814	
1366	0	32794	32740	32514	32639	32668	33023	32735	32786	
1367	0	32765	32757	32543	32310	32615	33220	32783	32775	
1368	0	32780	32663	32668	32439	32701	32983	32725	32775	
1369	0	32782	32787	32775	32698	32735	32135	32725	32821	
1370	0	32852	32790	32946	32839	32691	32102	32677	32858	
1371	0	32787	32783	32933	32720	32727	32380	32761	32813	
1372	0	32787	32727	32821	32615	32640	32847	32710	32830	
1373	0	32775	32767	32892	32590	32591	33199	32718	32882	
1374	0	32769	32775	32914	32607	32709	32659	32703	32803	
1375	0	32713	32719	32947	32684	32730	32359	32685	32780	
1376	0	32740	32567	32898	32725	32681	32245	32719	32754	
1377	0	32762	32669	32815	32628	32631	32634	32731	32761	
1378	0	32729	32671	32751	32630	32671	32987	32734	32711	
1379	0	32734	32775	32815	32767	32773	33063	32735	32749	
1380	0	32729	32743	32743	32756	32814	32719	32731	32727	
1381	0	32697	32737	32749	32684	32644	32287	32639	32688	
1382	0	32700	32799	32715	32848	32658	32289	32756	32632	
1383	0	32710	32793	32619	32668	32775	32866	32755	32673	
1384	0	32697	32763	32627	32718	32807	33254	32749	32770	
1385	0	32714	32699	32663	32599	32767	33109	32647	32804	
1386	0	32745	32694	32583	32669	32659	32644	32717	32747	
1387	0	32764	32710	32638	32581	32671	32268	32652	32802	
1388	0	32720	32669	32657	32814	32675	32586	32766	32761	
1389	0	32758	32765	32599	32821	32742	33167	32698	32789	
1390	0	32721	32647	32815	32807	32787	33460	32711	32813	
1391	0	32698	32687	32933	32629	32805	33029	32655	32759	
1392	0	32743	32678	32917	32466	32756	32489	32765	32791	
1393	0	32763	32619	32983	32559	32748	32338	32611	32771	
1394	0	32796	32633	32923	32566	32615	32644	32673	32738	
1395	0	32783	32410	32849	32596	32669	33158	32647	32684	
1396	0	32792	32647	32770	32733	32671	33133	32717	32702	
1397	0	32724	32859	32719	32797	32647	32858	32639	32743	
1398	0	32632	32859	32763	32391	32707	32263	32647	32745	
1399	0	32708	32794	32749	32536	32668	32396	32623	32801	
1400	0	32819	32755	32775	32673	32730	32924	32739	32751	
1401	0	32969	32759	32687	32481	32690	33213	32739	32775	
1402	0	32975	33007	32700	32699	32646	33213	32669	32895	
1403	0	32871	32747	32796	32722	32786	32707	32694	32903	
1404	0	32780	32807	32884	32795	32749	32311	32732	32900	
1405	0	32820	32748	32846	32565	32711	32527	32751	32807	
1406	0	32793	32748	32775	32763	32749	32937	32676	32834	
1407	0	32708	32823	32823	32832	32695	33355	32699	32847	
1408	0	32692	32687	32845	32859	32766	33123	32683	32873	
1409	0	32623	32503	32757	32659	32675	32563	32763	32763	
1410	0	32630	32598	32708	32495	32742	32335	32775	32736	
1411	0	32653	32452	32711	32575	32598	32617	32738	32872	
1412	0	32666	32565	32725	32390	32647	33233	32701	32841	
1413	0	32695	32610	32719	32423	32669	33287	32758	32699	
1414	0	32736	32791	32663	32549	32700	32707	32773	32621	
1415	0	32830	32697	32687	32452	32667	32327	32677	32700	
1416	0	32796	32767	32775	32620	32606	32343	32739	32676	
1417	0	32806	32869	32827	32615	32743	32726	32673	32647	
1418	0	32714	32976	32839	32765	32740	33119	32737	32775	
1419	0	32679	32855	32791	32683	32759	33223	32758	32739	
1420	0	32714	32676	32834	32660	32697	32707	32707	32695	
1421	0	32692	32771	32806	32900	32703	32164	32751	32750	
1422	0	32624	32591	32866	32903	32758	32404	32685	32788	
1423	0	32692	32679	32828	32896	32762	32875	32850	32801	
1424	0	32665	32643	32901	32727	32746	33079	32722	32791	
1425	0	32676	32452	32775	32783	32727	32995	32759	32805	
1426	0	32770	32527	32735	32903	32809	32381	32717	32783	
1427	0	32758	32435	32769	32647	32804	32148	32836	32763	
1428	0	32749	32698	32782	32485	32700	32196	32684	32765	
1429	0	32788	32600	32811	32462	32687	32867	32755	32737	
1430	0	32795	32756	32735	32501	32679	33083	32799	32748	
1431	0	32839	32797	32725	32531	32635	32823	32668	32818	
1432	0	32848	32685	32806	32919	32755	32383	32709	32762	
1433	0	32768	32671	32793	32727	32711	32108	32646	32809	
1434	0	32708	32609	32731	32723	32766	32748	32677	32775	
1435	0	32748	32754	32745	32759	32767	33301	32629	32679	
1436	0	32758	32710	32717	32775	32667	33339	32710	32727	
1437	0	32797	32789	32727	32703	32624	32926	32687	32659	
1438	0	32713	32611	32700	32610	32645	32359	32720	32679	
1439	0	32671	32757	32775	32733	32726	32343	32719	32647	
1440	0	32607	32576	32909	32680	32698	32991	32703	32711	
1441	0	32637	32755	32919	32567	32677	33388	32713	32703	
1442	0	32684	32609	32924	32595	32724	33347	32633	32711	
1443	0	32671	32717	32837	32503	32735	32685	32723	32723	
1444	0	32683	32647	32813	32413	32644	32291	32668	32774	
1445	0	32734	32809	32875	32719	32583	32720	32716	32723	
1446	0	32842	32807	32941	32694	32694	33157	32685	32725	
1447	0	32921	32805	32963	32721	32694	33391	32695	32735	
1448	0	32861	32635	32876	32567	32807	33075	32634	32731	
1449	0	32829	32623	32817	32535	32743	32335	32733	32769	
1450	0	32791	32495	32803	32736	32617	32284	32726	32847	
1451	0	32804	32732	32740	32653	32657	32705	32841	32799	
1452	0	32750	32571	32686	32659	32719	33258	32690	32805	
1453	0	32717	32743	32751	32609	32696	33303	32745	32799	
1454	0	32763	32695	32677	32732	32755	32759	32769	32826	
1455	0	32769	32775	32530	32749	32628	32347	32764	32835	
1456	0	32796	32807	32498	32767	32615	32409	32729	32766	
1457	0	32783	32772	32580	32602	32697	32852	32687	32796	
1458	0	32755	32621	32660	32673	32687	33138	32663	32839	
1459	0	32756	32420	32671	32763	32738	33109	32699	32757	
1460	0	32815	32615	32806	32773	32741	32567	32663	32791	
1461	0	32797	32589	32899	32757	32775	32103	32718	32775	
1462	0	32736	32773	32950	32738	32621	32367	32748	32727	
1463	0	32752	32727	32863	32505	32619	32727	32652	32775	
1464	0	32732	32775	32838	32647	32588	32879	32735	32733	
1465	0	32751	32783	32764	32590	32662	32680	32659	32772	
1466	0	32767	32758	32723	32589	32663	32118	32667	32834	
1467	0	32716	32623	32635	32479	32671	31894	32640	32827	
1468	0	32724	32708	32572	32679	32605	32009	32763	32782	
1469	0	32748	32628	32517	32700	32609	32757	32684	32727	
1470	0	32789	32679	32547	32588	32813	33108	32823	32685	
1471	0	32756	32700	32589	32823	32789	32976	32767	32702	
1472	0	32800	32822	32646	32745	32787	32367	32683	32692	
1473	0	32794	32711	32743	32815	32711	32316	32746	32775	
1474	0	32831	32839	32775	32767	32781	32763	32690	32805	
1475	0	32824	32697	32668	32812	32807	33324	32748	32759	
1476	0	32770	32813	32871	32927	32833	33295	32805	32789	
1477	0	32683	32679	32873	32719	32709	32893	32811	32795	
1478	0	32676	32703	32945	32740	32735	32533	32748	32736	
1479	0	32716	32585	32961	32656	32705	32583	32685	32833	
1480	0	32743	32711	32991	32624	32855	32945	32767	32820	
1481	0	32772	32546	32997	32407	32733	33451	32695	32718	
1482	0	32689	32611	32859	32383	32695	33303	32647	32703	
1483	0	32703	32445	32719	32295	32631	32645	32647	32717	
1484	0	32775	32615	32487	32295	32621	32293	32736	32782	
1485	0	32762	32569	32566	32404	32745	32679	32662	32783	
1486	0	32748	32804	32642	32773	32743	33327	32699	32753	
1487	0	32775	32671	32704	32859	32841	33380	32795	32759	
1488	0	32740	32707	32823	32703	32623	33135	32797	32775	
1489	0	32762	32541	32671	32508	32599	32562	32719	32754	
1490	0	32772	32735	32620	32693	32638	32469	32643	32868	
1491	0	32766	32582	32583	32797	32748	32893	32709	32793	
1492	0	32807	32703	32655	32851	32772	33383	32699	32694	
1493	0	32796	32647	32753	32799	32679	33207	32763	32731	
1494	0	32775	32740	32762	32989	32564	32609	32772	32775	
1495	0	32767	32833	32754	32771	32827	32146	32767	32711	
1496	0	32731	32895	32818	32640	32801	32430	32767	32734	
1497	0	32764	32759	32978	32725	32855	32895	32684	32703	
1498	0	32709	32663	32873	32656	32678	33281	32743	32799	
1499	0	32733	32695	32839	32698	32783	32999	32739	32727	
1500	0	32723	32577	32903	32574	32797	32459	32825	32731	
1501	0	32758	32647	32964	32623	32725	32267	32745	32727	
1502	0	32812	32471	32949	32713	32660	32444	32706	32726	
1503	0	32710	32596	32895	32553	32687	32853	32783	32763	
1504	0	32700	32592	32838	32689	32807	33085	32754	32787	
1505	0	32725	32663	32751	32603	32746	32964	32775	32791	
1506	0	32730	32548	32630	32662	32847	32423	32775	32786	
1507	0	32687	32791	32603	32782	32764	32311	32719	32799	
1508	0	32711	32804	32636	32600	32718	32381	32627	32757	
1509	0	32748	32625	32567	32610	32586	32827	32628	32919	
1510	0	32726	32773	32682	32515	32583	32949	32646	32825	
1511	0	32809	32591	32631	32557	32759	32563	32775	32811	
1512	0	32814	32685	32621	32687	32730	32206	32724	32739	
1513	0	32823	32571	32619	32588	32676	32107	32753	32822	
1514	0	32767	32658	32607	32705	32605	32457	32662	32839	
1515	0	32742	32615	32671	32713	32591	33209	32751	32775	
1516	0	32738	32716	32856	32749	32708	33265	32749	32743	
1517	0	32802	32661	32949	32450	32731	32949	32647	32799	
1518	0	32722	32708	32951	32685	32655	32434	32763	32709	
1519	0	32737	32663	32892	32676	32639	32511	32751	32683	
1520	0	32772	32692	32725	32523	32665	32943	32775	32797	
1521	0	32754	32518	32727	32578	32775	33579	32701	32727	
1522	0	32685	32714	32839	32717	32839	33323	32735	32820	
1523	0	32684	32634	32711	32886	32799	32662	32581	32771	
1524	0	32716	32682	32708	32852	32642	32335	32671	32748	
1525	0	32734	32518	32612	32754	32666	32543	32633	32749	
1526	0	32773	32743	32631	32711	32767	33063	32791	32679	
1527	0	32813	32606	32623	32642	32743	33212	32829	32694	
1528	0	32836	32681	32722	32611	32748	32995	32769	32805	
1529	0	32822	32743	32704	32535	32771	32479	32751	32767	
1530	0	32864	32707	32692	32605	32710	32450	32706	32764	
1531	0	32835	32745	32735	32740	32816	32821	32782	32775	
1532	0	32791	32647	32665	32376	32745	33375	32727	32864	
1533	0	32803	32765	32657	32623	32837	33127	32719	32812	
1534	0	32775	32531	32695	32674	32686	32675	32783	32847	
1535	0	32742	32679	32818	32783	32663	32321	32765	32797	
1536	0	32780	32511	32913	32549	32767	32428	32749	32747	
1537	0	32700	32727	32903	32646	32732	32983	32775	32735	
1538	0	32772	32646	32839	32627	32694	33335	32697	32732	
1539	0	32769	32771	32813	32562	32739	33065	32732	32766	
1540	0	32799	32691	32701	32711	32791	32687	32671	32722	
1541	0	32796	32763	32647	32529	32747	32415	32673	32717	
1542	0	32756	32713	32759	32456	32679	32799	32513	32763	
1543	0	32713	32722	32882	32820	32731	33113	32567	32767	
1544	0	32723	32746	32900	32676	32629	33380	32569	32826	
1545	0	32701	32657	32791	32717	32764	32945	32859	32775	
1546	0	32708	32708	32839	32594	32647	32412	32823	32560	
1547	0	32735	32679	32861	32896	32534	32412	32780	32565	
1548	0	32738	32802	32773	32852	32508	32748	32646	32617	
1549	0	32722	32742	32762	32605	32796	33077	32655	32738	
1550	0	32751	32587	32706	32587	32873	33036	32787	32700	
1551	0	32741	32603	32775	32615	32927	32635	32696	32503	
1552	0	32757	32535	32833	32789	32710	32220	32816	32797	
1553	0	32790	32686	32780	32564	32583	32364	32668	32900	
1554	0	32802	32572	32609	32607	32570	33011	32907	32719	
1555	0	32794	32711	32647	32701	32539	33229	32855	32709	
1556	0	32759	32598	32693	32710	32583	32863	32691	32919	
1557	0	32713	32731	32683	32604	32713	32303	32647	32823	
1558	0	32746	32719	32687	32635	32703	32124	32593	32812	
1559	0	32780	32660	32703	32642	32677	32578	32716	32861	
1560	0	32749	32522	32719	32679	32727	32989	32681	32863	
1561	0	32730	32698	32811	32634	32903	33197	32753	32793	
1562	0	32713	32635	32850	32647	32871	32613	32574	32783	
1563	0	32756	32854	32839	32775	32757	32098	32737	32617	
1564	0	32764	32765	32837	32653	32720	32135	32811	32485	
1565	0	32709	32735	32892	32705	32507	32387	32567	32901	
1566	0	32724	32637	32903	32591	32758	32893	32271	33103	
1567	0	32696	32743	32956	32467	32708	32881	32543	32903	
1568	0	32724	32613	32893	32463	32817	32590	32571	32839	
1569	0	32765	32758	32723	32531	32718	32119	32598	32786	
1570	0	32833	32785	32607	32585	32668	32262	32604	32855	
1571	0	32814	32759	32487	32582	32855	32711	32719	32850	
1572	0	32818	32854	32590	32727	32793	33018	32941	32692	
1573	0	32745	32652	32631	32575	32751	33159	33263	32724	
1574	0	32735	32718	32663	32591	32567	32587	32953	32738	
1575	0	32727	32495	32756	32726	32576	32397	32550	32795	
1576	0	32748	32613	32876	32815	32679	32453	32143	32935	
1577	0	32687	32493	32903	32833	32690	33097	32591	32819	
1578	0	32784	32657	32903	32579	32663	33504	32975	32623	
1579	0	32735	32455	32807	32831	32695	33108	33124	32637	
1580	0	32736	32734	32694	32980	32838	32635	32671	32743	
1581	0	32813	32854	32663	32962	32863	32372	32500	32692	
1582	0	32802	32589	32701	32860	32769	32875	32547	32562	
1583	0	32796	32763	32683	32767	32695	33271	32827	32407	
1584	0	32793	32727	32773	32529	32668	33335	32949	32637	
1585	0	32746	32563	32773	32572	32516	32854	32875	32763	
1586	0	32736	32663	32751	32679	32499	32383	32647	32941	
1587	0	32857	32592	32825	32729	32719	32287	32771	32913	
1588	0	32738	32688	32818	32663	32794	32925	32707	32887	
1589	0	32725	32647	32821	32775	32671	33415	32719	32932	
1590	0	32724	32773	32804	32525	32679	33399	32751	32831	
1591	0	32682	32681	32833	32437	32765	32679	32797	32739	
1592	0	32676	32517	32852	32603	33054	32423	32471	32688	
1593	0	32700	32633	32708	32543	32903	32617	32361	32864	
1594	0	32768	32557	32647	32669	32697	33144	32503	32871	
1595	0	32759	32763	32708	32765	32615	33358	32633	32735	
1596	0	32759	32747	32771	32610	32575	33139	32707	32891	
1597	0	32852	32763	32771	32567	32765	32611	32655	32887	
1598	0	32870	32804	32663	32547	32881	32388	32771	32743	
1599	0	32806	32745	32780	32478	32760	32725	32775	32704	
1600	0	32679	32703	32749	32630	32738	33084	32903	32697	
1601	0	32713	32799	32751	32607	32667	33294	32723	32761	
1602	0	32772	32831	32805	32543	32753	32914	32668	32892	
1603	0	32748	32773	32762	32789	32597	32383	32717	32887	
1604	0	32772	32759	32773	32647	32436	32404	32668	32796	
1605	0	32767	32634	32889	32870	32550	32667	32825	32662	
1606	0	32796	32749	32743	32735	32689	33137	32735	32758	
1607	0	32801	32533	32700	32669	32773	33206	32623	32743	
1608	0	32892	32647	32551	32499	32863	32695	32630	32707	
1609	0	32796	32548	32564	32805	32731	32223	32752	32658	
1610	0	32812	32692	32509	32707	32708	32355	32662	32702	
1611	0	32710	32569	32589	32663	32761	32802	32685	32715	
1612	0	32742	32767	32806	32531	32801	33223	32660	32719	
1613	0	32767	32711	32701	32558	32771	32968	32739	32675	
1614	0	32683	32587	32759	32662	32615	32355	32612	32773	
1615	0	32669	32647	32807	32710	32620	32119	32674	32791	
1616	0	32677	32567	32921	32562	32759	32519	32599	32696	
1617	0	32649	32683	32841	32718	32765	33091	32735	32701	
1618	0	32673	32647	32809	32596	32735	33159	32663	32801	
1619	0	32680	32707	32950	32735	32821	32837	32822	32743	
1620	0	32729	32489	32762	32700	32751	32197	32729	32722	
1621	0	32733	32671	32718	32794	32699	32172	32794	32719	
1622	0	32742	32530	32682	32726	32847	32707	32701	32688	
1623	0	32757	32692	32687	32588	32634	33058	32658	32669	
1624	0	32779	32735	32870	32719	32529	33124	32601	32746	
1625	0	32736	32754	32903	32479	32762	32532	32559	32803	
1626	0	32716	32562	32925	32727	32534	32239	32839	32654	
1627	0	32683	32737	32893	32815	32535	32290	32798	32639	
1628	0	32774	32593	32773	32684	32869	32775	32745	32668	
1629	0	32832	32773	32620	32460	32828	33132	32807	32717	
1630	0	32796	32622	32532	32543	32935	33079	32811	32755	
1631	0	32838	32758	32615	32603	32983	32445	32767	32807	
1632	0	32816	32610	32647	32586	32748	32135	32802	32831	
1633	0	32839	32662	32610	32589	32794	32481	32661	32819	
1634	0	32775	32574	32586	32637	32766	32983	32667	32823	
1635	0	32769	32749	32516	32812	32575	33082	32703	32831	
1636	0	32815	32678	32589	32551	32647	32868	32398	32787	
1637	0	32769	32854	32647	32587	32583	32169	32391	32765	
1638	0	32767	32820	32647	32775	32551	32185	32532	32782	
1639	0	32812	32740	32809	32846	32615	32380	32949	32746	
1640	0	32789	32695	32943	32799	32743	32919	32922	32767	
1641	0	32824	32647	32981	32665	32802	33367	32855	32775	
1642	0	32716	32745	33029	32751	32699	32782	32748	32767	
1643	0	32687	32679	33022	32735	32689	32319	32803	32775	
1644	0	32725	32671	32819	32731	32623	32391	32690	32812	
1645	0	32730	32593	32698	32750	32632	32742	32879	32675	
1646	0	32821	32743	32737	32572	32671	33231	32749	32738	
1647	0	32736	32669	32903	32815	32738	33095	32774	32879	
1648	0	32806	32884	32970	32749	32789	32715	32727	32863	
1649	0	32719	32767	32899	32521	32655	32197	32830	32806	
1650	0	32799	32710	32903	32584	32653	32431	32740	32767	
1651	0	32828	32596	32759	32551	32748	32955	32710	32804	
1652	0	32734	32588	32758	32517	32679	33220	32559	32870	
1653	0	32734	32635	32887	32739	32771	33233	32731	32811	
1654	0	32774	32519	32841	32692	32733	32539	32636	32771	
1655	0	32745	32749	32873	32677	32675	32278	32592	32759	
1656	0	32812	32606	32839	32612	32554	32526	32655	32759	
1657	0	32760	32754	32733	32573	32614	32980	32731	32755	
1658	0	32764	32557	32591	32322	32739	33287	32819	32773	
1659	0	32813	32724	32576	32698	32756	33029	32691	32695	
1660	0	32801	32571	32543	32663	32719	32575	32741	32724	
1661	0	32758	32703	32509	32817	32764	32294	32663	32762	
1662	0	32754	32599	32532	32559	32719	32676	32743	32916	
1663	0	32708	32647	32685	32559	32647	33115	32647	32839	
1664	0	32719	32589	32737	32713	32797	33093	32762	32791	
1665	0	32727	32775	32915	32727	32719	32775	32781	32847	
1666	0	32768	32631	32973	32743	32671	32237	32799	32730	
1667	0	32736	32755	32919	32600	32601	32435	32647	32708	
1668	0	32885	32695	32846	32873	32652	32903	32646	32727	
1669	0	32828	32685	33027	32815	32729	33369	32724	32799	
1670	0	32882	32513	32981	32571	32727	33274	32787	32807	
1671	0	32810	32663	32925	32742	32823	32557	32836	32803	
1672	0	32671	32499	32919	32679	32751	32204	32727	32797	
1673	0	32716	32568	32793	32706	32552	32518	32831	32786	
1674	0	32700	32561	32628	32695	32775	33063	32766	32705	
1675	0	32670	32735	32503	32699	32663	33279	32655	32847	
1676	0	32742	32602	32459	32839	32724	32977	32738	32852	
1677	0	32754	32775	32541	32549	32769	32487	32636	32749	
1678	0	32701	32695	32551	32592	32605	32447	32676	32839	
1679	0	32790	32748	32447	32562	32632	32639	32700	32812	
1680	0	32837	32721	32525	32525	32633	33329	32695	32790	
1681	0	32773	32524	32671	32647	32710	33379	32609	32818	
1682	0	32793	32705	32839	32449	32557	32927	32647	32879	
1683	0	32789	32723	32775	32453	32740	32319	32655	32919	
1684	0	32799	32753	32772	32533	33040	32381	32716	32814	
1685	0	32757	32721	32828	32607	32739	32912	32723	32847	
1686	0	32722	32655	32901	32581	32647	33303	32733	32794	
1687	0	32757	32671	32903	32658	32706	33149	32647	32775	
1688	0	32775	32567	32876	32637	32711	32617	32694	32783	
1689	0	32647	32715	32823	32591	32719	32081	32669	32726	
1690	0	32722	32559	32865	32804	32719	32387	32719	32767	
1691	0	32731	32725	32900	32870	32801	32951	32803	32790	
1692	0	32669	32647	32933	32827	32647	33153	32711	32836	
1693	0	32698	32700	32916	32725	32620	33031	32694	32825	
1694	0	32731	32647	32713	32913	32700	32313	32837	32692	
1695	0	32743	32687	32642	32647	32722	32082	32708	32707	
1696	0	32728	32655	32681	32577	32711	32456	32743	32714	
1697	0	32775	32607	32734	32675	32679	32859	32735	32692	
1698	0	32749	32706	32706	32679	32743	33146	32708	32679	
1699	0	32757	32514	32719	32703	32761	32796	32556	32749	
1700	0	32740	32647	32769	32679	32625	32196	32567	32791	
1701	0	32795	32535	32850	32562	32694	31872	32647	32803	
1702	0	32816	32660	32719	32583	32724	32354	32946	32731	
1703	0	32816	32631	32706	32660	32743	32918	32647	32823	
1704	0	32855	32739	32662	32669	32700	32903	32626	32775	
1705	0	32789	32763	32677	32735	32705	32599	32698	32775	
1706	0	32769	32775	32698	32607	32787	32269	32711	32797	
1707	0	32717	32844	32705	32671	32751	32404	32868	32771	
1708	0	32728	32824	32714	32699	32740	32738	32820	32731	
1709	0	32764	32819	32711	32790	32667	33287	32786	32797	
1710	0	32695	32756	32740	32551	32668	33070	32747	32826	
1711	0	32774	32694	32827	32818	32759	32607	32830	32815	
1712	0	32809	32802	32803	32631	32791	32166	32852	32784	
1713	0	32806	32814	32829	32760	32706	32206	32788	32797	
1714	0	32799	32786	32834	32641	32822	32620	32835	32694	
1715	0	32750	32797	32721	32688	32730	32953	32775	32691	
1716	0	32724	32801	32715	32561	32665	33063	32750	32727	
1717	0	32775	32756	32663	32679	32805	32557	32679	32822	
1718	0	32738	32745	32647	32614	32716	32052	32655	32836	
1719	0	32681	32634	32668	32655	32749	32476	32638	32713	
1720	0	32695	32764	32690	32765	32757	32868	32785	32742	
1721	0	32694	32609	32723	32711	32821	33227	32614	32841	
1722	0	32800	32687	32822	32783	32827	33063	32879	32674	
1723	0	32751	32658	32891	33011	32647	32706	32709	32751	
1724	0	32825	32796	32935	32859	32820	32471	32586	32892	
1725	0	32788	32740	32882	32911	32786	32854	32542	32903	
1726	0	32791	32791	32705	32692	32743	33315	32731	32781	
1727	0	32844	32775	32698	32445	32767	33319	32621	32789	
1728	0	32787	32608	32930	32521	32644	32903	32749	32829	
1729	0	32748	32748	33119	32463	32679	32276	32635	32807	
1730	0	32647	32590	33086	32391	32807	32543	32655	32818	
1731	0	32729	32680	32787	32501	32924	32871	32343	32895	
1732	0	32775	32527	32615	32375	32743	33375	32343	32881	
1733	0	32830	32758	32445	32470	32877	33139	32569	32711	
1734	0	32837	32767	32453	32647	32807	32647	32775	32711	
1735	0	32836	32851	32594	32639	32703	32399	32843	32775	
1736	0	32890	32717	32558	32892	32293	32537	32855	32858	
1737	0	32908	32765	32535	32833	32647	33005	32695	32734	
1738	0	32871	32732	32667	32764	32951	33239	33159	32671	
1739	0	32765	32671	32871	32647	32935	33027	33095	32775	
1740	0	32715	32677	32991	32711	32645	32605	33255	32883	
1741	0	32712	32695	32887	32758	32647	32532	33175	32812	
1742	0	32801	32665	32841	32726	32633	32806	32800	32839	
1743	0	32814	32679	32850	32771	32743	33295	32636	32841	
1744	0	32771	32599	32773	32644	32703	33431	32583	32871	
1745	0	32791	32703	32796	32697	32772	32903	32575	32871	
1746	0	32782	32576	32953	32539	32756	32543	32583	32819	
1747	0	32831	32662	33008	32681	32931	32663	32550	32663	
1748	0	32885	32561	32903	32743	32623	33043	32850	32762	
1749	0	32820	32765	32846	32743	32677	33474	32714	32719	
1750	0	32748	32587	32767	32576	32756	33119	32775	32844	
1751	0	32700	32711	32734	32820	32826	32740	32807	32805	
1752	0	32783	32691	32621	32847	32583	32375	32898	32812	
1753	0	32829	32780	32697	32523	32735	32533	32772	32789	
1754	0	32837	32657	32647	32764	32917	33154	32623	32780	
1755	0	32770	32641	32633	32719	32673	33367	32401	32925	
1756	0	32781	32615	32743	32893	32671	33031	32309	32845	
1757	0	32783	32751	32796	32797	32594	32529	32479	32823	
1758	0	32778	32724	32751	32735	32749	32529	32839	32703	
1759	0	32724	32762	32704	32655	32805	32767	33009	32721	
1760	0	32762	32735	32676	32415	32887	33341	32751	32740	
1761	0	32788	32707	32765	32651	32638	33407	32903	32455	
1762	0	32748	32775	32847	32742	32647	32924	33301	32605	
1763	0	32724	32599	32871	32647	32614	32377	32702	32940	
1764	0	32690	32743	32844	32457	32588	32439	32127	32999	
1765	0	32704	32772	32837	32446	32576	32809	32631	32673	
1766	0	32804	32785	32815	32543	32763	33254	32647	32599	
1767	0	32754	32823	32851	32555	32881	33287	32385	32921	
1768	0	32839	32643	32687	32554	32863	32803	32644	32854	
1769	0	32784	32647	32783	32735	32813	32279	32727	32796	
1770	0	32775	32485	32813	32662	32646	32263	32957	32862	
1771	0	32796	32653	32874	32783	32786	32842	32974	32743	
1772	0	32745	32647	32893	32861	32647	33283	32961	32775	
1773	0	32770	32765	32826	32695	32527	33137	32883	32796	
1774	0	32807	32807	32803	32709	32723	32558	32671	32823	
1775	0	32820	32623	32839	32639	32547	32126	32605	32887	
1776	0	32797	32772	32786	32716	32629	32379	32500	32908	
1777	0	32679	32643	32775	32695	32677	32928	32743	32845	
1778	0	32743	32647	32804	32895	32593	33143	32806	32733	
1779	0	32746	32566	32878	32812	32698	33037	32805	32709	
1780	0	32756	32671	32935	32599	32895	32319	32837	32695	
1781	0	32708	32559	32863	32603	32911	32087	32692	32715	
1782	0	32773	32754	32799	32582	32847	32447	32709	32757	
1783	0	32793	32555	32693	32621	32745	32802	32500	32740	
1784	0	32769	32715	32644	32525	32751	33037	32759	32767	
1785	0	32848	32679	32661	32447	32708	32887	32597	32805	
1786	0	32804	32773	32639	32295	32729	32347	32701	32767	
1787	0	32773	32602	32541	32391	32814	32295	32647	32679	
1788	0	32797	32704	32583	32486	32789	32556	32625	32821	
1789	0	32778	32631	32637	32584	32627	33117	32438	32828	
1790	0	32778	32786	32698	32620	32951	33319	32583	32681	
1791	0	32757	32743	32775	32908	32890	32834	32717	32679	
1792	0	32742	32743	32756	32911	32548	32182	32700	32748	
1793	0	32804	32519	32705	32973	32581	32246	32769	32764	
1794	0	32854	32695	32623	32775	32656	32887	33097	32817	
1795	0	32839	32695	32636	32857	32703	33249	32970	32843	
1796	0	32813	32820	32645	32773	32425	33287	33263	32703	
1797	0	32801	32739	32623	32373	32644	32756	32893	32629	
1798	0	32839	32691	32738	32367	32791	32434	32758	32722	
1799	0	32861	32852	32745	32625	33229	32482	32640	32800	
1800	0	32809	32735	32767	32775	33243	33133	32620	32922	
1801	0	32763	32799	32871	32817	33017	33393	32967	32844	
1802	0	32725	32547	33026	32743	32711	33079	32997	32887	
1803	0	32700	32679	32979	32866	32775	32647	32963	32757	
1804	0	32683	32563	32903	32956	32676	32414	32866	32724	
1805	0	32698	32669	33014	32719	32704	32644	32890	32784	
1806	0	32735	32564	32911	32553	32709	33335	32765	32719	
1807	0	32722	32671	32860	32462	32351	33466	32712	32662	
1808	0	32707	32527	32815	32658	32759	33127	32759	32770	
1809	0	32740	32665	32783	32677	32716	32551	32557	32793	
1810	0	32743	32581	32785	32485	32698	32380	32607	32613	
1811	0	32799	32663	32759	32623	32849	32843	32301	32725	
1812	0	32789	32654	32807	32751	32491	33249	32125	32981	
1813	0	32751	32849	32663	32743	32767	33143	32303	32996	
1814	0	32839	32854	32619	32518	32679	32679	32521	32807	
1815	0	32861	32685	32581	32701	33037	32342	32535	32839	
1816	0	32819	32669	32655	32621	32663	32379	32789	32765	
1817	0	32820	32591	32495	32604	32593	32830	33189	32660	
1818	0	32775	32660	32509	32644	32582	33183	33415	32599	
1819	0	32814	32788	32735	32628	32674	33068	33172	32647	
1820	0	32813	32647	32743	32542	32715	32553	32677	32807	
1821	0	32783	32803	32751	32559	32815	32219	32601	32724	
1822	0	32732	32858	32804	32630	32789	32404	32631	32807	
1823	0	32759	32687	32964	32935	32623	32953	32461	32912	
1824	0	32788	32775	32889	32860	32841	33129	32436	32931	
1825	0	32753	32638	32989	32743	32743	33044	32375	32919	
1826	0	32745	32701	32937	32749	32419	32537	32069	33007	
1827	0	32749	32615	32898	32722	32468	32239	32561	32719	
1828	0	32646	32636	32745	32559	32372	32583	32549	32823	
1829	0	32672	32506	32508	32674	32716	33073	32901	32844	
1830	0	32742	32675	32429	32533	33411	33079	33170	32826	
1831	0	32785	32719	32547	32758	33542	32874	33091	32799	
1832	0	32798	32807	32446	32791	33209	32341	33497	32819	
1833	0	32840	32745	32539	32767	32620	32303	33813	32727	
1834	0	32831	32665	32676	32711	32722	32601	32585	32758	
1835	0	32844	32733	32816	32727	32632	33178	32303	32747	
1836	0	32740	32655	33021	32692	32819	33213	32419	32730	
1837	0	32679	32733	33106	32456	32614	32713	32535	32799	
1838	0	32711	32739	33039	32642	32695	32183	32947	32852	
1839	0	32656	32541	33099	32583	32424	32391	33094	32705	
1840	0	32667	32745	32999	32601	32514	32863	32903	32671	
1841	0	32738	32796	32812	32380	32484	33287	32564	32775	
1842	0	32778	32811	32770	32467	32493	33183	32606	32842	
1843	0	32738	32747	32634	32676	32547	32630	32851	32835	
1844	0	32749	32615	32559	32726	32591	32138	32940	32781	
1845	0	32759	32711	32482	32721	32870	32422	33052	32685	
1846	0	32772	32629	32576	32701	32863	32962	32699	32756	
1847	0	32807	32639	32485	32583	32862	33098	32751	32826	
1848	0	32857	32537	32658	32629	32687	32894	32639	32719	
1849	0	32775	32668	32811	32671	32717	32262	32666	32647	
1850	0	32775	32594	32873	32783	32742	32022	32439	32698	
1851	0	32762	32757	32932	32901	32745	32375	32552	32823	
1852	0	32759	32619	32922	32662	32569	32943	32621	32687	
1853	0	32726	32781	32843	32683	32591	33147	32670	32694	
1854	0	32771	32593	32807	32601	32661	32767	32679	32750	
1855	0	32717	32642	32879	32627	32687	32391	32679	32740	
1856	0	32666	32635	32896	32882	32764	32241	32707	32833	
1857	0	32697	32692	32772	32725	32811	32594	32533	32849	
1858	0	32804	32645	32775	32807	32788	33159	32665	32854	
1859	0	32828	32443	32813	32791	32791	33071	32706	32753	
1860	0	32791	32659	32767	32663	32879	32903	32695	32754	
1861	0	32806	32715	32685	32775	32748	32359	32754	32820	
1862	0	32794	32743	32753	32658	32663	32512	32683	32723	
1863	0	32826	32764	32734	32578	32817	32918	32676	32676	
1864	0	32793	32831	32807	32543	32818	33308	32703	32741	
1865	0	32810	32830	32778	32423	32890	33119	32588	32665	
1866	0	32825	32679	32850	32573	32707	32463	32639	32735	
1867	0	32801	32823	32843	32747	32683	32189	32572	32807	
1868	0	32811	32609	32963	32703	32775	32527	32647	32877	
1869	0	32815	32693	32895	32702	32659	33021	32807	32863	
1870	0	32827	32625	32775	32483	32413	33255	32751	32828	
1871	0	32827	32757	32871	32692	32589	33191	32759	32903	
1872	0	32754	32683	32811	32857	32694	32594	32679	32835	
1873	0	32785	32787	32781	32845	32841	32308	32780	32839	
1874	0	32796	32662	32854	32837	32721	32705	32549	32801	
1875	0	32743	32746	32852	32589	32647	33241	32579	32791	
1876	0	32750	32751	32933	32707	32468	33382	32495	32925	
1877	0	32785	32621	32935	32805	32747	33045	32359	32897	
1878	0	32692	32717	32791	32892	32719	32503	32487	32887	
1879	0	32756	32633	32658	32598	32771	32491	32563	32860	
1880	0	32762	32647	32678	32435	32533	32974	32717	32909	
1881	0	32745	32717	32596	32521	32766	33463	32822	32767	
1882	0	32859	32653	32332	32519	32783	33271	32823	32775	
1883	0	32781	32731	32396	32583	32899	32647	32867	32763	
1884	0	32741	32706	32489	32547	32901	32378	32683	32719	
1885	0	32772	32595	32527	32687	32497	32514	32701	32687	
1886	0	32708	32439	32623	32647	32657	33075	32829	32715	
1887	0	32654	32537	32687	32486	32677	33275	32851	32847	
1888	0	32695	32405	32742	32563	32715	33125	32854	32756	
1889	0	32692	32511	32831	32447	32663	32557	32842	32588	
1890	0	32712	32450	32845	32468	32351	32197	32990	32642	
1891	0	32850	32607	32821	32423	32338	32437	33236	32514	
1892	0	32789	32577	32791	32418	32932	33047	33043	32519	
1893	0	32757	32668	32567	32351	32875	33209	32993	32519	
1894	0	32742	32431	32549	32359	32719	32879	32895	32583	
1895	0	32817	32577	32310	32455	33022	32339	33121	32481	
1896	0	32765	32471	32202	32423	32748	32206	33245	32523	
1897	0	32830	32584	32262	32315	32647	32638	33087	32614	
1898	0	32848	32462	32457	32404	32807	33199	33052	32539	
1899	0	32745	32591	32711	32475	32610	33113	32738	32711	
1900	0	32742	32583	32731	32677	32684	32619	32353	32786	
1901	0	32792	32788	32850	32635	32689	32260	32303	32807	
1902	0	32778	32751	32763	32647	32488	32253	32134	32853	
1903	0	32829	32821	32775	32572	32791	32863	32076	32927	
1904	0	32760	32679	32831	32519	33159	33185	32071	32967	
1905	0	32722	32830	32838	32549	32866	33084	32519	32931	
1906	0	32753	32807	32957	32806	32644	32551	32551	32959	
1907	0	32661	32871	33107	33063	32476	32239	32815	32953	
1908	0	32640	32868	32921	33121	32285	32642	33125	32923	
1909	0	32620	32855	32722	33317	32727	33167	33155	32887	
1910	0	32662	32745	32743	33287	32941	33373	33219	32870	
1911	0	32693	32871	32797	33092	32767	33135	33045	32870	
1912	0	32637	32853	32959	33014	32903	32493	33155	32693	
1913	0	32619	32892	32997	33108	33048	32545	32951	32642	
1914	0	32622	32741	33192	33335	32903	32927	32991	32730	
1915	0	32592	32889	33334	33220	32659	33426	32927	32739	
1916	0	32647	32842	33460	33093	33031	33411	32903	32635	
1917	0	32709	32879	33415	32887	32987	32798	32713	32620	
1918	0	32711	32940	33197	32847	32851	32282	32592	32727	
1919	0	32713	32834	32992	32973	32772	32550	32521	32774	
1920	0	32788	32845	32789	32912	32653	33063	32310	32974	
1921	0	32820	32877	32594	32786	32647	33444	32345	33004	
1922	0	32838	32702	32583	32662	32485	33127	32399	32919	
1923	0	32788	32676	32557	32690	32390	32635	32519	32903	
1924	0	32763	32637	32716	32367	32775	32389	32519	32766	
1925	0	32784	32687	32647	32455	32662	32639	32658	32870	
1926	0	32832	32634	32655	32367	32647	33147	32773	32802	
1927	0	32804	32498	32653	32391	32799	33415	32775	32822	
1928	0	32868	32642	32647	32487	32663	32978	32775	32743	
1929	0	32817	32510	32631	32412	32599	32367	32553	32807	
1930	0	32836	32647	32711	32343	32519	32358	32676	32755	
1931	0	32850	32534	32694	32529	32676	32705	32548	32735	
1932	0	32879	32704	32722	32478	32543	33215	32684	32661	
1933	0	32775	32524	32724	32628	32346	33132	32713	32693	
1934	0	32762	32670	32697	32675	32558	32398	32628	32789	
1935	0	32762	32590	32674	32587	32663	32063	32613	32749	
1936	0	32753	32683	32768	32464	33133	32007	32598	32751	
1937	0	32736	32510	32785	32400	32625	32591	32798	32721	
1938	0	32775	32685	32623	32323	32487	33015	32631	32791	
1939	0	32818	32607	32615	32555	32716	32789	32530	32748	
1940	0	32854	32756	32630	32511	32972	32479	32605	32795	
1941	0	32795	32756	32607	32595	32933	32028	32688	32753	
1942	0	32800	32747	32633	32533	32653	32114	32709	32679	
1943	0	32775	32725	32775	32480	32692	32719	32694	32647	
1944	0	32690	32692	32811	32493	32213	33053	32475	32795	
1945	0	32671	32637	32861	32541	32147	32946	32513	33055	
1946	0	32698	32687	32901	32663	32612	32692	32641	32935	
1947	0	32723	32726	32747	32689	33391	32454	32802	32802	
1948	0	32721	32574	32749	32936	33305	32612	32687	32803	
1949	0	32746	32617	32865	32992	33041	33319	32148	32815	
1950	0	32794	32559	32953	32903	32861	33382	32431	32655	
1951	0	32749	32674	32827	32729	32647	32834	33003	32537	
1952	0	32679	32607	32695	32612	32709	32463	33301	32487	
1953	0	32775	32660	32679	32498	32746	32471	33071	32622	
1954	0	32660	32502	32636	32373	32742	32759	32533	33044	
1955	0	32677	32663	32590	32455	32709	33294	32927	32871	
1956	0	32663	32535	32508	32495	32543	33047	33229	32784	
1957	0	32708	32711	32591	32561	32507	32740	32999	32748	
1958	0	32713	32573	32613	32667	32365	32308	32565	32864	
1959	0	32704	32803	32700	32764	32595	32421	32508	32773	
1960	0	32780	32740	32732	32893	32879	32919	32569	32692	
1961	0	32754	32738	32742	32807	32669	33295	32921	32710	
1962	0	32730	32759	32764	32635	32693	32981	33231	32677	
1963	0	32724	32647	32804	32644	32815	32481	33107	32685	
1964	0	32738	32691	32757	32551	32759	32001	32964	32754	
1965	0	32799	32621	32839	32781	32500	32285	32812	32671	
1966	0	32796	32647	32935	32754	32482	32995	32793	32671	
1967	0	32769	32611	33042	32753	32757	33140	32575	32775	
1968	0	32762	32762	32871	32615	32679	32807	32503	32765	
1969	0	32724	32807	32751	32671	32719	32306	32587	32690	
1970	0	32772	32751	32782	32556	32762	32009	32662	32791	
1971	0	32665	32662	32670	32559	32645	32629	32687	32971	
1972	0	32684	32539	32467	32706	32900	33031	32529	32793	
1973	0	32692	32671	32281	32631	32893	33142	32601	32739	
1974	0	32728	32563	32332	32555	32599	32557	32518	32885	
1975	0	32749	32580	32551	32621	32665	32053	32733	32791	
1976	0	32743	32413	32506	32585	32594	32269	32420	32894	
1977	0	32763	32711	32505	32666	32561	32682	32706	32915	
1978	0	32796	32740	32487	32619	32710	33172	32503	32903	
1979	0	32774	32831	32527	32679	32677	32935	32463	32839	
1980	0	32762	32751	32695	32611	32626	32581	32439	32658	
1981	0	32749	32647	32783	32503	32679	32291	32890	32636	
1982	0	32789	32682	32935	32535	32748	32681	32620	32740	
1983	0	32775	32683	33029	32583	32948	33069	32861	32767	
1984	0	32744	32663	32935	32658	32519	33273	33143	32728	
1985	0	32791	32561	32935	32631	32485	32961	33101	32647	
1986	0	32758	32749	32873	32578	32447	32468	32461	32790	
1987	0	32804	32641	32725	32450	32573	32303	32135	32817	
1988	0	32756	32652	32655	32487	32711	32595	32179	32823	
1989	0	32705	32591	32591	32576	32703	33190	32729	32805	
1990	0	32647	32615	32527	32567	32962	33058	32989	32763	
1991	0	32758	32647	32654	32630	32793	32599	33197	32669	
1992	0	32700	32597	32847	32711	32463	32156	32630	32735	
1993	0	32764	32710	32971	32795	32423	32398	32611	32709	
1994	0	32733	32474	32987	32873	32703	32815	32511	32711	
1995	0	32791	32716	32980	32876	33279	33262	32679	32715	
1996	0	32775	32610	32947	32710	33267	32883	32455	32695	
1997	0	32730	32657	32890	32575	32707	32463	32662	32735	
1998	0	32701	32559	32830	32585	32655	32189	32560	32767	
1999	0	32804	32740	32728	32495	32592	32564	32586	32865	
2000	0	32754	32719	32757	32681	32535	32937	32698	32698	
2001	0	32775	32839	32867	32832	32543	33111	32807	32629	
2002	0	32876	32751	32891	32861	32559	32847	32731	32771	
2003	0	32742	32815	32742	32758	32614	32183	32875	32817	
2004	0	32758	32751	32700	32694	32682	32055	32936	32733	
2005	0	32796	32567	32795	32575	32581	32413	33001	32705	
2006	0	32782	32712	32678	32595	32602	33135	32895	32647	
2007	0	32783	32639	32767	32702	32647	33245	32869	32783	
2008	0	32688	32740	32775	32844	32821	32627	32767	32847	
2009	0	32686	32769	32850	32562	32681	32167	32631	32736	
2010	0	32660	32671	32855	32578	32871	32377	32661	32704	
2011	0	32660	32692	32908	32391	32713	32728	32484	32784	
2012	0	32671	32634	32957	32424	32668	33191	32495	32807	
2013	0	32638	32667	33157	32481	32675	32966	32813	32782	
2014	0	32631	32587	32951	32647	33005	32471	32748	32723	
2015	0	32762	32711	32688	32763	32690	32230	33157	32559	
2016	0	32711	32519	32596	32686	32413	32615	32773	32599	
2017	0	32721	32714	32674	32655	32630	33056	32687	32697	
2018	0	32775	32607	32511	32679	33367	33259	32303	32862	
2019	0	32798	32807	32575	32724	32923	32978	32335	32726	
2020	0	32807	32529	32610	32692	32326	32457	32670	32738	
2021	0	32941	32663	32571	32679	32384	32263	32867	32668	
2022	0	32833	32540	32707	32615	32695	32585	32721	32698	
2023	0	32721	32607	32740	32538	32635	33254	32654	32723	
2024	0	32729	32525	32660	32521	32461	33210	32665	32791	
2025	0	32752	32619	32609	32583	32519	32959	32535	32769	
2026	0	32778	32621	32605	32647	32623	32244	32590	32823	
2027	0	32769	32663	32580	32506	32642	32436	32695	32764	
2028	0	32736	32579	32633	32485	32698	32839	32929	32765	
2029	0	32724	32549	32875	32555	32751	33295	32710	32775	
2030	0	32729	32802	33221	32695	32841	33125	32642	32730	
2031	0	32748	32747	33159	32694	32977	32845	32797	32769	
2032	0	32749	32578	33139	32698	32740	32519	32902	32738	
2033	0	32726	32696	33035	32475	32679	32710	32720	32685	
2034	0	32745	32538	32813	32647	32751	32991	32717	32647	
2035	0	32783	32703	32607	32759	32737	33159	32642	32713	
2036	0	32727	32559	32443	32667	32771	32967	32647	32733	
2037	0	32711	32615	32319	32745	32683	32303	32797	32711	
2038	0	32735	32525	32308	32659	32607	32302	32698	32636	
2039	0	32710	32615	32381	32738	32663	32602	32621	32735	
2040	0	32752	32667	32485	32653	32668	33028	32322	32751	
2041	0	32753	32759	32448	32583	32763	33263	32614	32691	
2042	0	32752	32647	32454	32605	32626	32829	32629	32575	
2043	0	32804	32747	32574	32765	32567	32326	32694	32646	
2044	0	32756	32623	32764	32831	32660	32370	32663	32692	
2045	0	32783	32773	32788	32939	32646	32711	32735	32706	
2046	0	32692	32724	32780	32873	32673	33284	32726	32679	
2047	0	32676	32812	32659	32605	32527	33087	32681	32711	
2048	0	32679	32687	32599	32487	32597	32697	32725	32719	
2049	0	32663	32723	32749	32518	32583	32091	32668	32647	
2050	0	32720	32607	32785	32440	32686	32423	32728	32700	
2051	0	32685	32663	32853	32466	32789	33010	32727	32740	
2052	0	32700	32617	32852	32530	32885	33340	32804	32717	
2053	0	32725	32679	32823	32389	32787	33199	33010	32773	
2054	0	32719	32487	32867	32583	32832	32573	32783	32863	
2055	0	32763	32676	32923	32685	32456	32237	32820	32863	
2056	0	32780	32534	33043	32667	32188	32660	33091	32732	
2057	0	32756	32679	33071	32507	32638	33219	32994	32719	
2058	0	32755	32491	33111	32487	33004	33327	32669	32716	
2059	0	32750	32647	33068	32515	32921	32935	32519	32807	
2060	0	32737	32562	33121	32635	32754	32412	32643	32761	
2061	0	32756	32694	33013	32705	32911	32391	32831	32687	
2062	0	32758	32696	32884	32721	32717	32743	32607	32775	
2063	0	32724	32736	32706	32886	32631	33139	32627	32713	
2064	0	32804	32623	32687	33031	32767	33147	32589	32698	
2065	0	32783	32564	32751	32817	32725	32647	32454	32659	
2066	0	32813	32773	32887	32759	32679	32219	32421	32636	
2067	0	32781	32596	32685	32719	32775	32375	32517	32761	
2068	0	32823	32669	32545	32757	32815	32756	32669	32718	
2069	0	32745	32535	32599	32717	32668	33212	32613	32757	
2070	0	32700	32625	32549	32660	32717	32966	32839	32743	
2071	0	32806	32586	32615	32541	32643	32477	32687	32709	
2072	0	32780	32707	32589	32612	32641	32050	32770	32662	
2073	0	32781	32682	32572	32659	32736	32346	32671	32771	
2074	0	32741	32727	32643	32679	32775	32691	32620	32769	
2075	0	32724	32587	32750	32495	32753	33038	32756	32771	
2076	0	32748	32681	32847	32557	32719	32612	32809	32787	
2077	0	32702	32727	32818	32567	32761	32228	32769	32801	
2078	0	32790	32735	32764	32647	32579	32078	32775	32853	
2079	0	32745	32744	32775	32731	32553	32310	32767	32775	
2080	0	32772	32850	32890	32676	32621	32961	32751	32873	
2081	0	32735	32815	32855	32607	32763	32867	32629	32861	
2082	0	32787	32772	32809	32655	32775	32556	32767	32855	
2083	0	32786	32711	32815	32677	32725	31963	32680	32865	
2084	0	32762	32492	32751	32594	32557	32039	32868	32791	
2085	0	32756	32694	32495	32626	32757	32551	32684	32801	
2086	0	32748	32636	32359	32785	32821	33123	32628	32867	
2087	0	32738	32773	32529	32767	32564	33127	32527	32909	
2088	0	32839	32598	32741	32503	32687	32506	33043	32757	
2089	0	32812	32775	32703	32481	32821	32263	32951	32639	
2090	0	32839	32660	32691	32660	32935	32388	32759	32716	
2091	0	32713	32688	32900	32718	32813	32806	32762	32757	
2092	0	32663	32557	32887	32773	32727	33261	32653	32813	
2093	0	32731	32719	32940	32731	32730	33071	32756	32733	
2094	0	32751	32686	33026	32802	32551	32495	32675	32821	
2095	0	32772	32749	32891	32833	32557	32399	32599	32895	
2096	0	32839	32815	32810	32855	32610	32661	32725	32818	
2097	0	32740	32845	32690	32842	32773	33297	32756	32663	
2098	0	32815	32825	32666	32743	32839	33313	32674	32671	
2099	0	32825	32839	32636	32580	32724	33150	32587	32726	
2100	0	32829	32836	32711	32567	32755	32655	32683	32738	
2101	0	32743	32681	32663	32617	32612	32704	32775	32753	
2102	0	32727	32700	32565	32559	32661	33129	32767	32775	
2103	0	32818	32647	32487	32748	32809	33415	32749	32789	
2104	0	32707	32620	32391	32771	32675	33441	32716	32829	
2105	0	32711	32507	32423	32692	32719	32901	32796	32804	
2106	0	32743	32615	32607	32756	32662	32551	32703	32823	
2107	0	32815	32549	32528	32840	32647	32654	32796	32751	
2108	0	32782	32703	32673	32625	32561	33274	32791	32759	
2109	0	32704	32685	32748	32487	32621	33502	32823	32805	
2110	0	32747	32639	32759	32519	32601	33047	32799	32843	
2111	0	32728	32541	32831	32615	32754	32564	32721	32735	
2112	0	32810	32621	32807	32769	32647	32449	32742	32842	
2113	0	32816	32647	32860	32533	32614	32795	32774	32771	
2114	0	32804	32712	33014	32543	32583	33139	32647	32637	
2115	0	32705	32695	33055	32601	32786	33271	32687	32735	
2116	0	32677	32731	33014	32519	32951	32839	32693	32706	
2117	0	32706	32583	33001	32599	32805	32418	32732	32819	
2118	0	32769	32727	33053	32674	32807	32319	32740	32735	
2119	0	32740	32573	33039	32823	32815	32665	32865	32795	
2120	0	32733	32583	32971	32839	32705	33221	32621	32823	
2121	0	32788	32551	33079	32863	32647	33199	32839	32701	
2122	0	32738	32685	32999	32707	32615	32435	32727	32839	
2123	0	32727	32622	33008	32642	32635	31989	32688	32897	
2124	0	32739	32747	32871	32680	32781	32203	32719	32783	
2125	0	32750	32609	32658	32560	32724	32500	32668	32763	
2126	0	32784	32714	32599	32530	32742	33071	32635	32819	
2127	0	32768	32533	32583	32509	32783	32775	32799	32821	
2128	0	32806	32697	32598	32469	32666	32381	32690	32803	
2129	0	32862	32623	32743	32461	32805	32150	32721	32751	
2130	0	32812	32775	32769	32524	32841	32410	32613	32764	
2131	0	32829	32546	32767	32598	32718	32972	32759	32820	
2132	0	32788	32711	32784	32669	32711	33237	32727	32789	
2133	0	32897	32630	32745	32631	32559	32889	32701	32811	
2134	0	32789	32758	32813	32620	32311	32461	32841	32715	
2135	0	32770	32669	32811	32527	32558	32293	32509	32844	
2136	0	32806	32718	32638	32759	32982	32586	32732	32750	
2137	0	32766	32678	32641	32808	32623	33122	32716	32805	
2138	0	32775	32675	32764	32705	32842	33127	32695	32759	
2139	0	32734	32607	32715	32667	33119	32775	32751	32715	
2140	0	32591	32671	32623	32655	32871	32157	32675	32846	
2141	0	32678	32611	32708	32822	32903	32137	32721	32775	
2142	0	32698	32833	32713	32921	32845	32617	32657	32773	
2143	0	32783	32745	32660	32647	32519	33083	32693	32715	
2144	0	32738	32798	32639	32811	32668	33095	32769	32685	
2145	0	32690	32775	32677	32887	32647	32610	32715	32791	
2146	0	32721	32852	32742	32763	32639	32199	32822	32789	
2147	0	32696	32718	33006	32498	32601	32389	32890	32826	
