# OpenSignals Text File Format
# {"00:07:80:3B:46:38": {"sensor": ["CUSTOM/0.5/1.0/V", "CUSTOM/0.5/1.0/V", "CUSTOM/0.5/1.0/V", "CUSTOM/0.5/1.0/V", "CUSTOM/0.5/1.0/V", "CUSTOM/0.5/1.0/V", "CUSTOM/0.5/1.0/V", "CUSTOM/0.5/1.0/V"], "device name": "EMGs", "column": ["nSeq", "DI", "RA_L", "RA_R", "OE_L", "OE:R", "IL_L", "IL_R", "MF_L", "MF_R"], "sync interval": 2, "time": "17:3:40.471", "comments": "", "device connection": "BTH00:07:80:3B:46:38", "channels": [1, 2, 3, 4, 5, 6, 7, 8], "date": "2017-6-1", "mode": 0, "digital IO": [0, 1], "firmware version": 772, "device": "biosignalsplux", "position": 0, "sampling rate": 1000, "label": ["RA_L", "RA_R", "OE_L", "OE:R", "IL_L", "IL_R", "MF_L", "MF_R"], "resolution": [16, 16, 16, 16, 16, 16, 16, 16], "special": [{}, {}, {}, {}, {}, {}, {}, {}]}}
# EndOfHeader
0	0	30316	37012	32837	29035	32845	32473	32484	32415	
1	0	31561	42391	32200	33234	32799	32623	32595	32450	
2	0	31934	43775	32289	39035	32423	32749	33110	32661	
3	0	32612	45839	32754	43119	32570	32707	33212	32603	
4	0	33991	49709	33474	43948	32966	32887	33060	32797	
5	0	35614	44519	33105	41238	33031	32997	32739	32791	
6	0	36993	35892	33159	36134	32813	32832	32740	32836	
7	0	35622	29575	33261	33191	32697	32677	32673	32678	
8	0	34329	27221	33415	32578	32802	32789	32689	32903	
9	0	32615	25547	33127	32988	32762	32709	32726	32849	
10	0	31073	22749	32346	33479	32597	32826	32800	32822	
11	0	31019	24165	32087	32858	32586	32751	32829	32987	
12	0	31012	25273	32503	31574	32707	32999	32763	32940	
13	0	30676	25527	32732	31377	32759	33011	32751	32893	
14	0	30716	26683	32617	32511	32846	33193	32629	32903	
15	0	31212	29461	31860	34128	32957	32957	32703	32940	
16	0	31614	31869	31571	35670	32935	32933	32615	32775	
17	0	31429	31781	31413	34606	32807	32981	32687	32743	
18	0	31285	32461	32118	32489	32662	33014	32673	32892	
19	0	31518	33287	32711	30855	32786	32787	32571	32829	
20	0	31533	33773	33031	28167	32961	32858	32336	32875	
21	0	31865	34009	33407	24235	33085	32876	32297	32903	
22	0	32668	35072	33927	17828	33124	32871	32202	32690	
23	0	33734	35986	33719	17734	33151	32810	32183	32590	
24	0	35000	36471	33151	23276	33087	32658	32255	32647	
25	0	36166	37599	32504	30317	32871	32666	32591	32526	
26	0	35653	36228	32788	37807	32716	32655	32863	32434	
27	0	33300	34297	33170	44807	32595	32647	32933	32427	
28	0	30444	34461	33406	48745	32194	32504	32986	32297	
29	0	28593	35767	33319	49343	31831	32639	33223	32152	
30	0	28633	33783	32729	45742	32021	32570	33313	32091	
31	0	31255	30719	31809	41903	32222	32551	33308	32333	
32	0	38068	32225	30206	39097	32134	32508	33135	32415	
33	0	45703	35425	28637	37454	32060	32637	33296	32349	
34	0	48815	38397	28270	35693	32171	32709	33270	32354	
35	0	44014	37293	29331	33638	32375	32733	33380	32538	
36	0	37847	34325	32100	32355	32385	32797	33191	32694	
37	0	33634	31709	33606	31214	32594	32727	33012	32668	
38	0	30297	27884	33320	30237	32803	33012	32636	32935	
39	0	26729	25005	33678	29071	32969	33052	32423	33145	
40	0	25024	24789	33856	28745	32984	32918	32197	32979	
41	0	25511	26049	33615	28791	33038	32741	32298	32916	
42	0	25972	27631	32535	29317	33171	32882	32164	32943	
43	0	26722	29163	32455	29831	33151	32845	32167	32968	
44	0	27527	30157	32978	29314	33053	32673	32177	32887	
45	0	28325	31363	33287	26535	32863	32681	32297	32814	
46	0	29241	33113	33340	23982	32549	32504	32563	32524	
47	0	30272	33173	33906	23236	32871	32547	32553	32470	
48	0	31468	33065	33287	23156	33029	32545	32407	32700	
49	0	32046	33751	32967	26137	33005	32686	32383	32833	
50	0	32959	33671	32359	27702	32846	32482	32623	32730	
51	0	32965	31948	29379	26845	32441	32625	32600	32659	
52	0	31683	31266	27511	28433	32167	32573	32879	32677	
53	0	29152	32391	28367	27772	32268	32726	33035	32887	
54	0	25874	32614	30628	23606	32546	32658	32869	32811	
55	0	23810	31020	33837	16788	32549	32621	32861	32843	
56	0	22185	36176	36562	20376	32622	32668	32597	32811	
57	0	23507	44893	37944	31174	32441	32436	32415	32689	
58	0	29560	47314	39052	44782	32658	32632	32084	32897	
59	0	38552	45533	36040	56614	32850	32984	32188	33016	
60	0	54703	44156	34873	61424	32534	33068	32863	32573	
61	0	63598	41798	33692	60061	33146	32911	33254	32487	
62	0	60918	36383	33252	57535	33055	32647	33423	32202	
63	0	57260	35137	34892	54378	32663	32587	33321	32050	
64	0	51794	31832	37129	50434	32322	32518	33298	32061	
65	0	32943	25471	37968	46894	32084	32514	33470	31901	
66	0	27980	24435	36161	43351	32118	32220	33364	31789	
67	0	24092	23220	33539	38647	32324	32373	33190	31866	
68	0	23925	23885	31818	33389	32455	32343	33221	31895	
69	0	22876	22471	31654	27251	32759	32647	32989	32135	
70	0	21481	21917	31833	22284	32973	32687	32621	32566	
71	0	21218	24241	33067	15142	33350	32858	32421	32391	
72	0	21725	24253	33804	13212	33452	32945	32271	32734	
73	0	23359	25476	33159	14380	32729	32743	32276	32634	
74	0	25333	26015	32043	14983	33091	33016	32405	32839	
75	0	26169	26104	31218	18044	32903	33050	32169	32814	
76	0	26560	28660	29251	21460	33159	32991	32271	32922	
77	0	28365	32719	27077	26095	33101	33276	32252	33051	
78	0	27881	34033	28960	30581	32829	33331	32487	33137	
79	0	27916	38617	30567	35790	32743	33154	32596	33174	
80	0	30685	48234	31471	38786	32828	33164	32553	33056	
81	0	36942	55303	32498	39903	32869	32940	32404	33044	
82	0	38468	50225	32845	40751	32894	32955	32559	32722	
83	0	40804	41856	32148	40254	32887	32547	32717	32500	
84	0	43489	36116	30873	38858	32781	32540	32822	32507	
85	0	46215	40071	31111	37382	32759	32484	32833	32413	
86	0	49978	43277	31782	34215	32773	32364	32797	32247	
87	0	51144	40171	33874	31058	32761	32327	32781	32391	
88	0	42725	30580	36857	28418	32805	32498	32861	32500	
89	0	32074	22124	37445	27047	32700	32330	32874	32431	
90	0	25764	17170	36720	26568	32722	32357	32852	32352	
91	0	21529	14292	35901	26708	32665	32362	32766	32340	
92	0	20159	15039	34749	25285	32660	32595	32717	32479	
93	0	20878	18775	34131	21680	32775	32869	32549	32702	
94	0	22052	26347	33977	20000	33047	33164	32460	32742	
95	0	24750	30879	32798	21559	33103	33047	32625	32723	
96	0	28249	33004	32287	25577	33055	32756	32703	32799	
97	0	31145	35045	31803	34074	33095	32816	32495	32832	
98	0	33124	32628	30542	39596	32929	32890	32668	32808	
99	0	34916	32607	30313	43414	32399	32818	33010	32545	
100	0	35868	35871	30363	46956	32223	32885	33220	32334	
101	0	40757	41145	29894	48957	32017	32461	33420	32092	
102	0	42108	45276	27846	49012	32203	32710	33468	32130	
103	0	39730	44023	25055	45924	32837	32727	33172	32439	
104	0	35376	38402	25906	41983	32694	32789	33223	32566	
105	0	31142	33429	27992	39047	32227	32596	33283	32833	
106	0	27468	30791	29253	36303	31879	32613	33425	32839	
107	0	24286	30111	31781	32583	31732	32740	33283	32817	
108	0	22485	30071	33324	27495	32181	32693	32903	32936	
109	0	24756	30724	33666	21063	32771	32786	32428	32887	
110	0	31748	31479	33883	18337	32956	32695	32164	32858	
111	0	40044	31182	34568	20222	33033	32796	32189	32693	
112	0	45412	31324	35287	24818	32919	32783	31984	32844	
113	0	46284	32427	34983	30248	32647	32832	32097	32902	
114	0	42129	33285	35175	35634	33159	32996	32239	32923	
115	0	38287	34061	35571	38759	33046	32684	32663	32851	
116	0	35741	33978	35846	39271	32894	32475	33154	32813	
117	0	33703	33270	36055	35927	32614	32598	33223	32756	
118	0	29680	34551	36026	34508	32961	32697	33486	32884	
119	0	25767	35924	35687	32508	32760	32666	33255	32798	
120	0	24068	35094	35167	30100	32745	32527	33047	32661	
121	0	25382	35071	34580	30061	32677	32551	32940	32638	
122	0	27235	33532	33871	30503	32530	32389	32771	32603	
123	0	28573	29751	33010	30698	32695	32615	32279	32757	
124	0	29574	26825	31149	29665	32812	32399	32305	32679	
125	0	31378	29140	30689	29373	32827	32480	32391	32739	
126	0	33241	33287	30500	27293	32911	32628	32390	32900	
127	0	34309	30221	29196	24175	32594	32734	32423	32644	
128	0	36526	32964	27593	25023	32656	32562	32617	32736	
129	0	37233	35975	28871	27609	32604	32685	32658	32579	
130	0	34590	38071	31762	32365	32596	32627	32833	32619	
131	0	31924	40628	34732	37671	32568	32775	32736	32743	
132	0	30237	42704	36460	42564	32742	32762	32679	32975	
133	0	28293	41734	37697	43667	32975	32687	32646	32975	
134	0	32920	45492	37986	42478	33031	32903	32681	32729	
135	0	40900	40279	35202	39695	32950	32847	32676	32569	
136	0	45839	33391	32231	37159	32991	32884	32537	32634	
137	0	42928	29831	31661	35419	32838	32783	32462	32635	
138	0	37255	23888	31537	32247	32793	32853	32436	32621	
139	0	33686	20774	31609	29955	32824	32719	32505	32596	
140	0	29110	20756	30815	29679	32671	32871	32568	32361	
141	0	24322	21483	30611	32570	32468	32937	32796	32485	
142	0	21281	22084	30906	35906	32390	32715	32780	32617	
143	0	18804	22924	33833	38528	32558	32903	32759	32825	
144	0	17224	25833	35861	39815	32647	32811	32762	32985	
145	0	20513	29213	36564	38919	32879	32839	32559	32983	
146	0	24711	31525	36553	36211	33033	32685	32487	32938	
147	0	32885	36236	37314	32941	33266	32617	32247	32686	
148	0	43254	39354	35456	28348	33052	32548	32365	32629	
149	0	48656	40355	33046	26041	32903	32681	32514	32756	
150	0	46444	40338	31730	25957	32982	32519	32401	32839	
151	0	48174	39962	28551	25794	32884	32654	32401	32442	
152	0	48495	34725	25897	21849	32502	32509	32642	32295	
153	0	47016	28575	26823	21086	32870	32373	32596	32167	
154	0	41846	29994	27538	23471	32882	32610	32665	32279	
155	0	34171	34025	27020	26461	32533	32839	32991	32594	
156	0	27168	31966	25369	29083	32291	32883	33228	32711	
157	0	19452	29985	26673	33866	32338	32903	33351	32769	
158	0	15842	32848	29970	39556	32113	32988	33608	32799	
159	0	16840	39807	31989	42308	32336	33152	33369	32832	
160	0	22254	40462	32921	43491	32726	33127	33006	32974	
161	0	27848	35693	34375	41540	32933	32898	32690	32791	
162	0	34009	29978	37181	39326	32834	32727	32832	32647	
163	0	37970	27756	38951	37655	32841	32911	32854	32668	
164	0	38116	24514	39877	34916	32756	32933	32747	32599	
165	0	38159	24395	40009	32871	32687	32924	32751	32623	
166	0	35258	26847	39423	31929	32700	32694	32658	32628	
167	0	33377	29156	38871	31781	32861	32276	32535	32559	
168	0	30855	30295	38023	30535	32878	32479	32458	32613	
169	0	29628	31943	36516	29543	32676	32405	32418	32480	
170	0	31367	33127	35297	29075	32675	32141	32487	32287	
171	0	31147	34751	34176	28239	32787	32066	32527	32455	
172	0	30185	37174	34702	27852	32991	32313	32460	32711	
173	0	29522	37383	35199	28756	33077	32301	32567	32789	
174	0	30740	36932	34020	30277	33061	32607	32603	32725	
175	0	32279	36167	32583	31635	32941	32732	32615	32617	
176	0	32915	35516	31067	32630	32919	32806	32615	32573	
177	0	34015	35273	30412	33903	32933	32873	32678	32683	
178	0	35774	35591	29898	34471	32745	32806	32639	32601	
179	0	36953	34995	28508	33784	32791	32895	32846	32521	
180	0	37650	34271	27577	31786	32923	33071	32687	32530	
181	0	35964	33332	27207	29212	32955	33233	32620	32511	
182	0	33415	32603	27423	28127	32873	33135	32615	32543	
183	0	32624	32039	28803	29489	32829	33397	32516	32785	
184	0	32391	31407	30147	30919	32331	33167	33193	32829	
185	0	32425	31873	30874	29710	32295	33052	32687	32822	
186	0	32441	32127	31193	27984	32233	33015	32227	33043	
187	0	32431	32301	31851	26532	32109	33140	31813	33412	
188	0	32462	32088	32595	23973	31931	32909	31367	33127	
189	0	32614	32116	33159	23670	30689	32359	31858	32224	
190	0	32524	31975	33553	24812	29318	31991	31879	32575	
191	0	32678	32001	33598	29957	28541	32145	32617	32833	
192	0	33118	32295	33970	36453	28879	32316	32882	32987	
193	0	33224	32498	34121	41494	29796	32617	33526	32535	
194	0	33189	32723	34163	44895	31165	32775	33857	32367	
195	0	32983	33104	33702	47479	31174	33036	34735	32387	
196	0	32952	33662	33061	49797	32083	33201	34782	32283	
197	0	32818	33783	32359	48575	34368	33415	34735	32306	
198	0	32675	33959	31849	45723	38175	33557	33848	32615	
199	0	32734	34627	32373	42437	40343	33557	32894	32807	
200	0	32895	34717	33104	39735	42677	33397	32179	32802	
201	0	32976	34303	33607	37231	43271	33399	31695	32812	
202	0	32762	33494	33223	35362	38055	33071	31555	32839	
203	0	32719	33247	32743	34045	33607	32764	31887	32687	
204	0	32534	33031	32626	32123	32383	32574	32460	32662	
205	0	32570	32561	32839	30108	32053	32623	32719	32739	
206	0	32612	32091	33135	26509	31521	32532	32716	32605	
207	0	32548	31362	33177	23854	31210	32575	32795	32695	
208	0	32572	31042	33261	23355	31282	32612	32739	32695	
209	0	32638	30735	33355	24125	31463	32645	32668	32695	
210	0	32599	31279	33349	26193	31503	32687	32711	32711	
211	0	32571	32091	33126	29266	31593	32523	32681	32727	
212	0	32671	32695	32983	32391	31642	32641	32799	32645	
213	0	32855	33171	32967	34234	31853	32530	32870	32493	
214	0	33012	33485	32815	35231	32109	32711	32587	32567	
215	0	32743	32731	32739	35197	32166	32639	32661	32817	
216	0	32572	32322	32602	35159	32227	32875	32530	32795	
217	0	32359	31958	32349	34183	32319	32811	32603	32590	
218	0	32403	31687	32165	33092	32407	32887	32631	32615	
219	0	32514	30874	32391	31583	32345	32730	32719	32751	
220	0	32461	29927	32499	27858	32358	32715	32559	32759	
221	0	32602	30820	32564	25095	32297	32752	32431	32773	
222	0	32787	31911	32599	24743	32329	32791	32569	32729	
223	0	33019	32159	32647	27239	32455	32805	32615	32738	
224	0	32863	32815	32854	29766	32543	32852	32846	32687	
225	0	32729	34117	33147	32948	32647	32871	32723	32631	
226	0	32730	34547	33267	35207	32647	32735	32381	32661	
227	0	32709	34263	33309	35590	32795	32949	32263	32803	
228	0	32647	33127	33098	35567	32766	32946	32479	32829	
229	0	32555	31887	33007	34285	32550	32790	32935	32525	
230	0	32827	30303	33007	34147	32642	32671	33263	32378	
231	0	32717	30287	33203	34247	32637	32684	33383	32469	
232	0	31179	30694	33637	33431	32583	32725	32999	32527	
233	0	28197	30095	34361	33174	32643	32709	32790	32685	
234	0	25225	32903	35007	33055	32647	32799	32791	32825	
235	0	24821	37605	35090	32603	32612	32846	32813	32976	
236	0	26309	40303	35175	32103	32505	32598	32979	32867	
237	0	29852	39216	34175	31937	32551	32630	32900	32766	
238	0	37870	38956	32797	32709	32635	32666	32955	32615	
239	0	45101	39175	31777	33611	32933	32694	32810	32463	
240	0	48854	38100	31019	34311	33063	32723	32637	32481	
241	0	47180	33763	30229	34115	33078	32831	32583	32487	
242	0	43751	33943	29159	34343	33108	32821	32565	32514	
243	0	42370	33965	28679	34311	33069	32947	32769	32507	
244	0	39958	31141	28931	34217	33026	33061	32771	32643	
245	0	34086	28607	29733	33751	32929	33104	32637	32711	
246	0	27155	27079	31367	32980	32919	33200	32679	32585	
247	0	24152	26661	32324	31677	32902	33159	32579	32583	
248	0	23524	26015	33151	30802	32903	33129	32732	32645	
249	0	24676	25675	33470	30783	32870	33215	32655	32684	
250	0	24464	26443	33511	31439	32903	33159	32562	32834	
251	0	24871	27885	33375	32243	32942	33051	32594	32895	
252	0	26697	28919	33565	32767	32999	33019	32513	32845	
253	0	27987	29685	33767	33183	32919	32868	32532	32739	
254	0	29110	30849	33599	32803	32915	32801	32591	32677	
255	0	30540	32223	33575	31708	32927	32709	32633	32705	
256	0	31535	33133	33531	30823	32834	32583	32503	32807	
257	0	32624	34086	33327	30606	32743	32673	32668	32837	
258	0	33590	34715	32935	29853	32703	32540	32678	32663	
259	0	33373	34767	32159	29518	32841	32524	32537	32763	
260	0	30996	34230	32461	29988	32872	32463	32404	32925	
261	0	28748	33725	33137	30130	32795	32566	32519	33009	
262	0	27083	33532	33871	30547	32668	32540	32818	32747	
263	0	25544	34706	34820	31071	32734	32687	32929	32551	
264	0	27916	35810	36270	30814	32720	32645	33184	32487	
265	0	34466	36165	34895	31271	32699	32556	33257	32405	
266	0	47014	37320	33018	32245	32557	32348	33060	32500	
267	0	51718	37602	32066	34151	32567	32316	33072	32509	
268	0	50972	36997	31212	35329	32583	32467	33020	32585	
269	0	46441	35517	31087	36673	32637	32519	32893	32690	
270	0	41404	33645	31239	38559	32743	32756	32846	32631	
271	0	36300	31650	32015	39346	32765	32814	32757	32681	
272	0	31623	30109	32711	39110	32851	32968	32765	32754	
273	0	27671	29727	32975	38093	32860	33186	32761	32756	
274	0	25745	30097	32967	36551	32994	32978	32647	32598	
275	0	25837	30294	32951	35787	33205	33139	32541	32647	
276	0	27224	30844	33235	35399	32933	32799	32599	32677	
277	0	28350	31549	32783	34293	32765	32678	32647	32598	
278	0	29356	31941	32847	33639	32647	32535	32635	32495	
279	0	29734	32314	33007	33180	32461	32623	32775	32525	
280	0	29988	32631	33357	32434	32592	32551	32557	32687	
281	0	30749	32943	33407	31814	32989	32759	32663	32638	
282	0	31400	33071	33059	31638	32707	32573	32903	32587	
283	0	32114	33127	32807	30983	32895	32775	32527	32711	
284	0	32740	33143	32573	30422	32877	32922	32293	32781	
285	0	33281	33169	32557	29583	32482	32766	32543	32858	
286	0	33198	33106	32450	29337	32175	32815	32132	32891	
287	0	33158	32925	32401	29143	32449	32941	31405	32903	
288	0	33150	32916	32131	29155	32297	32501	31803	32717	
289	0	33028	32821	31801	29860	32663	32540	32551	32898	
290	0	33033	32735	31869	30215	32925	32759	33093	32903	
291	0	33202	32830	32031	30567	33439	32815	33607	32695	
292	0	33375	33067	32421	31291	33405	32764	34114	32593	
293	0	33458	33085	32756	31615	33155	32759	33547	32605	
294	0	33309	32949	32903	31179	33175	32670	33278	32751	
295	0	33237	32950	33059	31101	33335	32734	33413	32711	
296	0	33232	32703	32925	31924	33362	32743	32975	32718	
297	0	33140	32307	33039	32748	32971	32791	32857	32759	
298	0	33193	32279	33254	34091	32735	32727	32779	32703	
299	0	33080	32519	33461	35214	32797	32553	32703	32677	
300	0	33016	32759	33645	35367	32703	32797	32647	32759	
301	0	33047	32738	33445	35238	32640	32695	32549	32700	
302	0	33084	32719	33175	34989	32565	32587	32615	32647	
303	0	33065	32863	32691	34263	32621	32623	32628	32679	
304	0	33026	33167	32279	33967	32744	32683	32519	32677	
305	0	32194	32631	32521	33351	32764	32613	32582	32741	
306	0	30815	31919	32903	32943	32899	32633	32539	32711	
307	0	30308	31527	32483	32348	32885	32643	32574	32551	
308	0	30557	31547	32239	32007	32884	32629	32647	32543	
309	0	31540	32338	32293	31623	32893	32475	32655	32576	
310	0	33315	33234	32151	30836	32836	32663	32705	32343	
311	0	35527	33851	31970	31063	32745	32724	32769	32439	
312	0	35167	34409	32103	31733	32695	32706	32647	32598	
313	0	35015	34665	32473	32083	32557	32869	32802	32631	
314	0	34749	34611	32655	32643	32566	33007	32759	32647	
315	0	34148	33927	32636	32375	32551	33123	32826	32711	
316	0	33350	32957	32743	32559	32685	33095	32551	32958	
317	0	32716	31929	33051	31623	32623	32858	32567	32903	
318	0	32383	31436	32946	31727	32667	32871	32231	32941	
319	0	32258	31463	33399	32767	32785	33007	32098	32939	
320	0	32197	31525	33287	33447	32871	32988	32135	32903	
321	0	32219	31711	33367	34788	33007	32805	32576	32876	
322	0	32300	32020	33948	36055	32988	32660	33089	32842	
323	0	32242	32343	33833	36421	32617	32646	33279	32694	
324	0	32297	32719	33415	35987	32437	32543	33183	32692	
325	0	32107	32946	33223	35604	32287	32563	32925	32727	
326	0	32059	32933	32625	34343	32207	32179	32685	32636	
327	0	32059	32773	32383	32975	32375	32298	32739	32583	
328	0	31907	32127	32663	32023	32647	32276	32834	32655	
329	0	32025	31839	32431	31460	32757	32387	32701	32519	
330	0	32159	31687	31767	31105	32759	32263	32703	32391	
331	0	32283	31619	31367	30973	32996	32577	32706	32469	
332	0	32561	31723	31166	30939	32805	32663	32769	32551	
333	0	33153	32046	31495	31466	32431	32655	32702	32607	
334	0	33453	32605	32051	32051	32295	33245	32722	32615	
335	0	33791	34083	32263	32220	32131	33452	33003	32799	
336	0	33951	35642	32157	32173	32789	33660	32933	32875	
337	0	34570	35323	32458	31789	33140	33409	32974	32775	
338	0	34223	34919	32543	31138	33154	33284	32919	32658	
339	0	33365	34119	32692	31659	33117	33005	32821	32705	
340	0	32676	33008	32807	32291	33141	32913	32555	32727	
341	0	31914	31895	32903	33029	33145	32751	32510	32751	
342	0	31365	31015	32731	32586	33045	32534	32406	32769	
343	0	30959	30327	32831	32631	32999	32559	32435	32711	
344	0	30290	30244	33015	32890	32983	32627	32615	32577	
345	0	30021	30559	33215	32822	33127	32557	32517	32659	
346	0	29167	30555	33581	32935	33142	32527	32545	32807	
347	0	28618	30847	34102	32830	32796	32557	32690	32830	
348	0	28980	31715	34285	32879	32583	32565	32547	32909	
349	0	29703	32483	34131	33631	32365	32655	32727	32835	
350	0	31024	33662	34950	34706	32439	32581	32797	32507	
351	0	34073	35797	34811	35249	32377	32511	32979	32480	
352	0	37591	37511	33663	34799	32287	32500	32959	32438	
353	0	40238	38041	32775	34462	32295	32443	32994	32567	
354	0	39975	37249	31666	34555	32487	32547	32882	32679	
355	0	37307	35934	31023	34460	32278	32639	32751	32634	
356	0	35878	33255	31102	34010	32282	32749	32743	32613	
357	0	34578	30834	31349	33164	32495	32679	32762	32411	
358	0	32778	30030	31207	32695	32735	32885	32799	32727	
359	0	32263	29847	31551	32006	32623	33125	32825	32711	
360	0	33319	29662	31826	31537	32495	32927	32903	32487	
361	0	34690	30311	31847	31375	32733	33202	32702	32439	
362	0	34478	30966	31837	31345	32823	33113	32638	32398	
363	0	33239	31007	32207	31186	32914	32871	32486	32443	
364	0	32189	31286	32807	31111	32987	32903	32423	32544	
365	0	31168	31299	33399	30946	32743	32783	32623	32679	
366	0	29942	31175	34058	31138	32636	32903	32722	32674	
367	0	29563	31485	34452	31439	32807	32844	32731	32647	
368	0	29813	32049	34389	31747	32867	32745	32647	32802	
369	0	30062	32126	34143	31878	32929	32658	32739	32695	
370	0	30532	32239	34029	32237	33026	32487	32711	32639	
371	0	30988	32337	33829	32529	32839	32592	32753	32606	
372	0	31319	32500	33865	32588	32677	32621	32718	32551	
373	0	31794	32807	33443	32691	32729	32413	32578	32591	
374	0	32442	33199	33055	32739	32695	32437	32492	32492	
375	0	32931	33539	32730	32707	32743	32413	32615	32565	
376	0	33191	33681	32495	32715	32581	32647	32541	32717	
377	0	33052	33739	32381	32423	32559	32775	32559	32887	
378	0	32813	33602	31759	32457	32519	33079	32661	32985	
379	0	32671	33404	31059	32439	32519	33103	32755	32871	
380	0	32982	33095	31703	32551	32514	32925	32702	32717	
381	0	33280	33367	31517	32877	32538	32719	32615	32620	
382	0	33188	33531	31959	33007	32519	32767	32839	32569	
383	0	33100	33535	32201	32997	32333	32549	32924	32454	
384	0	33353	33655	31663	32875	32803	32450	33047	32556	
385	0	33362	33706	31670	32591	32843	32647	32931	32745	
386	0	33078	33223	32311	32820	32885	32699	32834	32647	
387	0	33191	32855	32543	32967	32617	32676	32931	32711	
388	0	33159	32676	32663	33067	32263	32517	32937	32831	
389	0	33039	32787	32699	33348	31935	32891	32850	32978	
390	0	33125	32895	32814	33732	32146	32717	32726	32979	
391	0	33234	32955	32963	33822	32535	32903	32846	32641	
392	0	33158	33047	33212	33441	32666	32831	32833	32457	
393	0	33181	33076	33301	32890	32767	32601	32847	32475	
394	0	33097	32989	33311	32470	33025	32757	32683	32550	
395	0	33003	32823	33197	32540	33383	32681	32566	32765	
396	0	32897	32679	33188	32694	33243	32660	32566	32903	
397	0	32871	32573	33233	32626	33123	32637	32501	32949	
398	0	32909	32595	33174	32909	33322	32661	32557	33047	
399	0	32946	32567	32961	32877	32839	32663	32621	32815	
400	0	32759	32415	32767	32646	32702	32567	32733	32609	
401	0	32726	32382	33094	32317	32714	32594	32931	32733	
402	0	32859	32587	33167	32543	32815	32581	32975	32801	
403	0	32853	32647	33043	32703	32823	32643	32851	32775	
404	0	32790	32605	32882	32278	32786	32590	32799	32714	
405	0	32810	32647	32951	31826	32738	32535	32685	32739	
406	0	32813	32759	33083	31827	32729	32605	32738	32793	
407	0	32930	32881	33268	32507	32747	32663	32790	32711	
408	0	32939	32815	33011	32877	32692	32719	32743	32585	
409	0	32926	32727	32527	32867	32738	32549	32845	32549	
410	0	32781	32637	32121	32818	32839	32738	32751	32615	
411	0	32682	32687	32351	32931	32707	32671	32829	32595	
412	0	32676	32727	32303	32975	32690	32767	32769	32407	
413	0	32560	32646	32323	32911	32719	32663	32805	32359	
414	0	32407	32553	32299	32817	32667	32746	32803	32391	
415	0	32409	32621	32287	32835	32711	32853	32739	32448	
416	0	32534	32665	32311	32739	32720	32823	32709	32406	
417	0	32571	32596	32125	32817	32609	32805	32625	32399	
418	0	32646	32535	32221	32967	32595	32711	32676	32622	
419	0	32975	32509	32418	32941	32723	32702	32591	32519	
420	0	33313	32554	32391	32695	32839	32723	32671	32524	
421	0	33428	32511	32591	32071	32783	32738	32635	32390	
422	0	33196	32327	32871	32165	32647	32647	32775	32452	
423	0	32785	32275	33071	32159	32769	32871	32587	32735	
424	0	32770	32215	33083	32235	32807	33031	32598	32807	
425	0	33022	32325	33207	32743	32741	32645	32559	32531	
426	0	33020	32293	33497	32855	32775	32547	32671	32390	
427	0	32943	32349	34267	33215	32756	32441	32642	32639	
428	0	32854	32220	34335	32702	32583	32647	32703	32695	
429	0	32765	32255	34085	32191	32647	32471	32585	32575	
430	0	32911	32255	33431	32109	32803	32407	32581	32631	
431	0	33047	32343	33607	32131	32813	32391	32582	32695	
432	0	32581	32318	32897	32486	32890	32538	32615	32719	
433	0	32463	32388	32719	32607	32947	32535	32511	32543	
434	0	32681	32605	32201	32770	32919	32788	32559	32467	
435	0	33036	33209	32258	33261	33019	32895	32543	32485	
436	0	33095	33756	32165	33681	32935	33223	32541	32581	
437	0	32706	33711	31973	33463	32750	32917	32495	32513	
438	0	32308	33407	31867	32980	32795	32941	32567	32627	
439	0	32579	32925	32487	32935	32812	32719	32635	32663	
440	0	32717	32685	32727	32815	32835	32781	32615	32775	
441	0	32369	32399	32889	32253	32859	33082	32607	32892	
442	0	32580	32173	32801	32133	32902	33111	32551	32786	
443	0	32601	32151	32371	32071	32862	33183	32617	32767	
444	0	32679	32475	32407	32127	32727	32967	32637	32879	
445	0	32733	32607	32466	32345	32719	32973	32716	32874	
446	0	32045	32383	32141	32743	32525	32870	32730	32931	
447	0	31554	32083	32380	32829	32628	32915	32646	32899	
448	0	30921	32023	32245	33191	32818	32785	32775	32739	
449	0	30902	32123	31671	33553	32827	32968	32663	33013	
450	0	30351	32124	31168	33851	32800	33179	32593	33471	
451	0	30295	32485	31239	34050	32815	33249	32463	33777	
452	0	30969	32750	31143	34199	32841	33357	32615	33854	
453	0	30428	33201	31721	33935	32533	33151	32661	33719	
454	0	29550	33044	32699	33695	32647	33131	32723	33251	
455	0	30113	32548	33490	33627	32677	32775	32723	33095	
456	0	31420	32245	33997	33345	32823	32775	32804	32871	
457	0	33249	31679	34231	33220	32756	32525	32977	32663	
458	0	35047	31867	34961	32900	32921	32391	32745	32703	
459	0	36637	31691	34675	32639	32726	32391	32903	32354	
460	0	38582	31711	33799	32130	32637	32388	32878	32319	
461	0	39636	32263	33380	31741	32493	32332	32912	32231	
462	0	40481	33851	33129	31072	32430	32380	32874	32103	
463	0	39158	35911	32687	31282	32631	32299	32932	32012	
464	0	36209	37223	32519	32051	32838	32506	32833	31821	
465	0	33879	36927	33350	32511	32827	32647	32827	31939	
466	0	31556	34407	33494	32479	32787	32682	32759	32370	
467	0	30192	32131	33350	32371	32743	32339	32754	32233	
468	0	30100	31132	33437	32495	32703	32506	32711	32450	
469	0	29767	31012	33351	32022	32543	32551	32739	32555	
470	0	30182	31463	32559	31735	32495	32663	32705	32535	
471	0	30734	31949	31767	31975	32642	32681	32804	32263	
472	0	31491	32013	31638	32199	32663	32911	32997	32459	
473	0	32111	32221	31268	32539	32506	33121	33022	32626	
474	0	32342	32435	31186	33169	32391	33342	33119	32643	
475	0	32413	32613	31015	33749	32556	33237	32991	32631	
476	0	32673	32567	31151	34178	32551	33037	32995	32647	
477	0	32704	32503	31143	34213	32695	32628	32987	32575	
478	0	32210	32391	31635	34119	32827	32701	32987	32475	
479	0	31936	32861	32330	33991	33022	32641	33028	32519	
480	0	31816	33294	32759	33345	33060	32733	32921	32535	
481	0	31935	33475	33219	33099	32806	32803	32855	32702	
482	0	32224	33659	33391	33045	32473	32625	32566	32747	
483	0	32461	32949	33519	32753	32554	32645	32635	32807	
484	0	32624	32583	33620	32597	32700	32667	32527	32691	
485	0	32751	32414	33715	32469	32775	32626	32700	32687	
486	0	32861	32333	33655	32183	32831	32477	32605	32743	
487	0	32883	32187	33543	32087	32757	32647	32745	32757	
488	0	32908	32031	33447	32135	32993	32585	32721	32847	
489	0	32991	32167	33349	32293	32869	32690	32692	32820	
490	0	33022	32301	33206	32415	32749	32490	32699	32797	
491	0	32963	32135	33117	32233	32743	32525	32391	32699	
492	0	32897	32011	33063	32311	32693	32631	32543	32799	
493	0	32896	31995	32967	32282	32751	32692	32551	32839	
494	0	32877	32195	32839	32482	32687	32743	32455	32679	
495	0	32863	32239	32871	32626	32583	32505	32715	32607	
496	0	32897	32487	32925	32647	32790	32700	32737	32683	
497	0	32864	32629	32759	32385	32911	32742	32701	32687	
498	0	32898	32687	32719	32211	32775	32783	32598	32689	
499	0	32938	32823	32677	32022	32753	32623	32827	32774	
500	0	32954	32861	32627	31770	32767	32847	32717	32724	
501	0	32972	32818	32701	31855	32767	32839	32732	32715	
502	0	32921	32791	32715	31980	32786	32835	32774	32758	
503	0	32900	32822	32679	32359	32765	32855	32823	32741	
504	0	32929	33050	32603	32877	32804	32733	32824	32775	
505	0	32889	33204	32564	33059	32839	32775	32774	32679	
506	0	32849	33110	32710	33121	32671	32847	32783	32647	
507	0	32831	32709	32828	32855	32615	32791	32759	32709	
508	0	32863	32669	32588	32370	32735	32679	32815	32738	
509	0	32855	32385	32662	32233	32803	32727	32659	32701	
510	0	32688	32391	32987	32221	32871	32883	32711	32647	
511	0	32502	32471	32982	32481	32859	32812	32655	32711	
512	0	32604	32404	33103	32919	32940	32707	32789	32831	
513	0	32467	32477	33579	33183	32901	32668	32839	32743	
514	0	32165	33362	32823	33479	32871	32775	32843	32573	
515	0	31906	34614	32575	33645	32916	32767	32583	32586	
516	0	31886	35171	32367	34075	32924	32879	32613	32803	
517	0	32041	35175	32220	34183	32927	32735	32547	32895	
518	0	32828	34823	32043	33949	32644	32951	32631	32871	
519	0	33471	34045	32151	33501	32583	32847	32643	32963	
520	0	34333	33455	32895	33111	32615	33127	32707	32903	
521	0	34519	32481	32706	32603	32567	33190	32647	32740	
522	0	34311	31499	32461	32031	32868	33132	32742	32479	
523	0	34261	31079	32388	31730	32903	32915	32797	32502	
524	0	33668	30686	32583	31775	32785	32807	32935	32525	
525	0	33247	30795	32506	31919	32829	32731	33023	32535	
526	0	32899	31095	32771	32156	32967	32655	32863	32500	
527	0	32416	31317	33148	32510	32851	32665	32743	32551	
528	0	32068	31623	33252	32771	32884	32715	32775	32669	
529	0	31847	31785	33172	32815	32717	32759	32763	32734	
530	0	31871	31891	33315	32822	32761	32644	32583	32764	
531	0	31922	32081	33327	32715	32916	32775	32678	32638	
532	0	32039	32214	33077	32470	32819	32721	32647	32646	
533	0	32235	32467	33035	32365	32693	32823	32658	32743	
534	0	32225	32545	32887	32111	32629	32543	32668	32775	
535	0	32353	32786	32974	32159	32681	32727	32647	32860	
536	0	32642	33155	33099	32439	32463	32858	32589	32655	
537	0	32621	33223	32967	32660	32677	32871	32647	32687	
538	0	32455	33259	32812	32679	32487	32646	32595	32641	
539	0	32399	33071	32644	32173	32379	32538	32810	32595	
540	0	32499	33055	32175	31449	32703	32767	32775	32588	
541	0	32549	32978	31659	31726	32692	32709	32775	32530	
542	0	32300	33095	31733	32399	32726	32711	32804	32671	
543	0	32412	33283	32119	32772	32685	32859	32847	32666	
544	0	32636	33471	32215	33012	32675	32903	32766	32695	
545	0	32526	33363	32157	33287	32807	33053	32708	32574	
546	0	32278	33287	31978	33895	32853	32919	32785	32415	
547	0	32331	32773	31969	34157	32820	32719	32708	32466	
548	0	32397	32635	31830	33878	32757	32814	32867	32643	
549	0	32591	33095	31941	33727	32532	32603	32647	32689	
550	0	32312	33079	32391	33773	32562	32633	32703	32643	
551	0	32215	32586	33003	33549	32703	32643	32663	32679	
552	0	32655	31645	33420	33423	32758	32698	32755	32707	
553	0	33138	31478	33390	32983	32691	32679	32789	32607	
554	0	32503	31151	33579	32583	32850	32498	32647	32717	
555	0	31529	31479	33823	32676	32843	32625	32694	32551	
556	0	30221	32151	34221	32879	32764	32485	32646	32449	
557	0	30628	32551	34651	32951	32803	32495	32663	32518	
558	0	31283	32967	35149	32817	32798	32503	32639	32727	
559	0	32400	34039	34309	32790	32783	32455	32685	32892	
560	0	34013	34543	33887	32950	32839	32639	32665	33038	
561	0	36070	35207	33378	33198	32903	32797	32574	32963	
562	0	39592	35843	31663	32961	32896	32737	32663	32898	
563	0	41960	36516	30436	32899	32839	32444	32637	32585	
564	0	41751	36207	30323	32887	32933	32735	32716	32583	
565	0	39391	34655	30690	32547	32919	33156	32747	32747	
566	0	36135	32033	31153	31815	32829	33453	32678	32735	
567	0	32999	30631	31546	31343	32895	33479	32783	32661	
568	0	31310	29613	31921	31226	32933	33023	32791	32430	
569	0	30164	28965	32466	31191	32910	32799	32699	32348	
570	0	29540	29091	32679	31434	32815	32791	32903	32334	
571	0	29407	29036	32890	31459	32692	32844	32901	32325	
572	0	28164	29213	33319	31111	32729	32767	32727	32477	
573	0	27649	29525	33588	31195	32636	32786	32793	32519	
574	0	27805	29851	33641	31545	32615	32870	32775	32543	
575	0	28762	30738	33671	32235	32671	32809	32609	32799	
576	0	29963	31467	33708	32759	32671	32834	32615	32822	
577	0	31039	32143	33427	32903	32639	32748	32658	32573	
578	0	31683	32751	33147	33669	32663	32615	32685	32495	
579	0	32170	33287	33275	33814	32635	32623	32673	32678	
580	0	32734	34130	33285	33791	32671	32525	32647	32829	
581	0	33062	34835	33044	33703	32679	32679	32591	32863	
582	0	33125	34905	33083	33841	32722	32705	32644	32839	
583	0	32982	34803	32818	34081	32589	32634	32647	32429	
584	0	32968	34581	32837	34199	32635	32429	32658	32527	
585	0	33227	34813	33058	34476	32802	32631	32717	32599	
586	0	33401	34007	32647	34541	32865	32639	32679	32623	
587	0	33178	33405	32167	34407	32841	32531	32708	32421	
588	0	33197	33476	31847	33863	32733	32679	32818	32631	
589	0	33449	33458	31687	33321	32727	32807	32793	32717	
590	0	33313	33079	32207	32751	33015	32806	32739	32838	
591	0	33383	32903	32759	32103	33031	33023	32742	32945	
592	0	33650	32719	32711	31879	33047	32956	32647	32804	
593	0	33392	32461	32593	31879	32619	32775	32711	32775	
594	0	33365	31975	32702	31733	32711	32823	32687	32783	
595	0	33252	31239	32655	31101	32686	32687	32735	32895	
596	0	33341	30982	32950	30561	32669	32727	32683	32544	
597	0	33577	30955	33113	30188	32788	32575	32695	32549	
598	0	33041	31316	33237	30079	32831	32623	32735	32735	
599	0	32447	31648	33480	29913	32821	32587	32829	32765	
600	0	32041	32211	34055	30055	32767	32571	32763	32683	
601	0	31918	32543	34095	30629	32676	32431	32647	32743	
602	0	31689	32875	34109	31772	32731	32677	32587	32785	
603	0	31165	33319	33711	32851	32847	32727	32723	32790	
604	0	30951	33191	33399	33715	32864	32735	32661	32682	
605	0	32038	33791	32706	34646	32546	32614	32938	32615	
606	0	33176	34383	32918	35047	32709	32518	32868	32557	
607	0	33434	35171	32508	35111	32860	32834	32783	32671	
608	0	33326	35402	31698	35639	32846	32807	32655	32679	
609	0	33193	34844	31021	36110	32863	32775	32621	32639	
610	0	32838	33479	31335	35895	32855	32343	32555	32698	
611	0	32870	32277	31751	35523	32809	32442	32569	32585	
612	0	32641	31806	31311	35365	32911	32515	32540	32823	
613	0	32897	31685	32058	34918	32861	32549	32738	33046	
614	0	32497	31876	33687	33887	32642	32463	32795	32671	
615	0	33085	32995	33524	32887	32879	32894	32663	33003	
616	0	35716	36182	33039	32485	32976	33236	32706	33319	
617	0	37580	37755	32647	32132	32798	32989	32675	32839	
618	0	39057	36438	31903	31356	32738	33175	32646	32431	
619	0	37079	33539	30988	30573	32740	33455	32489	32857	
620	0	35779	31118	31161	30450	32929	33345	32676	32895	
621	0	34997	29557	31911	30893	32804	33185	32798	33135	
622	0	33562	29533	31934	31005	32676	33130	32827	33063	
623	0	32576	30285	32351	31547	32611	33203	32770	32975	
624	0	31064	30429	32350	32088	32979	32889	32918	32591	
625	0	29624	30199	32433	32374	33223	32743	32971	31941	
626	0	29068	29483	32998	31927	33023	32589	32757	32323	
627	0	28987	29641	34078	31845	32967	32471	32847	32519	
628	0	30007	30007	33977	31771	32820	32413	32839	32886	
629	0	30160	30727	33844	32195	32688	32175	32813	32583	
630	0	29558	31538	34783	32135	32698	32239	32846	32355	
631	0	29310	32044	34708	32293	32709	32491	32669	32895	
632	0	29295	32438	33063	32939	32714	32541	32647	33097	
633	0	29226	32647	32766	33275	32748	32612	32730	32731	
634	0	29132	32698	33313	33131	32770	32593	32643	32819	
635	0	30196	32366	33486	32980	32722	32725	32675	33132	
636	0	31479	32364	34079	32087	32751	32813	32665	32911	
637	0	33629	33085	34207	31775	32766	32842	32743	32669	
638	0	35815	34541	32890	32250	32804	32818	32623	32836	
639	0	36327	34983	32023	32719	32815	32477	32527	32547	
640	0	38141	35359	33615	33185	32659	32591	32823	32297	
641	0	39293	36255	32441	33581	32663	32634	32838	31929	
642	0	37052	35524	31694	33991	32582	32475	32897	31937	
643	0	33620	34397	31152	34235	32463	32567	32989	32135	
644	0	31239	33535	30373	34146	32698	32775	32759	32475	
645	0	30119	32085	29627	33915	32773	32955	32527	32867	
646	0	30414	31452	31293	33499	32983	33012	32371	33020	
647	0	31632	30351	32767	32947	32979	32953	32400	33023	
648	0	31763	29165	32884	32681	32871	32802	32655	33037	
649	0	31751	29509	33019	32615	32955	33227	32791	33059	
650	0	31908	30169	32735	31967	32902	33335	32679	33223	
651	0	32708	31016	32505	31973	32839	33302	32748	33095	
652	0	34389	32583	33174	31637	32613	33143	32700	33051	
653	0	34946	34898	33490	31609	32589	32935	32551	32991	
654	0	35820	36117	33415	31597	32587	32964	32764	32590	
655	0	37371	36053	32853	32279	32495	32553	32739	32397	
656	0	37136	35987	32683	33063	32449	32413	32941	32337	
657	0	35463	34163	32889	33488	32633	32245	32863	32275	
658	0	33766	32589	32503	33407	32663	32545	33159	32293	
659	0	32417	31725	32303	33083	32423	32751	33047	32427	
660	0	31513	32343	32381	33114	32300	32719	32927	32485	
661	0	30742	33124	32719	33778	32555	32721	32806	32587	
662	0	30260	33071	33131	33965	32895	32667	32813	32676	
663	0	29898	32247	33559	33577	32815	32492	32767	32613	
664	0	29646	31079	33787	33187	32995	32589	32509	32727	
665	0	29839	30505	33785	33199	32932	32631	32586	32773	
666	0	30406	30855	33451	32741	32687	32637	32526	32807	
667	0	31136	30957	33287	32407	32589	32537	32586	32639	
668	0	31759	31205	33201	32263	32495	32595	32601	32983	
669	0	32487	31545	33471	32263	32639	32765	32499	33183	
670	0	32722	31965	33577	32374	32671	32629	32623	32837	
671	0	32655	32074	33471	32342	32813	32503	32807	32448	
672	0	32593	32365	33140	32415	33049	32516	32485	32531	
673	0	32471	32599	32887	32575	32749	32706	32662	32640	
674	0	32577	33086	32039	32388	32729	32921	32687	32527	
675	0	32617	33327	31470	32173	32679	32815	32675	32620	
676	0	32741	34151	31495	32206	32725	32887	32543	32535	
677	0	33268	34945	32195	31911	32655	32799	32967	32615	
678	0	33583	35095	32367	32143	32955	32963	32999	32509	
679	0	33783	34627	32300	32479	33119	32767	32899	32655	
680	0	33937	33647	32343	32822	33492	32914	32743	32725	
681	0	33791	32799	32719	33007	33701	32875	32791	32839	
682	0	33437	32543	32789	32775	32911	32751	32758	32853	
683	0	33385	32448	32706	32699	32524	32767	32743	32785	
684	0	33252	31775	32621	32279	32291	32708	32559	32785	
685	0	33072	31389	32694	31827	32135	32745	32431	32747	
686	0	33159	30917	32983	31399	32399	32813	32349	32862	
687	0	32839	30495	32923	31127	32589	32806	32391	32667	
688	0	32391	29895	33095	30695	32579	32722	32535	32698	
689	0	31312	29318	33399	30967	32671	32726	32731	32724	
690	0	30490	29456	33579	31683	32627	32821	32883	32823	
691	0	30134	30551	34081	32647	32708	32663	33146	32732	
692	0	30717	33018	34790	33541	32567	32699	33125	32647	
693	0	31956	35753	34541	34242	32375	32860	33065	32565	
694	0	33466	37999	34183	33825	32860	32737	32890	32401	
695	0	35496	39477	33263	33702	33285	32707	32569	32637	
696	0	37484	41459	31823	34212	33451	32881	32461	32726	
697	0	37420	41335	31220	34331	33143	32837	32443	32671	
698	0	36607	39335	31226	34064	32809	32717	32559	32510	
699	0	35326	36004	30206	33601	32579	32818	32589	32519	
700	0	33852	33223	30501	32573	32574	32767	32775	32576	
701	0	32148	30962	31259	31925	32794	32555	32710	32546	
702	0	30967	29495	32212	31140	32748	32620	32564	32391	
703	0	30178	28734	33466	30775	32816	32655	32668	32403	
704	0	29682	28583	33897	31119	32551	32583	32605	32660	
705	0	29239	28933	34107	31517	32466	32747	32747	32859	
706	0	28881	28827	33730	32052	32524	32639	32799	32691	
707	0	29169	28653	33285	33069	32555	32687	32826	32695	
708	0	30412	29095	32285	34267	32605	32933	32875	32783	
709	0	31278	30044	31623	34893	32743	33146	32811	32927	
710	0	33036	31887	31471	35831	32709	33111	32883	32903	
711	0	34505	32839	31280	36171	32735	33093	32731	32815	
712	0	34691	32078	32108	35831	32766	32838	32669	32819	
713	0	34638	31494	32882	35655	32746	32802	32626	32831	
714	0	34448	30999	32491	34927	32903	32646	32658	32834	
715	0	34140	31191	32317	34074	32767	32468	32535	32754	
716	0	34972	31894	32819	32741	32655	32485	32611	32543	
717	0	35314	32324	32929	32041	32708	32375	32775	32424	
718	0	35735	32679	32839	31279	32850	32375	32717	32439	
719	0	35402	31717	33069	30915	32738	32317	32835	32603	
720	0	32788	30375	32966	30895	32659	32467	32755	32511	
721	0	32172	30829	33361	31012	32615	32553	32711	32683	
722	0	32503	32031	33772	31087	32653	32805	32810	32823	
723	0	32791	32952	33715	31311	32468	32533	32887	32507	
724	0	34413	34135	33311	31831	32636	32567	32943	32443	
725	0	33754	35223	32865	32105	32841	32452	32705	32543	
726	0	31244	35463	33177	32173	32733	32647	32734	32590	
727	0	28543	35179	33415	32359	32767	32443	32589	32615	
728	0	28084	33787	33051	32390	32635	32451	32559	32553	
729	0	29928	32687	34201	32382	32693	32391	32581	32563	
730	0	31033	32311	33975	32569	32799	32451	32465	32655	
731	0	31092	31647	33287	32917	32662	32391	32581	32635	
732	0	31511	30810	32879	32493	32647	32542	32499	32805	
733	0	33017	30782	32811	32564	32553	32831	32626	32989	
734	0	33299	31063	32391	32315	32713	32933	32685	32911	
735	0	33630	32076	32146	31721	32761	32913	32725	32999	
736	0	34060	35873	32455	32037	32803	33082	32823	32627	
737	0	34977	39957	31892	32231	33218	33019	32727	32591	
738	0	37876	39639	31127	32350	32981	33257	32733	32503	
739	0	37490	35841	30509	32516	32708	33090	32721	32390	
740	0	35067	31431	29941	31650	32726	32873	32646	32325	
741	0	34044	30151	30316	31006	32775	32775	32611	32293	
742	0	34023	31252	31399	31910	32918	32847	32594	32444	
743	0	33340	32479	31999	33094	32674	32830	32903	32548	
744	0	32495	32299	32690	33689	32631	32606	32675	32535	
745	0	31556	30455	33617	33415	32813	32683	32594	32615	
746	0	29634	28612	33702	32817	32989	32668	32448	32637	
747	0	27904	27323	33906	32367	32901	32617	32463	32719	
748	0	27684	28401	33784	33124	32639	32619	32594	32595	
749	0	28832	30703	33561	33085	32775	32525	32839	32631	
750	0	30105	32155	33399	32263	32845	32669	32714	32635	
751	0	31129	32879	33399	32263	32976	32623	32901	32617	
752	0	31652	33599	33459	32670	32917	32591	32954	32719	
753	0	32393	34549	33771	33431	32647	32679	32954	32701	
754	0	33018	34233	33831	34474	32671	32682	32903	32685	
755	0	33233	33813	33359	35015	32640	32743	32789	32685	
756	0	33526	34575	33391	35179	32550	32855	32927	32718	
757	0	33600	35588	33573	35107	32325	32887	32933	32583	
758	0	33855	37284	33872	35353	32424	32827	32963	32647	
759	0	34283	37222	33725	34343	32545	32633	32893	32679	
760	0	34137	35309	33092	33714	32804	32621	32735	32703	
761	0	33562	33387	33023	33679	32751	32641	32631	32675	
762	0	32654	32410	33021	33431	32508	32598	32847	32545	
763	0	32052	31708	32607	33020	32498	32439	32805	32349	
764	0	32174	31403	32455	32835	32249	32510	32679	32101	
765	0	33495	31012	32111	32687	32391	32635	32485	32279	
766	0	35083	31262	31467	31861	32727	32807	32323	32846	
767	0	36487	31511	31525	31267	33063	32925	32391	32965	
768	0	35140	31099	31591	30895	32883	32989	32621	32845	
769	0	34100	31141	31455	31199	33185	33183	32711	32735	
770	0	33560	31047	30987	31305	33455	33140	32659	32625	
771	0	31790	31071	30815	31664	33314	32877	32585	32551	
772	0	31519	31223	31359	32258	33022	32975	32548	32580	
773	0	32072	31477	32501	32449	32711	32902	32671	32675	
774	0	32820	31734	32899	32334	32899	32719	32693	32732	
775	0	33556	32375	32859	32118	33428	32767	32708	32759	
776	0	33616	33159	33279	31207	33223	32883	32708	32823	
777	0	33063	33823	33412	30741	33043	32788	32758	32912	
778	0	32677	33927	33701	31062	32721	32711	32621	32863	
779	0	32437	33335	34023	31168	32549	32391	32725	32557	
780	0	32317	32891	34357	31137	32573	32375	32564	32491	
781	0	32164	32771	34413	31397	32735	32484	32619	32595	
782	0	32318	32807	33855	31767	32815	32519	32671	32557	
783	0	32398	32914	33855	32020	32407	32489	32989	32571	
784	0	32338	32991	33581	32346	32263	32471	33027	32692	
785	0	32399	32883	32959	32500	32407	32481	32883	32647	
786	0	32425	32859	32621	32871	32351	32626	32883	32647	
787	0	32484	32807	31879	33343	32583	32819	32871	32799	
788	0	32339	32581	31909	33639	32757	32983	32885	32858	
789	0	32172	32875	32019	33773	32683	32860	32721	32749	
790	0	32231	33367	31687	33959	32806	33019	32719	32815	
791	0	32380	33895	31332	34541	32839	32903	32700	32613	
792	0	32377	34053	31491	34673	32693	32738	32655	32804	
793	0	32532	34009	32199	34692	32695	32807	32911	32715	
794	0	32647	33077	32431	34567	32869	32775	32815	32775	
795	0	32848	32391	32823	34419	32843	32803	32855	32849	
796	0	33268	32195	32637	34251	32723	32643	32791	32703	
797	0	33141	31734	32519	33739	32691	32621	32822	32636	
798	0	32655	31485	32869	33319	32496	32694	32745	32914	
799	0	31910	32327	33119	33019	32575	32775	32775	32794	
800	0	31172	33563	33221	32892	32822	32737	32671	32671	
801	0	30985	34374	33423	32742	32943	32748	32567	32519	
802	0	31076	34245	33813	32925	33107	32863	32647	32570	
803	0	31639	33927	33893	32795	33019	32759	32569	32769	
804	0	32785	34283	33734	32631	32938	32751	32588	32787	
805	0	34342	35247	33370	32444	32817	32647	32607	32757	
806	0	36775	35228	32548	32183	32457	32647	32707	32711	
807	0	38133	34079	32375	31543	32595	32699	32621	32748	
808	0	37524	33586	32850	31387	32697	32844	32599	32641	
809	0	36140	32871	32761	31551	32175	32903	32788	32677	
810	0	34847	31647	32445	31655	32306	32814	32436	32818	
811	0	34020	30719	32262	31791	32271	32975	32372	32829	
812	0	33362	29831	32105	32099	32375	32855	32743	32549	
813	0	32146	29423	32015	32023	32899	32729	33095	32524	
814	0	30970	29019	32201	31447	33155	32605	33228	32543	
815	0	30502	29001	33463	31319	33436	32710	33085	32375	
816	0	30399	29453	33713	31319	33243	32861	32871	32611	
817	0	30624	29895	33383	31188	33363	32767	32795	32667	
818	0	30716	29871	33437	30770	33434	32828	32769	32679	
819	0	30678	29869	33007	31167	33495	32741	32749	32486	
820	0	30756	30225	32275	31325	33223	32678	32495	32453	
821	0	30868	30935	31583	31787	32799	32607	32551	32681	
822	0	30642	31474	31199	32355	32501	32739	32594	32482	
823	0	30740	32455	30727	32617	32635	32663	32594	32677	
824	0	31065	34093	31394	32959	32701	32863	32489	32823	
825	0	32164	36261	32498	34159	32447	32655	32890	32734	
826	0	33235	38196	33271	35215	32070	32701	32975	32860	
827	0	33951	39767	33844	36093	32191	32663	33015	32783	
828	0	35155	40195	33859	36167	32478	32824	32991	32731	
829	0	35673	38663	33807	35645	32436	32815	33189	32796	
830	0	35201	36255	33285	35263	32615	32919	32967	32861	
831	0	35271	34466	32853	34831	32786	32975	32849	32871	
832	0	35019	33330	32426	33859	32821	33191	32619	32887	
833	0	33887	31425	32255	32866	32739	32933	32506	32630	
834	0	32364	29855	32219	30945	32743	32821	32614	32632	
835	0	31160	28823	32807	29223	32715	32772	32730	32658	
836	0	30854	28802	32751	29111	32731	32865	32863	32535	
837	0	30852	29383	32913	30317	32679	32659	32763	32525	
838	0	31047	30127	33369	31436	32639	32823	32463	32647	
839	0	31737	30725	33241	32629	32711	32767	32127	32710	
840	0	32997	30855	32943	33265	32354	32807	32391	32535	
841	0	33777	31238	33127	33367	32100	32727	32407	32327	
842	0	33779	31731	32803	33119	32363	32679	32501	32530	
843	0	33550	32391	32838	33266	32479	32703	32611	32606	
844	0	33031	32925	32534	33283	32795	32695	32515	32583	
845	0	32921	33055	31855	33170	32827	32683	32647	32605	
846	0	32398	33031	31855	33039	32925	32791	33235	32413	
847	0	31803	32991	32066	33346	33203	32631	33301	32607	
848	0	31613	32599	32413	33839	33159	32834	33091	32635	
849	0	31751	32807	32887	34307	33061	32794	33026	32677	
850	0	32361	33175	32967	34375	33317	32683	32811	32685	
851	0	33116	33435	33287	34438	32923	32431	32738	32623	
852	0	33167	33871	33437	34439	32827	32571	32707	32535	
853	0	32749	34189	33533	34175	32503	32675	32743	32495	
854	0	32808	34807	33759	33837	32423	32711	32749	32596	
855	0	32632	34359	33505	32775	32378	32445	32617	32757	
856	0	32039	33711	33187	31691	32361	32548	32739	32689	
857	0	30991	33319	33109	31453	32391	32721	32611	32767	
858	0	29809	32855	33053	31659	32461	32873	32692	32775	
859	0	29433	32411	33151	31777	32597	32900	32707	32810	
860	0	30515	32253	33127	31761	32807	32844	32634	32873	
861	0	32343	32063	33121	31899	32830	32927	32482	32749	
862	0	34402	32012	32903	31553	32860	32959	32674	32502	
863	0	36466	32378	31981	31053	33020	33076	32615	32515	
864	0	38637	32601	31207	31253	32756	32914	32706	32692	
865	0	39318	32338	30815	31814	32566	32996	32667	32647	
866	0	37703	31587	31246	31791	32497	32702	32642	32634	
867	0	34767	31156	31931	31391	32484	32827	32593	32623	
868	0	32814	32079	32319	31623	32647	32847	32677	32713	
869	0	31607	32775	32613	32079	32715	32860	32658	32793	
870	0	32013	33464	32869	32549	32661	32804	32503	32791	
871	0	32278	33331	33092	32781	32773	32879	32602	32890	
872	0	32466	33259	33332	33141	32858	32723	32719	32617	
873	0	32543	33103	33493	33185	33001	32642	32775	32469	
874	0	31968	33133	34142	33123	32855	32677	32711	32655	
875	0	31408	32581	34017	32987	32739	32487	32831	32635	
876	0	31303	31879	34381	33159	32591	32431	32946	32543	
877	0	31460	31621	34805	32951	32595	32417	32948	32575	
878	0	31312	31843	34159	32129	32891	32205	32848	32637	
879	0	31213	32071	33735	31692	32868	32457	32767	32891	
880	0	31407	32495	33228	31559	32718	32607	32685	32450	
881	0	31478	32726	32863	31734	32785	32703	32707	32479	
882	0	31605	33158	32105	32123	32827	32599	32542	32589	
883	0	31975	33481	30951	32641	32763	32843	32528	32815	
884	0	32599	33479	31548	32623	32698	32711	32530	32802	
885	0	33087	32773	31319	31723	32791	32711	32607	32817	
886	0	33094	31721	30967	31299	32757	32578	32532	32623	
887	0	33126	31167	30561	31531	32895	33087	32503	32903	
888	0	32514	31915	30827	31903	32959	33125	32551	32971	
889	0	32689	32947	31135	33007	32749	33044	32629	32755	
890	0	33688	33303	32069	33903	32524	32885	32765	32634	
891	0	34345	33344	32446	35159	32611	32988	32746	32372	
892	0	34397	34003	32493	35250	32795	32983	32796	32228	
893	0	34273	35641	32287	35301	33074	33117	32690	32540	
894	0	34033	35319	32217	34471	32989	32851	32719	32767	
895	0	33951	34199	32405	33659	32871	32775	32974	32677	
896	0	32940	32879	32895	33735	32575	32486	33026	32493	
897	0	32438	31663	33107	33472	32467	32608	32669	32611	
898	0	31983	31141	33695	33156	32471	32658	32836	32797	
899	0	31570	30956	34521	33245	32351	32706	33069	32818	
900	0	31601	30903	34566	33389	32219	32927	33086	32715	
901	0	31724	30811	34531	32855	32081	32863	33052	32519	
902	0	32013	31363	34515	32910	32399	32683	33105	32659	
903	0	32174	31622	34555	32809	32762	32391	32911	32799	
904	0	32468	31887	34193	32229	33275	32503	32802	33066	
905	0	32686	32239	33583	32329	33347	32631	32671	33031	
906	0	32876	32543	32490	32157	33027	32655	32859	32639	
907	0	32813	32857	32415	31409	33043	32476	32831	32631	
908	0	32132	32945	33121	30618	33005	32499	32603	32705	
909	0	31250	32735	32775	30572	32947	32431	32477	32676	
910	0	31089	33026	33209	31001	33109	32426	32495	32609	
911	0	31165	33620	33741	31636	33132	32391	32477	32679	
912	0	30585	33473	33280	32371	32891	32503	32495	32644	
913	0	31638	33359	32165	32855	32726	32903	32667	32883	
914	0	33140	33263	31167	33229	32682	32913	32767	32695	
915	0	34215	33116	30444	33253	32607	33119	32879	32634	
916	0	34811	33483	29610	33607	32509	33239	32831	32631	
917	0	35781	34373	29500	34015	32587	33215	32695	32584	
918	0	35612	34586	30725	34083	32708	32881	32709	32685	
919	0	34781	33445	31909	34223	32631	32933	32627	32881	
920	0	34274	32135	32491	33924	32666	32755	32607	32887	
921	0	33829	31975	33029	33537	32775	32831	32690	32839	
922	0	32989	32173	33618	33231	32877	32573	32695	32551	
923	0	32737	31965	34033	32879	32903	32475	32629	32481	
924	0	32361	31622	33877	32298	32767	32614	32683	32411	
925	0	32171	31129	33415	31959	32871	32479	32503	32655	
926	0	32114	31237	33453	31674	32980	32667	32653	32711	
927	0	31879	31821	33693	31085	32943	32606	32563	32529	
928	0	32175	32114	33707	30475	32627	32691	32694	32671	
929	0	32610	32067	33847	29575	32668	32678	32733	32563	
930	0	32221	31175	33935	29063	32767	32767	32892	32702	
931	0	31835	30599	34085	29302	32898	32639	32771	32807	
932	0	31990	30997	33850	30523	32641	32493	32671	32895	
933	0	32441	32133	33551	31612	32501	32685	32591	32910	
934	0	32543	33473	33269	32951	32535	32687	32775	32685	
935	0	32359	34505	32583	34706	32478	32843	32854	32590	
936	0	32187	35422	32556	36219	32529	32668	32825	32761	
937	0	32791	35823	32347	35702	32829	32962	32647	32753	
938	0	33863	36071	31909	34897	32874	32945	32713	32767	
939	0	34484	35775	31407	35207	32809	33055	32762	32655	
940	0	33726	34252	30831	35151	32992	33050	32765	32543	
941	0	32908	32903	30871	34673	32998	33071	32823	32686	
942	0	33335	32445	31221	34706	32637	33084	32965	32716	
943	0	33188	31903	31407	34938	32709	32991	32851	32719	
944	0	32783	31477	31903	34703	32637	33082	32802	32821	
945	0	32612	31657	32706	35035	32617	32750	32823	32583	
946	0	32847	32277	33435	34263	32605	32774	32773	32359	
947	0	33031	31975	33939	33317	32683	32587	32833	32426	
948	0	32958	31423	34105	32811	32929	32420	32742	32308	
949	0	32415	31040	34727	31783	33045	32479	32732	32347	
950	0	32183	30607	33861	31346	33005	32443	32839	32415	
951	0	32281	30683	33089	31591	32615	32647	32659	32762	
952	0	32263	31155	32852	31651	32738	32687	32820	32967	
953	0	32083	31621	32946	31599	32887	32953	32694	33047	
954	0	31894	32253	32566	31615	33019	33167	32647	32758	
955	0	32071	32877	32686	31623	32794	32986	32609	32751	
956	0	31810	33437	33115	31579	32797	32861	32543	32628	
957	0	31982	33387	32819	31073	32757	32867	32467	32512	
958	0	32381	32847	32557	30764	32769	32715	32476	32556	
959	0	32980	32322	32340	30501	32519	32621	32461	32563	
960	0	33464	32063	32636	30319	32866	32595	32171	32587	
961	0	33311	31404	32921	29611	32894	32610	32178	32547	
962	0	33327	30703	33221	28102	33132	32543	32442	32991	
963	0	33205	30431	33967	27217	33202	32613	32493	32807	
964	0	32472	30395	33319	27951	33028	32513	32667	32866	
965	0	31175	31523	32734	29659	32968	32621	32695	32609	
966	0	30119	33593	32469	31795	32613	32607	32949	32500	
967	0	29562	34751	32246	34551	32263	32551	32983	32484	
968	0	30161	35991	32080	37127	32214	32807	33283	32564	
969	0	30906	36903	31911	39015	32669	32965	33260	32663	
970	0	31332	37479	31838	38863	32939	32871	33315	32498	
971	0	33344	37295	31764	38163	32967	32887	33315	32570	
972	0	35956	36713	31719	37233	32915	33006	32951	32623	
973	0	38976	35660	31807	36569	32859	32903	32916	32715	
974	0	39510	34659	31324	35869	32675	32790	32668	32845	
975	0	39207	33575	31703	36016	32694	32890	32730	32987	
976	0	37207	31983	32303	35541	32742	32647	32673	32995	
977	0	34943	30957	32923	34770	32708	32570	32795	32559	
978	0	32525	29830	33799	33622	32513	32584	32655	32319	
979	0	31422	29133	34551	32009	32607	32545	32575	32252	
980	0	30383	28803	34519	31089	32556	32434	32615	32355	
981	0	30138	28762	34428	30550	32355	32501	32571	32765	
982	0	29998	29455	33569	30121	32641	32683	32556	32882	
983	0	29417	29815	34096	29617	32903	32493	32527	32610	
984	0	29560	30130	33447	29775	32986	32326	32561	32583	
985	0	30199	31019	32759	30127	32897	32875	32564	32874	
986	0	30714	31937	31901	31025	32725	33275	32615	32845	
987	0	31746	32972	31275	31131	32835	33369	32455	32791	
988	0	32772	33796	31495	31415	33039	33071	32443	32717	
989	0	33579	34077	31884	31620	33021	32818	32489	32637	
990	0	33553	33563	31937	31815	32737	32602	32507	32589	
991	0	32865	33287	32397	32343	32423	32655	32573	32663	
992	0	32312	33206	33189	32695	32382	32666	32839	32659	
993	0	31750	32428	32964	32662	32729	32510	32900	32727	
994	0	31924	31815	33095	32863	33083	32796	32725	32684	
995	0	32462	31957	33138	33479	33055	32532	32660	32545	
996	0	33082	32703	32813	33082	32900	32587	32803	32645	
997	0	33596	33399	32228	32949	32417	32529	32959	32708	
998	0	34530	33490	32101	32807	32271	32703	32995	32681	
999	0	33937	34053	32637	32535	32326	32663	32999	32643	
1000	0	32786	35789	32948	33071	32238	32708	32994	32637	
1001	0	33429	38487	32927	33671	32295	32580	32979	32720	
1002	0	34823	39220	32971	34215	32391	32882	32901	32775	
1003	0	35294	37467	33042	33831	32683	32911	32855	32740	
1004	0	35090	34420	32847	33330	32771	32863	32711	32735	
1005	0	33897	31791	32576	33186	32893	32955	32665	32740	
1006	0	33066	30895	32837	32514	32749	32919	32711	32818	
1007	0	32601	30671	33184	32090	32796	33015	32598	32593	
1008	0	32013	30759	33599	32623	32933	32931	32607	32637	
1009	0	31785	30679	34045	32647	32915	32685	32553	32707	
1010	0	31946	30435	33887	32195	32751	32556	32693	32599	
1011	0	32124	30441	33957	32004	32829	32453	32567	32647	
1012	0	32255	30518	33259	31568	32943	32367	32621	32751	
1013	0	32543	30803	33003	31415	32933	32050	32551	32594	
1014	0	32391	31270	32755	31702	32903	32181	32719	32374	
1015	0	31829	31789	32334	32015	32655	32391	32726	32519	
1016	0	31808	32751	32445	32342	32853	32931	32574	32691	
1017	0	31903	33478	32491	32519	32949	33143	32727	32781	
1018	0	31477	33633	32519	33153	32941	32999	32679	32799	
1019	0	31596	33868	32675	33197	33003	33001	32690	32507	
1020	0	32297	34191	32241	33215	33026	32999	32692	32661	
1021	0	33071	33797	32465	33447	33041	33248	32743	32820	
1022	0	33372	32962	32546	33053	32799	33181	32562	32797	
1023	0	33179	32131	33380	32993	32873	32879	32684	32731	
1024	0	32569	31149	33527	32052	32993	32463	32555	32411	
1025	0	31936	31197	33567	32443	32996	32443	32701	32477	
1026	0	31576	30834	33309	32903	32617	32559	32749	32754	
1027	0	30855	30233	32775	32877	32423	32274	32935	32385	
1028	0	30844	30695	32146	33223	32359	32519	32839	32391	
1029	0	31855	30641	30923	33031	32327	32461	32786	32716	
1030	0	32268	30307	30196	33199	32006	32659	32738	32660	
1031	0	33268	31065	29749	32435	32333	32919	32688	32746	
1032	0	34702	33093	29465	31979	32781	33291	32613	32663	
1033	0	35447	34611	30471	32277	33207	33414	32561	32631	
1034	0	35618	35627	32151	33167	33172	33246	32571	32743	
1035	0	36573	36279	32843	33850	33215	32827	32519	32916	
1036	0	36319	36051	33031	34231	33102	32423	32639	32565	
1037	0	35764	35461	32902	34097	33119	32655	32559	32181	
1038	0	35311	34791	34006	33959	33034	32638	32615	32424	
1039	0	33122	33715	34587	33356	33154	32568	32485	32640	
1040	0	31683	32284	34361	32890	33191	32410	32550	32933	
1041	0	31373	31938	34463	32381	32699	32612	32833	32791	
1042	0	30121	31463	34471	31958	32146	32557	33223	32399	
1043	0	28889	30846	34414	31047	32247	32873	33156	32775	
1044	0	29063	30979	34164	30741	32189	32986	33051	32899	
1045	0	29668	31621	34091	30303	32367	33005	32695	33031	
1046	0	30236	32493	33835	30185	32587	32828	32701	32801	
1047	0	32350	34205	33356	30407	32866	32970	32839	32655	
1048	0	34491	35331	32585	31209	32997	32815	32863	32719	
1049	0	35823	36231	31364	32303	32983	32735	32738	32679	
1050	0	37071	36087	31015	32991	32925	32883	32759	32693	
1051	0	36871	35285	30747	33823	32804	32815	32644	32479	
1052	0	34649	34183	30847	35172	32679	32751	32795	32581	
1053	0	32823	33101	31415	35821	32797	32791	32694	32631	
1054	0	32031	31911	31646	35437	32772	32748	32811	32545	
1055	0	31791	30959	32555	35299	32567	32775	32838	32459	
1056	0	31418	30393	33478	35005	32575	32463	32739	32599	
1057	0	31049	29910	32173	34523	32761	32855	32541	32647	
1058	0	30740	29318	32569	33953	32690	32887	32631	32643	
1059	0	30001	29076	33156	33005	32775	32751	32455	32643	
1060	0	30356	29781	33390	32705	32761	32646	32487	32743	
1061	0	31106	30369	33657	32647	32591	32767	32711	32803	
1062	0	30957	30829	33708	32887	32647	32801	32860	32643	
1063	0	30727	30959	33638	32527	32839	32736	32933	32595	
1064	0	31406	31683	33204	31803	32731	32567	32815	32662	
1065	0	33558	34292	32495	31607	32979	32855	32788	32719	
1066	0	36016	37087	32471	31671	32929	32837	32917	32699	
1067	0	35441	38253	33106	32223	32965	32783	32903	32858	
1068	0	33220	36775	33958	32244	32740	32689	32877	32717	
1069	0	33842	34342	34055	31623	32859	32572	32625	32708	
1070	0	34929	32806	33559	31572	32839	32340	32677	32449	
1071	0	34454	31826	33223	31537	32807	32478	32604	32551	
1072	0	33249	31481	33847	31591	32751	32307	32639	32399	
1073	0	32948	30959	33443	31129	32830	32340	32534	32257	
1074	0	33303	29980	34136	30930	32855	32615	32527	32615	
1075	0	33415	29858	35585	31612	32711	32735	32479	33131	
1076	0	31976	30177	36132	32183	32735	32739	32663	32804	
1077	0	31060	31149	36029	33101	32734	32807	32740	32525	
1078	0	30599	32493	34049	34057	32743	32573	32858	32518	
1079	0	30404	33689	32067	34513	32850	32746	32803	32938	
1080	0	31872	34855	29798	34343	32942	32609	32855	32787	
1081	0	32671	35319	28025	34130	32931	32771	32756	32227	
1082	0	33682	35145	26479	33779	32980	32611	32838	32258	
1083	0	34819	34718	25991	33159	32679	33167	32676	32487	
1084	0	36516	34810	26820	32559	32527	33381	32839	32511	
1085	0	37255	34242	29188	32423	32711	33559	32749	32456	
1086	0	36585	33217	31323	32605	32789	33327	32743	32531	
1087	0	35378	32820	32135	32587	32622	33074	32599	32609	
1088	0	33480	32671	33042	32144	32539	32911	32791	32517	
1089	0	32076	32013	33799	31535	32749	32775	32439	32559	
1090	0	30586	30855	34631	31415	32708	32763	32387	32679	
1091	0	29759	29831	35194	30930	32415	32623	32389	32701	
1092	0	29952	29385	35146	30231	32501	32754	32415	32830	
1093	0	30518	29905	35303	29837	32421	32599	32382	32641	
1094	0	31156	31331	35463	30831	32069	32317	32595	32553	
1095	0	31597	32507	35474	32559	32575	32301	32643	32351	
1096	0	32049	33383	35691	33719	33255	32247	32611	32570	
1097	0	32231	35135	35423	34639	33103	32319	32619	32477	
1098	0	32448	36559	35207	34754	32799	32373	32789	32817	
1099	0	32626	37030	35299	34543	32619	32453	33055	32882	
1100	0	32471	36997	33671	34212	32695	32631	32941	32947	
1101	0	32085	35543	32519	33799	32686	32796	32711	33151	
1102	0	32242	33814	31677	33396	32811	32831	32710	33388	
1103	0	32719	32047	32177	32813	32850	33159	32685	33029	
1104	0	32807	30201	32508	32807	32916	33126	32607	32735	
1105	0	32467	29382	32198	32512	32869	32903	32595	32418	
1106	0	32242	29375	32501	32582	32859	32887	32526	32725	
1107	0	31738	29911	32391	32819	32847	32951	32623	33213	
1108	0	31905	29910	32869	32697	32743	32919	32611	32957	
1109	0	32635	30422	33826	32868	32687	32687	32767	32660	
1110	0	31972	32026	31513	32999	32743	32965	32727	32793	
1111	0	31740	33110	29030	33273	32939	33074	32790	33255	
1112	0	32620	34247	27330	33251	32861	33135	32903	33295	
1113	0	34225	34364	27890	33148	32731	33189	32830	33147	
1114	0	34367	33734	29509	32922	32659	33283	32743	33511	
1115	0	34715	32466	30614	31819	32527	33279	32684	33327	
1116	0	35388	31955	31129	31859	32749	33141	32845	33067	
1117	0	35858	31070	32041	32091	32839	32962	32887	32595	
1118	0	34196	32121	33593	33346	32576	32843	32793	32437	
1119	0	33080	33287	34946	34621	32603	32577	32903	32594	
1120	0	31959	33043	35759	35173	32684	32585	32826	32775	
1121	0	30516	32807	36756	35402	32839	32487	32933	32839	
1122	0	30916	32524	38487	35033	32827	32031	32973	32289	
1123	0	31943	33027	37490	34041	32767	32070	33017	31907	
1124	0	33388	34994	35958	33658	32754	32155	32941	32303	
1125	0	34049	35565	34134	33537	33061	32459	32855	32571	
1126	0	33986	34471	31935	33099	32961	32373	32839	32562	
1127	0	32259	32447	31003	31906	32557	32494	32871	32527	
1128	0	30219	30766	29501	30809	32527	32516	32957	32399	
1129	0	29531	30599	29727	30431	32681	33319	32716	32830	
1130	0	29816	30855	30583	30188	32661	33327	32675	32647	
1131	0	31445	31191	30851	30098	32745	33569	32498	32684	
1132	0	34484	31645	31001	29615	32759	33515	32586	32821	
1133	0	35783	31711	31349	29383	32767	33287	32629	32359	
1134	0	35943	30825	32289	28827	32711	32775	32577	32039	
1135	0	36551	30951	32756	28627	32470	32237	32531	32135	
1136	0	35616	32451	33187	29295	32786	32157	32607	32075	
1137	0	33865	33351	34733	31047	32903	32250	32569	32150	
1138	0	32838	34567	34263	33037	32677	32028	32755	32020	
1139	0	31721	36407	32135	34578	32681	32022	32775	32175	
1140	0	29895	37474	29943	36308	32591	32325	32949	32351	
1141	0	29839	37095	30564	37355	32353	32753	33053	32565	
1142	0	30372	35595	31257	37223	32455	33373	32945	32734	
1143	0	31277	34823	31053	36222	32663	33483	33097	32791	
1144	0	33324	34412	31339	35201	32803	33429	32902	33245	
1145	0	35559	33349	32174	33711	32749	32903	32551	32807	
1146	0	35359	32133	33047	33063	32939	32519	32525	32301	
1147	0	33377	29687	34095	32663	32949	32417	32642	32218	
1148	0	32289	28058	35429	32018	32692	32105	32958	32387	
1149	0	31285	28030	36967	32340	32415	32135	32999	32735	
1150	0	31081	28423	37722	32822	32339	32271	32763	32886	
1151	0	32037	29063	37351	32461	32428	32274	32701	32709	
1152	0	32333	29781	37027	32370	32715	32493	32628	32949	
1153	0	32597	30855	34771	32443	32724	32773	32703	33067	
1154	0	32359	32693	32815	32289	32461	33159	32892	32845	
1155	0	31961	34546	31718	31614	32612	33187	32903	32747	
1156	0	30476	35330	29662	30772	32758	32974	32663	32348	
1157	0	29423	34903	28564	31471	33087	32839	32471	32475	
1158	0	28686	34341	31099	32474	32870	32917	32501	32647	
1159	0	28103	34071	32587	33167	33047	32873	32487	32655	
1160	0	27971	33989	32911	32719	33099	32661	32397	32728	
1161	0	29221	33743	32607	33245	32999	32558	32349	32635	
1162	0	33734	34119	32941	33991	32944	32548	32205	33110	
1163	0	38729	36359	33399	34201	33014	32801	32086	33215	
1164	0	44708	38424	32469	34076	33061	32974	32335	33143	
1165	0	45687	37671	30953	34134	33353	33223	32575	32948	
1166	0	42796	35252	30719	33571	33197	32963	32633	32350	
1167	0	40526	34103	31079	32895	32799	32529	32799	31941	
1168	0	37738	33504	31431	32925	32751	32557	32994	32247	
1169	0	35122	32052	31642	32775	32679	32447	33092	32169	
1170	0	32768	29957	31675	33158	32401	32476	32943	32263	
1171	0	30217	28911	32495	32789	32366	32711	32875	32489	
1172	0	28134	28135	33529	32479	32637	32749	32658	32706	
1173	0	27607	27873	34031	31911	32827	32884	32647	32751	
1174	0	27845	28500	34031	30815	32715	32647	32751	32614	
1175	0	28140	29113	33923	29673	32698	32928	32846	32764	
1176	0	28311	29551	33491	29609	32724	33097	32789	32903	
1177	0	28598	30284	32989	30041	32655	33211	32898	32793	
1178	0	29490	30379	33115	29586	32576	32812	32923	32811	
1179	0	30423	31399	33223	30507	32460	32630	32722	32825	
1180	0	31185	32723	32833	31835	32751	32711	32751	32903	
1181	0	32025	34335	32869	32692	33021	32575	32751	33252	
1182	0	32476	34034	32918	32891	33211	32583	32631	32898	
1183	0	32410	33983	32677	33159	32870	32530	32601	32830	
1184	0	32369	33989	33735	33082	32508	32489	32763	32019	
1185	0	32561	33863	33943	33331	32461	32549	32598	32527	
1186	0	32252	33798	34247	33906	32647	32742	32565	32825	
1187	0	31140	31777	34860	33850	32498	32343	32668	32347	
1188	0	30628	30411	35204	33927	32611	32527	32763	32327	
1189	0	30412	30681	34182	34507	32615	32359	32801	32351	
1190	0	30981	31387	32931	34863	32771	32492	32884	32559	
1191	0	32274	32078	32253	34439	32805	32379	32739	32991	
1192	0	33062	31912	31268	34258	32706	32595	32709	33007	
1193	0	35972	33362	29986	34570	32500	33047	32791	33047	
1194	0	40109	36137	29739	34574	32622	33020	32855	32918	
1195	0	40591	37886	31069	34991	32730	33423	32797	32790	
1196	0	39834	37601	31535	34948	32919	33717	32758	33031	
1197	0	38807	37457	32705	34305	32863	33335	32823	32772	
1198	0	35853	36497	33639	33327	32775	32759	32921	32004	
1199	0	33413	35479	33767	32527	32647	32508	32967	31702	
1200	0	30776	33020	33619	31107	32787	32359	32941	32351	
1201	0	29863	30538	35325	29267	32755	32533	32735	32980	
1202	0	29549	28823	35647	28743	32727	32640	32655	33031	
1203	0	29191	28533	35146	29514	32867	32710	32485	32891	
1204	0	29145	29689	34347	30639	32997	32791	32647	32860	
1205	0	29511	30879	32861	31341	33155	32559	32545	32852	
1206	0	29887	31435	34405	32326	32659	32301	32707	32949	
1207	0	30436	31783	33838	32882	32415	32508	32675	33170	
1208	0	30998	33167	31591	33657	32314	33045	32716	33190	
1209	0	32066	33863	29661	32581	32508	32819	32565	32605	
1210	0	32841	33391	27653	30375	32775	32927	32710	32277	
1211	0	33357	33703	26101	29756	32863	33270	32558	32321	
1212	0	34548	35387	26198	30787	32880	33622	32433	32767	
1213	0	34900	36890	26231	31907	32886	33988	32404	32507	
1214	0	34586	38036	28755	34216	33015	33195	32509	32508	
1215	0	36395	37255	32678	36327	32901	32718	32735	32255	
1216	0	38338	35911	33475	37398	32633	32594	32941	32351	
1217	0	36786	34983	34119	38365	32749	32503	33057	32444	
1218	0	35084	33069	34452	37764	32791	32405	33021	32630	
1219	0	33100	30381	35059	35926	32789	32615	33017	32775	
1220	0	31049	28020	35551	34726	32705	32620	32866	32852	
1221	0	29828	27003	36169	33639	32555	32708	32805	32903	
1222	0	29345	26456	37212	32567	32701	32559	32859	32801	
1223	0	28975	26915	37507	31826	32833	32182	32775	32431	
1224	0	27402	28337	36540	31732	32884	32151	32817	32843	
1225	0	26486	29537	37204	31653	32764	32231	32883	32794	
1226	0	27140	30763	37477	31186	32647	32005	32830	32495	
1227	0	27973	31893	35430	30743	32679	32007	32710	32303	
1228	0	29206	33317	33569	30423	32775	32094	32695	32683	
1229	0	31993	34269	32676	29645	32764	32629	32703	32734	
1230	0	36622	35083	29513	29098	32823	32931	32639	32761	
1231	0	41526	36732	27721	29794	32940	33255	32543	32785	
1232	0	42807	37703	28173	30674	32839	33423	32466	32822	
1233	0	40007	37175	29662	31322	32775	33555	32678	32508	
1234	0	37110	34819	27832	32118	32863	33322	32756	32561	
1235	0	36196	31647	27423	32620	32806	33223	32924	32626	
1236	0	35289	29136	29431	32958	32699	33391	33029	32619	
1237	0	33866	27490	32109	33025	32657	33351	33085	32642	
1238	0	30404	27282	33010	33159	32607	33138	32943	32935	
1239	0	28313	27365	32839	33455	32717	32546	32903	32783	
1240	0	27033	27643	32628	33871	32564	32754	32820	32879	
1241	0	25654	28307	34537	34286	32452	32735	32675	32866	
1242	0	25410	30117	34823	34707	32531	32607	32751	32628	
1243	0	25901	32191	34599	35023	32553	32303	32824	32281	
1244	0	27449	35787	35165	35055	32769	32364	32642	32474	
1245	0	30798	40191	36516	34505	32815	32513	32512	32668	
1246	0	34151	40935	35421	33551	32627	32244	32430	32964	
1247	0	39727	39756	34665	32215	32708	32263	32616	32911	
1248	0	39097	38175	35735	31215	32770	32309	32727	32670	
1249	0	37069	36724	34941	30015	32871	32631	32632	32990	
1250	0	38838	35373	33300	29885	32903	32843	32397	32869	
1251	0	39246	33725	30597	30087	32717	33023	32579	32615	
1252	0	39279	31527	28907	29853	32836	33255	32679	32683	
1253	0	37428	31314	27679	30667	33030	33325	32674	32628	
1254	0	34265	32707	27985	32143	32700	33022	32610	32633	
1255	0	32455	32838	29023	33927	32685	32972	32356	32498	
1256	0	31893	31959	30446	35157	33039	32939	32369	32494	
1257	0	30450	30715	32183	35512	32860	32950	32583	32671	
1258	0	28783	30437	33510	35417	32873	32955	32751	32511	
1259	0	28797	30998	34231	35024	32902	32738	32951	32519	
1260	0	29145	31407	34823	34573	32989	32820	33055	32753	
1261	0	29474	31682	35031	34037	32903	32638	32858	33067	
1262	0	29614	31319	35455	33751	32823	32804	32806	33149	
1263	0	29190	32043	35004	33799	32637	32423	33182	32507	
1264	0	29141	32325	34543	33437	32742	32359	33053	32361	
1265	0	29375	32172	34991	33093	32646	32214	32932	32468	
1266	0	30743	32066	35844	32999	32615	32148	32769	32574	
1267	0	32756	31711	34711	32534	32634	32416	32615	32756	
1268	0	34626	31527	34103	32317	32599	32661	32647	32543	
1269	0	36041	31970	34431	31858	32436	32607	32843	32223	
1270	0	35447	33260	32671	31551	32575	32391	32654	32244	
1271	0	34919	34413	31750	31141	32759	32647	32591	32629	
1272	0	34761	34973	32191	30959	32887	32655	32478	33269	
1273	0	34750	35555	31645	30743	33004	32557	32538	32847	
1274	0	34437	35103	31903	29853	32783	32578	32623	32775	
1275	0	33120	33731	31643	30183	32583	32634	32685	32457	
1276	0	32027	31962	29813	31005	32806	32781	32535	31911	
1277	0	31116	31199	28793	31585	32876	32676	32583	32211	
1278	0	30989	31559	29671	32450	32919	32819	32643	32540	
1279	0	30996	31175	31343	33587	32903	33037	32454	33155	
1280	0	31748	30354	31655	33900	32879	33575	32553	33015	
1281	0	33381	29398	33015	33908	32970	33311	32593	32603	
1282	0	33309	28807	34495	33287	32957	33087	32698	32743	
1283	0	33125	28455	35479	31482	32771	32766	32683	32935	
1284	0	34183	30199	35817	30439	32717	32679	33035	32852	
1285	0	34917	32597	35293	30959	32667	32851	32892	33177	
1286	0	35032	34727	36255	32589	32423	32471	33073	33095	
1287	0	34804	36635	36169	33895	32403	32269	33096	32743	
1288	0	34252	36843	34793	35311	32727	32879	33037	33283	
1289	0	33324	36686	32980	35619	32739	32615	32673	33035	
1290	0	31695	37462	32444	35815	32701	32484	32725	32722	
1291	0	30871	37511	30489	35814	32543	32567	32790	32322	
1292	0	30642	35819	29044	35399	32751	33142	32636	32642	
1293	0	30976	32565	27348	34740	32860	33631	32135	32677	
1294	0	31541	30463	27300	33618	32613	33114	32380	32173	
1295	0	31482	29837	27543	32487	32417	33069	32690	32389	
1296	0	30700	29619	28671	32249	32691	33299	32879	32932	
1297	0	31069	30386	31255	31983	32605	33106	33175	32751	
1298	0	32941	30817	33367	31091	32615	33221	33127	32758	
1299	0	33487	31487	35307	29844	33095	33287	32559	33290	
1300	0	34016	32084	35839	29887	33415	33127	32556	33193	
1301	0	34867	32175	34907	30882	33062	32279	32647	32359	
1302	0	34934	32461	35655	31813	33039	32095	32831	32126	
1303	0	33784	32205	35223	32983	32983	32263	32699	32637	
1304	0	32911	31902	35606	33855	32707	32367	32671	32765	
1305	0	32321	32110	35179	34363	32775	32163	32685	32703	
1306	0	31680	32815	34383	33819	32797	32295	32637	32495	
1307	0	30839	33978	34207	33079	32868	32263	32723	32436	
1308	0	30105	35071	33159	32602	32937	32609	32603	32660	
1309	0	30749	34713	31770	31767	32825	32687	32642	32502	
1310	0	30561	32836	31815	31717	32711	32639	32735	32845	
1311	0	31284	31657	30891	31543	32703	32919	32598	33271	
1312	0	33611	31703	29859	31467	32594	32749	32775	33499	
1313	0	37934	32871	29827	32471	32525	32619	32959	32924	
1314	0	38428	32460	30528	33383	32621	32442	32965	32566	
1315	0	36599	33597	33053	33645	32433	32662	32948	32455	
1316	0	33780	35541	34228	34199	32415	32513	32990	32159	
1317	0	29172	37220	34640	34629	32493	32582	32732	32934	
1318	0	26512	37273	35503	34439	32686	32647	32599	33415	
1319	0	28486	36627	35814	34021	32879	32326	32646	32789	
1320	0	31176	35450	35073	33084	32943	32135	32807	31615	
1321	0	34624	34269	35524	32617	32839	32702	32647	31415	
1322	0	39485	32773	34806	32358	32865	32629	32526	32037	
1323	0	43980	31898	33541	31870	33076	33056	32367	32715	
1324	0	43560	29772	31554	29951	33022	33191	32421	33115	
1325	0	38045	27337	31087	27239	32749	33053	32457	33497	
1326	0	31847	26708	30957	25967	32857	32895	32611	33522	
1327	0	29359	28063	29959	26493	32589	33261	32503	33114	
1328	0	28346	29492	29185	28514	32895	33549	32551	32935	
1329	0	28441	30990	28798	30924	32804	33723	32467	32871	
1330	0	28431	31012	28532	33837	32935	32844	32459	32919	
1331	0	29877	31713	28706	36160	32995	32788	32697	32657	
1332	0	31188	32947	29703	37811	32827	32644	33242	31739	
1333	0	30279	33979	30384	38135	32749	32159	33159	31431	
1334	0	30149	35367	32172	38327	32807	32278	33052	32639	
1335	0	31617	34813	34303	37607	32674	32367	32686	33011	
1336	0	31893	34081	35935	36580	32647	32675	32811	33045	
1337	0	30515	33030	35186	36415	32412	32739	32702	32687	
1338	0	28274	30847	35282	36671	32775	32643	32754	32864	
1339	0	28189	28151	34886	36391	32759	32851	32972	32775	
1340	0	31937	28539	34164	35631	32726	33206	33135	32679	
1341	0	36375	31629	33439	34373	32661	32775	33057	32309	
1342	0	37133	33549	32668	33207	32766	32559	32699	32207	
1343	0	35652	33189	32843	32050	32852	32461	32743	32287	
1344	0	34806	33023	32671	31595	32732	32406	32617	32759	
1345	0	34352	33435	33974	31445	32738	32481	32695	32717	
1346	0	32817	33429	34789	31085	32477	32459	32887	32516	
1347	0	31246	32127	36527	30695	32411	32539	32847	32884	
1348	0	30146	31994	37895	30589	32575	32756	32711	33603	
1349	0	29370	33273	36548	30540	32743	32902	32722	33759	
1350	0	29404	35319	34775	30991	32850	33380	32831	33405	
1351	0	31352	36679	33127	30468	32834	33141	32692	32762	
1352	0	34471	36634	30799	29903	32883	32423	32677	31609	
1353	0	37135	35488	30431	29573	32684	32353	32729	31759	
1354	0	40326	33712	31341	27684	32439	32298	32948	32692	
1355	0	39774	31396	32310	26183	32487	32293	32793	33030	
1356	0	36231	29127	32565	26180	32735	32453	32620	32455	
1357	0	32000	28509	31942	27348	32814	32212	32498	32262	
1358	0	29129	27623	31332	28164	32548	32543	32415	32639	
1359	0	29097	28055	31849	29754	32678	32927	32010	32441	
1360	0	28540	28743	31042	32608	32647	33121	32399	32375	
1361	0	30168	30197	28727	34797	32775	33012	32757	32204	
1362	0	32615	32583	26684	36351	33181	33444	32404	32917	
1363	0	31653	34999	25943	36969	32773	33415	32558	32875	
1364	0	31662	38593	28341	36903	32552	33387	32635	32946	
1365	0	33238	40022	30978	37383	32718	33359	32850	33287	
1366	0	34592	39495	33277	37109	32903	33159	32775	33126	
1367	0	35847	39477	33833	36255	32841	32604	33255	31858	
1368	0	35784	36938	35237	35368	32647	32263	33241	31916	
1369	0	34578	33635	36647	34423	32581	32309	32969	32886	
1370	0	33575	30795	36710	34161	32429	32514	32925	33439	
1371	0	33866	29686	37579	34011	32551	32595	33021	33459	
1372	0	33166	32127	38016	34501	32610	32423	32889	32987	
1373	0	31844	33533	37133	35421	32527	32287	32867	32347	
1374	0	30012	33799	36835	35492	32594	32402	32743	32550	
1375	0	30961	33634	36702	35269	32803	32871	32621	32931	
1376	0	31975	33073	34266	34596	32879	33098	32363	32665	
1377	0	32487	31791	30845	33401	32607	33250	32190	32801	
1378	0	31871	30516	27439	32818	32647	32957	32133	32850	
1379	0	31570	29587	26008	32307	32602	32477	32185	31905	
1380	0	31869	30810	26451	32019	32533	32326	32676	31751	
1381	0	33314	31744	27126	31911	32704	32470	32617	32797	
1382	0	32495	31979	28903	32099	32636	32807	32953	32851	
1383	0	32130	32127	30596	31738	32615	32919	33245	32953	
1384	0	32476	31925	34378	31332	33250	33220	33191	33093	
1385	0	32604	30845	36455	30529	32982	32820	33095	33019	
1386	0	32451	30583	36927	30195	32878	32703	32847	33039	
1387	0	32340	30039	36998	29054	33018	32479	32788	33065	
1388	0	31403	29762	38843	26884	33321	32123	32813	32878	
1389	0	30511	29599	38513	26298	33252	31780	32613	31863	
1390	0	29666	29596	37593	27119	33007	32023	32486	31931	
1391	0	29043	29951	35927	29612	32687	32506	32299	32626	
1392	0	29118	31763	33657	32423	32583	32839	32263	33483	
1393	0	29766	34066	30431	35007	32714	32761	32263	33103	
1394	0	32796	37210	27204	36461	32935	32634	32535	32161	
1395	0	35719	39106	26362	37479	33062	32807	32628	32468	
1396	0	40149	39758	26119	37282	32833	33316	32762	32775	
1397	0	42387	39451	26853	36114	32858	33796	32661	33087	
1398	0	42348	38481	28485	34583	32935	33785	32859	32699	
1399	0	39655	36719	29479	32939	32517	33071	33311	32067	
1400	0	36357	35219	31023	33567	32417	33141	33287	32401	
1401	0	34118	33002	32949	34601	32551	33055	33069	32879	
1402	0	32428	31039	34495	34830	32557	32703	32847	32876	
1403	0	31186	30323	34925	34645	32447	32719	32788	32957	
1404	0	30103	30415	35783	33737	32568	32198	32841	32373	
1405	0	30541	29989	36551	33535	32845	32327	32711	32043	
1406	0	30991	29965	36279	32836	32900	32381	32479	32461	
1407	0	30955	29727	35778	31175	32830	32356	32593	32446	
1408	0	30740	28679	35017	29878	32802	32121	32556	32605	
1409	0	30771	29951	34795	28839	32786	32253	32701	32963	
1410	0	30301	30757	35153	29111	32841	32682	32433	32428	
1411	0	30134	30693	35860	29943	32749	32815	32421	33250	
1412	0	30505	30977	33581	30909	32949	32891	32441	32795	
1413	0	30126	31856	33306	32249	32622	32477	32655	32493	
1414	0	29700	33427	32085	33342	32531	32165	32484	32525	
1415	0	29452	33895	30623	33695	32567	32415	32563	32149	
1416	0	30895	34081	30121	33639	32701	33077	32610	32525	
1417	0	31928	31482	30998	32070	32998	32995	32623	32739	
1418	0	33063	29575	30437	31235	32853	33482	32610	33571	
1419	0	34213	28560	30871	31233	32662	33600	32659	33659	
1420	0	36980	28635	31442	32098	32400	32973	32932	32762	
1421	0	34994	29655	31430	33831	32787	33111	32871	32028	
1422	0	33609	34100	33199	35556	33159	32935	32618	32251	
1423	0	35152	38655	34041	36940	32899	32713	32629	32898	
1424	0	36663	40253	34700	37097	32829	32554	32599	32638	
1425	0	36410	40583	35663	35478	32781	32562	32669	32683	
1426	0	34085	37719	36291	32472	32633	32520	32687	32833	
1427	0	33205	34906	36269	29082	32895	32295	32727	32513	
1428	0	32493	32488	34987	27433	32993	32479	32455	32391	
1429	0	32884	31511	32807	27463	33115	32357	32588	32346	
1430	0	32620	30087	32075	28300	32653	32085	32607	32399	
1431	0	31552	29169	31721	30205	32407	32111	32797	32671	
1432	0	29997	30391	32879	32100	32407	32153	32894	31855	
1433	0	28149	32189	33285	33885	32466	32834	32775	32753	
1434	0	29903	30866	30327	35308	32635	33444	32503	33386	
1435	0	32914	32025	26369	36345	32883	34088	32762	33252	
1436	0	34569	34532	22530	36088	32878	33940	32998	32852	
1437	0	36908	34937	22775	35221	32708	33723	33103	32613	
1438	0	36226	35569	27180	35309	32527	33215	32925	32559	
1439	0	33825	35651	30424	35364	32844	32969	32959	32617	
1440	0	32087	33825	33763	34366	32943	32976	32847	32529	
1441	0	30431	32198	35156	35073	32775	32863	32839	32331	
1442	0	29301	30435	35463	34750	32836	32808	32763	32407	
1443	0	29599	28199	35335	34061	32799	32517	32713	32538	
1444	0	30409	26758	33982	33711	32642	32493	32873	32391	
1445	0	30855	26785	33684	33466	32663	32317	32823	32429	
1446	0	32103	27154	34965	33316	32450	32209	32799	32631	
1447	0	33552	27303	36372	32859	32551	32367	32391	32835	
1448	0	33001	29645	36402	32078	32717	32447	32474	32900	
1449	0	32202	33367	36690	31929	32540	32071	32658	32919	
1450	0	30670	37391	35748	32742	32804	31791	32634	32406	
1451	0	28270	39143	36055	32344	33056	31873	32537	32269	
1452	0	27676	39882	36795	31549	32918	32551	32556	32799	
1453	0	30870	38431	35817	30409	32963	32922	32661	33509	
1454	0	37270	36662	34190	30397	32940	32903	32683	33188	
1455	0	42868	34770	33734	30631	32876	32743	32543	32167	
1456	0	39757	32515	32790	31143	32771	32967	32471	32727	
1457	0	36972	30695	31175	31804	32530	33071	32683	33671	
1458	0	38124	30157	30103	32775	32659	33287	32535	33447	
1459	0	38375	30979	31076	33981	32836	33084	32999	32135	
1460	0	35604	31125	32151	33799	32887	32916	32967	31727	
1461	0	32850	31143	30876	33339	32631	32359	33051	31826	
1462	0	31812	32655	30415	32860	32775	32964	32958	32437	
1463	0	29601	33287	30879	31431	32567	33095	32747	32893	
1464	0	28247	32830	31035	29773	32565	33007	32754	33008	
1465	0	28196	31839	30375	27396	32935	33192	32584	33095	
1466	0	28665	30751	30386	26835	33099	33039	32663	32843	
1467	0	29922	30621	30381	27813	32833	32910	32575	32372	
1468	0	31414	31287	30115	29019	32560	32466	32698	32554	
1469	0	32179	32143	30897	31335	32373	32518	32787	32827	
1470	0	32051	33397	32856	33263	32487	32540	32623	32775	
1471	0	32647	34647	35671	34646	32647	32367	32687	33076	
1472	0	32495	35111	36737	35346	32575	32373	32620	32933	
1473	0	32492	35447	36669	35778	32655	32156	32862	31922	
1474	0	32386	36151	34843	35897	32555	32020	32903	31783	
1475	0	32706	37223	34339	35943	32623	32578	32775	32509	
1476	0	32559	35271	33823	36641	32808	32791	32788	32903	
1477	0	31894	32783	34078	37133	32677	32978	32698	32801	
1478	0	33064	30932	33175	36551	32541	33047	33059	32524	
1479	0	34383	30687	30819	35949	32446	33082	33063	32615	
1480	0	31103	29851	30794	34892	32543	32950	32802	32453	
1481	0	28818	30162	31418	34377	32729	32503	32459	32367	
1482	0	29533	31365	33283	33895	32869	32575	32199	32379	
1483	0	30518	32335	33887	33891	33025	32674	32647	32733	
1484	0	30648	31719	33293	32999	32899	33108	32545	32903	
1485	0	32729	32890	31190	31698	32732	33034	32647	32850	
1486	0	38716	35452	30751	31587	32767	32447	32538	32612	
1487	0	41047	37093	32563	31719	32895	32201	32621	32637	
1488	0	40524	36282	33258	31841	32950	32551	32708	32727	
1489	0	39988	33954	33367	30996	33062	33184	32755	32865	
1490	0	37637	32406	32263	30263	32835	33745	32921	33226	
1491	0	35392	33197	31909	30957	33248	33461	32999	32919	
1492	0	34198	32231	31363	30891	33035	32859	32754	32337	
1493	0	33864	29780	30679	30223	33041	33157	33028	32823	
1494	0	32562	28213	30962	29846	32641	33431	32812	33223	
1495	0	30898	29643	30983	30369	32549	33152	32790	32822	
1496	0	30156	33707	31176	30903	32516	32335	32783	32432	
1497	0	28261	35359	32999	30957	32511	32044	32986	32124	
1498	0	27719	34359	34965	31071	32639	32071	32775	32812	
1499	0	28133	33478	36303	31041	32727	32231	32788	32766	
1500	0	28250	32135	37413	30867	32643	31978	32801	31975	
1501	0	27047	31421	36911	31092	32500	32342	32783	32301	
1502	0	25718	30506	36679	31199	32505	32074	32747	32487	
1503	0	25491	31011	36893	32886	32719	32229	32647	32192	
1504	0	26887	32607	33621	34226	32543	32659	32721	32612	
1505	0	30117	34561	30428	34801	32691	33071	32644	32647	
1506	0	33617	35282	28964	35775	33089	32887	32476	32859	
1507	0	40191	35948	29732	36261	33039	32957	32475	33443	
1508	0	47314	36099	28813	36457	33063	32976	32912	33085	
1509	0	46888	35277	27128	35025	33100	33753	32460	33531	
1510	0	42821	33923	28175	33663	33015	33503	32387	32903	
1511	0	39380	32372	29351	33997	32936	33159	32487	32549	
1512	0	36322	32980	30812	34875	32683	32679	32831	32751	
1513	0	33657	33198	31558	35903	32925	33335	32823	33586	
1514	0	31028	31890	32793	36399	32823	33146	33046	32206	
1515	0	29423	28489	35127	35777	32871	32847	32979	31502	
1516	0	29268	27981	36286	35207	32999	32898	32957	32293	
1517	0	27646	27319	36653	34616	32827	32743	32687	33117	
1518	0	27181	26605	36834	33025	32367	32415	32810	32863	
1519	0	26748	25757	36319	30585	32306	32551	32805	32677	
1520	0	26718	26099	35796	29023	32743	32009	32780	32279	
1521	0	27655	27725	36246	27827	33090	31989	32633	32237	
1522	0	30196	30365	35460	27417	32735	31934	32709	32829	
1523	0	32428	32404	35557	27911	32500	31949	32335	33020	
1524	0	34339	33681	35914	28292	32564	31703	32481	31853	
1525	0	35111	34355	34242	28935	32391	32375	32595	32647	
1526	0	33666	33522	33700	28745	32132	32923	32655	33346	
1527	0	32089	31988	31969	28430	32735	33415	32327	33240	
1528	0	30636	31822	28603	29748	33092	33195	32159	32489	
1529	0	30375	32072	28407	30243	33017	33109	32517	32359	
1530	0	31400	33301	28980	28961	33100	33357	32559	32541	
1531	0	31471	36905	29525	29340	32930	33287	32788	32615	
1532	0	33308	40653	29136	31151	32647	33180	32810	32604	
1533	0	35895	42935	29917	35279	32757	33633	32759	32934	
1534	0	33758	43259	29746	38670	32991	34020	32895	33023	
1535	0	34850	43450	28742	41149	32927	33647	33095	32765	
1536	0	38188	45055	28352	43852	32431	33107	33302	32228	
1537	0	40089	46572	28119	44805	32671	32903	33261	32472	
1538	0	38341	43462	29095	43111	32608	32380	33129	32381	
1539	0	35525	37462	31079	41399	32231	32167	33243	31808	
1540	0	34379	30985	33790	39279	32718	32233	32911	32158	
1541	0	33553	25391	34909	36402	32935	32206	32815	32652	
1542	0	31510	21929	35406	34438	32601	32164	32802	32887	
1543	0	29789	20054	36477	32619	32621	32301	32647	32807	
1544	0	28580	20274	36481	30684	32869	32509	32448	33233	
1545	0	27129	19647	36128	29000	32589	32596	32455	33473	
1546	0	27429	19919	36639	27468	32761	32179	32366	32982	
1547	0	28009	21751	37351	25927	32973	32262	32439	33116	
1548	0	30015	26247	38246	24873	32979	32018	32356	32795	
1549	0	31952	30750	38887	25655	32901	31644	32642	31810	
1550	0	33696	33812	38308	26909	32718	31367	32697	31455	
1551	0	35420	37858	37815	28605	32615	31390	32671	32085	
1552	0	36812	39823	37558	30891	32526	31764	32809	33076	
1553	0	34672	41930	36495	32832	32438	32679	32741	33207	
1554	0	32384	41849	34205	33858	32615	33598	32767	32826	
1555	0	33031	40071	30775	34559	32871	35073	32672	33879	
1556	0	32208	37717	27059	34995	32985	35019	32590	34766	
1557	0	33872	35463	24261	35105	33093	34919	32665	33334	
1558	0	38020	33080	21958	34708	33203	33891	32769	31879	
1559	0	40644	29287	20423	34076	33541	34034	32585	32699	
1560	0	38653	28368	22609	32551	32903	34007	32911	32811	
1561	0	33583	27660	25956	31634	32615	33086	33012	32306	
1562	0	29827	25786	28780	31360	32575	32295	32804	32215	
1563	0	28406	24399	31955	30791	32635	32001	32807	32426	
1564	0	27988	24583	33777	30442	32555	31996	32570	32525	
1565	0	27991	26599	36231	31041	32571	32244	32595	32105	
1566	0	29268	29031	36587	31867	32510	32311	32586	32451	
1567	0	29338	31815	36513	32274	32534	32183	32769	32815	
1568	0	28941	34225	37031	32510	32527	32169	32799	33359	
1569	0	28815	35327	37639	32503	32869	31845	32851	32535	
1570	0	29183	36245	38335	32479	33020	31846	32883	32188	
1571	0	29983	37687	42770	31314	32688	32037	33027	32841	
1572	0	29734	36773	39737	30183	32581	31431	32989	32027	
1573	0	29108	35455	38407	30938	32559	31911	32647	32438	
1574	0	27023	33543	36303	32495	32639	31887	32549	33223	
1575	0	31015	34481	32310	34775	32769	32916	32477	34629	
1576	0	33294	34875	27297	36534	32761	33997	32557	33776	
1577	0	35430	39123	26494	37410	32871	33912	32578	31716	
1578	0	37568	45046	27757	36988	33376	33837	32511	31859	
1579	0	40119	46885	27586	35173	33121	33719	32389	32601	
1580	0	47465	41370	26162	31559	32890	33380	32373	32410	
1581	0	50270	36172	26740	29524	32891	32924	32460	32301	
1582	0	45566	33298	29417	29089	33234	32871	32255	32121	
1583	0	39703	31032	31992	29859	33131	32717	32211	32293	
1584	0	36923	27175	35143	31051	32713	31801	32554	31587	
1585	0	34537	27154	36604	33037	32479	32004	32704	32850	
1586	0	34409	31270	36587	35193	32677	32404	32887	33995	
1587	0	34833	32574	34915	36103	32927	32811	33036	33320	
1588	0	31151	31175	33423	36525	32477	32187	33262	30879	
1589	0	27865	30397	31175	36185	32256	32922	33241	32391	
1590	0	26339	29079	33859	35292	32468	33436	32911	33654	
1591	0	24266	28859	36249	35417	32644	33036	33005	33359	
1592	0	21682	27008	38637	35260	32647	32013	33122	32321	
1593	0	19748	25089	39319	34715	32809	31593	32997	31826	
1594	0	20514	24107	37511	33804	32644	32220	32825	32999	
1595	0	23821	24254	37071	32508	32494	32485	32817	33311	
1596	0	28239	25395	34938	31076	32444	32341	32948	33109	
1597	0	34900	27639	33900	28349	32359	32765	32729	33503	
1598	0	37589	29362	32724	26214	32721	33475	32604	33576	
1599	0	39636	31741	31154	24092	33060	34263	32279	33780	
1600	0	38772	34718	27601	24035	33169	34748	32185	33990	
1601	0	35129	36671	23736	24948	33005	35009	32130	33119	
1602	0	30352	37356	20164	27344	33354	33479	32104	31789	
1603	0	27417	38983	17446	31365	33437	32817	32319	31138	
1604	0	28453	39990	18000	34967	32999	32816	32471	31513	
1605	0	32018	40225	25266	38588	32893	32604	32681	32067	
1606	0	36612	40576	32390	40270	32804	31930	33256	31473	
1607	0	42589	38428	35159	40421	32564	32059	33069	32713	
1608	0	47574	39055	35629	39969	32316	32167	33087	33001	
1609	0	46271	39973	37175	38381	32244	31977	33037	33146	
1610	0	42742	39823	38215	37359	32498	32672	32995	33595	
1611	0	37968	35613	37746	36274	32492	33315	32881	33503	
1612	0	33734	30953	39348	35265	32367	32114	33063	32182	
1613	0	30103	26953	41103	33736	32294	31734	32926	32631	
1614	0	25894	24882	40479	31982	32578	31635	32853	32191	
1615	0	23037	24724	39303	29588	32722	32063	32538	32548	
1616	0	21873	24333	38141	27964	32775	32134	32297	32429	
1617	0	21212	24535	38191	28391	32831	32231	32559	31863	
1618	0	22405	25228	36331	27871	32950	32475	32561	31917	
1619	0	25799	26556	36068	25717	32954	32517	32663	32531	
1620	0	29885	27539	36310	24748	33133	32585	32647	33222	
1621	0	35165	27707	33141	24895	33047	33359	32834	33262	
1622	0	36986	29605	28481	26431	32653	33478	32797	32859	
1623	0	34530	32263	26386	29871	32315	33676	32833	32647	
1624	0	32665	33884	25326	32681	32446	33645	32883	32415	
1625	0	30276	34255	25185	36423	32474	33293	32732	32200	
1626	0	25920	37085	23754	39567	32679	32742	32821	31923	
1627	0	26876	42236	24769	41750	32556	32564	32729	32189	
1628	0	28436	45658	28951	42871	32515	32614	32839	32662	
1629	0	29307	44295	32287	41735	32866	32810	32566	32840	
1630	0	32224	39988	34415	39903	33092	32740	32647	33274	
1631	0	37113	38367	35605	37355	33269	33257	32556	33864	
1632	0	45554	36567	35284	36517	32749	33487	32679	33961	
1633	0	50298	32667	33270	35012	32783	33356	32727	33165	
1634	0	45865	28174	33183	33843	32850	32775	32743	31980	
1635	0	39121	26552	34089	32923	32941	32390	32695	32014	
1636	0	33748	26156	33615	31983	32858	31890	32817	32732	
1637	0	32463	26459	33498	30410	32760	32146	32540	33085	
1638	0	32551	26911	33224	29303	32545	32276	32501	32937	
1639	0	35402	28739	33313	27606	32505	32358	32887	31833	
1640	0	36730	31878	33413	27622	32537	32420	33052	32377	
1641	0	36671	34250	33075	28364	32103	32914	32845	33091	
1642	0	34057	34735	33876	29095	32309	32943	32736	32963	
1643	0	29279	33347	35611	29590	32398	33039	32563	32571	
1644	0	27316	32591	36271	29550	32766	32712	32621	32647	
1645	0	26345	34333	35362	29671	32876	32873	32500	32791	
1646	0	26194	37030	33509	29358	33106	33036	32597	32543	
1647	0	26830	38251	33004	29887	32974	32745	32575	32511	
1648	0	27495	37383	32590	30291	33006	32541	32855	32381	
1649	0	29988	34119	30249	31069	32935	32343	32690	32629	
1650	0	32583	30887	28823	31290	32623	32376	32681	32519	
1651	0	32190	29546	30996	32229	32756	32575	32543	32815	
1652	0	30895	31874	34421	33743	32734	32751	32559	32900	
1653	0	32208	34097	35651	34481	32694	32924	32423	33396	
1654	0	32846	33769	35887	35611	32570	33116	32553	33919	
1655	0	33483	33143	34083	36393	32735	33383	32541	33695	
1656	0	33544	33451	32367	36545	32831	32865	32987	31869	
1657	0	34489	32185	32091	33439	32673	32223	32873	31482	
1658	0	35390	32127	31586	30899	32644	32187	32639	32698	
1659	0	37751	33784	31560	30119	32626	32789	32252	34783	
1660	0	36999	33759	34017	32573	32974	32383	32383	35030	
1661	0	35918	32924	36842	35196	32482	31630	32769	32039	
1662	0	35599	31907	39343	37439	32391	31061	33193	29355	
1663	0	33849	34367	39281	38757	32687	32004	33202	30854	
1664	0	29314	35185	34779	39430	32895	33362	33254	32347	
1665	0	29994	32356	27758	37396	32977	33580	32892	32243	
1666	0	32646	29408	26026	35299	33229	33373	32685	32628	
1667	0	32894	27754	24811	34039	33005	33759	32660	33074	
1668	0	31182	26951	24783	32911	32923	34767	32791	33396	
1669	0	29807	27107	25700	33201	32983	34819	32834	33307	
1670	0	28556	28327	25642	33371	33001	34159	32773	32789	
1671	0	28939	31303	27142	34055	32775	33287	32663	32807	
1672	0	29382	32164	29692	33771	32709	32924	32693	32711	
1673	0	32131	32485	31109	32945	32635	32701	32647	32940	
1674	0	34580	31924	32943	31895	32571	32332	32772	32676	
1675	0	33786	31949	36436	31295	32647	32233	32852	32470	
1676	0	32383	31915	39478	30607	32539	32155	32743	32887	
1677	0	33375	31277	38836	29719	32655	31871	32770	32846	
1678	0	35327	31280	38057	29012	32501	32601	32687	33177	
1679	0	32876	31588	36871	29005	32372	32469	32701	33209	
1680	0	27019	32087	36126	28989	32567	31854	32839	31873	
1681	0	23542	32761	37511	27207	32886	32359	32407	33094	
1682	0	25908	34318	36412	26940	33033	32903	32003	34790	
1683	0	31343	38425	35156	24978	32982	32893	32221	33436	
1684	0	42513	39577	33644	23913	32921	32157	32534	30974	
1685	0	48745	39371	32300	24636	32566	31447	32673	30951	
1686	0	47036	38535	30695	27403	32772	32143	32346	31462	
1687	0	44679	37026	28606	31767	33128	32782	32528	32012	
1688	0	42330	35101	26657	36631	33212	33375	32867	32476	
1689	0	37874	35580	26599	39943	33198	33077	33059	32459	
1690	0	33200	34837	29575	42038	33168	32943	33021	32231	
1691	0	28486	32715	31238	40655	33223	32409	32669	31811	
1692	0	25463	30055	32015	36999	33012	32096	32671	32119	
1693	0	23683	28369	36134	35358	32743	31734	32706	32743	
1694	0	23549	28048	37795	33040	32641	32344	32884	33999	
1695	0	21710	26830	38276	32095	32122	32845	32815	34130	
1696	0	20117	24876	40617	33716	31959	32827	32887	33205	
1697	0	17906	24274	38218	35608	31970	32940	32832	33121	
1698	0	17588	29608	33671	38286	32691	33679	32758	33295	
1699	0	22328	35532	30743	40201	33115	33741	32782	33311	
1700	0	34348	38268	29253	40016	32781	33381	32913	32896	
1701	0	47198	37740	25446	38492	32582	33767	32927	32824	
1702	0	49327	37894	24023	36358	32669	33943	32879	33166	
1703	0	51909	41940	25746	34495	32921	33907	32656	33797	
1704	0	46953	44783	27271	33819	33005	33315	32696	33303	
1705	0	44799	42988	31007	33093	33060	32593	32669	31604	
1706	0	43448	37615	33306	32228	33045	32309	32747	31311	
1707	0	40782	32049	33222	30975	32804	32162	32740	32596	
1708	0	33618	27447	35052	28506	32617	32036	32903	33601	
1709	0	26966	25383	38544	26679	32634	32463	32670	34850	
1710	0	21800	28778	38886	26350	32834	32423	32466	33850	
1711	0	18132	27900	37084	26054	32580	31501	32996	30098	
1712	0	19520	24996	35787	24620	32286	31463	32727	30685	
1713	0	26726	24084	33635	21919	32101	32116	32933	30390	
1714	0	33093	26535	33377	21396	33301	32969	32198	32078	
1715	0	34987	29935	33135	22109	33415	33091	32017	32357	
1716	0	39575	30244	29584	25473	33350	32918	31827	32343	
1717	0	38520	28611	27527	30039	32843	33831	32169	32391	
1718	0	35898	29253	28727	34751	32775	33201	32737	32214	
1719	0	33449	31420	28819	38967	33056	32807	32897	32086	
1720	0	31406	33185	31425	42701	33167	32396	33244	32391	
1721	0	29031	33736	33980	42535	33167	32276	33202	32671	
1722	0	28095	33948	36030	39855	32439	32447	33391	32834	
1723	0	28695	32751	37881	37117	32325	32071	33144	32927	
1724	0	29208	31170	38533	34475	32289	31971	33022	32951	
1725	0	29306	30827	38660	33137	32223	31529	32839	32723	
1726	0	28740	32993	38575	32932	32179	31766	32938	33410	
1727	0	26040	34277	39764	34973	32383	32226	32764	33125	
1728	0	23705	36012	38489	36263	32533	32708	32727	32578	
1729	0	23450	36961	35837	37670	32865	33662	32599	33460	
1730	0	25494	40142	31140	39936	32789	34238	32418	33636	
1731	0	36776	45320	25120	41156	32816	34640	32552	32953	
1732	0	52070	50317	18816	41280	33179	34128	32608	32049	
1733	0	58336	52247	20350	40594	33276	33767	32337	32613	
1734	0	53078	44879	25803	37242	33369	33317	32367	32450	
1735	0	50542	37615	30128	32502	33487	32825	32328	32439	
1736	0	43492	30948	31110	29199	33281	32453	32469	32363	
1737	0	33504	22962	31094	26727	33060	32558	32477	33021	
1738	0	27446	18015	33301	25239	32780	32574	32647	33477	
1739	0	23382	16125	35791	24271	32701	32196	32589	33392	
1740	0	20631	16392	38597	22727	33294	31911	32453	33611	
1741	0	19953	19844	40484	22199	33341	31519	32589	31588	
1742	0	20639	22551	39044	23373	32924	31310	32775	30943	
1743	0	21674	24429	37807	24475	32862	31834	32669	32445	
1744	0	23275	26962	37511	26604	32564	32450	32919	34375	
1745	0	26884	30055	35215	29269	32351	33319	32973	34144	
1746	0	32160	35713	34980	33521	32484	34333	32787	33785	
1747	0	31986	37926	27577	37894	32599	34345	32721	33647	
1748	0	33078	37858	21282	39959	32716	34240	32839	33436	
1749	0	36007	36455	21786	38815	32891	34182	32724	33283	
1750	0	36617	37973	23270	38004	32935	33567	32766	33083	
1751	0	38733	39743	26684	37657	33005	33183	32860	32315	
1752	0	38588	38222	30799	35757	32658	33101	32918	32476	
1753	0	36141	39212	35541	34921	32535	32806	32814	32663	
1754	0	34412	39294	37033	34379	32380	32647	32855	32879	
1755	0	33639	37831	36907	34892	32507	32357	32807	32949	
1756	0	32358	34989	35990	35647	32574	32229	32898	31951	
1757	0	32828	32287	35104	36666	32534	32182	32876	32228	
1758	0	35387	29191	35706	36519	32860	32087	32644	32749	
1759	0	33268	29799	35869	35590	32797	32529	32662	33557	
1760	0	31407	31300	35941	33709	32575	32415	32765	32991	
1761	0	32852	29415	36093	30687	32846	32161	32974	31724	
1762	0	38204	26710	33327	27869	32825	32157	32772	32156	
1763	0	40044	26018	30727	26553	32669	32205	32873	32585	
1764	0	37430	24764	32932	26911	32780	32510	32747	32506	
1765	0	29868	23758	34428	27692	32637	32855	32832	32607	
1766	0	23949	26443	34717	27854	32508	32276	32941	31754	
1767	0	24586	32535	31650	28775	32529	32732	32937	31764	
1768	0	29800	39424	28909	31519	32573	33357	32995	32647	
1769	0	34096	41635	28535	33159	32789	33287	32647	32698	
1770	0	36870	40514	31532	34793	32943	33242	32733	32179	
1771	0	32932	38684	33183	35749	32729	33037	32667	32299	
1772	0	26660	34941	32455	35559	32852	32639	32655	32203	
1773	0	25078	34183	31739	35935	32839	32117	32775	32070	
1774	0	27538	32858	32893	36303	32800	32269	32751	32759	
1775	0	31978	29562	33975	34673	32940	32439	32402	32929	
1776	0	39592	28159	32831	31970	32879	32521	32504	33287	
1777	0	41408	31291	32177	30310	32710	32211	32727	32735	
1778	0	39384	37287	32199	29425	32548	32411	32923	31479	
1779	0	36479	38487	33300	28868	33111	32615	32353	32703	
1780	0	33266	37365	33697	28519	33136	32962	32327	32937	
1781	0	32452	37818	33975	27959	32975	32620	32460	33175	
1782	0	33549	35803	35496	30778	32891	32081	32602	33017	
1783	0	32519	31392	37980	35002	32807	32146	32646	32873	
1784	0	29620	28273	37637	38063	32531	32260	33122	32041	
1785	0	29477	29172	36703	38781	32525	32751	32879	31983	
1786	0	29362	33214	31286	37764	32808	33317	32292	34695	
1787	0	34653	36135	28695	36319	32699	33137	32791	34375	
1788	0	37136	35892	28325	33664	32747	33458	33013	30863	
1789	0	36205	32581	28519	31185	32775	33533	32472	30525	
1790	0	37956	29732	28082	29184	32615	32969	32044	32065	
1791	0	41323	28311	30507	28340	32454	32753	32241	33767	
1792	0	40296	28165	32487	29607	33471	32747	32383	33144	
1793	0	34542	27159	34058	30188	33638	32605	32970	32422	
1794	0	30482	26961	34892	30403	33138	32497	33741	31425	
1795	0	27094	27123	33106	31067	32918	32871	33589	31935	
1796	0	24549	28786	33220	34339	32743	32887	32915	32873	
1797	0	23592	31846	32729	36062	32423	33139	32671	32881	
1798	0	23404	35495	28777	35782	32331	33493	32673	32693	
1799	0	25947	36452	26763	35629	32535	33427	32761	32767	
1800	0	29388	36339	28874	35885	32695	33218	32671	32797	
1801	0	31803	35973	31053	37237	32655	32869	32807	32714	
1802	0	32617	35392	34310	37823	33375	32933	32598	33645	
1803	0	32293	33598	36196	37068	32585	32929	32703	33700	
1804	0	31464	31445	38148	36677	32753	32557	32455	33044	
1805	0	32308	31013	39246	35763	32895	32476	32431	33699	
1806	0	31674	31387	38405	33927	32687	31927	32609	34503	
1807	0	30149	33068	38994	31745	32447	31738	32877	31866	
1808	0	30369	34505	39292	29972	32151	31879	33114	31742	
1809	0	32288	33116	40530	28303	32097	32621	32892	33215	
1810	0	35572	32679	39263	28407	32385	32103	32677	33387	
1811	0	39380	35868	33522	27909	32609	31737	32751	32103	
1812	0	42192	40038	26282	25572	32998	32798	32711	31990	
1813	0	48666	45310	19968	26010	33221	34204	32412	31873	
1814	0	51440	50327	21348	26915	33298	34350	32453	32191	
1815	0	50141	48111	25081	26759	33340	33945	32406	32109	
1816	0	44770	36252	24358	25855	33406	33413	32167	32189	
1817	0	34777	25884	24620	28962	33397	33297	32255	31824	
1818	0	25516	20826	28391	33940	33552	33027	32374	32225	
1819	0	19787	17894	31618	37352	33375	33008	32457	32826	
1820	0	18406	16640	33522	39240	32790	32711	32857	32919	
1821	0	19755	18369	35261	41268	32711	32645	32926	32903	
1822	0	22522	21690	37310	41711	32561	32359	33027	33377	
1823	0	25294	24851	39135	41638	32417	32574	32831	33259	
1824	0	27839	27759	40100	39495	32791	32383	32767	33273	
1825	0	29604	31175	39808	35709	33478	31871	32966	33463	
1826	0	30396	35169	41190	33464	32463	32241	33278	33217	
1827	0	29769	37196	39418	31184	31460	32607	33187	32873	
1828	0	28261	37535	34836	29327	31943	33679	33055	33503	
1829	0	26071	36103	30161	29819	32329	33531	32757	32647	
1830	0	26693	35353	26391	30695	32523	33219	32850	32572	
1831	0	32033	38223	27121	31426	32319	33497	32694	32927	
1832	0	39461	42713	27765	33639	32473	32848	32771	32143	
1833	0	50683	45959	29382	35444	32837	32921	32652	31845	
1834	0	53538	47159	29797	35879	33015	33156	32692	31953	
1835	0	49937	45847	29995	35423	33217	32801	32535	31807	
1836	0	41898	38881	32359	33777	33078	32646	32713	32564	
1837	0	33906	30409	33792	31954	32855	32443	32631	32508	
1838	0	25709	23372	35164	29940	32704	32334	32653	32470	
1839	0	21074	18202	36125	25871	32772	32205	32423	32900	
1840	0	21755	20203	38214	22742	32935	32135	32399	33479	
1841	0	24484	22508	39549	20249	32948	32387	32324	33959	
1842	0	26833	23082	39672	19701	33204	32499	32303	33279	
1843	0	28783	22834	37786	21671	33157	31689	32527	31527	
1844	0	32197	26001	34039	24899	32921	31741	32673	31751	
1845	0	37814	29546	30657	30840	32898	32036	32754	32367	
1846	0	40788	33391	29799	36903	32800	32861	32815	31910	
1847	0	38672	37237	26494	41548	32884	32968	32784	31985	
1848	0	33818	38245	25047	44039	32931	33369	32732	32356	
1849	0	29408	38887	26867	44364	33087	34332	32671	33287	
1850	0	28381	40794	28193	43112	33070	34951	32607	33829	
1851	0	32744	42105	26966	41729	33064	34337	32702	33338	
1852	0	35167	39815	28363	39339	32925	33363	32638	32592	
1853	0	35463	35567	30821	34973	32663	32646	32870	32825	
1854	0	33714	31783	33143	30252	32842	32273	32977	32767	
1855	0	28805	29565	36076	26377	32361	32468	32836	33468	
1856	0	23438	30486	39449	23803	32340	32303	32830	33788	
1857	0	22230	28691	39630	23681	32473	31745	32809	33282	
1858	0	26871	28255	37109	26450	32332	31761	32866	32893	
1859	0	27098	29505	34482	31509	32589	32391	32631	33221	
1860	0	33268	33138	31374	35948	32664	32346	32959	31680	
1861	0	47112	43036	31297	40740	32651	32487	33002	30887	
1862	0	59780	50343	31425	43369	32796	32712	32842	32173	
1863	0	56839	55714	31935	43927	33001	33001	32797	32154	
1864	0	46904	52746	31506	43701	33150	32524	32843	31743	
1865	0	38204	35945	31284	39812	33132	32359	32706	32076	
1866	0	30224	22495	31457	36710	33030	32338	32655	32282	
1867	0	23536	14892	32736	33536	32935	32538	32598	32591	
1868	0	18902	12702	34423	30894	33162	32626	32454	32547	
1869	0	16830	13490	34692	29286	33515	32901	32407	32959	
1870	0	18782	15690	34463	29142	33534	33236	32127	33078	
1871	0	22551	18428	34085	27367	33054	33327	32169	32727	
1872	0	26074	23812	34350	25583	32825	32550	32784	32551	
1873	0	27545	29652	36052	23293	32874	31736	33204	33535	
1874	0	24756	32580	41983	22012	32413	31844	32864	33338	
1875	0	23276	34423	43319	23487	31805	32023	32969	33026	
1876	0	22162	32065	39036	26051	32056	32557	32620	33262	
1877	0	23305	32555	30136	28354	32428	33765	32602	33277	
1878	0	33088	38185	23918	31497	32929	33440	32552	32033	
1879	0	50027	45672	21625	34431	33062	33348	32708	32032	
1880	0	58338	49055	20785	36212	32956	33194	32692	31986	
1881	0	57720	49346	20465	37765	32769	33087	32848	32065	
1882	0	53356	46646	24464	37479	32633	32903	33127	32775	
1883	0	43052	37580	30128	34905	32607	32666	32921	32767	
1884	0	32790	28621	36113	31605	32680	33541	32812	33533	
1885	0	26038	22404	39441	28551	32884	33165	32482	33802	
1886	0	22475	20169	38644	25120	32863	32506	32263	33129	
1887	0	21863	21085	36271	24217	32690	31926	32299	32111	
1888	0	21976	21703	36402	24594	32891	31742	32364	31925	
1889	0	21701	22938	38035	25460	33164	32239	32236	32284	
1890	0	23460	27325	34695	31492	33024	32444	32818	32734	
1891	0	26395	36222	32678	38151	32623	33288	32636	34375	
1892	0	30845	42173	31897	42726	32822	33463	32391	34224	
1893	0	37452	48281	30958	45276	32660	33239	32642	32868	
1894	0	45138	57824	31568	47361	32726	33576	32771	32492	
1895	0	46297	58223	32038	49282	32759	34214	32559	33396	
1896	0	43726	54531	30402	48037	32979	33614	32715	33183	
1897	0	39793	41210	30316	44094	32608	32516	33362	31227	
1898	0	40044	31653	31594	40229	32466	32060	33470	31004	
1899	0	36361	24642	32758	37342	32662	32074	33193	31197	
1900	0	33088	18943	33100	34222	32986	32511	32920	32318	
1901	0	30249	13285	33311	31175	32861	32117	32901	32845	
1902	0	28134	10901	32893	26459	32510	31949	33011	32778	
1903	0	25692	11932	32886	22364	32806	31973	32999	32833	
1904	0	24836	15204	33942	18560	32750	32275	32823	32854	
1905	0	23744	18954	34886	18373	32890	32242	32618	32428	
1906	0	24592	22022	36633	19301	32804	31912	32397	31839	
1907	0	26527	25357	36983	22844	32647	32350	32553	32737	
1908	0	27874	28794	34069	26419	32711	32708	32444	32959	
1909	0	29614	32567	30824	31407	32795	32966	32455	33033	
1910	0	30576	35687	31186	36001	32690	32551	32675	32967	
1911	0	31400	38493	33717	37908	32689	32594	32731	32708	
1912	0	31652	42909	33186	38852	33071	32916	32638	32914	
1913	0	32607	44897	29641	39884	32903	33015	32743	33437	
1914	0	36055	46583	29319	38741	32945	33193	32676	33281	
1915	0	37765	48829	29725	36855	33012	33014	32743	32957	
1916	0	39236	48204	30461	36286	32815	33127	32743	32414	
1917	0	39397	42962	32157	34695	32560	33127	32647	32898	
1918	0	37525	35877	32425	32135	32532	32897	32703	32742	
1919	0	33879	31139	33038	31433	32329	32482	32837	32863	
1920	0	30735	30343	33427	32038	32582	32498	32679	33487	
1921	0	31149	29717	34857	32644	32722	32516	32607	33484	
1922	0	31598	30795	35303	33055	32775	32861	32519	33650	
1923	0	35919	32870	33919	34151	32761	32500	32866	32644	
1924	0	38999	32635	33453	34153	32841	31993	33063	30874	
1925	0	37551	32386	33052	34648	32671	31746	32931	31366	
1926	0	35684	34448	33095	34552	32831	32269	32500	32161	
1927	0	33536	34949	33209	33243	32871	32375	32507	32413	
1928	0	32072	32263	33334	30356	32745	32735	32551	33251	
1929	0	31271	29395	32587	26350	32783	32829	32729	33279	
1930	0	30231	26375	32622	22779	32871	32892	32751	33086	
1931	0	29292	24881	34159	22213	32576	32849	32642	32967	
1932	0	29328	26599	35779	23508	32678	32428	32775	32495	
1933	0	29983	29823	36487	24204	32773	32364	32446	32701	
1934	0	30343	31873	37807	25497	32825	32134	32388	32826	
1935	0	30361	37156	36476	29484	32639	32633	32357	33388	
1936	0	30956	41577	34097	33598	32773	32865	32611	32642	
1937	0	31594	40967	30596	38300	32945	33224	32717	33127	
1938	0	34484	38047	27135	41321	32865	32884	32887	33006	
1939	0	39652	43602	24870	42374	32738	32745	32942	32039	
1940	0	43574	46017	24544	42670	32814	33046	32856	32164	
1941	0	41588	43181	26535	42631	32962	33044	32767	32349	
1942	0	35418	37113	30503	41057	32987	33029	32767	32581	
1943	0	32920	30872	32611	39431	32802	33035	32727	32701	
1944	0	34735	25247	32279	37198	32769	32898	32868	32430	
1945	0	33014	19337	32091	35381	32820	32577	32837	32343	
1946	0	29837	17451	33644	34525	32759	32847	32661	32989	
1947	0	26698	17410	35204	33319	32697	32744	32609	33047	
1948	0	24893	19026	36277	30414	32647	32686	32836	32610	
1949	0	24908	22602	36795	26722	32903	32531	32581	32516	
1950	0	27054	24925	36572	22351	32891	33104	32724	32844	
1951	0	30616	26454	37407	20875	33294	32892	32827	33579	
1952	0	32487	29270	36839	21042	33159	32114	32901	32559	
1953	0	32301	32350	37146	22425	32692	31890	32686	32023	
1954	0	31100	32127	35279	26342	32509	32279	32745	32233	
1955	0	32086	30960	31557	29640	32755	32581	32674	32661	
1956	0	33187	31111	24647	30439	32903	32637	32463	32447	
1957	0	34326	34790	24802	34755	32898	33308	32483	32740	
1958	0	35340	41163	29881	38957	32839	33527	32599	33025	
1959	0	34768	45492	33242	41849	32794	33038	32749	32571	
1960	0	31201	45391	34950	43287	32839	32983	32839	32451	
1961	0	24843	39423	34460	42513	32668	32978	32839	33008	
1962	0	23586	37383	33991	41862	32694	32508	32713	33006	
1963	0	34167	42207	33186	41160	32644	32037	32968	32523	
1964	0	44071	46155	32436	41274	32647	31956	32863	32687	
1965	0	45852	41388	32490	38623	32870	32201	32599	32919	
1966	0	43399	39731	33327	35015	32655	32150	32535	32610	
1967	0	40724	41334	34687	30455	32838	32398	32587	32359	
1968	0	34406	37036	37663	25151	33058	32574	32492	32519	
1969	0	28503	28748	36441	22130	32838	32934	32558	32059	
1970	0	29757	21751	28550	20183	32472	33478	32519	33125	
1971	0	33222	18776	23145	19596	32941	33393	32574	33108	
1972	0	33023	18759	24975	20596	32871	32324	32587	32971	
1973	0	31426	20389	31935	24454	32855	32376	32647	32921	
1974	0	26434	24075	39572	27666	32688	33009	32676	33188	
1975	0	23798	30492	40887	30951	32703	33287	32613	33591	
1976	0	24166	32627	37140	32285	32806	33272	32669	32876	
1977	0	26066	31867	31525	32943	32759	33484	32818	32895	
1978	0	30271	33812	30377	31286	32604	34114	32838	32588	
1979	0	35874	35629	26944	32215	32689	33809	32861	31886	
1980	0	38721	35234	22381	34713	32754	33654	32863	31600	
1981	0	44494	37598	20042	38335	32761	33250	32719	31943	
1982	0	43813	36035	27119	41656	32749	32967	32920	32447	
1983	0	36901	34156	33385	45580	32737	32781	32735	32783	
1984	0	29284	29184	36471	46759	32740	32351	32600	32493	
1985	0	25353	24279	36716	47034	32486	32317	32501	32582	
1986	0	25048	21537	36527	46119	32583	32507	32364	32982	
1987	0	25383	22038	35751	44271	32761	32635	32679	33351	
1988	0	25835	25969	36858	41703	32582	32310	33049	32871	
1989	0	26204	26695	37629	38546	32452	32277	33050	32739	
1990	0	26438	29781	38061	33308	32415	32210	33148	32925	
1991	0	27540	34151	36447	24942	32599	32135	32793	32635	
1992	0	31960	36972	33566	13679	32592	32070	32646	32566	
1993	0	36994	36676	31476	5145	32605	31992	32372	32673	
1994	0	40037	34597	31798	4152	33076	32252	32169	32711	
1995	0	38771	31865	33926	8319	33266	32489	32817	32727	
1996	0	35812	29694	32943	22774	33103	32375	32871	32883	
1997	0	34695	32423	31545	34971	33068	32620	32775	33327	
1998	0	35880	37065	32447	46956	32582	32919	32980	33526	
1999	0	37190	46892	33604	55140	32263	32936	33456	31796	
2000	0	37870	55091	35159	57243	32282	32609	33512	31136	
2001	0	38639	55927	34389	56621	32354	32487	33255	31998	
2002	0	36902	47837	32080	49576	32839	33111	32864	33439	
2003	0	33828	39401	31524	42341	32615	33327	32731	33498	
2004	0	31498	30213	31345	36484	32295	32662	32885	31943	
2005	0	31929	24487	31266	33332	32327	32452	32895	32043	
2006	0	31320	21919	32565	32207	32492	32803	32749	32401	
2007	0	30653	21153	34213	30599	32532	33389	32420	32781	
2008	0	30684	21942	33542	28436	32740	33822	32281	33486	
2009	0	31924	24159	31394	26332	32961	33256	32263	32990	
2010	0	32220	26820	29757	24813	33029	32742	32407	32214	
2011	0	32256	28935	30027	23356	32981	32683	32547	31961	
2012	0	32219	30454	31751	23319	32900	32594	32487	32544	
2013	0	32308	31271	34599	23468	32310	32633	32335	33102	
2014	0	32471	31935	36275	21839	32564	32212	32539	33095	
2015	0	33628	32378	36710	21850	32484	31825	32815	32459	
2016	0	33174	33940	37893	24449	32578	32066	32941	32413	
2017	0	30568	37885	37268	26856	32550	32398	32894	33213	
2018	0	28342	40637	33871	30182	32740	32556	32743	33428	
2019	0	26744	41591	31828	34117	32927	33309	32388	33366	
2020	0	25818	41119	28397	36425	32919	33086	32576	32309	
2021	0	30087	40258	24382	36487	32938	32924	32471	32094	
2022	0	33586	38461	27422	36013	32884	32935	32450	32747	
2023	0	36604	37527	31967	35639	32761	33225	32535	33060	
2024	0	37705	35887	33287	34242	32806	33550	32658	32895	
2025	0	41145	36748	30914	33847	32845	33170	32727	32206	
2026	0	44866	39465	28065	35787	32877	32825	32652	32071	
2027	0	46084	35997	26437	37423	32903	32549	32839	32559	
2028	0	43615	32044	29058	37415	32894	32444	32958	32870	
2029	0	37823	30080	34267	37101	32623	32377	33071	32970	
2030	0	31260	30410	39095	36892	32832	32199	33153	31775	
2031	0	27479	29078	40293	35111	32914	32103	32977	30732	
2032	0	26232	25412	38661	30254	32685	32353	33142	32101	
2033	0	26872	22778	38018	24797	32704	32612	32857	33550	
2034	0	31323	19791	35547	20637	33031	32732	32692	33677	
2035	0	30255	17218	34735	17189	33086	32986	32548	32832	
2036	0	28415	17869	34070	17976	32989	32997	32428	32330	
2037	0	25622	21981	30914	22608	32647	33119	32302	32586	
2038	0	23236	25195	30028	28887	33026	33263	32213	33014	
2039	0	24500	29201	31962	35965	33063	33695	32153	32969	
2040	0	26412	35664	29452	41759	33447	33980	32268	32537	
2041	0	24978	38135	24319	43309	33471	33671	32271	32588	
2042	0	27204	43037	25831	41501	33076	33857	32358	32967	
2043	0	31874	47399	32769	39271	32646	33496	32694	32820	
2044	0	34176	42871	33603	32391	32514	31981	32935	32727	
2045	0	34021	35868	30957	28850	32767	31524	32951	33708	
2046	0	37156	34178	32584	25735	32171	31111	33037	33666	
2047	0	38988	34768	35507	26652	32063	31661	33124	32745	
2048	0	39606	37389	37702	30055	31831	32084	33393	32699	
2049	0	37565	40524	41468	34469	31738	31623	33597	32646	
2050	0	43493	45046	41564	42073	32191	32504	33412	33079	
2051	0	40839	44901	36647	50415	32657	33713	33062	32281	
2052	0	36484	37116	31145	50938	33001	34734	32761	31333	
2053	0	44562	32306	26473	50942	33053	33898	32775	31552	
2054	0	41192	31431	26791	49759	33039	33096	32876	32054	
2055	0	32143	28386	26468	47657	33140	33334	32749	33377	
2056	0	27495	20122	27806	42559	33231	33264	32420	32942	
2057	0	24695	16161	29534	36452	33044	32669	32573	32262	
2058	0	20880	14705	33179	30467	32705	32010	32601	33033	
2059	0	18194	15845	35556	27019	33092	32086	32567	32317	
2060	0	17356	16719	37007	24865	33333	31991	32367	31963	
2061	0	20413	18944	37622	24792	33132	32706	32239	33267	
2062	0	28009	23471	35975	24202	33372	33414	32148	33576	
2063	0	39079	27952	28027	22676	33444	33820	32374	33362	
2064	0	41936	31879	23399	22976	32633	33249	32490	32884	
2065	0	38919	34739	24863	24467	32165	33201	32431	32402	
2066	0	37584	36945	27958	25750	32262	33143	32272	32717	
2067	0	37690	39367	32135	27158	32150	32364	32756	32543	
2068	0	35901	42775	35298	28039	32085	32671	33318	32220	
2069	0	36752	49116	37753	29487	32276	32592	33339	32277	
2070	0	36617	48519	37643	28927	32335	32357	33259	32675	
2071	0	34096	43391	34909	29190	32481	32323	32992	33269	
2072	0	32001	37271	34053	29349	32802	32855	33101	33165	
2073	0	30518	33775	35463	29171	32754	33025	33139	33375	
2074	0	29445	30987	34859	29983	32687	32386	32903	32872	
2075	0	29516	29826	36174	31759	32703	32217	32855	32391	
2076	0	29983	30303	35959	32948	32629	32151	32543	32759	
2077	0	30823	31404	35205	33367	32947	32013	32586	33287	
2078	0	31908	32103	35987	35463	33026	31991	32610	32763	
2079	0	32916	32383	34896	38127	32831	32303	32692	32151	
2080	0	33287	33178	33579	40262	32941	32719	32591	32538	
2081	0	33618	34192	31491	41143	32989	33079	32340	32973	
2082	0	33783	35245	29807	40303	32805	32957	32558	32507	
2083	0	34315	36597	28430	39194	32918	32755	32604	32115	
2084	0	34311	37227	28591	38463	32863	33083	32639	32511	
2085	0	34217	35327	30791	36402	33093	33306	32541	33821	
2086	0	34380	33091	33154	33055	33433	33319	32738	33873	
2087	0	34272	32423	34740	31552	32942	32703	32565	33241	
2088	0	34108	32556	36482	30119	32519	31559	32894	31871	
2089	0	34725	32717	40668	28035	32596	31133	33198	31593	
2090	0	35006	31732	42399	27642	31790	31788	33191	32572	
2091	0	34397	30381	41186	26575	31906	32102	33009	33265	
2092	0	32536	30698	36182	26098	32326	32175	32756	32943	
2093	0	31903	32057	30476	23203	32672	32162	32509	32895	
2094	0	31716	33793	25631	21342	32890	33391	32434	32974	
2095	0	30241	35234	16878	22898	32863	34324	32300	32171	
2096	0	30306	34385	17279	26338	32959	34567	32252	31839	
2097	0	30472	32183	23896	28967	33239	34079	32012	32413	
2098	0	32923	30199	26621	30489	33381	33993	31564	32663	
2099	0	34474	30167	29229	34199	33095	33671	32060	32558	
2100	0	33300	30956	30781	37076	32791	33215	32298	32319	
2101	0	33492	34299	31079	39350	32962	32714	33022	32315	
2102	0	34513	34087	34677	42780	33017	32014	33152	32117	
2103	0	35376	34751	37943	42262	32665	31762	33176	31983	
2104	0	34600	37652	37831	39106	32663	31698	33503	32786	
2105	0	33778	39929	37887	39703	32530	31868	33343	33463	
2106	0	31392	38863	38887	40135	32317	31932	33193	34156	
2107	0	25840	36471	41305	39259	31892	31737	33166	33857	
2108	0	18807	33127	44068	38608	32241	32312	33116	33326	
2109	0	14615	32513	44119	37511	32668	32863	32944	33681	
2110	0	21377	35986	40464	34182	32794	33722	32747	33831	
2111	0	29943	39303	37007	32230	32865	34698	32688	35172	
2112	0	48985	43172	33406	33452	33144	34602	32370	35272	
2113	0	62120	43630	25607	34174	33204	33628	32502	32392	
2114	0	60392	37633	18567	30536	33069	32176	32740	29029	
2115	0	56911	24999	15890	26652	32706	31822	33004	28103	
2116	0	52372	14785	20009	24012	32476	32559	32753	30204	
2117	0	26798	13176	25725	24708	32771	32428	32742	31472	
2118	0	20233	13755	30793	27575	33028	32495	32670	32383	
2119	0	18778	16149	32775	30652	33061	33287	32557	32642	
2120	0	19683	20503	33293	34836	33380	33735	32415	32729	
2121	0	19141	23191	31266	37815	33591	33415	32364	32775	
2122	0	19916	24652	32199	37465	33645	33031	32370	32805	
2123	0	22055	27039	33889	35287	33304	32851	32285	33007	
2124	0	23593	30035	35425	33005	32968	32428	32545	33099	
2125	0	25477	33375	36922	30964	32528	32260	32833	32733	
2126	0	27750	35437	39183	29409	32192	31885	32870	32775	
2127	0	29400	36063	40284	28560	32507	31707	32827	32666	
2128	0	30092	39044	40025	28903	32517	31103	32910	32647	
2129	0	32036	41622	41133	31527	32169	31103	32899	33052	
2130	0	33944	42793	40807	34708	32235	31325	33052	33101	
2131	0	35544	41339	36809	35847	32349	31818	33020	32959	
2132	0	37960	42309	32468	35965	32212	32908	32860	33636	
2133	0	42537	46884	30624	35245	32351	33172	32943	33684	
2134	0	42401	45135	31294	35207	32506	33213	32865	33351	
2135	0	39072	41418	28668	33501	32538	33970	32799	32994	
2136	0	43976	39420	22114	32901	32884	34207	32564	32272	
2137	0	40848	32647	16130	33439	33112	34529	32378	32039	
2138	0	38831	27305	22571	34246	33403	34402	32447	32207	
2139	0	37609	23243	27420	33372	33187	33373	32524	32143	
2140	0	34534	22596	31611	32732	32933	33398	32543	32474	
2141	0	31007	22793	34248	30957	32980	33089	32601	32598	
2142	0	29703	27883	35576	30358	32829	32666	32551	32695	
2143	0	28263	29155	35787	30823	32771	32617	32557	32723	
2144	0	27336	28157	36999	28868	32643	32199	32479	32859	
2145	0	26386	27199	37620	23372	32892	31764	32598	32643	
2146	0	26153	25030	37709	19919	32782	31594	32527	32550	
2147	0	27048	24641	37287	19652	32621	31663	32660	32587	
