# OpenSignals Text File Format
# {"00:07:80:3B:46:38": {"sensor": ["CUSTOM/0.5/1.0/V", "CUSTOM/0.5/1.0/V", "CUSTOM/0.5/1.0/V", "CUSTOM/0.5/1.0/V", "CUSTOM/0.5/1.0/V", "CUSTOM/0.5/1.0/V", "CUSTOM/0.5/1.0/V", "CUSTOM/0.5/1.0/V"], "device name": "EMGs", "column": ["nSeq", "DI", "RA_L", "RA_R", "OE_L", "OE:R", "IL_L", "IL_R", "MF_L", "MF_R"], "sync interval": 2, "time": "17:38:28.774", "comments": "", "device connection": "BTH00:07:80:3B:46:38", "channels": [1, 2, 3, 4, 5, 6, 7, 8], "date": "2017-6-1", "mode": 0, "digital IO": [0, 1], "firmware version": 772, "device": "biosignalsplux", "position": 0, "sampling rate": 1000, "label": ["RA_L", "RA_R", "OE_L", "OE:R", "IL_L", "IL_R", "MF_L", "MF_R"], "resolution": [16, 16, 16, 16, 16, 16, 16, 16], "special": [{}, {}, {}, {}, {}, {}, {}, {}]}}
# EndOfHeader
0	0	32599	32587	32382	32375	32559	32788	33051	32655	
1	0	32621	32695	32355	32479	32527	32754	32997	32551	
2	0	32729	32647	32527	32391	32686	32815	32967	32715	
3	0	32647	32613	32671	32453	32723	32807	33191	32759	
4	0	32763	32661	32727	32599	32674	32759	33383	32693	
5	0	32773	32731	32703	32599	32645	32763	33203	32733	
6	0	32799	32838	32765	32553	32647	32839	32917	32705	
7	0	32821	32775	32829	32687	32762	32826	32731	32639	
8	0	32815	32851	32727	32556	32743	32758	32647	32561	
9	0	32881	32852	32811	32749	32677	32742	32663	32639	
10	0	32861	32846	32775	32759	32735	32795	32647	32647	
11	0	32823	32757	32831	32579	32786	32723	32634	32545	
12	0	32775	32709	32801	32775	32789	32693	32749	32735	
13	0	32765	32727	32821	32733	32837	32715	32869	32727	
14	0	32766	32871	32745	32791	32801	32773	32935	32647	
15	0	32848	32839	32786	32742	32695	32849	32759	32773	
16	0	32798	32823	32711	32491	32858	32895	32841	32727	
17	0	32794	32854	32668	32725	32751	32847	32771	32555	
18	0	32763	32711	32595	32691	32703	32743	32658	32457	
19	0	32759	32708	32775	32559	32671	32751	32775	32402	
20	0	32791	32719	32775	32799	32671	32726	32647	32692	
21	0	32786	32615	32707	32615	32733	32815	32525	32709	
22	0	32719	32571	32644	32644	32725	32713	32378	32519	
23	0	32720	32695	32546	32711	32638	32749	32255	32708	
24	0	32854	32628	32631	32535	32547	32769	32358	32695	
25	0	32787	32687	32797	32721	32631	32679	32118	32823	
26	0	32826	32675	32764	32697	32681	32745	31879	32790	
27	0	32790	32803	32657	32655	32711	32829	32071	32771	
28	0	32694	32642	32555	32596	32767	32865	32381	32986	
29	0	32727	32754	32579	32804	32999	32883	32564	32895	
30	0	32713	32775	32682	32791	33231	32987	32371	32903	
31	0	32710	32757	32775	32583	33179	32927	32114	32883	
32	0	32706	32810	32636	32703	33167	32903	31799	32722	
33	0	32811	32831	32757	32696	33151	33005	31967	32875	
34	0	32775	32933	32797	32487	33059	32884	32557	32647	
35	0	32734	32863	32739	32705	32543	32751	33347	32742	
36	0	32701	32799	32692	32809	32454	32591	33595	32663	
37	0	32769	32815	32695	32553	32583	32527	33471	32706	
38	0	32791	32705	32679	32759	32698	32511	33533	32615	
39	0	32762	32671	32681	32679	32706	32499	33641	32359	
40	0	32713	32692	32708	32702	32621	32451	34093	32174	
41	0	32726	32691	32739	32613	32647	32469	34435	32127	
42	0	32708	32676	32701	32599	32573	32575	34365	32167	
43	0	32751	32669	32639	32635	32555	32659	33759	32283	
44	0	32772	32709	32751	32540	32575	32721	32775	32405	
45	0	32818	32703	32869	32718	32749	32803	32205	32845	
46	0	32806	32711	32819	32647	32837	32855	32258	32754	
47	0	32745	32566	32734	32691	32731	32815	32374	32515	
48	0	32761	32575	32830	32617	32959	32887	32239	32722	
49	0	32769	32587	32607	32775	32933	32846	32455	33037	
50	0	32753	32723	32692	32775	32773	32814	32735	33047	
51	0	32799	32719	32591	32581	32815	32775	32851	33094	
52	0	32799	32799	32519	32687	32871	32762	33075	33031	
53	0	32811	32738	32439	32578	32853	32799	33047	33145	
54	0	32775	32679	32497	32589	32775	32747	32933	32666	
55	0	32738	32735	32711	32571	32687	32803	33015	32167	
56	0	32703	32659	32771	32604	32711	32962	33117	32263	
57	0	32789	32807	32639	32559	32823	32950	32775	32179	
58	0	32806	32827	32740	32575	32842	32981	32595	32335	
59	0	32790	32855	32715	32645	32723	32943	32515	32695	
60	0	32756	32829	32679	32827	32793	32799	32553	32959	
61	0	32738	32815	32589	32869	32855	32734	32673	32871	
62	0	32662	32735	32661	32671	32895	32627	32511	32883	
63	0	32744	32815	32743	32711	32747	32598	32315	32963	
64	0	32740	32773	32775	32635	32738	32623	32279	32198	
65	0	32697	32643	32792	32745	32737	32679	32274	31597	
66	0	32774	32621	32723	32695	32773	32735	32423	32093	
67	0	32767	32671	32711	32579	32769	32722	32455	32413	
68	0	32735	32705	32663	32690	32629	32685	32291	32207	
69	0	32698	32711	32567	32771	32679	32607	32191	32229	
70	0	32765	32627	32647	32541	32727	32719	31959	32459	
71	0	32813	32725	32751	32695	32838	32852	31931	32839	
72	0	32781	32798	32742	32628	33107	32875	31742	32879	
73	0	32751	32687	32891	32709	33101	32903	32045	32693	
74	0	32807	32694	32845	32479	32833	32742	32679	32895	
75	0	32796	32772	32946	32583	32695	32775	32781	32954	
76	0	32742	32748	32859	32535	32708	32727	33554	32743	
77	0	32700	32745	32671	32715	32739	32786	33807	32759	
78	0	32705	32819	32797	32655	32748	32791	33263	32854	
79	0	32799	32758	32871	32647	32823	32775	33117	32839	
80	0	32722	32759	32852	32711	32613	32816	33629	32813	
81	0	32807	32765	32813	32701	32355	32802	33987	33079	
82	0	32807	32735	32989	32735	32275	32710	33695	33019	
83	0	32855	32791	32879	32631	32348	32805	33396	32677	
84	0	32853	32859	32685	32818	32462	32890	32795	32743	
85	0	32794	32823	32647	32587	32839	32831	32071	32815	
86	0	32839	32775	32695	32743	32854	32935	31332	32749	
87	0	32754	32771	32775	32709	32711	32813	31491	33047	
88	0	32737	32678	32591	32645	32790	32638	31673	32804	
89	0	32717	32685	32631	32783	32916	32775	32343	32855	
90	0	32751	32706	32735	32802	32823	32759	33531	32596	
91	0	32711	32823	32629	32751	32695	32685	33959	32799	
92	0	32685	32719	32515	32571	32876	32671	33571	32706	
93	0	32732	32679	32559	32692	32923	32667	33719	32511	
94	0	32751	32647	32701	32619	33191	32743	33695	32717	
95	0	32731	32674	32553	32416	33078	32775	33250	32597	
96	0	32743	32703	32454	32623	32919	32799	33159	32671	
97	0	32784	32647	32439	32647	32767	32871	32980	32595	
98	0	32775	32591	32543	32559	32829	32839	32903	32447	
99	0	32752	32647	32635	32694	32903	32783	32527	32703	
100	0	32770	32647	32476	32615	32943	32863	32285	32604	
101	0	32815	32636	32562	32743	32977	32761	32135	32675	
102	0	32840	32711	32615	32647	33014	32735	32367	32819	
103	0	32787	32727	32567	32615	32821	32735	32518	32759	
104	0	32753	32731	32703	32463	32703	32711	32775	32609	
105	0	32743	32767	32735	32659	32717	32733	32402	32703	
106	0	32699	32788	32895	32662	32667	32811	32103	32687	
107	0	32743	32821	32942	32436	32749	32799	31695	32487	
108	0	32763	32813	32895	32711	32927	32736	31747	32679	
109	0	32751	32827	32815	32828	32999	32821	32295	32647	
110	0	32752	32707	32835	32859	32877	32819	32711	32502	
111	0	32723	32681	32799	32871	32771	32823	33307	32699	
112	0	32794	32686	32679	32644	32687	32815	33799	32639	
113	0	32769	32667	32805	32739	32721	32724	33964	32681	
114	0	32773	32679	32681	32694	32747	32799	33287	32406	
115	0	32808	32647	32479	32453	32756	32791	33055	32679	
116	0	32809	32811	32775	32583	32644	32813	33095	32706	
117	0	32790	32791	32749	32567	32565	32871	32884	32484	
118	0	32823	32775	32811	32711	32759	32878	32911	32583	
119	0	32787	32796	32839	32509	32755	32828	32731	32594	
120	0	32764	32765	32839	32698	32919	32739	32613	32551	
121	0	32711	32736	32833	32695	32903	32789	32481	32679	
122	0	32775	32789	32903	32481	32845	32763	32567	32571	
123	0	32762	32663	32847	32719	32765	32834	32708	32628	
124	0	32810	32587	32759	32775	32647	32801	32849	32571	
125	0	32743	32615	32631	32850	32807	32814	32553	32659	
126	0	32738	32743	32631	32799	32759	32795	32502	32642	
127	0	32822	32774	32633	32629	32799	32738	32248	32694	
128	0	32772	32747	32702	32698	32795	32791	31911	32785	
129	0	32791	32787	32695	32607	32823	32711	31391	32775	
130	0	32797	32815	32870	32756	32834	32734	31299	32623	
131	0	32728	32735	32843	32709	32895	32847	31732	32749	
132	0	32742	32671	32727	32547	32903	32919	31554	32769	
133	0	32788	32787	32727	32655	33061	32949	31823	32615	
134	0	32831	32681	32719	32703	32836	32755	31997	32767	
135	0	32775	32751	32631	32642	32615	32566	32092	32674	
136	0	32706	32775	32675	32742	32562	32613	32366	32548	
137	0	32711	32683	32743	32613	32669	32711	33206	32658	
138	0	32730	32703	32647	32727	32599	32704	34327	32612	
139	0	32740	32751	32831	32551	32433	32820	35231	32531	
140	0	32753	32691	32754	32699	32429	32738	34903	32601	
141	0	32711	32603	32671	32771	32382	32674	34629	32587	
142	0	32775	32628	32823	32509	32695	32700	33791	32644	
143	0	32749	32645	32807	32673	33031	32762	33131	32642	
144	0	32759	32647	32737	32755	32967	32701	32933	32727	
145	0	32743	32689	32739	32847	32793	32679	32738	32671	
146	0	32742	32735	32549	32737	32802	32686	32423	32759	
147	0	32703	32818	32421	32531	32855	32794	32388	32709	
148	0	32694	32807	32535	32701	32797	32813	32407	32786	
149	0	32713	32731	32628	32694	32687	32803	31963	32499	
150	0	32701	32801	32701	32685	32775	32860	31983	32714	
151	0	32735	32859	32731	32706	32961	32743	32109	32711	
152	0	32738	32775	32819	32766	32701	32639	32285	32711	
153	0	32800	32759	32767	32709	32647	32749	32423	32601	
154	0	32846	32757	32596	32631	32795	32756	32743	32722	
155	0	32831	32838	32603	32623	32855	32734	33105	32717	
156	0	32708	32723	32708	32471	32903	32711	33547	32431	
157	0	32800	32658	32643	32671	32775	32725	33471	32548	
158	0	32774	32647	32684	32676	32637	32751	33513	32495	
159	0	32771	32687	32662	32597	32717	32673	33590	32687	
160	0	32768	32671	32557	32626	32764	32733	33487	32603	
161	0	32775	32647	32557	32633	32799	32806	33377	32685	
162	0	32782	32740	32706	32812	32775	32835	32816	32443	
163	0	32764	32783	32663	32667	32853	32813	32549	32669	
164	0	32754	32739	32743	32727	32823	32819	32271	32807	
165	0	32724	32739	32725	32717	32804	32879	32350	32668	
166	0	32728	32790	32727	32471	32726	32855	32663	32750	
167	0	32692	32737	32837	32695	32684	32863	32607	32859	
168	0	32743	32773	32819	32746	32791	32791	32579	32555	
169	0	32751	32717	32809	32599	32747	32753	32658	32775	
170	0	32800	32647	32839	32743	32850	32807	32742	32724	
171	0	32749	32743	32822	32605	32707	32723	32535	32641	
172	0	32829	32797	32743	32751	32742	32819	32150	32550	
173	0	32798	32753	32703	32711	32791	32758	31889	32669	
174	0	32739	32827	32731	32564	32887	32732	31927	32387	
175	0	32743	32743	32681	32701	32893	32598	31750	32239	
176	0	32728	32743	32583	32657	32943	32647	32039	32414	
177	0	32772	32703	32775	32588	33015	32719	32334	32531	
178	0	32758	32754	32766	32671	32983	32870	32549	32717	
179	0	32839	32647	32707	32511	32749	32772	32735	32772	
180	0	32820	32619	32738	32719	32797	32749	32775	32840	
181	0	32670	32658	32647	32707	32823	32695	33159	32967	
182	0	32709	32663	32566	32447	32703	32698	33059	32964	
183	0	32708	32786	32627	32705	32567	32743	32927	32871	
184	0	32708	32771	32607	32669	32642	32775	32951	32671	
185	0	32700	32743	32695	32595	32658	32663	33428	32639	
186	0	32768	32679	32791	32685	32563	32759	33812	32646	
187	0	32756	32753	32703	32647	32679	32775	33234	32595	
188	0	32742	32677	32822	32715	32837	32821	32742	32501	
189	0	32804	32691	32789	32719	32852	32797	32341	32727	
190	0	32788	32677	32679	32575	32615	32769	31730	32668	
191	0	32836	32807	32817	32662	32703	32743	31423	32562	
192	0	32874	32833	32687	32671	32827	32847	31529	32775	
193	0	32842	32759	32639	32677	32797	32811	32129	32645	
194	0	32865	32811	32707	32647	32735	32839	32575	32679	
195	0	32837	32772	32739	32617	32666	32799	33203	32391	
196	0	32882	32671	32743	32607	32475	32611	34043	32535	
197	0	32828	32745	32679	32615	32467	32604	34268	32577	
198	0	32799	32775	32647	32578	32506	32635	34439	32445	
199	0	32724	32722	32679	32701	32617	32615	34085	32731	
200	0	32695	32671	32669	32623	32852	32713	33701	32783	
201	0	32715	32671	32743	32613	32927	32831	33579	32667	
202	0	32682	32667	32775	32799	32879	32806	33303	32679	
203	0	32688	32663	32691	32771	32821	32869	33073	32807	
204	0	32805	32837	32804	32583	32709	32903	32830	32945	
205	0	32822	32791	32711	32717	32727	32791	32429	32731	
206	0	32764	32797	32646	32677	32732	32783	32150	32847	
207	0	32703	32695	32663	32599	32855	32873	32289	32743	
208	0	32751	32727	32729	32754	32877	32863	32325	32697	
209	0	32753	32689	32673	32762	32922	32865	32191	32679	
210	0	32732	32710	32655	32639	32975	32918	32037	32775	
211	0	32773	32623	32786	32730	32834	32846	32467	33051	
212	0	32850	32642	32831	32626	32703	32799	32581	32929	
213	0	32875	32679	32879	32723	32773	32807	32535	32575	
214	0	32754	32679	32921	32658	32807	32631	32749	32069	
215	0	32783	32725	32871	32555	32762	32515	32729	32039	
216	0	32754	32796	32713	32719	32727	32543	32543	32243	
217	0	32745	32685	32663	32717	32759	32703	32563	32571	
218	0	32724	32679	32679	32563	32717	32742	32620	32563	
219	0	32729	32635	32647	32663	32647	32818	32244	32477	
220	0	32683	32700	32588	32617	32715	32807	32055	32743	
221	0	32724	32719	32623	32447	32799	32854	32355	32605	
222	0	32765	32663	32511	32615	32756	32762	32615	32615	
223	0	32763	32644	32736	32749	32790	32742	32951	32671	
224	0	32756	32683	32694	32667	32789	32727	33211	32804	
225	0	32807	32627	32685	32729	32789	32819	33051	32892	
226	0	32699	32647	32795	32642	32985	32895	32783	32759	
227	0	32719	32753	32731	32839	32895	32867	32607	32876	
228	0	32807	32762	32661	32747	32879	32871	32515	32767	
229	0	32775	32822	32591	32581	32825	32869	32275	32711	
230	0	32759	32845	32756	32709	32831	32902	31935	32555	
231	0	32726	32865	32865	32705	32766	32865	32207	32751	
232	0	32756	32885	32783	32517	32699	32722	32769	32722	
233	0	32790	32870	32763	32717	32589	32615	33178	32679	
234	0	32743	32815	32802	32756	32467	32683	33159	32647	
235	0	32713	32786	32855	32578	32627	32691	33016	32694	
236	0	32743	32693	32717	32759	32454	32711	32635	32804	
237	0	32792	32699	32743	32754	32519	32613	32620	32575	
238	0	32797	32703	32735	32647	32757	32674	32747	32711	
239	0	32764	32764	32693	32727	32730	32850	32959	32665	
240	0	32773	32763	32653	32781	32698	32827	33333	32637	
241	0	32745	32759	32709	32607	32773	32823	33475	32605	
242	0	32716	32679	32734	32683	32655	32788	33684	32713	
243	0	32698	32743	32654	32679	32671	32871	33239	32725	
244	0	32742	32702	32829	32511	32645	32860	32731	32629	
245	0	32720	32669	32787	32701	32699	32838	32574	32607	
246	0	32814	32635	32759	32735	32713	32815	32735	32789	
247	0	32786	32675	32732	32551	32706	32751	32583	32676	
248	0	32826	32685	32690	32786	32588	32743	32271	32903	
249	0	32792	32647	32733	32755	32647	32687	32081	32653	
250	0	32828	32647	32803	32583	32602	32813	32347	32911	
251	0	32837	32708	32647	32595	32669	32863	32673	32692	
252	0	32856	32741	32687	32645	32741	32790	32775	32643	
253	0	32745	32819	32567	32623	32895	32707	32695	32631	
254	0	32769	32719	32627	32635	32838	32913	32623	32599	
255	0	32775	32733	32637	32530	32717	32903	32531	32531	
256	0	32855	32751	32661	32763	32725	32806	32485	32762	
257	0	32767	32775	32765	32775	32681	32599	32503	32630	
258	0	32794	32839	32545	32663	32711	32679	32500	32647	
259	0	32807	32767	32747	32740	32903	32745	32455	32603	
260	0	32796	32823	32797	32717	33021	32749	32252	32785	
261	0	32856	32807	32727	32578	33046	32695	32277	32791	
262	0	32881	32759	32823	32729	32948	32754	32450	32647	
263	0	32851	32775	32765	32809	32879	32835	32643	32556	
264	0	32743	32759	32764	32679	32818	32924	32935	32611	
265	0	32698	32808	32671	32851	32861	32967	33279	32551	
266	0	32727	32811	32775	32845	33104	32924	32951	32787	
267	0	32700	32763	32757	32669	33017	32830	32935	32975	
268	0	32681	32790	32767	32838	32762	32743	33326	32983	
269	0	32701	32751	32634	32743	32615	32623	33441	32721	
270	0	32720	32746	32663	32589	32646	32547	32715	32783	
271	0	32694	32743	32642	32615	32793	32681	31647	32668	
272	0	32679	32783	32690	32647	32485	32655	31151	32583	
273	0	32722	32711	32677	32676	32460	32527	32423	32382	
274	0	32738	32762	32703	32633	32631	32570	33661	32167	
275	0	32767	32715	32791	32493	32639	32763	33725	32135	
276	0	32769	32711	32731	32605	32675	32685	33685	32211	
277	0	32769	32820	32695	32604	32635	32677	33474	32263	
278	0	32773	32751	32535	32465	32681	32517	33285	31975	
279	0	32817	32775	32743	32658	32715	32607	33055	32455	
280	0	32790	32609	32727	32615	32723	32639	32817	32935	
281	0	32769	32695	32665	32543	32831	32695	32655	33205	
282	0	32717	32765	32712	32583	32843	32727	32722	33038	
283	0	32743	32820	32607	32711	32879	32879	32619	32807	
284	0	32741	32773	32631	32498	32895	32855	32612	32577	
285	0	32658	32771	32687	32605	32935	32822	32703	32587	
286	0	32756	32775	32647	32563	32871	32789	32573	32595	
287	0	32726	32775	32686	32763	32803	32818	32499	32647	
288	0	32759	32783	32754	32519	32756	32807	32479	32599	
289	0	32672	32850	32791	32617	32727	32767	32636	32404	
290	0	32626	32791	32739	32686	32788	32798	32647	32671	
291	0	32669	32775	32823	32660	32815	32797	32547	32727	
292	0	32761	32756	32775	32801	32841	32791	32455	33103	
293	0	32737	32692	32603	32852	32863	32747	32391	32954	
294	0	32743	32687	32718	32703	32757	32733	32543	32461	
295	0	32809	32679	32791	32727	32721	32756	32615	32519	
296	0	32735	32639	32704	32710	32659	32877	32621	32576	
297	0	32694	32631	32743	32585	32687	32837	32734	32624	
298	0	32715	32699	32711	32562	32827	32835	32631	32887	
299	0	32751	32665	32557	32703	32919	32807	32495	32903	
300	0	32795	32727	32557	32811	32948	32835	32581	32863	
301	0	32791	32729	32641	32858	33119	32850	32679	32695	
302	0	32799	32703	32723	32943	32943	32775	32766	32637	
303	0	32775	32773	32647	32708	32871	32911	32699	32751	
304	0	32787	32721	32698	32852	32875	32839	32407	32519	
305	0	32799	32756	32726	32751	32727	32863	32159	32542	
306	0	32831	32807	32795	32639	32763	32809	31853	32743	
307	0	32817	32862	32675	32431	32562	32742	31851	32573	
308	0	32823	32807	32695	32575	32711	32929	31893	32903	
309	0	32759	32850	32877	32447	32605	32775	32405	33061	
310	0	32796	32839	32749	32319	32423	32602	33055	33213	
311	0	32736	32809	32623	32339	32511	32607	33260	33319	
312	0	32751	32871	32647	32613	32527	32541	33299	33059	
313	0	32775	32722	32686	32626	32703	32684	33435	32603	
314	0	32708	32663	32669	32645	32914	32677	34127	32597	
315	0	32676	32647	32765	32519	32983	32593	34575	32417	
316	0	32748	32629	32725	32723	32639	32459	34380	32019	
317	0	32753	32627	32643	32723	32566	32579	34164	31733	
318	0	32759	32663	32677	32599	32797	32623	33700	32343	
319	0	32714	32637	32767	32871	33010	32789	33030	33110	
320	0	32748	32615	32804	32785	32919	32797	32540	33357	
321	0	32772	32603	32767	32723	32685	32814	32183	32775	
322	0	32783	32679	32741	32676	32663	32839	32231	32750	
323	0	32834	32807	32769	32621	32706	32871	32107	32589	
324	0	32805	32747	32692	32643	32783	32895	32223	32581	
325	0	32775	32791	32681	32590	32791	32887	32617	32173	
326	0	32739	32647	32486	32647	32743	32751	32576	32271	
327	0	32694	32722	32563	32630	32571	32799	32470	32280	
328	0	32768	32679	32599	32511	32579	32722	32735	32535	
329	0	32665	32677	32589	32655	32615	32738	32979	32546	
330	0	32677	32671	32679	32708	32642	32869	33101	32771	
331	0	32696	32815	32647	32775	32836	32831	32925	32747	
332	0	32774	32797	32700	32763	32839	32919	32555	32595	
333	0	32787	32732	32775	32701	32820	32834	32359	32751	
334	0	32773	32793	32791	32775	32743	32769	32451	32647	
335	0	32767	32839	32727	32679	32731	32810	32479	32839	
336	0	32788	32855	32769	32599	32775	32759	32550	32655	
337	0	32777	32757	32767	32668	32815	32701	32603	32869	
338	0	32756	32722	32798	32690	32756	32759	32647	32719	
339	0	32716	32702	32663	32581	32798	32787	32567	32684	
340	0	32646	32679	32663	32429	32807	32703	32507	32703	
341	0	32772	32659	32647	32563	32793	32751	32519	32678	
342	0	32742	32591	32687	32557	32773	32783	32579	32754	
343	0	32781	32635	32623	32359	32803	32775	32701	32627	
344	0	32852	32599	32665	32647	32749	32810	32653	32671	
345	0	32758	32609	32775	32705	32751	32839	32653	32695	
346	0	32781	32609	32695	32663	32815	32829	32732	32567	
347	0	32754	32683	32711	32799	32747	32801	32679	32703	
348	0	32719	32758	32630	32715	32674	32851	32807	32589	
349	0	32739	32751	32727	32473	32605	32847	32830	32567	
350	0	32749	32871	32748	32639	32773	32796	32562	32703	
351	0	32796	32797	32721	32743	32789	32799	32751	32535	
352	0	32773	32807	32794	32731	32870	32695	32791	32507	
353	0	32738	32807	32793	32740	32910	32883	32819	32523	
354	0	32806	32755	32775	32835	32871	32875	32815	33099	
355	0	32833	32767	32773	32623	32823	32765	32885	33287	
356	0	32815	32790	32885	32748	32831	32783	32791	33124	
357	0	32830	32802	32807	32727	32669	32741	32727	32915	
358	0	32735	32695	32590	32835	32791	32799	32743	33131	
359	0	32783	32749	32695	32671	32823	32805	32788	33175	
360	0	32789	32797	32599	32787	32727	32909	32514	33086	
361	0	32813	32726	32735	32817	32688	32789	32391	32526	
362	0	32783	32658	32678	32550	32677	32763	32595	32176	
363	0	32745	32691	32669	32711	32775	32711	32647	32122	
364	0	32708	32715	32755	32677	32823	32738	32790	32347	
365	0	32729	32646	32690	32756	32807	32617	32874	31934	
366	0	32791	32677	32692	32719	32717	32551	32635	31514	
367	0	32758	32631	32683	32736	32685	32515	32687	31337	
368	0	32729	32561	32767	32771	32700	32714	32762	32123	
369	0	32834	32671	32791	32743	32762	32793	33005	32578	
370	0	32790	32679	32738	32772	32623	32871	33047	32927	
371	0	32775	32711	32737	32527	32642	32903	32855	32841	
372	0	32728	32719	32679	32716	32703	32775	32711	33106	
373	0	32734	32647	32749	32667	32739	32795	32727	32903	
374	0	32782	32663	32687	32519	32855	32731	32921	32903	
375	0	32789	32731	32689	32731	32743	32716	32971	32833	
376	0	32710	32741	32659	32731	32727	32719	32903	32965	
377	0	32788	32709	32807	32494	32655	32775	32835	32911	
378	0	32756	32623	32679	32575	32711	32751	32877	32755	
379	0	32751	32699	32743	32639	32715	32858	32797	32839	
380	0	32772	32717	32710	32549	32675	32823	32644	32655	
381	0	32752	32747	32605	32659	32683	32817	32637	32668	
382	0	32724	32805	32647	32571	32629	32863	32743	32677	
383	0	32740	32845	32731	32677	32591	32743	32815	32613	
384	0	32710	32647	32647	32578	32759	32719	32749	32775	
385	0	32703	32719	32725	32356	32931	32717	32775	32615	
386	0	32748	32759	32723	32687	32913	32860	32821	32711	
387	0	32773	32749	32785	32709	32855	32863	32839	32695	
388	0	32737	32694	32695	32615	32691	32847	32692	32761	
389	0	32713	32817	32763	32785	32647	32807	32591	32641	
390	0	32749	32782	32741	32658	32855	32845	32508	32679	
391	0	32758	32799	32694	32727	32879	32749	32647	32743	
392	0	32814	32731	32805	32765	32819	32635	32740	32597	
393	0	32834	32787	32635	32698	32811	32725	32975	32743	
394	0	32792	32743	32561	32707	32783	32763	33039	32741	
395	0	32804	32702	32679	32607	32766	32711	33028	32389	
396	0	32748	32671	32577	32732	32700	32748	32903	32627	
397	0	32767	32709	32703	32671	32726	32757	32775	32583	
398	0	32811	32811	32703	32414	32837	32717	32847	32598	
399	0	32869	32820	32623	32487	32911	32847	32783	32767	
400	0	32793	32783	32799	32711	32875	32783	32573	32831	
401	0	32711	32783	32763	32614	32838	32767	32391	32660	
402	0	32702	32751	32669	32739	32803	32850	32287	32483	
403	0	32809	32730	32687	32821	32820	32738	32429	32493	
404	0	32788	32710	32827	32711	32753	32717	32061	32742	
405	0	32773	32711	32519	32755	32789	32727	32051	32695	
406	0	32718	32661	32655	32633	32703	32739	32327	32844	
407	0	32807	32603	32789	32754	32823	32899	32303	32795	
408	0	32784	32743	32802	32721	32830	32773	32035	32754	
409	0	32707	32762	32698	32642	32852	32706	31879	32531	
410	0	32772	32767	32811	32743	32767	32667	32391	32711	
411	0	32772	32751	32828	32738	32695	32692	33247	32515	
412	0	32754	32729	32677	32563	32621	32738	34501	32563	
413	0	32774	32695	32861	32719	32449	32687	34693	32451	
414	0	32724	32726	32791	32719	32646	32701	33858	32589	
415	0	32730	32683	32843	32596	32809	32775	33127	32599	
416	0	32808	32733	32819	32663	32785	32748	32834	32636	
417	0	32791	32735	32817	32701	32837	32791	32658	32527	
418	0	32735	32647	32738	32559	32851	32820	32607	32597	
419	0	32719	32737	32642	32729	32775	32765	32639	32635	
420	0	32673	32667	32617	32735	32676	32833	32831	32463	
421	0	32671	32695	32532	32532	32749	32855	33095	32627	
422	0	32729	32703	32519	32795	32803	32785	33076	32567	
423	0	32748	32740	32488	32647	32873	32871	32967	32647	
424	0	32719	32747	32671	32595	32871	32787	32799	32479	
425	0	32755	32783	32683	32551	32819	32799	32283	32474	
426	0	32723	32751	32789	32655	32879	32807	31999	32674	
427	0	32789	32733	32685	32743	32831	32836	32669	32671	
428	0	32784	32756	32817	32542	32951	32839	32837	32711	
429	0	32741	32734	32783	32706	32981	32815	32645	32582	
430	0	32768	32727	32853	32763	32882	32695	32423	32817	
431	0	32746	32803	32734	32519	32711	32743	32681	32803	
432	0	32786	32679	32743	32627	32524	32647	33229	32903	
433	0	32805	32769	32775	32749	32515	32671	33569	32919	
434	0	32807	32764	32796	32613	32575	32755	33043	33268	
435	0	32845	32749	32681	32738	32599	32827	32667	32878	
436	0	32813	32699	32747	32695	32613	32843	32756	32717	
437	0	32793	32710	32657	32519	32844	32811	32807	32463	
438	0	32817	32647	32541	32695	32876	32707	32783	32690	
439	0	32869	32692	32615	32666	32877	32767	32582	32655	
440	0	32766	32679	32805	32668	32789	32860	32445	32701	
441	0	32749	32671	32797	32741	32855	32887	32405	32687	
442	0	32738	32647	32646	32643	32795	32892	32559	32805	
443	0	32698	32631	32621	32599	32703	32833	32569	32762	
444	0	32745	32630	32775	32711	32831	32845	32574	32727	
445	0	32692	32701	32671	32631	32893	32719	32339	32831	
446	0	32657	32661	32717	32547	32855	32748	31979	32557	
447	0	32708	32663	32839	32678	32743	32647	31959	32389	
448	0	32768	32693	32761	32631	32710	32631	32743	32483	
449	0	32767	32727	32804	32513	32727	32661	33430	32535	
450	0	32752	32739	32749	32645	32763	32751	33239	32403	
451	0	32762	32717	32613	32785	33018	32775	32399	32691	
452	0	32775	32791	32559	32655	32925	32855	32439	32587	
453	0	32825	32823	32748	32691	32835	32721	33362	32525	
454	0	32727	32758	32667	32684	32733	32676	33963	32563	
455	0	32851	32819	32614	32822	32647	32725	33479	32785	
456	0	32876	32830	32711	32694	32863	32887	32671	32745	
457	0	32812	32809	32669	32561	32855	32786	32495	32647	
458	0	32748	32810	32661	32735	32743	32742	32391	32671	
459	0	32758	32767	32701	32707	32775	32807	32298	32843	
460	0	32773	32759	32805	32679	32727	32718	32615	32659	
461	0	32775	32685	32795	32564	32577	32548	32847	32635	
462	0	32723	32731	32743	32723	32641	32741	32785	32567	
463	0	32751	32675	32646	32738	32669	32858	33071	32548	
464	0	32795	32719	32864	32574	32598	32735	33885	32619	
465	0	32723	32670	32841	32694	32314	32579	34719	32556	
466	0	32709	32671	32685	32727	32263	32596	34607	32611	
467	0	32711	32748	32668	32677	32487	32711	34083	32431	
468	0	32719	32709	32663	32740	32627	32735	33326	32615	
469	0	32703	32775	32687	32699	32675	32639	32957	32679	
470	0	32739	32724	32646	32461	32812	32757	32599	32759	
471	0	32750	32751	32621	32647	32799	32851	32505	32647	
472	0	32757	32829	32673	32775	32937	32877	32255	32767	
473	0	32736	32806	32730	32565	32973	32825	32141	32695	
474	0	32783	32766	32631	32729	32983	32869	32028	32766	
475	0	32802	32775	32727	32743	32887	32839	31938	32596	
476	0	32818	32743	32703	32591	32863	32811	32067	32675	
477	0	32791	32735	32722	32816	32826	32823	31921	32786	
478	0	32784	32804	32757	32723	32869	32815	31900	32642	
479	0	32711	32775	32715	32583	32986	32855	31823	32647	
480	0	32736	32739	32839	32662	32902	32855	31978	32505	
481	0	32760	32679	32743	32708	32959	32774	31953	32703	
482	0	32839	32673	32775	32519	32967	32763	31873	32686	
483	0	32784	32710	32769	32723	33031	32775	31989	32687	
484	0	32772	32746	32775	32627	32910	32759	32477	32597	
485	0	32773	32687	32717	32645	32799	32765	32642	32717	
486	0	32772	32734	32567	32391	32775	32739	32804	32807	
487	0	32765	32834	32709	32623	32805	32697	33260	32652	
488	0	32711	32775	32775	32709	32749	32734	33773	32663	
489	0	32732	32743	32711	32607	32621	32715	34194	32647	
490	0	32786	32663	32801	32671	32637	32727	33949	32875	
491	0	32767	32716	32871	32809	32639	32711	33191	32723	
492	0	32781	32679	32807	32631	32545	32707	32723	32687	
493	0	32783	32647	32863	32769	32639	32787	32644	32414	
494	0	32829	32662	32963	32748	32775	32863	32591	32727	
495	0	32826	32655	32839	32669	32887	32850	33031	32831	
496	0	32823	32602	32775	32786	32767	32795	33692	32663	
497	0	32855	32663	32879	32805	32669	32799	33619	32733	
498	0	32805	32662	32751	32513	32555	32677	33427	32597	
499	0	32775	32659	32903	32587	32401	32765	33325	32567	
500	0	32756	32669	32727	32641	32311	32823	33171	32531	
501	0	32775	32735	32775	32542	32526	32821	32890	32445	
502	0	32698	32643	32577	32671	32716	32751	32532	32623	
503	0	32759	32668	32519	32703	32739	32811	32251	32671	
504	0	32718	32703	32369	32645	32748	32875	32231	32695	
505	0	32698	32710	32295	32687	32871	32903	32131	32647	
506	0	32710	32751	32258	32638	32951	32835	32325	32799	
507	0	32676	32854	32260	32487	32992	32795	32420	32679	
508	0	32743	32859	32347	32607	32967	32693	32710	32756	
509	0	32679	32799	32530	32747	32887	32666	32683	32743	
510	0	32610	32798	32703	32635	32807	32628	32331	32557	
511	0	32646	32805	32726	32645	32645	32738	32463	32587	
512	0	32686	32767	32815	32802	32679	32757	32668	32611	
513	0	32731	32714	32663	32763	32839	32756	32853	32607	
514	0	32718	32756	32743	32564	32769	32764	32701	32685	
515	0	32791	32747	32735	32587	32706	32775	32531	32631	
516	0	32805	32753	32580	32477	32823	32743	32828	32709	
517	0	32771	32662	32719	32644	32757	32815	32899	32530	
518	0	32786	32679	32751	32666	32684	32748	32743	32831	
519	0	32775	32799	32775	32743	32722	32709	32804	32815	
520	0	32782	32699	32863	32775	32990	32727	32738	32611	
521	0	32811	32775	32795	32749	32963	32759	32725	32870	
522	0	32799	32770	32816	32775	32937	32687	32765	32839	
523	0	32791	32703	32722	32573	32860	32727	32759	32553	
524	0	32769	32701	32638	32647	32861	32747	32655	32740	
525	0	32818	32641	32767	32740	32815	32717	32467	32615	
526	0	32767	32647	32833	32755	32708	32711	32338	32591	
527	0	32736	32623	32775	32775	32669	32823	32428	32711	
528	0	32751	32751	32839	32719	32879	32863	32437	32573	
529	0	32754	32757	32841	32717	32811	32854	32335	32473	
530	0	32733	32773	32799	32519	32621	32876	32509	32647	
531	0	32785	32775	33005	32667	32663	32759	32699	32493	
532	0	32752	32772	32883	32687	32577	32719	32771	32451	
533	0	32764	32855	32861	32569	32771	32709	32791	32765	
534	0	32802	32743	32845	32678	32687	32829	32919	32665	
535	0	32669	32679	32831	32692	32727	32882	32883	32837	
536	0	32737	32687	32705	32844	32646	32853	32852	33082	
537	0	32756	32759	32711	32823	32903	32829	32967	32831	
538	0	32794	32727	32746	32755	32918	32791	32846	32567	
539	0	32774	32734	32557	32860	32869	32782	32791	32569	
540	0	32738	32663	32635	32671	32851	32815	32765	32519	
541	0	32762	32628	32621	32603	32718	32751	32813	32679	
542	0	32802	32647	32601	32466	32647	32723	32615	32735	
543	0	32806	32671	32647	32623	32695	32695	32564	32671	
544	0	32771	32799	32524	32691	32831	32775	32623	32743	
545	0	32807	32730	32751	32685	32770	32743	33007	32731	
546	0	32809	32797	32731	32738	32812	32775	32941	32879	
547	0	32775	32628	32698	32559	32795	32805	32982	32642	
548	0	32792	32639	32750	32693	32691	32847	33038	32450	
549	0	32799	32691	32680	32637	32647	32751	33010	32615	
550	0	32780	32723	32671	32717	32767	32747	32727	32671	
551	0	32724	32743	32607	32681	32735	32755	32573	32527	
552	0	32753	32774	32737	32719	32647	32822	32605	32630	
553	0	32713	32863	32841	32751	32725	32852	32531	32645	
554	0	32660	32623	32687	32647	32674	32933	32519	32757	
555	0	32748	32630	32699	32679	32785	32960	32527	32605	
556	0	32738	32743	32743	32663	32933	32931	32477	32489	
557	0	32780	32786	32850	32713	32813	32821	32457	32622	
558	0	32772	32758	32885	32551	32855	32709	32183	32647	
559	0	32671	32677	32767	32703	32868	32711	32404	32647	
560	0	32671	32727	32775	32415	32733	32681	32507	32647	
561	0	32759	32635	32646	32595	32795	32615	32403	32761	
562	0	32709	32565	32607	32695	32773	32658	32436	32681	
563	0	32732	32646	32631	32479	32799	32741	32756	32743	
564	0	32740	32643	32663	32609	32807	32743	33087	32639	
565	0	32775	32647	32515	32675	32711	32751	33921	32675	
566	0	32799	32698	32487	32565	32597	32691	34362	32567	
567	0	32847	32682	32551	32866	32630	32711	33843	32759	
568	0	32764	32567	32607	32757	32671	32663	33538	32570	
569	0	32783	32732	32571	32585	32893	32709	33427	32611	
570	0	32775	32698	32631	32807	32919	32751	33447	32524	
571	0	32804	32727	32671	32799	32791	32815	33335	32575	
572	0	32713	32811	32693	32574	32751	32766	33022	32644	
573	0	32689	32818	32821	32769	32811	32873	32687	32597	
574	0	32761	32841	32811	32679	32911	32773	32647	32791	
575	0	32772	32831	32889	32775	32765	32790	32895	32579	
576	0	32846	32727	32838	32727	32637	32819	33167	32666	
577	0	32791	32711	32709	32715	32797	32822	32972	32647	
578	0	32759	32654	32835	32661	32742	32871	32642	32655	
579	0	32790	32741	32683	32561	32663	32855	32391	32577	
580	0	32799	32806	32617	32677	32773	32807	32243	32654	
581	0	32720	32789	32781	32669	32887	32834	32244	32575	
582	0	32745	32743	32829	32397	32836	32831	32291	32654	
583	0	32735	32767	32765	32501	32813	32771	32191	32623	
584	0	32742	32826	32707	32556	32749	32751	32101	32759	
585	0	32829	32771	32788	32421	32693	32886	32135	32751	
586	0	32742	32763	32775	32556	32797	32819	32307	32647	
587	0	32726	32759	32639	32636	32852	32804	32532	32871	
588	0	32704	32697	32710	32743	32724	32819	32749	32755	
589	0	32701	32646	32698	32829	32663	32827	32730	32647	
590	0	32759	32725	32647	32679	32799	32811	32775	32753	
591	0	32671	32749	32738	32807	32860	32718	32819	32667	
592	0	32755	32797	32658	32811	32775	32701	32759	32511	
593	0	32764	32787	32643	32787	32775	32682	32711	32635	
594	0	32762	32799	32759	32735	32799	32775	32557	32599	
595	0	32713	32787	32851	32555	32799	32751	32541	32709	
596	0	32812	32773	32749	32683	32789	32839	32569	32518	
597	0	32775	32797	32757	32527	32787	32769	32513	32765	
598	0	32796	32717	32725	32708	32669	32812	32447	32711	
599	0	32807	32635	32653	32657	32703	32748	32671	32655	
600	0	32791	32675	32634	32762	32820	32661	33010	32582	
601	0	32688	32687	32695	32591	32913	32647	32762	32823	
602	0	32701	32563	32676	32647	32853	32647	32727	32631	
603	0	32757	32567	32747	32766	32788	32725	32823	32630	
604	0	32720	32639	32762	32663	32767	32775	32785	32773	
605	0	32726	32813	32755	32639	32861	32863	32839	32638	
606	0	32786	32764	32692	32733	32822	32795	32955	32642	
607	0	32780	32807	32748	32639	32723	32743	32967	32590	
608	0	32763	32807	32635	32762	32877	32850	32973	32835	
609	0	32703	32823	32663	32647	32823	32775	32903	32586	
610	0	32789	32818	32655	32583	32871	32715	32799	32579	
611	0	32753	32775	32735	32647	32807	32706	32703	32572	
612	0	32816	32731	32707	32514	32822	32695	32756	32733	
613	0	32733	32629	32598	32535	32775	32745	32711	32631	
614	0	32775	32659	32763	32742	32735	32803	32733	32578	
615	0	32772	32611	32722	32527	32770	32847	32679	32367	
616	0	32799	32721	32590	32609	32671	32775	32719	32623	
617	0	32766	32623	32639	32452	32647	32847	32687	32891	
618	0	32769	32695	32577	32605	32735	32829	32733	32690	
619	0	32752	32743	32561	32695	32717	32903	32786	32655	
620	0	32780	32719	32679	32759	32703	32843	32741	32463	
621	0	32758	32671	32671	32801	32763	32767	32771	32718	
622	0	32745	32743	32607	32807	32732	32807	32727	32615	
623	0	32741	32687	32749	32673	32813	32759	32633	32735	
624	0	32721	32738	32735	32733	32797	32703	32593	32709	
625	0	32762	32693	32724	32775	32807	32708	32470	32743	
626	0	32819	32732	32707	32731	32756	32727	32679	32869	
627	0	32820	32695	32775	32763	32745	32678	32974	32745	
628	0	32784	32765	32687	32709	32715	32813	32885	32749	
629	0	32775	32771	32799	32692	32643	32743	32575	32663	
630	0	32775	32642	32711	32767	32775	32727	32363	32582	
631	0	32871	32758	32759	32571	32839	32635	32417	32495	
632	0	32846	32790	32919	32511	32955	32711	32671	32769	
633	0	32765	32751	32775	32579	32898	32791	32935	32710	
634	0	32703	32732	32791	32619	32835	32763	32933	32727	
635	0	32711	32719	32756	32577	32867	32755	32703	32605	
636	0	32738	32767	32743	32751	32831	32823	32667	32631	
637	0	32757	32807	32670	32633	32700	32810	32848	32679	
638	0	32737	32769	32664	32638	32877	32803	32983	32571	
639	0	32807	32751	32769	32516	32941	32709	32619	32767	
640	0	32766	32661	32679	32404	32903	32695	32627	32683	
641	0	32762	32639	32775	32439	32809	32732	32806	32740	
642	0	32721	32742	32713	32711	32845	32743	32831	32589	
643	0	32713	32630	32647	32500	32789	32747	32463	32785	
644	0	32730	32659	32599	32773	32647	32700	31981	32713	
645	0	32684	32575	32669	32833	32719	32699	32159	32772	
646	0	32704	32575	32647	32671	32823	32726	32525	32793	
647	0	32730	32735	32719	32687	32783	32692	33115	32591	
648	0	32799	32787	32715	32641	32727	32769	33223	32741	
649	0	32749	32711	32765	32569	32770	32689	33391	32495	
650	0	32717	32695	32823	32718	32719	32734	33871	32439	
651	0	32774	32805	32775	32767	32719	32759	33807	32666	
652	0	32724	32746	32729	32670	32707	32763	33725	32655	
653	0	32716	32767	32859	32765	32766	32762	33302	32723	
654	0	32772	32737	32765	32621	32719	32775	32775	32647	
655	0	32751	32767	32629	32513	32785	32783	32567	32769	
656	0	32836	32683	32708	32637	32758	32765	32569	32707	
657	0	32754	32705	32729	32647	32645	32787	32545	32609	
658	0	32788	32831	32567	32731	32705	32757	32334	32647	
659	0	32764	32823	32607	32700	32687	32797	32345	32719	
660	0	32757	32679	32646	32619	32853	32693	32679	32755	
661	0	32769	32638	32647	32695	32916	32727	32788	32602	
662	0	32729	32631	32663	32633	32831	32679	32839	32615	
663	0	32748	32621	32697	32863	32809	32775	32775	32629	
664	0	32732	32628	32671	32815	32692	32803	32548	32747	
665	0	32757	32757	32699	32613	32695	32769	32498	32751	
666	0	32742	32765	32708	32683	32775	32775	32745	32503	
667	0	32778	32787	32791	32563	32767	32833	32815	32623	
668	0	32765	32775	32775	32775	32818	32790	32583	32485	
669	0	32786	32747	32739	32647	33026	32859	32206	32743	
670	0	32817	32735	32787	32621	32851	32791	31951	32875	
671	0	32827	32834	32757	32621	32903	32829	32103	32761	
672	0	32804	32839	32746	32661	32891	32866	32197	32647	
673	0	32748	32836	32743	32623	32871	32957	31943	32687	
674	0	32796	32797	32691	32551	32854	32935	31906	32565	
675	0	32774	32739	32788	32637	32927	32868	32391	32685	
676	0	32731	32758	32735	32519	32745	32847	33099	32662	
677	0	32732	32719	32738	32735	32579	32647	33951	32707	
678	0	32762	32666	32711	32853	32647	32626	33595	32658	
679	0	32728	32642	32761	32647	32519	32628	32871	32893	
680	0	32785	32733	32582	32751	32507	32748	32549	32773	
681	0	32739	32711	32699	32681	32599	32645	32442	32731	
682	0	32758	32663	32747	32647	32851	32711	33083	32692	
683	0	32727	32687	32647	32708	32759	32743	33687	32511	
684	0	32769	32775	32711	32732	32743	32715	34134	32511	
685	0	32758	32722	32903	32583	32679	32786	33895	32606	
686	0	32829	32687	32791	32807	32719	32739	33719	32623	
687	0	32853	32627	32753	32782	32591	32742	33462	32535	
688	0	32828	32739	32765	32715	32551	32757	32819	32477	
689	0	32862	32695	32813	32807	32783	32719	32303	32767	
690	0	32730	32596	32623	32685	32837	32747	32468	32701	
691	0	32675	32615	32659	32839	32833	32715	32631	32711	
692	0	32707	32694	32765	32677	32791	32595	32455	32687	
693	0	32647	32663	32740	32511	32854	32604	32438	32795	
694	0	32663	32525	32810	32715	32961	32583	32217	32727	
695	0	32661	32647	32795	32658	32851	32719	31943	32805	
696	0	32726	32751	32603	32635	32815	32852	32063	32999	
697	0	32669	32807	32663	32687	32763	32757	32647	32951	
698	0	32662	32583	32597	32694	32712	32871	32862	32836	
699	0	32632	32775	32463	32606	32598	32855	32429	32818	
700	0	32642	32749	32487	32639	32773	32916	32007	32807	
701	0	32646	32647	32513	32511	32747	32868	32143	32892	
702	0	32623	32766	32380	32503	32625	32815	32839	32847	
703	0	32695	32903	32443	32457	32615	32903	33055	32706	
704	0	32703	32826	32399	32421	32642	32931	32735	32535	
705	0	32726	32813	32343	32445	32707	32950	32335	32749	
706	0	32715	32903	32455	32332	32725	32938	32297	32703	
707	0	32689	32899	32491	32415	32758	32923	32566	32573	
708	0	32699	32933	32431	32351	32719	32935	32945	32173	
709	0	32699	32819	32551	32307	32527	32935	33343	32045	
710	0	32703	33055	32538	32279	32566	32991	33639	32373	
711	0	32786	33083	32359	32074	32677	33027	33383	32566	
712	0	32802	33071	32498	32127	32730	33031	32895	32375	
713	0	32838	33013	32466	32223	32765	33047	32335	32241	
714	0	32703	32941	32457	32077	32729	33015	31713	32557	
715	0	32690	32980	32502	32287	32669	32995	31646	32715	
716	0	32678	32947	32511	32363	32639	33002	32213	32871	
717	0	32807	32822	32503	32575	32613	32951	33283	33139	
718	0	32806	32844	32445	32525	32551	32943	33403	33287	
719	0	32841	32857	32599	32455	32511	32882	33244	32877	
720	0	32856	32839	32647	32741	32563	32801	33479	32313	
721	0	32849	32659	32762	32893	32903	32723	33295	32023	
722	0	32834	32673	32914	33158	32979	32643	33889	31983	
723	0	32872	32634	32925	33170	32940	32647	34218	32250	
724	0	32871	32455	33054	33019	33062	32508	33911	32243	
725	0	32903	32507	33199	33127	33005	32467	33124	32483	
726	0	32879	32455	33213	33145	33138	32369	32711	32431	
727	0	33003	32501	33285	33295	33220	32509	32559	32527	
728	0	33088	32503	33363	33263	33095	32503	32359	32591	
729	0	33133	32594	33473	33193	33083	32615	32374	32535	
730	0	33159	32591	33461	33308	33063	32627	32405	32409	
731	0	33174	32579	33447	33194	33099	32631	32503	32231	
732	0	33152	32550	33477	33015	33117	32541	33063	32503	
733	0	33111	32598	33359	33187	33219	32467	33321	32391	
734	0	33010	32561	33351	33185	33159	32447	33299	32517	
735	0	33007	32459	33319	33125	33201	32428	33095	32581	
736	0	32916	32401	33181	33127	33147	32504	32735	32831	
737	0	32796	32489	33147	32915	32985	32549	32495	32745	
738	0	32691	32495	32999	32951	32871	32527	32515	32837	
739	0	32647	32492	32823	32775	32897	32535	32375	32663	
740	0	32578	32607	32827	32611	32771	32639	32317	32677	
741	0	32541	32585	32747	32707	32695	32587	32210	32853	
742	0	32481	32588	32767	32612	32711	32577	32197	32837	
743	0	32570	32495	32667	32500	32767	32795	32302	32865	
744	0	32575	32680	32677	32547	32711	32818	32407	32687	
745	0	32570	32756	32487	32527	32751	32843	32375	32871	
746	0	32526	32644	32335	32566	32743	32841	32374	32748	
747	0	32549	32859	32402	32611	32695	32786	32511	32797	
748	0	32590	32812	32391	32540	32668	32783	32495	32655	
749	0	32564	32902	32335	32334	32571	32788	32623	32495	
750	0	32609	32775	32233	32476	32501	32799	32775	32811	
751	0	32579	32783	32298	32476	32507	32855	32871	32791	
752	0	32553	32839	32333	32399	32527	32947	32804	32783	
753	0	32525	32887	32289	32487	32559	33074	32794	32806	
754	0	32617	32811	32387	32531	32509	32991	32751	32668	
755	0	32660	32708	32382	32321	32583	32923	32723	32775	
756	0	32687	32871	32634	32519	32583	32821	32557	32689	
757	0	32717	32818	32599	32603	32681	32775	32607	32699	
758	0	32757	32835	32655	32381	32711	32903	32566	32685	
759	0	32773	32822	32675	32613	32535	32879	32516	32593	
760	0	32743	32759	32594	32573	32524	32825	32583	32534	
761	0	32798	32751	32669	32591	32516	32803	32687	32567	
762	0	32811	32775	32567	32506	32605	32767	32822	32791	
763	0	32820	32775	32775	32695	32559	32841	32711	32703	
764	0	32849	32655	32803	32620	32773	32876	32795	32739	
765	0	32852	32811	32611	32735	32822	32839	32863	32643	
766	0	32883	32867	32742	32710	32695	32892	32901	32815	
767	0	32864	32822	32751	32555	32706	32839	32703	32675	
768	0	32863	32701	32715	32702	32811	32815	32727	32695	
769	0	32873	32755	32842	32626	32802	32733	32892	32769	
770	0	32869	32858	32775	32803	32767	32671	32843	32674	
771	0	32786	32669	32702	32671	32721	32707	32845	32742	
772	0	32779	32742	32775	32455	32715	32789	32831	32599	
773	0	32724	32693	32610	32603	32665	32727	32871	32749	
774	0	32758	32762	32702	32693	32715	32711	32799	32698	
775	0	32738	32642	32815	32551	32879	32775	32679	32625	
776	0	32775	32630	32863	32591	32855	32751	32795	32503	
777	0	32812	32758	32669	32375	32850	32819	32775	32724	
778	0	32740	32638	32766	32573	32839	32892	32855	32551	
779	0	32703	32751	32796	32623	32731	32839	32847	32612	
780	0	32704	32775	32647	32485	32591	32803	32859	32628	
781	0	32755	32607	32743	32607	32708	32822	32668	32695	
782	0	32765	32738	32735	32519	32699	32825	32679	32745	
783	0	32740	32843	32643	32763	32751	32867	32727	32659	
784	0	32744	32717	32627	32739	32596	32838	32683	32764	
785	0	32796	32757	32772	32743	32612	32803	32615	32589	
786	0	32811	32671	32679	32759	32647	32809	32647	32721	
787	0	32782	32687	32647	32995	32775	32825	32775	32709	
788	0	32782	32677	32719	32775	32822	32863	32724	32671	
789	0	32786	32684	32647	32790	32805	32775	32737	32595	
790	0	32743	32729	32590	32807	32745	32679	32660	32796	
791	0	32723	32823	32767	32701	32789	32710	32566	32767	
792	0	32765	32791	32671	32775	32655	32719	32567	32570	
793	0	32775	32679	32631	32767	32647	32690	32852	32378	
794	0	32772	32727	32759	32692	32759	32694	32862	32663	
795	0	32817	32802	32775	32703	32876	32727	32839	32668	
796	0	32823	32583	32742	32559	32825	32730	32949	32583	
797	0	32775	32758	32745	32703	32695	32755	32855	32765	
798	0	32692	32749	32613	32494	32740	32642	32687	32706	
799	0	32773	32748	32695	32698	32771	32671	32631	32647	
800	0	32756	32759	32765	32615	32725	32716	32799	32607	
801	0	32708	32839	32671	32681	32717	32759	32810	32743	
802	0	32721	32711	32668	32671	32791	32785	32876	32727	
803	0	32751	32733	32743	32710	32788	32751	32867	32541	
804	0	32711	32662	32797	32711	32719	32715	32613	32703	
805	0	32709	32814	32707	32738	32867	32710	32766	32722	
806	0	32717	32839	32637	32583	32863	32682	32722	32717	
807	0	32722	32639	32844	32586	32869	32721	32741	32568	
808	0	32759	32609	32775	32611	32887	32823	32687	32773	
809	0	32781	32708	32762	32807	32711	32871	32657	32735	
810	0	32783	32741	32709	32559	32694	32852	32771	32577	
811	0	32806	32621	32771	32455	32845	32863	32647	32636	
812	0	32702	32657	32647	32412	32819	32867	32733	32620	
813	0	32686	32743	32759	32581	32613	32823	32724	32687	
814	0	32719	32671	32717	32526	32621	32834	32755	32751	
815	0	32782	32829	32643	32509	32639	32863	32826	32679	
816	0	32734	32823	32615	32933	32873	32886	32789	32583	
817	0	32778	32685	32455	32773	32733	32789	32647	32707	
818	0	32767	32773	32647	32759	32935	32749	32831	32646	
819	0	32784	32611	32763	32675	32923	32751	32799	32573	
820	0	32757	32629	32642	32689	32855	32713	32903	32683	
821	0	32757	32767	32789	32681	32863	32795	32871	32402	
822	0	32775	32772	32739	32860	32743	32775	32981	32572	
823	0	32766	32711	32678	32827	32646	32738	32926	32807	
824	0	32775	32738	32595	32611	32593	32823	32835	32615	
825	0	32807	32793	32788	32823	32559	32703	32723	32599	
826	0	32803	32807	32679	32773	32615	32798	32676	32807	
827	0	32822	32727	32531	32605	32530	32717	32833	32865	
828	0	32756	32717	32615	32735	32577	32678	32799	32661	
829	0	32732	32775	32731	32635	32547	32627	32801	32660	
830	0	32804	32723	32783	32579	32655	32701	32735	32639	
831	0	32766	32811	32751	32815	32655	32765	32741	32671	
832	0	32708	32637	32765	32708	32679	32738	32833	32607	
833	0	32783	32784	32786	32583	32815	32765	32827	32711	
834	0	32797	32775	32735	32751	32804	32822	32775	32571	
835	0	32836	32699	32671	32753	32812	32731	32635	32903	
836	0	32775	32676	32743	32615	32853	32711	32599	32775	
837	0	32802	32759	32669	32708	32742	32711	32755	32722	
838	0	32699	32774	32621	32522	32685	32745	32807	32757	
839	0	32708	32647	32711	32583	32827	32767	32793	32667	
840	0	32750	32711	32662	32493	32717	32795	32765	32535	
841	0	32749	32657	32735	32693	32749	32786	32663	32631	
842	0	32705	32769	32669	32484	32854	32847	32791	32551	
843	0	32708	32787	32710	32687	32851	32799	32801	32735	
844	0	32700	32647	32767	32679	32804	32767	32773	32702	
845	0	32813	32647	32667	32471	32826	32807	32831	32727	
846	0	32865	32659	32762	32583	32747	32795	32716	32671	
847	0	32751	32645	32775	32508	32725	32757	32577	32775	
848	0	32844	32566	32775	32642	32837	32767	32647	32683	
849	0	32826	32775	32867	32559	32715	32791	32853	32594	
850	0	32766	32681	32861	32735	32617	32811	32861	32429	
851	0	32736	32847	32772	32710	32623	32791	32771	32477	
852	0	32701	32760	32773	32588	32867	32750	32687	32751	
853	0	32722	32775	32725	32699	32903	32703	32660	32679	
854	0	32669	32682	32628	32775	32807	32820	32594	32626	
855	0	32700	32813	32671	32764	32903	32791	32623	32671	
856	0	32724	32735	32593	32751	32759	32821	32837	32559	
857	0	32760	32663	32588	32847	32807	32909	32874	32615	
858	0	32790	32711	32679	32751	32807	32803	32943	32609	
859	0	32807	32722	32638	32751	32881	32807	32932	32821	
860	0	32724	32757	32699	32607	32908	32759	32788	32591	
861	0	32730	32581	32677	32647	32795	32791	32833	32647	
862	0	32727	32839	32763	32493	32797	32838	32685	32591	
863	0	32733	32797	32743	32408	32787	32871	32660	32592	
864	0	32775	32805	32895	32583	32745	32739	32626	32623	
865	0	32767	32791	32749	32615	32822	32726	32630	32711	
866	0	32736	32819	32731	32487	32775	32724	32669	32615	
867	0	32742	32815	32726	32667	32647	32766	32853	32855	
868	0	32745	32717	32743	32607	32637	32695	32903	32711	
869	0	32736	32771	32847	32805	32775	32733	32747	32647	
870	0	32733	32765	32863	32708	32742	32671	32903	32595	
871	0	32745	32815	32790	32471	32775	32711	32972	32788	
872	0	32764	32639	32911	32685	32683	32727	32977	32695	
873	0	32818	32759	32703	32762	32819	32751	32705	32662	
874	0	32809	32787	32590	32788	32827	32687	32463	32573	
875	0	32754	32635	32607	32851	32697	32699	32567	32751	
876	0	32677	32699	32516	32615	32699	32775	32813	32717	
877	0	32721	32743	32396	32795	32767	32791	32870	32719	
878	0	32750	32647	32496	32755	32903	32743	32930	32598	
879	0	32731	32711	32518	32795	32829	32734	32831	32615	
880	0	32745	32727	32499	32749	32749	32751	32747	32615	
881	0	32809	32669	32519	32527	32543	32759	32719	32635	
882	0	32751	32749	32549	32575	32627	32783	32647	32542	
883	0	32844	32767	32775	32519	32741	32772	32611	32733	
884	0	32775	32646	32787	32615	32869	32731	32677	32674	
885	0	32797	32719	32703	32615	32870	32679	32647	32566	
886	0	32760	32687	32675	32587	32671	32585	32749	32523	
887	0	32692	32610	32695	32700	32719	32623	33196	32598	
888	0	32757	32711	32859	32595	32811	32647	33185	32543	
889	0	32786	32751	32903	32730	32715	32679	33055	32733	
890	0	32755	32800	32775	32774	32795	32743	32912	32697	
891	0	32732	32791	32799	32839	32655	32820	32812	32844	
892	0	32778	32819	32790	32714	32663	32787	32615	32503	
893	0	32769	32721	32527	32511	32753	32755	32564	32570	
894	0	32807	32759	32636	32602	32831	32765	32436	32803	
895	0	32781	32723	32703	32663	32875	32783	32279	32738	
896	0	32763	32733	32785	32605	32884	32756	32336	32745	
897	0	32786	32655	32679	32823	32773	32806	32391	32598	
898	0	32806	32692	32791	32847	32765	32815	32711	32669	
899	0	32780	32703	32791	32623	32775	32796	32722	32829	
900	0	32775	32724	32866	32719	32791	32775	32599	32783	
901	0	32768	32643	32775	32790	32823	32754	32775	32727	
902	0	32780	32675	32735	32599	32839	32701	32855	32647	
903	0	32764	32725	32775	32697	32765	32681	33025	32639	
904	0	32796	32751	32791	32797	32839	32740	33079	32639	
905	0	32792	32645	32775	32749	32629	32623	33115	32630	
906	0	32738	32751	32683	32663	32647	32711	33036	32579	
907	0	32779	32740	32669	32631	32738	32739	32855	32519	
908	0	32742	32743	32751	32575	32621	32857	32647	32719	
909	0	32701	32731	32647	32613	32775	32847	32791	32723	
910	0	32751	32791	32539	32511	32847	32823	32834	32759	
911	0	32785	32774	32783	32638	32836	32807	32765	32586	
912	0	32739	32735	32679	32593	32727	32823	32669	32726	
913	0	32749	32741	32631	32655	32815	32751	32911	32647	
914	0	32724	32685	32790	32607	32817	32775	32943	32442	
915	0	32703	32773	32805	32617	32718	32733	32967	32635	
916	0	32756	32759	32709	32628	32661	32719	32775	32626	
917	0	32782	32685	32767	32537	32775	32763	32447	32570	
918	0	32829	32767	32683	32701	32647	32695	32643	32751	
919	0	32799	32703	32745	32547	32763	32743	32647	32743	
920	0	32793	32659	32657	32715	32775	32767	32791	32575	
921	0	32720	32749	32689	32515	32835	32695	32871	32571	
922	0	32800	32739	32633	32663	32669	32711	32791	32767	
923	0	32767	32647	32639	32643	32647	32669	32769	32767	
924	0	32764	32694	32715	32695	32815	32709	32707	32918	
925	0	32796	32743	32725	32566	32759	32803	32647	32775	
926	0	32748	32615	32612	32635	32626	32795	32707	32679	
927	0	32772	32716	32643	32577	32699	32843	32598	32573	
928	0	32751	32673	32609	32687	32793	32887	32615	32478	
929	0	32658	32783	32759	32749	32727	32806	32710	32599	
930	0	32722	32775	32735	32821	32711	32823	32833	32574	
931	0	32749	32647	32709	32841	32699	32771	32707	32702	
932	0	32765	32699	32842	32741	32663	32887	32775	32463	
933	0	32765	32775	32713	32796	32687	32863	32997	32764	
934	0	32799	32753	32743	32687	32868	32791	32903	32647	
935	0	32767	32791	32763	32803	32847	32851	32669	32551	
936	0	32783	32711	32892	32867	32751	32770	32617	32627	
937	0	32775	32747	32839	32753	32826	32775	32629	32629	
938	0	32774	32607	32759	32793	32773	32775	32791	32694	
939	0	32743	32743	32679	32615	32787	32815	32839	32519	
940	0	32736	32775	32705	32735	32839	32809	32811	32775	
941	0	32748	32685	32666	32655	32749	32783	32810	32804	
942	0	32774	32758	32639	32645	32829	32860	32812	32660	
943	0	32781	32825	32530	32591	32853	32742	32741	32737	
944	0	32707	32749	32473	32423	32821	32703	32527	32607	
945	0	32769	32783	32567	32625	32719	32695	32633	32666	
946	0	32786	32767	32554	32479	32615	32739	32851	32943	
947	0	32809	32732	32626	32578	32658	32822	32815	32709	
948	0	32810	32775	32706	32679	32619	32885	32859	32606	
949	0	32775	32739	32623	32463	32703	32847	32839	32343	
950	0	32807	32642	32559	32621	32775	32705	32748	32643	
951	0	32793	32674	32703	32638	32775	32735	32730	32681	
952	0	32769	32807	32807	32625	32803	32796	32571	32677	
953	0	32796	32765	32731	32643	32756	32703	32351	32539	
954	0	32773	32742	32781	32527	32836	32671	32361	32619	
955	0	32781	32737	32897	32764	32835	32691	32361	32695	
956	0	32791	32695	32804	32767	32845	32806	32574	32660	
957	0	32751	32767	32773	32501	32815	32837	32663	32615	
958	0	32735	32647	32769	32631	32851	32869	32601	32607	
959	0	32720	32753	32743	32722	32783	32799	32391	32809	
960	0	32742	32797	32621	32723	32717	32686	32326	32815	
961	0	32742	32797	32775	32751	32727	32687	32515	32690	
962	0	32775	32695	32890	32863	32586	32767	32324	32715	
963	0	32763	32677	32715	32742	32583	32615	32579	32575	
964	0	32695	32715	32775	32758	32719	32634	33762	32399	
965	0	32771	32735	32852	32630	32711	32622	34151	32551	
966	0	32850	32735	32791	32751	32797	32693	33127	32635	
967	0	32823	32829	32839	32735	32803	32775	32745	32783	
968	0	32810	32871	32751	32528	32813	32713	32958	32647	
969	0	32762	32775	32759	32663	32786	32756	32927	32683	
970	0	32770	32817	32725	32531	32943	32771	32838	32658	
971	0	32756	32791	32733	32705	32807	32743	32708	32431	
972	0	32785	32647	32647	32622	32715	32772	32631	32594	
973	0	32756	32748	32747	32478	32738	32757	32591	32699	
974	0	32767	32679	32773	32775	32671	32692	32589	32827	
975	0	32733	32597	32591	32751	32679	32733	32583	32631	
976	0	32698	32671	32571	32516	32711	32645	32595	32691	
977	0	32698	32692	32554	32591	32885	32684	32714	32551	
978	0	32708	32587	32527	32423	32879	32716	32588	32647	
979	0	32663	32719	32669	32621	32751	32647	32623	32677	
980	0	32799	32677	32661	32554	32780	32643	32703	32495	
981	0	32808	32615	32743	32713	32578	32807	32579	32567	
982	0	32745	32750	32718	32517	32839	32870	32695	32571	
983	0	32814	32577	32831	32795	32855	32823	32565	32863	
984	0	32775	32751	32827	32842	32775	32815	32459	32807	
985	0	32713	32819	32583	32647	32749	32823	32492	32783	
986	0	32773	32701	32749	32631	32852	32796	32767	32883	
987	0	32767	32727	32647	32527	32679	32839	32937	32749	
988	0	32775	32806	32681	32754	32727	32703	32971	32722	
989	0	32775	32764	32749	32839	32819	32631	32751	32685	
990	0	32701	32783	32727	32735	32775	32698	32500	32690	
991	0	32761	32784	32762	32717	32824	32735	32787	32691	
992	0	32767	32711	32839	32575	32775	32631	33148	32533	
993	0	32793	32807	32669	32727	32809	32674	33335	32711	
994	0	32816	32763	32687	32647	32645	32751	33172	32647	
995	0	32796	32641	32691	32727	32601	32791	32823	32662	
996	0	32743	32750	32756	32742	32637	32850	32566	32531	
997	0	32701	32807	32767	32589	32815	32919	32582	32615	
998	0	32732	32687	32687	32723	32819	32852	32658	32567	
999	0	32765	32703	32775	32669	32731	32884	32703	32605	
1000	0	32769	32711	32692	32721	32839	32807	32766	32775	
1001	0	32789	32645	32655	32730	32805	32875	32655	32701	
1002	0	32762	32699	32695	32669	32660	32775	32543	32559	
1003	0	32799	32607	32692	32647	32793	32714	32645	32711	
1004	0	32839	32711	32723	32570	32749	32821	32717	32671	
1005	0	32815	32726	32695	32751	32687	32775	32855	32663	
1006	0	32798	32637	32895	32567	32820	32767	32743	32822	
1007	0	32804	32759	32757	32681	32823	32708	32644	32679	
1008	0	32742	32759	32855	32495	32667	32727	32731	32700	
1009	0	32711	32727	32823	32638	32829	32789	32727	32535	
1010	0	32727	32751	32731	32647	32797	32775	32807	32773	
1011	0	32720	32775	32887	32623	32759	32689	32717	32690	
1012	0	32772	32647	32813	32619	32663	32703	32667	32635	
1013	0	32719	32740	32799	32487	32676	32775	32619	32759	
1014	0	32733	32765	32850	32670	32903	32804	32857	32609	
1015	0	32775	32711	32764	32527	32655	32771	32999	32611	
1016	0	32848	32749	32745	32659	32709	32807	32855	32804	
1017	0	32809	32666	32731	32405	32839	32831	32607	32749	
1018	0	32801	32859	32767	32735	32789	32775	32823	32709	
1019	0	32737	32879	32635	32503	32863	32827	32818	32679	
1020	0	32780	32707	32495	32595	32831	32771	32856	32463	
1021	0	32749	32759	32477	32578	32783	32717	32967	32637	
1022	0	32775	32749	32655	32525	32822	32785	32935	32445	
1023	0	32731	32647	32525	32627	32611	32747	32771	32506	
1024	0	32771	32758	32684	32613	32850	32679	32607	32663	
1025	0	32711	32662	32578	32629	32830	32791	32773	32671	
1026	0	32684	32743	32627	32647	32836	32793	32859	32839	
1027	0	32717	32794	32663	32822	32839	32749	32835	32787	
1028	0	32705	32647	32711	32784	32855	32765	32743	32690	
1029	0	32729	32690	32791	32973	32787	32743	32655	32787	
1030	0	32780	32662	32815	32933	32663	32802	32621	32539	
1031	0	32735	32671	32647	32623	32727	32822	32767	32887	
1032	0	32703	32722	32666	32775	32733	32801	32861	32695	
1033	0	32757	32769	32735	32689	32859	32871	32887	32731	
1034	0	32769	32655	32711	32871	32933	32807	32805	32706	
1035	0	32783	32629	32829	32933	32902	32699	32615	32830	
1036	0	32740	32675	32763	32705	32847	32671	32527	32687	
1037	0	32754	32741	32671	32742	32756	32739	32559	32629	
1038	0	32743	32767	32683	32755	32677	32796	32557	32647	
1039	0	32742	32675	32775	32483	32807	32839	32569	32563	
1040	0	32766	32726	32821	32623	32703	32807	32588	32485	
1041	0	32700	32689	32747	32583	32643	32814	32519	32607	
1042	0	32711	32773	32737	32559	32669	32735	32639	32692	
1043	0	32727	32759	32587	32429	32668	32749	32671	32679	
1044	0	32725	32706	32791	32599	32647	32729	32676	32631	
1045	0	32701	32694	32745	32636	32631	32807	32803	32579	
1046	0	32686	32771	32711	32559	32775	32831	32875	32621	
1047	0	32713	32658	32685	32561	32748	32762	32852	32681	
1048	0	32726	32692	32810	32674	32727	32747	32797	32807	
1049	0	32759	32729	32815	32617	32743	32690	32949	32556	
1050	0	32854	32748	32767	32623	32731	32662	32889	32589	
1051	0	32863	32783	32679	32543	32727	32690	32891	32749	
1052	0	32855	32775	32643	32567	32837	32741	32887	32673	
1053	0	32816	32839	32585	32446	32815	32822	32647	32579	
1054	0	32806	32733	32465	32551	32717	32918	32671	32663	
1055	0	32811	32762	32647	32775	32775	32871	32355	32524	
1056	0	32748	32773	32723	32705	32837	32839	32399	32685	
1057	0	32775	32647	32647	32428	32822	32765	32484	32687	
1058	0	32710	32679	32511	32775	32801	32839	32460	32807	
1059	0	32705	32709	32611	32807	32807	32746	32519	32676	
1060	0	32775	32799	32735	32673	32741	32791	32715	32801	
1061	0	32796	32667	32809	32747	32727	32623	32799	32743	
1062	0	32767	32757	32869	32582	32759	32802	32742	32647	
1063	0	32805	32640	32699	32690	32734	32775	32845	32647	
1064	0	32801	32715	32785	32679	32727	32761	32727	32497	
1065	0	32806	32717	32725	32615	32750	32677	32683	32775	
1066	0	32742	32837	32755	32794	32825	32679	32951	32687	
1067	0	32716	32775	32639	32743	32797	32771	33215	32480	
1068	0	32767	32647	32725	32918	32775	32783	33031	32635	
1069	0	32736	32757	32755	32879	32919	32759	33026	32831	
1070	0	32745	32663	32701	32593	32811	32775	32999	32997	
1071	0	32709	32623	32801	32692	32829	32823	32871	32663	
1072	0	32750	32753	32799	32522	32877	32962	32717	32591	
1073	0	32812	32822	32709	32695	32759	32875	32759	32620	
1074	0	32810	32678	32814	32621	32767	32895	32847	32604	
1075	0	32742	32735	32919	32551	32665	32915	32786	32766	
1076	0	32763	32749	32797	32647	32887	32871	32786	32711	
1077	0	32796	32719	32748	32551	32814	32851	32927	32603	
1078	0	32791	32789	32615	32647	32787	32919	32671	32509	
1079	0	32775	32762	32770	32703	32677	32871	32527	32671	
1080	0	32711	32647	32607	32478	32655	32793	32460	32661	
1081	0	32717	32807	32591	32631	32808	32677	32501	32775	
1082	0	32783	32823	32647	32426	32799	32669	32595	32585	
1083	0	32715	32717	32610	32581	32655	32661	32894	32705	
1084	0	32769	32823	32667	32627	32677	32758	32975	32494	
1085	0	32739	32839	32751	32629	32741	32715	32764	32645	
1086	0	32786	32663	32809	32740	32745	32690	32762	32619	
1087	0	32775	32695	32701	32767	32804	32717	32591	32541	
1088	0	32704	32803	32809	32797	32863	32663	32775	32621	
1089	0	32735	32769	32766	32731	32711	32621	32711	32796	
1090	0	32673	32804	32599	32741	32809	32565	32789	32581	
1091	0	32742	32786	32715	32647	32738	32751	32817	32647	
1092	0	32704	32621	32757	32531	32823	32847	32658	32659	
1093	0	32734	32627	32722	32735	32899	32799	32671	32701	
1094	0	32814	32727	32783	32751	32775	32755	32483	32735	
1095	0	32807	32743	32775	32615	32645	32743	32495	32500	
1096	0	32704	32646	32647	32687	32659	32767	32671	32607	
1097	0	32790	32717	32679	32481	32867	32775	32773	32605	
1098	0	32799	32711	32679	32737	32849	32775	32832	32615	
1099	0	32822	32539	32561	32769	32775	32813	32855	32635	
1100	0	32778	32745	32608	32519	32797	32745	32911	32749	
1101	0	32765	32739	32636	32619	32763	32812	32827	32717	
1102	0	32742	32703	32645	32647	32775	32719	32797	32765	
1103	0	32729	32591	32617	32526	32730	32707	32613	32713	
1104	0	32771	32626	32739	32631	32759	32877	32574	32565	
1105	0	32799	32733	32779	32588	32749	32874	32683	32663	
1106	0	32735	32765	32604	32579	32759	32803	32643	32674	
1107	0	32766	32607	32636	32794	32757	32830	32807	32647	
1108	0	32700	32646	32647	32694	32748	32903	32786	32647	
1109	0	32725	32759	32775	32615	32804	32769	32815	32489	
1110	0	32789	32847	32723	32694	32715	32766	32835	32534	
1111	0	32775	32739	32811	32759	32917	32759	32759	32747	
1112	0	32763	32804	32787	32751	32959	32732	32769	32775	
1113	0	32754	32823	32711	32813	32795	32711	32607	32775	
1114	0	32807	32647	32765	32599	32741	32699	32615	32473	
1115	0	32704	32635	32775	32741	32759	32839	32607	32444	
1116	0	32748	32775	32855	32751	32775	32868	32575	32575	
1117	0	32713	32735	32727	32562	32655	32827	32879	32436	
1118	0	32791	32679	32775	32639	32643	32798	32823	32663	
1119	0	32734	32715	32783	32643	32687	32703	32767	32505	
1120	0	32791	32647	32681	32607	32698	32765	32751	32677	
1121	0	32767	32717	32735	32534	32679	32785	32804	32717	
1122	0	32747	32615	32694	32543	32823	32731	32834	32765	
1123	0	32749	32790	32613	32695	32863	32795	32617	32769	
1124	0	32759	32833	32709	32676	32829	32769	32519	32783	
1125	0	32782	32791	32617	32571	32849	32773	32644	32782	
1126	0	32732	32743	32583	32751	32831	32748	33129	32612	
1127	0	32781	32833	32759	32807	32855	32759	33350	32500	
1128	0	32782	32739	32775	32749	32759	32877	33285	32695	
1129	0	32740	32599	32658	32802	32738	32812	32927	32663	
1130	0	32769	32790	32743	32709	32775	32801	32547	32735	
1131	0	32801	32795	32663	32765	32638	32861	32221	32615	
1132	0	32740	32686	32681	32543	32614	32741	32277	32725	
1133	0	32781	32775	32784	32695	32815	32757	32471	32647	
1134	0	32797	32750	32821	32555	32855	32757	32642	32717	
1135	0	32782	32833	32854	32737	32726	32833	32427	32607	
1136	0	32783	32850	32719	32596	32903	32875	32823	32701	
1137	0	32839	32687	32867	32613	32897	32845	32839	32583	
1138	0	32791	32746	32827	32685	32927	32763	32930	32764	
1139	0	32790	32767	32738	32511	32837	32695	32955	32623	
1140	0	32742	32647	32703	32687	32762	32743	32847	32599	
1141	0	32841	32695	32763	32605	32647	32749	32771	32421	
1142	0	32770	32703	32727	32593	32702	32725	32575	32630	
1143	0	32713	32667	32803	32679	32771	32820	32751	32749	
1144	0	32743	32617	32794	32605	32735	32876	32775	32539	
1145	0	32668	32711	32741	32690	32583	32853	32887	32694	
1146	0	32713	32706	32643	32755	32583	32835	32767	32597	
1147	0	32730	32644	32591	32519	32756	32783	32759	32679	
1148	0	32760	32769	32727	32739	32851	32791	32743	32565	
1149	0	32772	32799	32713	32709	32815	32746	32879	32668	
1150	0	32743	32750	32621	32495	32667	32759	32707	32663	
1151	0	32737	32869	32745	32666	32759	32843	32722	32751	
1152	0	32722	32848	32587	32606	32799	32863	32775	32671	
1153	0	32733	32747	32647	32697	32759	32841	32588	32591	
1154	0	32794	32786	32591	32679	32698	32796	32743	32564	
1155	0	32845	32818	32585	32507	32894	32775	32709	32751	
1156	0	32852	32687	32655	32609	32918	32676	32865	32799	
1157	0	32844	32789	32691	32707	32909	32658	32838	32707	
1158	0	32813	32727	32787	32673	32775	32711	32763	32711	
1159	0	32757	32695	32754	32811	32637	32806	32723	32635	
1160	0	32778	32571	32707	32759	32655	32784	32781	32635	
1161	0	32705	32787	32789	32525	32710	32695	32857	32747	
1162	0	32733	32669	32679	32601	32799	32751	32801	32615	
1163	0	32764	32647	32647	32677	32793	32789	32743	32383	
1164	0	32767	32717	32757	32731	32726	32771	32732	32411	
1165	0	32722	32609	32711	32493	32853	32831	32775	32669	
1166	0	32767	32764	32727	32701	32863	32775	32858	32605	
1167	0	32775	32743	32685	32713	32861	32793	32852	32563	
1168	0	32742	32823	32775	32509	32637	32877	32738	32591	
1169	0	32761	32691	32695	32691	32695	32798	32699	32613	
1170	0	32723	32807	32681	32642	32655	32775	32655	32663	
1171	0	32726	32763	32725	32475	32646	32623	32853	32620	
1172	0	32758	32647	32764	32771	32715	32671	32783	32679	
1173	0	32768	32775	32734	32578	32759	32647	32775	32966	
1174	0	32757	32767	32839	32615	32822	32803	32759	32939	
1175	0	32747	32719	32806	32710	32785	32791	32863	32679	
1176	0	32676	32690	32711	32492	32747	32863	32669	32759	
1177	0	32719	32803	32775	32658	32855	32814	32611	32733	
1178	0	32804	32663	32667	32731	32843	32795	32720	32775	
1179	0	32743	32803	32799	32795	32823	32823	32786	32829	
1180	0	32735	32767	32743	32751	32757	32754	32815	32714	
1181	0	32694	32634	32612	32511	32681	32855	32935	32623	
1182	0	32696	32767	32705	32659	32789	32839	32850	32493	
1183	0	32773	32823	32647	32550	32839	32735	32740	32538	
1184	0	32765	32681	32639	32607	32875	32674	32577	32679	
1185	0	32799	32677	32745	32643	32799	32723	32759	32469	
1186	0	32775	32788	32658	32557	32850	32703	32807	32687	
1187	0	32793	32679	32709	32749	32871	32791	32847	32763	
1188	0	32774	32841	32683	32731	32855	32775	32939	32669	
1189	0	32805	32771	32616	32763	32775	32743	32751	32683	
1190	0	32783	32660	32647	32771	32638	32815	32663	32591	
1191	0	32769	32663	32679	32687	32801	32775	32723	32839	
1192	0	32818	32627	32695	32771	32823	32791	32729	32759	
1193	0	32749	32669	32701	32563	32715	32839	32802	32593	
1194	0	32740	32799	32674	32743	32735	32943	32933	32714	
1195	0	32737	32663	32823	32655	32732	32879	32739	32533	
1196	0	32701	32775	32799	32756	32761	32743	32941	32471	
1197	0	32690	32812	32830	32751	32607	32743	32895	32638	
1198	0	32797	32692	32829	32662	32671	32687	32831	32619	
1199	0	32812	32707	32709	32639	32661	32775	32607	32642	
1200	0	32860	32703	32647	32727	32759	32775	32514	32935	
1201	0	32811	32637	32631	32586	32804	32847	32423	32823	
1202	0	32805	32763	32570	32639	32851	32831	32419	32875	
1203	0	32729	32785	32692	32509	32694	32799	32629	32477	
1204	0	32709	32620	32767	32647	32817	32823	32775	32587	
1205	0	32785	32743	32653	32543	32756	32797	32849	32562	
1206	0	32775	32789	32711	32695	32741	32823	32815	32599	
1207	0	32807	32734	32775	32710	32731	32833	32614	32455	
1208	0	32787	32767	32738	32493	32645	32775	32571	32711	
1209	0	32756	32804	32748	32799	32717	32734	32627	32623	
1210	0	32834	32721	32731	32749	32654	32655	32743	32549	
1211	0	32783	32655	32751	32701	32677	32735	32761	32739	
1212	0	32749	32678	32660	32607	32669	32699	32835	32670	
1213	0	32722	32810	32783	32647	32813	32709	32902	32647	
1214	0	32823	32805	32727	32674	32637	32767	32679	32623	
1215	0	32765	32799	32758	32431	32647	32775	32640	32698	
1216	0	32766	32647	32775	32694	32707	32700	32663	32759	
1217	0	32743	32699	32749	32681	32663	32817	32887	32819	
1218	0	32723	32764	32765	32670	32653	32831	32820	32703	
1219	0	32708	32679	32695	32551	32695	32743	32629	32398	
1220	0	32656	32741	32539	32624	32671	32719	32751	32455	
1221	0	32742	32647	32615	32546	32677	32679	32756	32483	
1222	0	32788	32775	32615	32595	32703	32711	32828	32655	
1223	0	32791	32763	32682	32574	32622	32892	32734	32667	
1224	0	32788	32767	32671	32705	32751	32803	32684	32615	
1225	0	32781	32727	32683	32701	32727	32853	32747	32567	
1226	0	32775	32687	32699	32635	32767	32708	32854	32607	
1227	0	32743	32719	32735	32863	32823	32854	32686	32695	
1228	0	32751	32823	32639	32798	32806	32863	32727	32748	
1229	0	32727	32790	32615	32637	32793	32847	32845	32623	
1230	0	32661	32711	32677	32785	32814	32827	32875	32694	
1231	0	32743	32579	32769	32711	32773	32679	32861	32749	
1232	0	32749	32694	32763	32717	32791	32827	32831	32639	
1233	0	32730	32807	32659	32489	32791	32871	32797	32669	
1234	0	32735	32773	32561	32765	32788	32742	32743	32642	
1235	0	32769	32749	32662	32820	32850	32719	32731	32647	
1236	0	32751	32673	32694	32471	32827	32610	32839	32754	
1237	0	32749	32699	32739	32643	32964	32645	32801	32553	
1238	0	32725	32791	32637	32703	32903	32843	32725	32615	
1239	0	32751	32759	32683	32615	32895	32820	32666	32791	
1240	0	32791	32775	32830	32715	32935	32763	32751	32751	
1241	0	32809	32605	32835	32739	32735	32735	32775	32670	
1242	0	32798	32647	32819	32598	32868	32775	32687	32713	
1243	0	32867	32775	32797	32691	32831	32933	32617	32559	
1244	0	32837	32799	32773	32703	32850	32747	32621	32580	
1245	0	32777	32679	32789	32679	32759	32775	32612	32711	
1246	0	32727	32681	32767	32583	32773	32751	32663	32726	
1247	0	32783	32773	32739	32747	32705	32760	32741	32749	
1248	0	32783	32803	32674	32806	32719	32791	32813	32679	
1249	0	32775	32738	32647	32666	32759	32788	32615	32615	
1250	0	32742	32679	32578	32734	32831	32786	32700	32812	
1251	0	32727	32818	32583	32801	32895	32775	32881	32748	
1252	0	32775	32725	32733	32595	32831	32759	32887	32731	
1253	0	32751	32831	32607	32725	32937	32694	32879	32687	
1254	0	32754	32715	32679	32639	32885	32796	32807	32703	
1255	0	32749	32659	32605	32624	32839	32765	32839	32607	
1256	0	32743	32775	32751	32613	32797	32743	32926	32661	
1257	0	32666	32775	32758	32755	32795	32738	32839	32597	
1258	0	32751	32677	32735	32663	32893	32775	32484	32677	
1259	0	32805	32823	32775	32679	32855	32815	32467	32452	
1260	0	32793	32722	32659	32671	32837	32887	32497	32543	
1261	0	32729	32695	32655	32487	32827	32811	32603	32605	
1262	0	32763	32615	32677	32534	32831	32834	32647	32615	
1263	0	32731	32685	32695	32601	32661	32783	32737	32559	
1264	0	32741	32727	32783	32727	32746	32851	32852	32749	
1265	0	32823	32666	32929	32726	32775	32837	32815	32725	
1266	0	32818	32791	32857	32587	32845	32770	32889	32775	
1267	0	32823	32783	32815	32775	32821	32755	33045	32709	
1268	0	32815	32623	32823	32687	32707	32766	33210	32655	
1269	0	32805	32793	32791	32750	32715	32745	32959	32615	
1270	0	32711	32723	32711	32678	32637	32647	32595	32647	
1271	0	32749	32694	32661	32638	32733	32683	32533	32535	
1272	0	32653	32587	32695	32721	32717	32631	32359	32739	
1273	0	32663	32717	32700	32679	32724	32775	32023	32711	
1274	0	32662	32719	32578	32611	32667	32791	32347	32613	
1275	0	32701	32775	32535	32535	32741	32695	32971	32655	
1276	0	32681	32716	32607	32494	32899	32677	33351	32623	
1277	0	32731	32839	32675	32495	32804	32725	33087	32775	
1278	0	32767	32773	32626	32323	32775	32852	32975	32643	
1279	0	32725	32791	32742	32549	32743	32788	33033	32743	
1280	0	32714	32751	32696	32629	32951	32763	33097	32663	
1281	0	32812	32661	32695	32566	32867	32812	33011	32447	
1282	0	32786	32743	32626	32887	32771	32861	33047	32527	
1283	0	32806	32823	32671	33029	32690	32839	33004	32547	
1284	0	32816	32738	32615	32863	32635	32775	32727	32511	
1285	0	32786	32807	32639	32863	32599	32726	32513	32645	
1286	0	32773	32839	32723	32902	32638	32698	32444	32903	
1287	0	32828	32845	32753	32655	32613	32641	32519	32923	
1288	0	32769	32716	32775	32711	32667	32847	32509	32846	
1289	0	32700	32655	32703	32679	32735	32721	32639	32833	
1290	0	32705	32757	32607	32647	32775	32807	32719	32675	
1291	0	32749	32723	32727	32662	32785	32711	32733	32610	
1292	0	32756	32692	32747	32757	32828	32759	32813	32673	
1293	0	32799	32775	32820	32764	32820	32775	32855	32773	
1294	0	32846	32775	32719	32819	32831	32723	32851	32667	
1295	0	32832	32747	32833	32630	32827	32791	32811	32661	
1296	0	32859	32743	32764	32757	32815	32767	32853	32479	
1297	0	32817	32756	32775	32691	32791	32869	32807	32527	
1298	0	32860	32745	32707	32471	32743	32893	32637	32647	
1299	0	32775	32543	32638	32605	32814	32855	32615	32509	
1300	0	32806	32639	32668	32635	32843	32808	32645	32663	
1301	0	32809	32659	32745	32495	32775	32863	32733	32546	
1302	0	32743	32643	32685	32532	32811	32801	32609	32519	
1303	0	32781	32615	32775	32663	32887	32653	32571	32713	
1304	0	32722	32615	32751	32647	32857	32643	32647	32596	
1305	0	32644	32735	32839	32527	32807	32719	32827	32668	
1306	0	32647	32729	32715	32669	32848	32695	32787	32755	
1307	0	32705	32687	32815	32707	32809	32703	32791	32677	
1308	0	32760	32775	32829	32621	32791	32741	32795	32831	
1309	0	32721	32885	32643	32659	32814	32739	32887	32562	
1310	0	32727	32775	32727	32743	32767	32668	32647	32775	
1311	0	32775	32685	32662	32671	32719	32635	32669	32690	
1312	0	32742	32799	32563	32668	32676	32567	32927	32703	
1313	0	32760	32835	32672	32605	32775	32627	32941	32501	
1314	0	32745	32607	32623	32825	32735	32727	32846	32703	
1315	0	32812	32669	32715	32751	32685	32845	32713	32743	
1316	0	32807	32727	32687	32567	32797	32871	32535	32676	
1317	0	32711	32719	32758	32735	32723	32831	32386	32647	
1318	0	32704	32791	32759	32559	32740	32685	32311	32611	
1319	0	32721	32647	32727	32623	32853	32717	32283	32668	
1320	0	32833	32707	32647	32476	32815	32855	32620	32583	
1321	0	32787	32718	32711	32567	32823	32893	32589	32775	
1322	0	32799	32740	32710	32588	32755	32837	32431	32769	
1323	0	32810	32642	32671	32590	32767	32844	32455	32629	
1324	0	32832	32631	32703	32623	32839	32818	32579	32603	
1325	0	32839	32695	32767	32604	32875	32807	32761	32469	
1326	0	32820	32743	32751	32823	32827	32813	32762	32759	
1327	0	32684	32623	32595	32767	32868	32851	32799	32742	
1328	0	32698	32815	32647	32623	32815	32877	32775	32775	
1329	0	32715	32775	32611	32751	32722	32833	32971	32597	
1330	0	32689	32738	32435	32711	32791	32775	33307	32570	
1331	0	32710	32655	32495	32807	32687	32823	33523	32747	
1332	0	32714	32719	32602	32581	32687	32775	33439	32667	
1333	0	32762	32758	32655	32707	32702	32885	32951	32530	
1334	0	32701	32711	32694	32636	32670	32815	32818	32495	
1335	0	32672	32767	32716	32647	32795	32863	32719	32615	
1336	0	32743	32675	32692	32605	32798	32810	32655	32711	
1337	0	32733	32714	32554	32591	32903	32753	32711	32591	
1338	0	32727	32767	32591	32745	32702	32775	32945	32503	
1339	0	32775	32735	32639	32621	32719	32828	32858	32643	
1340	0	32826	32787	32866	32743	32759	32788	32671	32903	
1341	0	32849	32645	32838	32631	32848	32742	32621	33053	
1342	0	32860	32687	32903	32588	32844	32645	32658	32838	
1343	0	32816	32791	32807	32607	32903	32647	32612	32541	
1344	0	32831	32740	32833	32626	32927	32687	32491	32758	
1345	0	32805	32690	32829	32605	32867	32773	32385	32663	
1346	0	32836	32711	32734	32679	32775	32814	32291	32727	
1347	0	32746	32759	32738	32685	32787	32737	32556	32583	
1348	0	32717	32647	32767	32769	32769	32820	32835	32775	
1349	0	32713	32815	32729	32692	32763	32827	33091	32719	
1350	0	32672	32850	32797	32837	32661	32775	33171	32530	
1351	0	32724	32719	32836	32662	32605	32775	33013	32579	
1352	0	32745	32862	32689	32835	32612	32831	32895	32529	
1353	0	32767	32735	32677	32751	32647	32709	32983	32541	
1354	0	32734	32711	32760	32615	32596	32787	32935	32519	
1355	0	32764	32655	32827	32654	32727	32676	32775	32635	
1356	0	32791	32742	32789	32605	32743	32807	32549	32662	
1357	0	32753	32775	32775	32455	32727	32814	32599	32692	
1358	0	32745	32623	32661	32617	32754	32891	32613	32573	
1359	0	32775	32813	32767	32495	32836	32890	32599	32765	
1360	0	32799	32811	32788	32623	32852	32793	32620	32698	
1361	0	32799	32643	32663	32647	32775	32737	32665	32775	
1362	0	32740	32703	32815	32881	32751	32687	32647	32583	
1363	0	32743	32741	32709	32903	32767	32679	32775	32869	
1364	0	32771	32719	32601	32743	32855	32812	33079	32699	
1365	0	32788	32615	32592	32687	32772	32751	33151	32639	
1366	0	32781	32834	32647	32751	32671	32661	32903	32495	
1367	0	32764	32775	32717	32717	32551	32615	32727	32719	
1368	0	32756	32685	32589	32583	32669	32786	32663	32609	
1369	0	32761	32677	32655	32743	32756	32767	32835	32647	
1370	0	32846	32734	32727	32687	32724	32797	32815	32615	
1371	0	32761	32834	32580	32556	32647	32860	32607	32855	
1372	0	32767	32687	32725	32769	32715	32815	32719	32783	
1373	0	32775	32799	32717	32643	32711	32815	32710	32645	
1374	0	32738	32771	32596	32599	32731	32807	32775	32615	
1375	0	32713	32743	32759	32587	32827	32863	32771	32547	
1376	0	32732	32801	32775	32636	32694	32866	32725	32606	
1377	0	32764	32727	32773	32603	32804	32788	32823	32557	
1378	0	32774	32723	32855	32635	32775	32719	32845	32751	
1379	0	32791	32693	32791	32451	32795	32727	32583	32570	
1380	0	32793	32771	32527	32570	32687	32676	32530	32485	
1381	0	32775	32658	32615	32515	32647	32623	32548	32686	
1382	0	32750	32790	32589	32615	32810	32693	32765	32679	
1383	0	32771	32733	32519	32642	32925	32727	32655	32527	
1384	0	32684	32626	32615	32503	32879	32835	32719	32687	
1385	0	32694	32633	32655	32703	32887	32900	32775	32799	
1386	0	32745	32775	32698	32694	32761	32749	32807	32739	
1387	0	32783	32709	32690	32479	32825	32751	32951	32775	
1388	0	32824	32743	32933	32692	32919	32799	32931	32527	
1389	0	32792	32694	32918	32663	32887	32767	32627	32627	
1390	0	32717	32786	32826	32631	32815	32733	32382	32682	
1391	0	32663	32751	32774	32784	32829	32749	32353	32698	
1392	0	32705	32797	32773	32805	32879	32812	32470	32647	
1393	0	32742	32621	32631	32646	32791	32823	32591	32642	
1394	0	32810	32741	32676	32859	32754	32812	32811	32844	
1395	0	32738	32775	32695	32822	32839	32806	32879	32759	
1396	0	32815	32730	32751	32615	32769	32745	32863	32695	
1397	0	32854	32771	32655	32767	32835	32769	32911	32562	
1398	0	32838	32727	32740	32743	32813	32751	32885	32687	
1399	0	32866	32743	32765	32621	32861	32831	32925	32620	
1400	0	32815	32763	32677	32838	32775	32807	32886	32643	
1401	0	32796	32647	32615	32715	32731	32747	32773	32647	
1402	0	32773	32661	32833	32519	32685	32717	32589	32636	
1403	0	32759	32695	32794	32743	32663	32773	32557	32735	
1404	0	32786	32775	32627	32709	32647	32711	32493	32711	
1405	0	32806	32659	32727	32683	32694	32661	32587	32647	
1406	0	32743	32590	32831	32833	32815	32687	32621	32609	
1407	0	32754	32708	32827	32791	32786	32667	32703	32583	
1408	0	32766	32735	32887	32583	32758	32685	33021	32508	
1409	0	32695	32700	32743	32738	32830	32731	33111	32674	
1410	0	32678	32679	32799	32802	32723	32743	33014	32631	
1411	0	32717	32753	32771	32542	32543	32663	32926	32743	
1412	0	32761	32647	32695	32723	32575	32867	32850	32695	
1413	0	32724	32725	32577	32626	32535	32827	32771	32558	
1414	0	32727	32646	32645	32415	32567	32887	32700	32587	
1415	0	32797	32743	32703	32583	32607	32903	32631	32647	
1416	0	32868	32711	32647	32679	32729	32871	32671	32613	
1417	0	32809	32703	32788	32538	32799	32798	32679	32663	
1418	0	32824	32577	32807	32799	32775	32725	32711	32751	
1419	0	32788	32668	32722	32715	32715	32647	32635	32635	
1420	0	32810	32855	32609	32559	32655	32839	32811	32639	
1421	0	32736	32807	32586	32699	32662	32919	32771	32679	
1422	0	32702	32789	32707	32722	32639	32869	32796	32594	
1423	0	32703	32646	32679	32644	32670	32815	32699	32717	
1424	0	32748	32645	32647	32685	32767	32687	32623	32687	
1425	0	32770	32827	32567	32573	32775	32638	32610	32863	
1426	0	32764	32628	32683	32679	32883	32711	32538	32743	
1427	0	32818	32647	32745	32637	32815	32661	32579	32723	
1428	0	32760	32757	32695	32633	32879	32711	32578	32577	
1429	0	32768	32743	32775	32837	32807	32743	32670	32631	
1430	0	32720	32671	32673	32772	32734	32775	32541	32573	
1431	0	32769	32725	32775	32855	32751	32818	32605	32708	
1432	0	32804	32839	32679	32692	32895	32831	32783	32551	
1433	0	32740	32687	32615	32481	32883	32784	32647	32764	
1434	0	32761	32731	32685	32699	32799	32775	32519	32708	
1435	0	32732	32666	32798	32503	32662	32835	32751	32534	
1436	0	32691	32646	32583	32635	32719	32869	32975	32647	
1437	0	32719	32791	32799	32662	32855	32827	33017	32740	
1438	0	32692	32791	32783	32642	32855	32847	32903	32420	
1439	0	32713	32855	32757	32623	32825	32885	32636	32637	
1440	0	32722	32834	32775	32607	32788	32877	32595	32719	
1441	0	32756	32711	32757	32655	32787	32871	32735	32637	
1442	0	32745	32677	32659	32685	32735	32683	32709	32645	
1443	0	32771	32847	32807	32815	32858	32611	32625	32815	
1444	0	32736	32738	32867	32844	32829	32661	32647	32694	
1445	0	32775	32647	32765	32703	32729	32803	32807	32615	
1446	0	32780	32703	32773	32815	32797	32817	33027	32755	
1447	0	32798	32741	32687	32809	32767	32863	33020	32695	
1448	0	32713	32623	32532	32738	32711	32835	33021	32791	
1449	0	32759	32818	32647	32775	32725	32856	32859	32487	
1450	0	32815	32759	32679	32605	32806	32813	32765	32575	
1451	0	32785	32663	32707	32783	32823	32749	32847	32635	
1452	0	32749	32748	32686	32769	32775	32711	32967	32590	
1453	0	32759	32739	32692	32633	32827	32775	32924	32769	
1454	0	32731	32735	32549	32670	32876	32799	32890	32679	
1455	0	32775	32607	32701	32629	32711	32709	32827	32661	
1456	0	32817	32813	32662	32647	32726	32642	32583	32611	
1457	0	32804	32783	32679	32617	32698	32691	32628	32861	
1458	0	32814	32715	32740	32383	32623	32807	32794	32699	
1459	0	32831	32671	32815	32643	32598	32867	32775	32685	
1460	0	32762	32580	32755	32646	32621	32849	32687	32523	
1461	0	32755	32679	32686	32437	32615	32775	32641	32703	
1462	0	32809	32707	32711	32631	32586	32775	32663	32679	
1463	0	32764	32719	32647	32668	32599	32665	32647	32647	
1464	0	32760	32847	32631	32559	32751	32735	32505	32727	
1465	0	32684	32797	32711	32708	32727	32723	32252	32801	
1466	0	32748	32741	32743	32775	32747	32707	32215	32863	
1467	0	32762	32645	32695	32615	32687	32789	32237	32925	
1468	0	32751	32731	32559	32631	32647	32895	32156	32674	
1469	0	32786	32785	32793	32513	32785	32843	32186	32500	
1470	0	32695	32703	32882	32567	32855	32807	32732	32556	
1471	0	32773	32726	32956	32698	32852	32752	33241	32443	
1472	0	32796	32638	32911	32809	32775	32751	33735	32709	
1473	0	32796	32805	32751	32647	32759	32681	33386	32659	
1474	0	32735	32849	32812	32691	32743	32671	32883	32725	
1475	0	32706	32643	32861	32686	32759	32707	32775	32591	
1476	0	32695	32662	32745	32595	32769	32679	32935	32699	
1477	0	32692	32633	32969	32815	32835	32751	32935	32554	
1478	0	32687	32737	32925	32711	32739	32749	32863	32623	
1479	0	32719	32586	32819	32787	32850	32719	32807	32829	
1480	0	32761	32709	32823	32817	32814	32647	32843	32839	
1481	0	32684	32687	32783	32689	32740	32723	32671	32847	
1482	0	32737	32647	32723	32735	32687	32743	32495	33010	
1483	0	32765	32641	32787	32701	32667	32675	32220	32821	
1484	0	32734	32671	32551	32789	32676	32687	32231	32783	
1485	0	32696	32609	32599	32735	32855	32741	32484	32827	
1486	0	32687	32647	32421	32543	32994	32703	32628	32701	
1487	0	32668	32666	32431	32708	32835	32751	32540	32862	
1488	0	32698	32565	32375	32735	32626	32811	32617	32770	
1489	0	32728	32767	32418	32495	32533	32839	32623	32891	
1490	0	32734	32791	32423	32643	32647	32859	32663	32903	
1491	0	32747	32839	32415	32549	32727	32793	32628	32676	
1492	0	32775	32823	32327	32415	32590	32891	32667	32935	
1493	0	32780	32831	32486	32484	32621	32962	32775	32734	
1494	0	32823	32967	32471	32469	32548	32877	32572	32719	
1495	0	32742	32937	32421	32367	32527	32887	32694	32775	
1496	0	32762	32855	32515	32459	32557	32971	32859	32710	
1497	0	32703	33026	32563	32493	32595	32987	32833	32583	
1498	0	32678	32975	32419	32486	32663	33042	32791	32486	
1499	0	32730	32852	32553	32525	32619	32963	33023	32447	
1500	0	32718	32982	32622	32391	32621	32991	33125	32572	
1501	0	32699	32973	32420	32398	32635	33010	33039	32413	
1502	0	32730	32838	32484	32283	32601	33051	32875	32471	
1503	0	32741	32999	32445	32359	32710	32964	32769	32643	
1504	0	32713	32886	32507	32157	32509	32925	32717	32477	
1505	0	32734	32797	32629	32357	32506	32927	32861	32639	
1506	0	32815	32886	32489	32307	32597	33079	32839	32546	
1507	0	32725	32775	32535	32405	32559	33010	32825	32647	
1508	0	32802	32929	32621	32276	32565	32919	32903	32563	
1509	0	32799	32947	32626	32229	32615	32930	33047	32431	
1510	0	32775	32861	32731	32562	32775	32897	33207	32289	
1511	0	32742	32790	32787	32738	32846	32791	33373	32327	
1512	0	32809	32738	32723	32847	33017	32811	33327	32161	
1513	0	32894	32647	32943	32980	33117	32767	33254	32327	
1514	0	32940	32548	33093	32775	33071	32673	32997	32369	
1515	0	32991	32603	33019	33093	32967	32636	33055	32543	
1516	0	32968	32535	33158	33073	32914	32535	33035	32587	
1517	0	32977	32468	33167	33143	32964	32499	32890	32286	
1518	0	33004	32549	33212	33133	32931	32543	32954	32187	
1519	0	32977	32527	33481	33298	32911	32437	32884	32587	
1520	0	33087	32417	33607	33269	33148	32391	32919	32567	
1521	0	33095	32558	33539	33238	33281	32413	32765	32466	
1522	0	33069	32457	33735	33263	33188	32563	32853	32492	
1523	0	33011	32436	33594	33215	33159	32479	32775	32577	
1524	0	32987	32477	33415	33135	33087	32478	32751	32750	
1525	0	33045	32519	33303	33195	33030	32463	32699	32647	
1526	0	32993	32431	33270	33118	33004	32517	32553	32799	
1527	0	32827	32483	33047	33023	33099	32438	32551	32775	
1528	0	32781	32567	32937	33002	33066	32447	32495	32823	
1529	0	32735	32511	32813	32974	33061	32471	32317	32766	
1530	0	32704	32571	32683	32895	32987	32606	32293	32829	
1531	0	32677	32679	32682	32997	32919	32599	32289	32791	
1532	0	32708	32703	32587	32903	32831	32647	32285	32759	
1533	0	32576	32591	32455	32899	32807	32646	32253	32749	
1534	0	32552	32679	32431	32725	32771	32741	32438	33023	
1535	0	32565	32843	32435	32482	32667	32819	32455	32887	
1536	0	32544	32871	32327	32535	32636	32847	32543	32843	
1537	0	32539	32709	32367	32546	32479	32887	32511	32453	
1538	0	32474	32727	32423	32167	32445	32889	32524	32693	
1539	0	32514	32699	32359	32343	32447	32903	32615	32773	
1540	0	32447	32719	32209	32293	32407	32940	32647	32763	
1541	0	32491	32641	32277	32158	32439	32971	32681	32679	
1542	0	32487	32719	32415	32271	32381	32903	32757	32609	
1543	0	32568	32723	32477	32501	32563	32877	32825	32743	
1544	0	32559	32851	32423	32289	32695	32925	32838	32874	
1545	0	32595	32775	32564	32485	32702	32903	32887	32733	
1546	0	32685	32839	32579	32694	32683	32838	32979	32767	
1547	0	32784	32887	32595	32713	32679	32831	32775	32557	
1548	0	32845	32675	32635	32660	32685	32775	32743	32854	
1549	0	32773	32775	32583	32492	32599	32796	32797	32771	
1550	0	32799	32695	32671	32645	32557	32775	32869	32675	
1551	0	32815	32771	32775	32599	32655	32773	32647	32694	
1552	0	32797	32702	32767	32459	32691	32811	32349	32429	
1553	0	32764	32844	32701	32655	32869	32807	32355	32759	
1554	0	32789	32843	32671	32658	32869	32766	32631	32671	
1555	0	32839	32735	32718	32506	32799	32724	32599	32775	
1556	0	32829	32759	32701	32565	32727	32687	32599	32629	
1557	0	32813	32919	32513	32543	32759	32805	32703	32679	
1558	0	32804	32903	32662	32725	32693	32895	32805	32719	
1559	0	32935	32709	32719	32679	32647	32903	32795	32559	
1560	0	32830	32701	32615	32565	32767	32883	32692	32476	
1561	0	32756	32774	32799	32551	32743	32725	32679	32620	
1562	0	32759	32797	32711	32623	32643	32703	32711	32525	
1563	0	32717	32631	32733	32620	32516	32679	32647	32754	
1564	0	32668	32799	32641	32823	32514	32775	32734	32763	
1565	0	32759	32759	32647	32879	32647	32781	32757	32695	
1566	0	32711	32647	32647	32566	32687	32829	32939	32599	
1567	0	32680	32677	32671	32578	32807	32831	33325	32583	
1568	0	32719	32738	32805	32506	32773	32836	33349	32707	
1569	0	32702	32758	32743	32596	32903	32867	33131	32667	
1570	0	32718	32711	32728	32645	32839	32855	32755	32658	
1571	0	32748	32754	32766	32551	32955	32721	32679	32594	
1572	0	32770	32823	32898	32735	32983	32735	32971	32567	
1573	0	32765	32751	32775	32667	32837	32799	32999	32703	
1574	0	32807	32669	32814	32527	32935	32836	32953	32641	
1575	0	32775	32699	32727	32707	32903	32757	32863	32595	
1576	0	32788	32835	32799	32613	32939	32788	32685	32660	
1577	0	32831	32799	32647	32619	32862	32827	32551	32567	
1578	0	32768	32671	32559	32749	32803	32727	32507	32621	
1579	0	32742	32775	32587	32629	32710	32743	32549	32695	
1580	0	32783	32773	32703	32647	32811	32743	32553	32735	
1581	0	32807	32587	32647	32567	32819	32647	32644	32671	
1582	0	32794	32682	32573	32495	32559	32679	32767	32757	
1583	0	32799	32631	32730	32615	32548	32807	32807	32582	
1584	0	32805	32655	32743	32683	32593	32735	32746	32485	
1585	0	32830	32611	32647	32623	32591	32727	32759	32719	
1586	0	32812	32767	32756	32687	32847	32759	32673	32773	
1587	0	32847	32845	32709	32543	32795	32743	32591	32551	
1588	0	32767	32739	32681	32607	32749	32783	32646	32631	
1589	0	32743	32773	32775	32711	32671	32763	32789	32707	
1590	0	32755	32775	32723	32604	32754	32679	33047	32657	
1591	0	32700	32758	32719	32835	32789	32666	32916	32885	
1592	0	32710	32685	32716	32763	32873	32655	32677	32677	
1593	0	32743	32693	32791	32832	32914	32674	32612	32691	
1594	0	32772	32767	32685	32726	32815	32725	32898	32647	
1595	0	32756	32701	32729	32511	32775	32738	32911	32665	
1596	0	32771	32722	32717	32719	32783	32773	32739	32717	
1597	0	32761	32813	32690	32820	32767	32775	32775	32583	
1598	0	32762	32807	32773	32687	32791	32727	32823	32679	
1599	0	32866	32617	32830	32882	32660	32831	32830	32853	
1600	0	32816	32645	32759	32871	32669	32823	32747	32742	
1601	0	32773	32633	32943	32692	32685	32783	32669	32719	
1602	0	32775	32582	32877	32663	32751	32695	32557	32620	
1603	0	32746	32601	32763	32443	32644	32694	32384	32668	
1604	0	32775	32687	32759	32615	32799	32809	32471	32437	
1605	0	32751	32747	32693	32647	32793	32786	32599	32556	
1606	0	32804	32727	32516	32603	32813	32775	32807	32621	
1607	0	32763	32693	32655	32763	32643	32837	32854	32797	
1608	0	32770	32727	32576	32758	32655	32799	32898	32607	
1609	0	32773	32739	32660	32659	32731	32786	32854	32599	
1610	0	32768	32811	32617	32807	32719	32735	32874	32638	
1611	0	32759	32767	32763	32775	32679	32718	32764	32486	
1612	0	32743	32863	32671	32703	32635	32821	32683	32628	
1613	0	32735	32786	32639	32606	32603	32758	32762	32675	
1614	0	32733	32695	32841	32695	32597	32817	32899	32647	
1615	0	32769	32623	32751	32517	32665	32759	32879	32771	
1616	0	32751	32741	32663	32699	32685	32717	32937	32586	
1617	0	32707	32690	32767	32659	32751	32855	32923	32775	
1618	0	32735	32699	32769	32495	32647	32751	32879	32791	
1619	0	32734	32722	32620	32734	32607	32775	32854	32789	
1620	0	32711	32727	32599	32711	32685	32818	32845	32803	
1621	0	32719	32743	32663	32491	32631	32775	32831	32575	
1622	0	32734	32739	32725	32741	32720	32758	32846	32603	
1623	0	32773	32679	32685	32692	32663	32798	32903	32690	
1624	0	32804	32711	32747	32532	32607	32699	32863	32663	
1625	0	32812	32740	32789	32748	32743	32636	32639	32667	
1626	0	32754	32733	32807	32757	32646	32655	32599	32775	
1627	0	32747	32709	32773	32679	32690	32743	32671	32675	
1628	0	32756	32621	32719	32639	32699	32820	32812	32487	
1629	0	32764	32578	32679	32838	32667	32773	32786	32553	
1630	0	32807	32772	32694	32803	32669	32807	32749	32733	
1631	0	32842	32811	32763	32703	32726	32788	32757	32689	
1632	0	32809	32862	32611	32706	32743	32715	32743	32677	
1633	0	32711	32599	32743	32647	32711	32799	32605	32543	
1634	0	32783	32799	32679	32502	32870	32747	32647	32690	
1635	0	32804	32818	32519	32617	32830	32839	32833	32683	
1636	0	32784	32757	32727	32579	32731	32799	32859	32695	
1637	0	32759	32663	32692	32647	32662	32791	32829	32586	
1638	0	32741	32799	32687	32703	32734	32775	32818	32707	
1639	0	32736	32807	32719	32587	32825	32773	32825	32655	
1640	0	32679	32615	32685	32687	32823	32743	32767	32477	
1641	0	32735	32789	32621	32621	32740	32687	32543	32645	
1642	0	32733	32823	32806	32790	32676	32767	32524	32671	
1643	0	32757	32695	32863	32749	32735	32811	32566	32647	
1644	0	32767	32615	32817	32813	32925	32727	32634	32605	
1645	0	32738	32623	32775	32715	32969	32694	32695	32575	
1646	0	32725	32751	32769	32759	32806	32698	32639	32761	
1647	0	32669	32771	32747	32631	32710	32773	32740	32675	
1648	0	32727	32668	32727	32785	32715	32711	32663	32858	
1649	0	32756	32743	32687	32759	32679	32757	32665	32787	
1650	0	32762	32691	32633	32610	32703	32815	32742	32531	
1651	0	32779	32715	32665	32749	32713	32735	32927	32716	
1652	0	32799	32663	32623	32677	32751	32705	32911	32670	
1653	0	32767	32839	32663	32634	32700	32773	32819	32645	
1654	0	32824	32837	32764	32711	32646	32823	32626	32775	
1655	0	32772	32695	32775	32659	32721	32851	32555	32607	
1656	0	32811	32647	32709	32495	32786	32890	32671	32694	
1657	0	32686	32767	32679	32604	32801	32873	32775	32667	
1658	0	32745	32669	32563	32551	32751	32807	32759	32499	
1659	0	32780	32803	32713	32647	32831	32775	32989	32630	
1660	0	32773	32748	32691	32681	32755	32743	32855	32612	
1661	0	32754	32763	32623	32493	32751	32795	32663	32647	
1662	0	32809	32679	32722	32595	32745	32698	32621	32578	
1663	0	32759	32783	32789	32679	32719	32681	32775	32771	
1664	0	32711	32734	32615	32475	32647	32719	32722	32759	
1665	0	32800	32807	32699	32679	32700	32792	32742	32719	
1666	0	32800	32719	32755	32552	32799	32775	32828	32647	
1667	0	32743	32663	32765	32463	32735	32821	33074	32693	
1668	0	32692	32734	32759	32655	32695	32801	32911	32625	
1669	0	32718	32719	32807	32687	32751	32821	32739	32661	
1670	0	32815	32655	32775	32658	32764	32691	32630	32717	
1671	0	32758	32743	32759	32759	32751	32743	32607	32619	
1672	0	32745	32805	32743	32643	32852	32773	32796	32743	
1673	0	32762	32645	32605	32833	32919	32749	32892	32599	
1674	0	32743	32747	32549	32854	32813	32835	32845	32501	
1675	0	32745	32807	32590	32719	32679	32756	32630	32751	
1676	0	32763	32702	32799	32769	32646	32783	32615	32623	
1677	0	32756	32807	32631	32671	32639	32881	32667	32775	
1678	0	32729	32855	32719	32723	32647	32839	32569	32719	
1679	0	32729	32811	32665	32775	32605	32847	32582	32675	
1680	0	32868	32683	32687	32789	32594	32839	32655	32455	
1681	0	32775	32730	32783	32759	32812	32687	32884	32548	
1682	0	32775	32679	32655	32735	32871	32687	32756	32366	
1683	0	32794	32694	32731	32675	32850	32662	32743	32631	
1684	0	32793	32703	32775	32471	32875	32693	32767	32533	
1685	0	32807	32775	32661	32541	32871	32799	32991	32683	
1686	0	32810	32751	32775	32485	32877	32805	33003	32541	
1687	0	32734	32751	32818	32691	32803	32786	32912	32587	
1688	0	32722	32803	32658	32691	32725	32753	32738	32748	
1689	0	32752	32791	32849	32663	32739	32807	32610	32647	
1690	0	32647	32789	32803	32727	32785	32805	32534	32895	
1691	0	32764	32806	32727	32673	32804	32791	32532	32719	
1692	0	32733	32794	32767	32554	32772	32799	32733	32723	
1693	0	32684	32715	32623	32687	32663	32730	32730	32816	
1694	0	32687	32607	32570	32703	32647	32637	32739	32877	
1695	0	32724	32663	32711	32523	32675	32749	32645	32703	
1696	0	32805	32621	32671	32621	32707	32775	32666	32685	
1697	0	32812	32669	32639	32559	32735	32797	32738	32487	
1698	0	32831	32555	32689	32604	32535	32742	32802	32704	
1699	0	32791	32693	32627	32611	32694	32839	32847	32701	
1700	0	32806	32735	32679	32673	32686	32769	32943	32571	
1701	0	32833	32691	32765	32599	32719	32809	32883	32615	
1702	0	32770	32679	32662	32531	32743	32773	32795	32742	
1703	0	32691	32759	32619	32567	32751	32763	32868	32667	
1704	0	32780	32721	32713	32483	32932	32631	32871	32751	
1705	0	32764	32703	32769	32743	32879	32695	32829	32575	
1706	0	32742	32815	32717	32831	32874	32839	32871	32663	
1707	0	32733	32815	32823	32823	32879	32803	32845	32867	
1708	0	32743	32737	32786	32811	32901	32811	32741	32623	
1709	0	32789	32736	32871	32863	32861	32687	32581	32556	
1710	0	32819	32783	32903	32743	32726	32775	32762	32511	
1711	0	32875	32743	32887	32801	32643	32833	32797	32681	
1712	0	32791	32853	32707	32775	32815	32805	32861	32636	
1713	0	32748	32827	32559	32695	32807	32804	32757	32455	
1714	0	32799	32655	32479	32658	32671	32702	32647	32627	
1715	0	32799	32727	32615	32535	32851	32755	32767	32713	
1716	0	32759	32735	32621	32640	32858	32831	32734	32527	
1717	0	32742	32643	32637	32485	32567	32823	32791	32767	
1718	0	32708	32775	32688	32711	32689	32863	32783	32743	
1719	0	32771	32706	32663	32637	32727	32775	32659	32655	
1720	0	32732	32810	32743	32491	32899	32771	32587	32771	
1721	0	32796	32705	32767	32611	32950	32759	32572	32681	
1722	0	32815	32763	32738	32597	32883	32723	32727	32567	
1723	0	32812	32612	32647	32527	32805	32743	32875	32703	
1724	0	32807	32717	32539	32623	32749	32749	32994	32627	
1725	0	32751	32601	32559	32567	32747	32877	32765	32442	
1726	0	32755	32711	32711	32723	32709	32855	32675	32716	
1727	0	32722	32771	32631	32561	32845	32803	32831	32735	
1728	0	32751	32647	32879	32590	32827	32839	32839	32560	
1729	0	32775	32763	32877	32487	32788	32711	32775	32735	
1730	0	32761	32823	32716	32741	32662	32617	32793	32627	
1731	0	32750	32707	32807	32833	32671	32687	32747	32671	
1732	0	32749	32773	32863	32598	32687	32711	32271	32655	
1733	0	32738	32719	32775	32807	32805	32719	31956	32867	
1734	0	32804	32717	32903	32843	32874	32715	32047	32773	
1735	0	32815	32634	32863	32643	32933	32771	32487	32735	
1736	0	32738	32739	32639	32817	32771	32767	32709	32442	
1737	0	32741	32769	32727	32756	32645	32766	33047	32673	
1738	0	32715	32671	32615	32754	32671	32739	33227	32647	
1739	0	32756	32603	32660	32571	32615	32775	33319	32709	
1740	0	32796	32687	32775	32407	32654	32713	33041	32559	
1741	0	32790	32703	32677	32511	32803	32772	32773	32757	
1742	0	32684	32645	32582	32607	32817	32687	32817	32759	
1743	0	32692	32745	32662	32690	32847	32759	32893	32679	
1744	0	32620	32757	32590	32708	32799	32775	32951	32795	
1745	0	32729	32659	32679	32655	32782	32885	32941	32660	
1746	0	32743	32747	32703	32825	32845	32756	32759	32463	
1747	0	32762	32787	32663	32775	32812	32773	32575	32527	
1748	0	32708	32855	32535	32682	32775	32783	32557	32565	
1749	0	32710	32790	32533	32615	32671	32804	32575	32699	
1750	0	32815	32887	32537	32569	32738	32827	32717	32518	
1751	0	32765	32716	32739	32657	32635	32775	32775	32655	
1752	0	32839	32903	32710	32679	32647	32745	32621	32734	
1753	0	32807	32871	32814	32437	32742	32844	32515	32515	
1754	0	32785	32591	32699	32809	32773	32795	32711	32751	
1755	0	32760	32739	32700	32807	32822	32839	32735	32702	
1756	0	32775	32745	32647	32810	32794	32835	32838	32591	
1757	0	32860	32727	32679	32791	32775	32713	32903	32724	
1758	0	32813	32708	32855	32503	32711	32795	32868	32662	
1759	0	32818	32762	32922	32738	32710	32839	32717	32597	
1760	0	32836	32759	32823	32814	32748	32808	32533	32534	
1761	0	32740	32639	32894	32629	32836	32767	32669	32615	
1762	0	32768	32747	32759	32743	32883	32735	32903	32691	
1763	0	32804	32689	32647	32743	32863	32759	32917	32733	
1764	0	32796	32647	32694	32731	32751	32749	32964	32575	
1765	0	32762	32674	32671	32711	32666	32690	32839	32787	
1766	0	32815	32687	32831	32589	32685	32699	32613	32762	
1767	0	32789	32695	32831	32669	32671	32705	32604	32599	
1768	0	32663	32631	32793	32707	32695	32695	32699	32716	
1769	0	32678	32775	32647	32695	32715	32647	32673	32687	
1770	0	32742	32758	32772	32647	32643	32679	32739	32711	
1771	0	32734	32743	32575	32463	32797	32610	32662	32594	
1772	0	32708	32741	32565	32669	32665	32686	32549	32737	
1773	0	32807	32765	32679	32738	32709	32799	32391	32679	
1774	0	32808	32663	32637	32662	32662	32803	32539	32789	
1775	0	32810	32733	32671	32660	32681	32815	32671	32571	
1776	0	32765	32684	32693	32576	32647	32755	32803	32759	
1777	0	32797	32583	32677	32555	32838	32861	32823	32647	
1778	0	32796	32629	32759	32580	32681	32739	32879	32567	
1779	0	32801	32665	32775	32658	32628	32723	32743	32606	
1780	0	32800	32572	32756	32631	32687	32714	32647	32693	
1781	0	32806	32615	32775	32647	32679	32775	32689	32519	
1782	0	32736	32659	32715	32799	32695	32843	32759	32711	
1783	0	32780	32579	32756	32661	32829	32791	32795	32638	
1784	0	32749	32765	32692	32727	32851	32796	32873	32634	
1785	0	32738	32811	32647	32639	32858	32815	32733	32806	
1786	0	32721	32703	32765	32538	32749	32763	32535	32743	
1787	0	32684	32767	32847	32607	32804	32691	32671	32793	
1788	0	32658	32764	32855	32663	32845	32775	32741	32623	
1789	0	32661	32685	32903	32671	32879	32723	32807	32771	
1790	0	32673	32733	32839	32669	32743	32719	32871	32702	
1791	0	32702	32753	32815	32495	32727	32703	32813	32647	
1792	0	32762	32685	32655	32731	32791	32743	32614	32509	
1793	0	32773	32807	32695	32628	32827	32762	32899	32709	
1794	0	32772	32773	32711	32829	32721	32773	33045	32623	
1795	0	32793	32743	32674	32798	32839	32799	32991	32644	
1796	0	32742	32645	32677	32631	32762	32853	32845	32479	
1797	0	32829	32765	32659	32813	32819	32745	32690	32791	
1798	0	32871	32791	32703	32869	32775	32645	32623	32785	
1799	0	32797	32634	32623	32623	32711	32668	32607	32691	
1800	0	32715	32762	32679	32661	32825	32715	32655	32621	
1801	0	32696	32667	32707	32719	32789	32883	32757	32397	
1802	0	32803	32717	32711	32647	32847	32943	32811	32599	
1803	0	32753	32623	32775	32628	32903	32861	32735	32690	
1804	0	32783	32769	32669	32529	32839	32713	32671	32807	
1805	0	32784	32775	32661	32573	32855	32679	32754	32557	
1806	0	32839	32775	32815	32581	32855	32773	32911	32557	
1807	0	32830	32679	32667	32709	32884	32775	32933	32639	
1808	0	32781	32707	32687	32597	32815	32690	32929	32767	
1809	0	32772	32852	32639	32717	32823	32727	32747	32772	
1810	0	32795	32813	32815	32734	32741	32670	32674	32735	
1811	0	32759	32715	32815	32647	32695	32813	32775	32491	
1812	0	32767	32848	32863	32735	32663	32759	32775	32605	
1813	0	32757	32819	32886	32597	32831	32807	32782	32675	
1814	0	32790	32725	32735	32732	32795	32797	32879	32570	
1815	0	32748	32751	32691	32726	32827	32799	32823	32759	
1816	0	32708	32717	32647	32547	32743	32837	32675	32765	
1817	0	32790	32611	32709	32775	32775	32761	32613	32607	
1818	0	32743	32663	32703	32711	32767	32839	32685	32660	
1819	0	32690	32661	32523	32727	32791	32797	32718	32757	
1820	0	32804	32563	32699	32615	32711	32807	32635	32711	
1821	0	32754	32643	32809	32609	32791	32829	32715	32671	
1822	0	32711	32743	32708	32783	32655	32713	32676	32507	
1823	0	32735	32797	32833	32671	32710	32773	32511	32621	
1824	0	32745	32663	32775	32470	32807	32796	32469	32665	
1825	0	32705	32727	32693	32667	32806	32797	32485	32525	
1826	0	32747	32731	32713	32757	32783	32662	32660	32757	
1827	0	32732	32627	32671	32732	32811	32631	32690	32601	
1828	0	32818	32823	32644	32691	32859	32639	32642	32647	
1829	0	32850	32797	32702	32519	32796	32655	32635	32594	
1830	0	32756	32686	32697	32797	32811	32751	32811	32683	
1831	0	32791	32671	32660	32718	32821	32883	32866	32629	
1832	0	32781	32887	32647	32495	32717	32823	32855	32663	
1833	0	32745	32785	32586	32755	32791	32804	32863	32583	
1834	0	32756	32722	32540	32735	32749	32826	32797	32487	
1835	0	32758	32685	32708	32563	32735	32805	32869	32769	
1836	0	32734	32742	32621	32703	32711	32783	32925	32807	
1837	0	32754	32804	32545	32695	32831	32709	32997	32807	
1838	0	32724	32676	32687	32571	32679	32801	33035	32666	
1839	0	32652	32772	32711	32735	32743	32663	33062	32692	
1840	0	32699	32775	32679	32685	32810	32685	33078	32647	
1841	0	32710	32671	32783	32523	32739	32733	33041	32631	
1842	0	32729	32633	32754	32699	32743	32775	32913	32484	
1843	0	32792	32727	32695	32705	32813	32740	32690	32759	
1844	0	32794	32738	32811	32738	32803	32743	32533	32663	
1845	0	32775	32735	32681	32631	32775	32681	32523	32623	
1846	0	32764	32727	32539	32740	32775	32711	32511	32679	
1847	0	32764	32759	32775	32479	32786	32772	32471	32705	
1848	0	32784	32723	32791	32525	32694	32871	32551	32607	
1849	0	32831	32683	32602	32617	32647	32791	32559	32797	
1850	0	32819	32739	32823	32551	32659	32663	32784	32715	
1851	0	32746	32738	32854	32701	32675	32695	32759	32637	
1852	0	32750	32683	32740	32734	32751	32805	32775	32477	
1853	0	32714	32631	32631	32694	32703	32839	32759	32642	
1854	0	32775	32743	32626	32879	32799	32788	32796	32813	
1855	0	32811	32719	32615	32862	32791	32829	32763	32667	
1856	0	32797	32669	32743	32647	32679	32755	32551	32359	
1857	0	32819	32743	32725	32749	32763	32759	32767	32575	
1858	0	32766	32749	32694	32524	32729	32811	32831	32626	
1859	0	32820	32687	32741	32715	32731	32765	32710	32799	
1860	0	32799	32797	32683	32468	32823	32726	32597	32775	
1861	0	32769	32731	32773	32679	32687	32810	32534	32695	
1862	0	32751	32679	32845	32685	32655	32783	32758	32743	
1863	0	32735	32789	32691	32503	32765	32854	32795	32559	
1864	0	32703	32747	32751	32655	32847	32863	32799	32717	
1865	0	32730	32709	32691	32686	32787	32811	32927	32555	
1866	0	32745	32692	32669	32532	32775	32815	32761	32612	
1867	0	32721	32701	32703	32732	32743	32775	32685	32587	
1868	0	32745	32775	32743	32751	32751	32871	32639	32470	
1869	0	32764	32759	32646	32605	32889	32807	32773	32717	
1870	0	32726	32855	32710	32805	32847	32833	32846	32767	
1871	0	32743	32827	32738	32679	32949	32767	32756	32681	
1872	0	32717	32813	32691	32643	32943	32715	32694	32771	
1873	0	32684	32685	32724	32775	32783	32719	32833	32607	
1874	0	32691	32742	32681	32663	32663	32767	32700	32707	
1875	0	32708	32695	32739	32510	32741	32787	32595	32707	
1876	0	32796	32626	32717	32609	32731	32783	32757	32591	
1877	0	32725	32727	32679	32598	32635	32823	32775	32892	
1878	0	32688	32727	32709	32465	32687	32669	32743	32732	
1879	0	32729	32679	32735	32563	32771	32693	32903	32497	
1880	0	32758	32725	32711	32542	32747	32727	32717	32509	
1881	0	32793	32703	32817	32837	32620	32658	32695	32454	
1882	0	32854	32595	32780	32841	32647	32715	32820	32723	
1883	0	32780	32535	32543	32615	32758	32839	32731	32630	
1884	0	32775	32668	32679	32793	32845	32805	32708	32719	
1885	0	32788	32771	32701	32770	32809	32767	32799	32541	
1886	0	32743	32741	32487	32493	32846	32755	32903	32647	
1887	0	32759	32707	32668	32725	32815	32683	32891	32803	
1888	0	32678	32711	32660	32741	32711	32687	32871	32743	
1889	0	32703	32775	32583	32559	32851	32750	32743	32773	
1890	0	32708	32679	32694	32693	32807	32847	32589	32519	
1891	0	32742	32790	32727	32730	32859	32815	32786	32799	
1892	0	32775	32853	32587	32679	32861	32797	32806	32839	
1893	0	32812	32733	32756	32605	32845	32835	32749	32837	
1894	0	32775	32701	32803	32775	32858	32789	32796	32707	
1895	0	32743	32729	32858	32583	32855	32731	32832	32519	
1896	0	32722	32759	32749	32765	32837	32734	32803	32733	
1897	0	32719	32743	32783	32819	32893	32663	32807	32713	
1898	0	32800	32706	32788	32695	32807	32694	32647	32671	
1899	0	32775	32795	32623	32764	32736	32786	32721	32500	
1900	0	32727	32775	32765	32535	32687	32785	32837	32709	
1901	0	32763	32699	32773	32661	32711	32663	32831	32734	
1902	0	32819	32707	32763	32567	32773	32773	32799	32595	
1903	0	32852	32786	32743	32459	32711	32775	32937	32557	
1904	0	32823	32590	32708	32613	32814	32819	33031	32597	
1905	0	32775	32658	32679	32675	32733	32706	32871	32747	
1906	0	32793	32767	32677	32451	32767	32670	32739	32739	
1907	0	32866	32769	32564	32677	32724	32669	32475	32739	
1908	0	32740	32726	32399	32641	32723	32711	32287	32685	
1909	0	32775	32679	32526	32479	32679	32659	32310	32593	
1910	0	32735	32699	32612	32711	32660	32727	32445	32500	
1911	0	32793	32767	32703	32619	32807	32794	32538	32717	
1912	0	32769	32727	32543	32645	32892	32775	32788	32711	
1913	0	32775	32654	32749	32671	32765	32823	32747	32767	
1914	0	32769	32793	32681	32743	32748	32759	32749	32835	
1915	0	32706	32839	32590	32733	32807	32771	32859	32639	
1916	0	32663	32643	32695	32751	32883	32823	32949	32587	
1917	0	32719	32727	32767	32685	32935	32839	33031	32507	
1918	0	32721	32679	32677	32570	32940	32831	32937	32607	
1919	0	32698	32706	32740	32789	32843	32710	32781	32719	
1920	0	32781	32703	32821	32743	32767	32766	32639	32500	
1921	0	32793	32723	32823	32571	32695	32703	32868	32623	
1922	0	32747	32791	32734	32639	32669	32734	32723	32727	
1923	0	32775	32743	32839	32695	32749	32742	32807	32711	
1924	0	32845	32675	32787	32519	32685	32796	32799	32765	
1925	0	32798	32755	32805	32748	32647	32800	32802	32687	
1926	0	32756	32694	32647	32759	32675	32802	32757	32676	
1927	0	32775	32685	32671	32623	32673	32862	32721	32711	
1928	0	32775	32703	32854	32765	32764	32843	32923	32581	
1929	0	32751	32759	32715	32781	32775	32799	32677	32803	
1930	0	32784	32747	32763	32595	32813	32791	32582	32674	
1931	0	32718	32787	32835	32727	32791	32805	32565	32694	
1932	0	32738	32796	32647	32823	32719	32631	32583	32723	
1933	0	32744	32755	32711	32690	32671	32583	32789	32716	
1934	0	32810	32669	32716	32929	32631	32543	32775	32527	
1935	0	32771	32683	32703	32775	32750	32587	32833	32697	
1936	0	32767	32821	32755	32773	32837	32679	32874	32572	
1937	0	32726	32725	32804	32647	32755	32807	32903	32607	
1938	0	32737	32773	32703	32397	32735	32807	32711	32542	
1939	0	32769	32815	32715	32547	32718	32839	32565	32785	
1940	0	32790	32813	32837	32527	32699	32829	32564	32695	
1941	0	32854	32734	32767	32391	32631	32866	32814	32747	
1942	0	32755	32677	32686	32619	32669	32887	32837	32627	
1943	0	32833	32678	32658	32743	32751	32807	32711	32519	
1944	0	32751	32725	32759	32614	32811	32807	32741	32795	
1945	0	32816	32599	32790	32807	32807	32815	32882	32697	
1946	0	32774	32775	32783	32738	32859	32802	32935	32698	
1947	0	32769	32759	32839	32647	32935	32770	32867	32735	
1948	0	32709	32802	32681	32775	32959	32770	32821	32519	
1949	0	32747	32658	32643	32775	32751	32799	32655	32742	
1950	0	32780	32768	32708	32739	32775	32724	32549	32699	
1951	0	32807	32717	32671	32707	32814	32791	32557	32615	
1952	0	32716	32743	32791	32679	32799	32743	32625	32743	
1953	0	32775	32588	32739	32831	32815	32656	32647	32802	
1954	0	32814	32630	32623	32687	32775	32647	32646	32628	
1955	0	32748	32701	32659	32535	32793	32739	32703	32630	
1956	0	32706	32715	32511	32726	32719	32786	32735	32711	
1957	0	32707	32667	32594	32671	32791	32767	32775	32765	
1958	0	32751	32613	32679	32551	32787	32799	32711	32605	
1959	0	32732	32660	32711	32623	32646	32829	32645	32439	
1960	0	32726	32731	32619	32599	32647	32821	32591	32541	
1961	0	32774	32663	32604	32414	32599	32859	32831	32554	
1962	0	32796	32803	32577	32559	32605	32859	32855	32483	
1963	0	32767	32739	32687	32507	32581	32821	32765	32487	
1964	0	32720	32635	32647	32705	32859	32796	33051	32758	
1965	0	32732	32705	32751	32767	32943	32725	32962	32742	
1966	0	32775	32767	32797	32841	32895	32567	32639	32643	
1967	0	32737	32639	32871	32794	32831	32661	32639	32815	
1968	0	32783	32847	32903	32678	32775	32662	32742	32683	
1969	0	32679	32810	32851	32831	32754	32679	32663	32628	
1970	0	32719	32711	32853	32814	32827	32692	32837	32511	
1971	0	32763	32698	32595	32551	32797	32759	32959	32694	
1972	0	32824	32791	32639	32687	32814	32745	32925	32854	
1973	0	32823	32795	32683	32581	32735	32750	32791	32751	
1974	0	32832	32683	32599	32621	32725	32737	32719	32631	
1975	0	32812	32813	32513	32495	32727	32775	32677	32551	
1976	0	32713	32868	32599	32549	32631	32714	32869	32679	
1977	0	32735	32647	32665	32687	32631	32763	32851	32647	
1978	0	32720	32775	32783	32679	32671	32813	32694	32487	
1979	0	32754	32765	32883	32575	32827	32751	32678	32668	
1980	0	32756	32709	32810	32755	32797	32789	32754	32767	
1981	0	32808	32693	32757	32687	32849	32795	32718	32759	
1982	0	32762	32758	32671	32455	32813	32855	32647	32658	
1983	0	32748	32685	32731	32581	32772	32815	32637	32773	
1984	0	32749	32735	32738	32660	32807	32818	32725	32741	
1985	0	32710	32659	32519	32579	32783	32827	32685	32615	
1986	0	32739	32733	32732	32743	32717	32951	32773	32631	
1987	0	32816	32829	32759	32647	32775	32895	32863	32531	
1988	0	32779	32711	32879	32655	32791	32833	32783	32589	
1989	0	32762	32775	32805	32671	32775	32767	32767	32429	
1990	0	32804	32806	32831	32623	32615	32709	32833	32605	
1991	0	32740	32727	32877	32735	32611	32611	32839	32637	
1992	0	32733	32711	32826	32807	32541	32567	32722	32813	
1993	0	32708	32801	32647	32608	32623	32553	32581	32635	
1994	0	32711	32773	32679	32631	32742	32619	32611	32807	
1995	0	32808	32683	32687	32519	32807	32669	32613	32740	
1996	0	32736	32747	32612	32743	32839	32703	32655	32741	
1997	0	32771	32755	32659	32703	32767	32806	32631	32573	
1998	0	32801	32738	32663	32664	32836	32851	32613	32687	
1999	0	32775	32614	32519	32621	32796	32863	32711	32809	
2000	0	32823	32743	32615	32703	32771	32926	32691	32762	
2001	0	32844	32693	32573	32687	32823	32871	32647	32693	
2002	0	32699	32677	32607	32633	32823	32749	32700	32749	
2003	0	32726	32663	32739	32628	32727	32812	32821	32588	
2004	0	32748	32679	32745	32511	32835	32799	32733	32647	
2005	0	32721	32799	32675	32711	32919	32731	32747	32632	
2006	0	32751	32671	32790	32630	32817	32827	32647	32540	
2007	0	32767	32783	32759	32708	32775	32770	32859	32671	
2008	0	32831	32759	32756	32695	32818	32720	33185	32583	
2009	0	32751	32755	32775	32570	32748	32735	33232	32627	
2010	0	32739	32662	32783	32767	32891	32749	33014	32735	
2011	0	32802	32743	32679	32703	32855	32738	32831	32558	
2012	0	32839	32767	32798	32551	32719	32708	32835	32775	
2013	0	32764	32663	32725	32691	32703	32690	32915	32763	
2014	0	32784	32647	32666	32724	32751	32739	33131	32666	
2015	0	32741	32723	32754	32485	32799	32822	33015	32700	
2016	0	32731	32775	32671	32623	32810	32855	32783	32743	
2017	0	32786	32663	32759	32663	32695	32868	32626	32555	
2018	0	32788	32747	32791	32591	32667	32799	32500	32658	
2019	0	32793	32773	32749	32853	32647	32754	32415	32787	
2020	0	32756	32665	32543	32751	32735	32726	32463	32839	
2021	0	32700	32758	32611	32742	32783	32761	32605	32567	
2022	0	32769	32751	32589	32797	32879	32749	32735	32569	
2023	0	32710	32675	32721	32887	32702	32820	32764	32301	
2024	0	32760	32751	32773	32833	32683	32807	32722	32436	
2025	0	32732	32727	32715	32633	32763	32718	32739	32511	
2026	0	32743	32679	32775	32734	32809	32765	32673	32765	
2027	0	32780	32611	32762	32559	32755	32805	32599	32691	
2028	0	32815	32718	32711	32727	32747	32839	32647	32692	
2029	0	32736	32743	32671	32677	32611	32789	32674	32540	
2030	0	32722	32623	32809	32497	32753	32687	32607	32684	
2031	0	32690	32695	32775	32727	32743	32717	32607	32775	
2032	0	32740	32726	32839	32718	32630	32815	32568	32798	
2033	0	32724	32847	32863	32582	32551	32809	32631	32517	
2034	0	32729	32671	32804	32319	32607	32862	32623	32543	
2035	0	32734	32729	32708	32463	32769	32743	32765	32647	
2036	0	32826	32839	32726	32319	32807	32646	32809	32669	
2037	0	32751	32667	32623	32511	32791	32647	32805	32715	
2038	0	32703	32767	32741	32551	32707	32753	32775	32607	
2039	0	32775	32759	32577	32647	32703	32773	32791	32595	
2040	0	32809	32727	32641	32863	32683	32843	32797	32455	
2041	0	32809	32738	32695	32855	32671	32796	32775	32751	
2042	0	32761	32773	32709	32846	32807	32893	32783	32681	
2043	0	32735	32775	32545	32855	32775	32873	32687	32678	
2044	0	32760	32647	32652	32671	32715	32895	32557	32540	
2045	0	32770	32767	32767	32748	32657	32861	32629	32687	
2046	0	32775	32751	32647	32773	32742	32855	32575	32642	
2047	0	32766	32727	32681	32676	32799	32769	32639	32709	
2048	0	32766	32861	32598	32855	32871	32823	32695	32623	
2049	0	32726	32810	32610	32759	32843	32771	32647	32835	
2050	0	32751	32719	32759	32663	32771	32757	32767	32679	
2051	0	32734	32743	32751	32687	32807	32804	32804	32647	
2052	0	32810	32679	32571	32679	32847	32836	32749	32525	
2053	0	32799	32663	32587	32623	32867	32750	32775	32690	
2054	0	32814	32722	32775	32603	32791	32690	32734	32815	
2055	0	32775	32839	32683	32549	32674	32738	32742	32727	
2056	0	32827	32671	32692	32647	32957	32791	32891	32674	
2057	0	32788	32787	32693	32663	32903	32775	32719	32627	
2058	0	32733	32775	32787	32633	32787	32789	32615	32631	
2059	0	32743	32641	32833	32687	32775	32730	32755	32743	
2060	0	32679	32707	32719	32559	32918	32739	32666	32631	
2061	0	32697	32685	32791	32631	32737	32735	32673	32721	
2062	0	32722	32643	32806	32450	32815	32695	32763	32596	
2063	0	32775	32669	32724	32666	32673	32749	32727	32687	
2064	0	32708	32671	32654	32671	32701	32819	32771	32487	
2065	0	32743	32733	32764	32463	32735	32837	32821	32791	
2066	0	32768	32661	32802	32615	32863	32903	32927	32640	
2067	0	32701	32799	32644	32749	32893	32735	32940	32727	
2068	0	32663	32734	32715	32754	32939	32756	32995	32609	
2069	0	32737	32715	32702	32727	32902	32735	32918	32599	
2070	0	32731	32665	32721	32679	32695	32747	32767	32839	
2071	0	32820	32787	32715	32758	32667	32803	32679	32791	
2072	0	32813	32791	32749	32706	32735	32764	32662	32692	
2073	0	32751	32647	32743	32564	32559	32794	32661	32763	
2074	0	32701	32814	32663	32813	32524	32863	32581	32549	
2075	0	32733	32711	32743	32711	32607	32775	32695	32541	
2076	0	32766	32647	32719	32573	32683	32713	32793	32631	
2077	0	32717	32775	32655	32594	32823	32775	32762	32655	
2078	0	32772	32727	32711	32564	32806	32860	32511	32783	
2079	0	32796	32763	32687	32679	32735	32743	32367	32687	
2080	0	32789	32723	32775	32479	32647	32826	32551	32479	
2081	0	32740	32623	32711	32500	32835	32833	32596	32629	
2082	0	32802	32735	32609	32315	32647	32821	32871	32581	
2083	0	32822	32773	32757	32617	32615	32807	33140	32670	
2084	0	32887	32641	32775	32775	32723	32791	33029	32566	
2085	0	32815	32721	32687	32658	32723	32743	32844	32775	
2086	0	32797	32703	32699	32751	32807	32740	32695	32707	
2087	0	32834	32631	32655	32657	32823	32719	32871	32703	
2088	0	32814	32775	32615	32791	32852	32737	32871	32596	
2089	0	32770	32795	32591	32775	32807	32733	32825	32719	
2090	0	32723	32683	32670	32759	32817	32769	32911	32765	
2091	0	32785	32791	32770	32743	32960	32783	32726	32831	
2092	0	32677	32679	32775	32530	32923	32823	32561	32495	
2093	0	32728	32807	32703	32647	32703	32819	32558	32419	
2094	0	32757	32878	32699	32581	32611	32789	32719	32475	
2095	0	32800	32775	32718	32703	32695	32839	32769	32630	
2096	0	32730	32767	32733	32759	32803	32697	32891	32679	
2097	0	32788	32679	32773	32758	32879	32735	32687	32627	
2098	0	32745	32720	32719	32711	32739	32749	32586	32655	
2099	0	32813	32659	32676	32588	32685	32859	32669	32639	
2100	0	32775	32689	32647	32755	32804	32739	32709	32775	
2101	0	32679	32732	32811	32621	32838	32772	32847	32764	
2102	0	32727	32612	32787	32683	32735	32723	32719	32659	
2103	0	32692	32694	32879	32591	32839	32679	32903	32801	
2104	0	32714	32615	32863	32759	32751	32793	32863	32789	
2105	0	32815	32711	32815	32631	32606	32863	32791	32611	
2106	0	32770	32845	32775	32605	32703	32791	32911	32775	
2107	0	32855	32766	32803	32647	32719	32687	32959	32719	
2108	0	32762	32819	32763	32658	32693	32769	32682	32646	
2109	0	32717	32621	32605	32694	32607	32727	32532	32647	
2110	0	32757	32759	32532	32640	32723	32755	32743	32669	
2111	0	32811	32823	32615	32743	32847	32694	32751	32563	
2112	0	32765	32647	32607	32533	32687	32734	32695	32620	
2113	0	32799	32727	32599	32613	32557	32783	32617	32584	
2114	0	32797	32623	32623	32682	32659	32767	32479	32755	
2115	0	32740	32723	32683	32763	32755	32695	32797	32642	
2116	0	32678	32620	32619	32590	32619	32762	32717	32468	
2117	0	32742	32789	32699	32730	32828	32775	32790	32535	
2118	0	32773	32685	32647	32583	32775	32767	32707	32498	
2119	0	32838	32719	32709	32669	32725	32738	32893	32667	
2120	0	32780	32775	32708	32551	32729	32725	32815	32647	
2121	0	32815	32615	32695	32684	32791	32723	32885	32815	
2122	0	32800	32775	32826	32695	32731	32775	32911	32598	
2123	0	32732	32796	32703	32578	32781	32722	32971	32742	
2124	0	32686	32635	32667	32628	32903	32743	32707	32685	
2125	0	32727	32703	32710	32516	32963	32757	32443	32647	
2126	0	32708	32635	32759	32632	32795	32708	32567	32667	
2127	0	32762	32786	32807	32543	32743	32594	32823	32679	
2128	0	32713	32789	32785	32567	32745	32671	32822	32743	
2129	0	32773	32765	32862	32549	32689	32739	32707	32706	
2130	0	32725	32745	32731	32677	32597	32695	32527	32592	
2131	0	32734	32694	32767	32563	32671	32742	32751	32731	
2132	0	32701	32761	32669	32696	32851	32767	32807	32671	
2133	0	32731	32727	32691	32575	32895	32747	32775	32647	
2134	0	32727	32831	32684	32723	32854	32743	32846	32605	
2135	0	32720	32829	32679	32727	32769	32742	32748	32643	
2136	0	32754	32741	32773	32694	32703	32795	32758	32663	
2137	0	32797	32751	32751	32655	32643	32823	32701	32694	
2138	0	32817	32683	32743	32527	32787	32863	32786	32823	
2139	0	32820	32700	32751	32647	32807	32855	32707	32677	
2140	0	32829	32711	32631	32763	32775	32734	32622	32595	
2141	0	32807	32659	32747	32742	32703	32735	32775	32685	
2142	0	32769	32621	32679	32743	32742	32740	32706	32597	
2143	0	32778	32783	32711	32548	32743	32751	32575	32519	
2144	0	32809	32703	32758	32583	32855	32766	32623	32739	
2145	0	32830	32821	32666	32579	32879	32863	32667	32582	
2146	0	32839	32787	32653	32742	32831	32887	32903	32535	
2147	0	32786	32629	32773	32629	32860	32831	32892	32553	
