# OpenSignals Text File Format
# {"00:07:80:3B:46:38": {"sensor": ["CUSTOM/0.5/1.0/V", "CUSTOM/0.5/1.0/V", "CUSTOM/0.5/1.0/V", "CUSTOM/0.5/1.0/V", "CUSTOM/0.5/1.0/V", "CUSTOM/0.5/1.0/V", "CUSTOM/0.5/1.0/V", "CUSTOM/0.5/1.0/V"], "device name": "EMGs", "column": ["nSeq", "DI", "RA_L", "RA_R", "OE_L", "OE:R", "IL_L", "IL_R", "MF_L", "MF_R"], "sync interval": 2, "time": "10:13:58.663", "comments": "", "device connection": "BTH00:07:80:3B:46:38", "channels": [1, 2, 3, 4, 5, 6, 7, 8], "date": "2017-6-2", "mode": 0, "digital IO": [0, 1], "firmware version": 772, "device": "biosignalsplux", "position": 0, "sampling rate": 1000, "label": ["RA_L", "RA_R", "OE_L", "OE:R", "IL_L", "IL_R", "MF_L", "MF_R"], "resolution": [16, 16, 16, 16, 16, 16, 16, 16], "special": [{}, {}, {}, {}, {}, {}, {}, {}]}}
# EndOfHeader
0	0	32700	32684	32530	32806	32711	32507	32805	32635	
1	0	32687	32852	32967	32811	32813	32557	32764	32639	
2	0	32615	32892	33127	32855	32749	32485	32829	32689	
3	0	32551	32457	32935	32827	32767	32527	32799	32611	
4	0	32565	32417	32661	32773	33027	32463	32595	32583	
5	0	32484	32399	32557	33126	32775	32455	32638	32716	
6	0	32558	32295	32239	33069	32785	32511	32646	32629	
7	0	32738	32406	32111	33235	32754	32533	32791	32566	
8	0	32731	32551	32431	33147	32767	32527	32799	32674	
9	0	32903	32699	32163	32729	32614	32503	32756	32503	
10	0	33076	32711	32135	32467	32793	32621	32775	32709	
11	0	33167	32703	32301	32431	32703	32638	32747	32727	
12	0	33212	32639	32764	32357	32706	32476	32838	32554	
13	0	33097	32847	32794	32289	32691	32391	32823	32723	
14	0	33057	32919	32876	32210	32759	32519	32791	32679	
15	0	33005	32847	32891	31996	32819	32645	32722	32671	
16	0	33027	32583	33200	31662	32655	32723	32690	32623	
17	0	32775	32775	33031	31815	32721	32717	32769	32725	
18	0	32749	32835	32983	31969	32793	32615	32689	32735	
19	0	32742	32742	32815	32135	32943	32571	32789	32841	
20	0	32729	32686	32663	32511	32815	32511	32795	32636	
21	0	32695	32903	32735	32887	32743	32751	32824	32799	
22	0	32580	33028	32471	33315	32799	32699	32775	32737	
23	0	32557	32767	32383	33549	32519	32821	32694	32489	
24	0	32672	32903	32695	33641	32715	32631	32855	32495	
25	0	32522	32930	32746	33831	32837	32539	32815	32479	
26	0	32559	32903	32551	33959	32951	32620	32767	32519	
27	0	32612	32781	32519	33927	32935	32543	32786	32604	
28	0	32646	32957	32687	33771	33471	32454	32806	32799	
29	0	32647	33022	32691	33635	33087	32502	32863	32343	
30	0	32628	33023	32716	33337	33215	32588	32562	32580	
31	0	32628	32785	32943	32855	32967	32865	32716	32791	
32	0	32647	32982	32701	32530	31629	32731	32743	32423	
33	0	32712	32895	32977	32390	32025	32891	32454	32575	
34	0	32684	32983	33017	32206	33291	33028	32706	33250	
35	0	32647	33069	32826	32295	33143	32821	32763	33007	
36	0	32583	32883	32804	32263	32075	32679	32638	32689	
37	0	32634	32719	32692	32457	32925	32717	33171	32697	
38	0	32722	32717	32759	32637	34435	33014	33012	32835	
39	0	32602	32877	32627	32839	33135	32887	32756	32582	
40	0	32597	32709	32391	32740	32498	32775	32903	32730	
41	0	32474	32876	32295	32703	32477	32731	32682	32658	
42	0	32633	32892	32433	32537	31635	32885	32678	32573	
43	0	32658	32794	32603	32326	31877	33011	32662	32679	
44	0	32750	32867	32548	32237	32343	33031	32726	32607	
45	0	32767	32855	32729	32291	32031	32922	32732	32455	
46	0	32712	32883	32500	32229	32602	32953	32637	32646	
47	0	32620	32749	32463	32219	32818	32951	32695	32546	
48	0	32663	32879	32749	32407	32850	32799	32709	32549	
49	0	32607	32826	32947	32607	32879	32832	32639	32615	
50	0	32639	32756	33322	32563	32782	32858	32727	32589	
51	0	32690	32644	33657	32500	32708	32717	32821	32615	
52	0	32829	32903	33167	32516	32956	32807	32669	32597	
53	0	32852	32950	32607	32479	32894	32847	32647	32503	
54	0	32834	32739	31967	32687	32950	32826	32619	32583	
55	0	32847	32879	31698	32741	32823	32827	32804	32647	
56	0	32749	32903	31670	32767	32900	32559	32827	32603	
57	0	32671	33023	31559	32819	32823	32583	32775	32669	
58	0	32576	32708	32105	32790	32932	32743	32655	32690	
59	0	32578	32847	32607	32725	32887	32599	32846	32805	
60	0	32491	32889	32793	32687	32983	32555	32795	32661	
61	0	32455	32869	32989	32722	32855	32437	32787	32615	
62	0	32539	32605	32964	32818	32911	32482	32839	32847	
63	0	32708	32722	33013	32747	32775	32223	32813	32807	
64	0	32732	32767	32626	32837	32796	32382	32773	32719	
65	0	32839	32740	32723	32930	32783	32503	32669	32658	
66	0	32846	32878	32847	33043	32802	32492	32769	32662	
67	0	32918	32667	32669	32813	32687	32229	32855	32619	
68	0	32988	32839	32610	32696	32749	32175	32855	32647	
69	0	32911	32925	32605	32590	32807	32378	32814	32612	
70	0	32848	32959	32706	32531	32945	32439	32663	32725	
71	0	32886	32722	32765	32623	32819	32255	32647	32795	
72	0	32857	32831	32798	32541	32743	32423	32775	32663	
73	0	32888	32742	32630	32404	32831	32468	32711	32890	
74	0	32886	32839	32573	32415	32875	32535	32723	32775	
75	0	32687	32695	32690	32479	32962	32639	32745	32643	
76	0	32729	32859	32657	32549	32846	32633	32743	32451	
77	0	32791	32815	32436	32711	32755	32491	32771	32679	
78	0	32755	32673	32547	32991	32647	32582	32700	32601	
79	0	32773	32524	32727	33055	32641	32735	32839	32745	
80	0	32690	32822	32679	33211	32845	32771	32790	32681	
81	0	32759	32741	32799	33255	32806	32727	32764	32646	
82	0	32852	32493	33010	33233	32775	32871	32927	32722	
83	0	32793	32799	32873	33295	32867	32876	32914	32730	
84	0	32855	32807	32758	33220	32939	32845	32804	32543	
85	0	32796	32623	32671	33004	33002	32850	32730	32667	
86	0	32775	32807	32767	32927	32675	32983	32619	32687	
87	0	32764	32860	32647	32843	32489	33023	32677	32611	
88	0	32709	33023	32628	32711	32300	32967	32605	32543	
89	0	32757	32700	32462	32613	32802	33129	32901	32662	
90	0	32782	32807	32583	32399	32892	33271	33083	32685	
91	0	32815	32914	32661	32423	32785	33329	32731	32829	
92	0	32756	32703	32733	32539	32613	33221	32707	32663	
93	0	32657	32877	32838	32607	32589	33104	32807	32695	
94	0	32595	32895	32863	32583	32843	33019	32695	32721	
95	0	32698	32820	32919	32502	32900	33066	32700	32867	
96	0	32753	32703	33007	32391	32871	33143	32751	32602	
97	0	32807	32542	32749	32558	32850	33086	32806	32655	
98	0	32789	32727	32507	32613	32939	33019	32785	32757	
99	0	32770	32739	32236	32723	32810	32903	32770	32735	
100	0	32802	32623	32254	32850	32717	32919	32831	32748	
101	0	32820	32796	32434	32954	32742	32857	32759	32533	
102	0	32868	32773	32643	32939	32682	32756	32637	32533	
103	0	32911	32739	32708	32910	32855	32660	32700	32738	
104	0	32935	32585	32733	32957	32855	32823	32759	32773	
105	0	32892	32647	32793	32903	32774	32804	32743	32725	
106	0	32769	32763	32706	32943	32823	32859	32734	32775	
107	0	32687	32550	32391	32578	32793	32682	32769	32615	
108	0	32671	32775	32640	32609	32741	32743	32738	32599	
109	0	32679	32631	32542	32679	32695	32620	32887	32564	
110	0	32799	32743	32468	32709	32695	32629	32803	32591	
111	0	32848	32855	32418	32838	32843	32647	32815	32647	
112	0	32858	32611	32329	32831	32771	32612	32713	32596	
113	0	32850	32775	32356	32615	32741	32543	32733	32631	
114	0	32861	32815	32497	32748	32815	32620	32837	32670	
115	0	32791	32607	32559	32633	32893	32499	32728	32775	
116	0	32695	32844	32903	32461	32943	32429	32613	32639	
117	0	32687	32687	33011	32463	32775	32601	32759	32519	
118	0	32690	32786	32941	32533	32797	32610	32743	32671	
119	0	32655	32807	32647	32403	32733	32658	32655	32853	
120	0	32566	32751	32327	32431	32631	32636	32809	32724	
121	0	32617	32497	32287	32615	32731	32883	32925	32679	
122	0	32803	32711	32351	32595	32711	32939	32815	32698	
123	0	32935	32738	32709	32685	32675	32679	32770	32551	
124	0	32909	32594	32729	32883	32727	32667	32855	32551	
125	0	32781	32767	32493	32999	32747	32678	32839	32671	
126	0	32876	32687	32677	33047	32839	32627	32691	32788	
127	0	32760	32559	32723	33031	32839	32518	32580	32758	
128	0	32667	32738	32775	33095	32743	32639	32749	32759	
129	0	32630	32773	32685	32903	32773	32723	32835	32479	
130	0	32745	32813	32981	32741	32766	32802	32725	32668	
131	0	32762	32683	32822	32559	32855	32772	32855	32695	
132	0	32941	32573	32766	32442	32763	32719	32735	32615	
133	0	33085	32765	32804	32333	32803	32795	32855	32711	
134	0	33087	32799	32893	32211	32524	32941	32881	32791	
135	0	33046	32799	32787	32455	32802	33127	32767	32769	
136	0	32934	32639	32399	32671	32715	32989	32839	32749	
137	0	32832	32827	32411	32413	32732	33062	32738	32527	
138	0	32694	32821	32605	31959	32858	32791	32745	32567	
139	0	32836	32587	33005	31907	32771	32254	32751	32671	
140	0	32887	32835	33210	32103	32843	32323	32811	32555	
141	0	32758	32847	33076	32581	32813	32503	32734	32637	
142	0	32793	32827	32726	33063	32743	32796	32807	32547	
143	0	32860	32620	32448	33431	32823	32711	32758	32551	
144	0	32837	32734	32525	33525	32659	32700	32740	32679	
145	0	32839	32733	32425	34039	32687	32658	32869	32719	
146	0	32783	32707	32262	34194	32845	32695	32756	32615	
147	0	32639	32639	32317	34331	32833	32461	32733	32679	
148	0	32655	32871	32423	34479	32853	32409	32819	32555	
149	0	32657	32995	32407	34311	32839	32366	32811	32595	
150	0	32675	32666	32495	34079	32827	32436	32725	32629	
151	0	32647	32797	32592	33474	32614	32383	32827	32655	
152	0	32687	32831	32527	32943	32671	32279	32819	32655	
153	0	32679	32709	32655	32611	32959	32517	32751	32619	
154	0	32786	32803	32770	32511	32871	32557	32695	32631	
155	0	32784	32711	32831	32231	32765	32511	32673	32581	
156	0	32775	32923	32719	32199	32687	32493	32676	32799	
157	0	32817	32843	32735	32283	32839	32455	32771	32702	
158	0	32765	32460	32565	32489	32775	32503	32647	32697	
159	0	32694	32489	32455	32519	32883	32467	32726	32668	
160	0	32745	32739	32711	32471	32732	32483	32755	32727	
161	0	32765	32811	32788	32349	32775	32531	32805	32615	
162	0	32748	32903	32818	32158	32739	32466	32775	32487	
163	0	32805	32893	32903	32095	32823	32539	32735	32707	
164	0	32773	32726	32887	32135	32824	32581	32688	32630	
165	0	32744	32628	32687	32077	32811	32595	32788	32719	
166	0	32758	32790	32734	32292	32775	32501	32799	32559	
167	0	32873	32833	32839	32391	32843	32525	32758	32775	
168	0	32825	32642	32887	32367	32833	32551	32799	32755	
169	0	32798	32773	33125	32333	32599	32599	32847	32596	
170	0	32812	32755	33287	32271	32851	32583	32775	32701	
171	0	32813	32719	33103	32363	32817	32451	32877	32591	
172	0	32767	32516	33045	32391	32743	32559	32935	32407	
173	0	32796	32757	33127	32391	32681	32569	32751	32703	
174	0	32810	32717	32925	32450	32755	32562	32637	32623	
175	0	32823	32687	32471	32534	32783	32602	32739	32742	
176	0	32739	32583	31975	32550	32742	32839	32633	32820	
177	0	32602	32799	31799	32521	33071	32871	32611	32747	
178	0	32631	32933	31839	32510	32878	32847	32694	32718	
179	0	32598	32783	31822	32525	32859	32815	32662	32821	
180	0	32587	32655	31747	32695	32847	32775	32747	32775	
181	0	32601	32775	31727	32942	32775	32703	32714	32799	
182	0	32687	32743	31846	32970	32519	32755	32757	32647	
183	0	32744	32869	32015	32962	32692	32613	32689	32644	
184	0	32769	32647	32011	32823	32645	32551	32671	32671	
185	0	32899	32847	32191	32531	32663	32711	32834	32695	
186	0	32819	32919	32423	32436	32815	32603	32743	32687	
187	0	32804	32805	32658	32415	32783	32647	32784	32647	
188	0	32871	32543	32595	32637	32802	32615	32797	32655	
189	0	32584	32695	32620	32962	32799	32823	32693	32677	
190	0	32558	32797	32571	33444	32823	32971	32775	32674	
191	0	32758	32698	32638	33537	32663	32885	32713	32495	
192	0	32829	32613	32687	33404	32733	32937	32727	32625	
193	0	32715	32763	32887	33058	32773	32749	32783	32663	
194	0	32786	32773	33117	32923	32858	32846	32775	32631	
195	0	32846	32733	33267	32527	32775	32751	32802	32715	
196	0	32712	32894	33150	32287	32789	32819	32822	32575	
197	0	32762	32863	32975	32127	32775	32870	32748	32564	
198	0	32783	32591	32895	32039	32677	32893	32711	32681	
199	0	32887	32758	33006	32511	32767	32832	32810	32647	
200	0	33012	32983	33129	33043	32698	32793	32758	32699	
201	0	32965	32725	33181	33606	32751	32684	32743	32645	
202	0	32959	32614	33452	33415	32713	32767	32739	32647	
203	0	32943	32735	33479	33019	32835	32830	32739	32623	
204	0	32749	32613	33167	32893	32791	32691	32743	32549	
205	0	32720	32758	32767	32821	32764	32655	32827	32670	
206	0	32756	32823	32625	32887	32718	32638	32823	32543	
207	0	32761	32893	32566	32567	32747	32591	32807	32706	
208	0	32768	32583	32191	32155	32825	32647	32797	32671	
209	0	32539	32823	32037	31959	32775	32575	32820	32713	
210	0	32413	32859	31961	31935	32815	32565	32743	32667	
211	0	32514	33023	31830	32343	32643	32647	32690	32762	
212	0	32636	32731	32125	32402	32714	32643	32784	32711	
213	0	32639	32871	32495	32743	32687	32677	32629	32647	
214	0	32740	32935	32859	33323	32843	32503	32743	32567	
215	0	32823	32619	32832	33463	32775	32573	32695	32591	
216	0	32846	32603	32391	33689	32807	32655	32711	32687	
217	0	32932	32633	32506	33671	32787	32755	32775	32535	
218	0	32982	32647	33061	33507	32799	32692	32683	32662	
219	0	32885	32631	32989	33211	32847	32567	32839	32583	
220	0	32844	32843	32535	33047	32775	32847	32769	32726	
221	0	32799	32967	32343	32663	32734	32850	32734	32639	
222	0	32799	32943	32434	32507	32722	32897	32644	32647	
223	0	32829	32775	32591	32375	32809	32634	32679	32747	
224	0	32732	33026	32689	32319	32703	32863	32751	32811	
225	0	32667	32991	32831	32409	32862	32820	32671	32746	
226	0	32682	32751	32843	32589	32719	32773	32694	32569	
227	0	32690	32665	32767	32671	32854	32547	32739	32707	
228	0	32702	32861	32795	32735	32703	32431	32717	32615	
229	0	32686	32845	32956	32903	32861	32459	32819	32507	
230	0	32730	32803	32775	32967	32775	32711	32804	32543	
231	0	32640	32586	32639	32967	32743	32843	32741	32727	
232	0	32660	32735	32727	32805	32759	32732	32767	32691	
233	0	32746	32751	32791	32748	32828	32605	32754	32503	
234	0	32755	32864	32743	32855	32783	32615	32814	32702	
235	0	32761	32655	32756	32823	32807	32663	32799	32663	
236	0	32734	32759	32839	32773	32759	32579	32943	32621	
237	0	32767	32811	32950	32724	32710	32493	32815	32615	
238	0	32756	32873	32767	32647	32759	32391	32788	32590	
239	0	32703	32757	32823	32733	32795	32451	32719	32681	
240	0	32717	32679	32771	32679	32711	32455	32758	32643	
241	0	32734	32885	32669	32667	32745	32479	32759	32507	
242	0	32724	32891	32570	32676	32804	32470	32731	32565	
243	0	32732	32935	32525	32631	32835	32575	32751	32607	
244	0	32733	32661	32429	32527	32903	32585	32699	32657	
245	0	32749	32839	32423	32487	32914	32598	32759	32604	
246	0	32692	32877	32333	32434	32835	32724	32685	32591	
247	0	32593	32901	32245	32331	32772	32677	32710	32695	
248	0	32722	32583	32438	32294	32743	32843	32722	32749	
249	0	32770	32775	32692	32407	32743	32740	32769	32703	
250	0	32701	32867	32627	32590	32865	32819	32743	32815	
251	0	32739	32741	32639	32705	32775	32935	32663	32795	
252	0	32804	32629	32719	32807	32765	32983	32815	32871	
253	0	32829	32783	32743	32853	32679	32903	32811	32690	
254	0	32769	32883	32679	32861	32769	32953	32767	32540	
255	0	32838	32679	32627	32775	32775	32962	32839	32668	
256	0	32850	32662	32631	32675	32852	32939	32709	32692	
257	0	32792	32893	32655	32610	32807	33031	32804	32771	
258	0	32758	32975	32667	32467	32847	32869	32759	32631	
259	0	32684	32727	32403	32343	32765	32819	32825	32690	
260	0	32647	32813	32423	32502	32966	32869	32852	32580	
261	0	32604	32838	32530	32391	32739	32775	32765	32605	
262	0	32698	32766	32601	32245	32730	32592	32841	32487	
263	0	32751	32547	32554	31927	32631	32639	32799	32655	
264	0	32903	32470	32859	31759	32767	32633	32806	32823	
265	0	32907	32715	32839	32173	32823	32662	32786	32797	
266	0	32961	32567	33031	32767	32870	32751	32807	32762	
267	0	32893	32759	33102	33338	32791	32877	32855	32711	
268	0	32745	32869	33188	33765	32807	32667	32706	32883	
269	0	32734	32788	32731	34118	32589	32611	32789	32685	
270	0	32793	32635	32835	34361	32621	32605	32838	32567	
271	0	32855	32797	32655	34600	32742	32554	32858	32615	
272	0	33004	32843	32095	34901	32786	32679	32775	32745	
273	0	32880	32647	32053	34938	32849	32727	32773	32635	
274	0	32887	32903	32127	34478	32790	32713	32775	32677	
275	0	32935	33015	32220	34031	32787	32850	32692	32590	
276	0	32878	33023	32367	33518	32791	32785	32730	32783	
277	0	32724	32855	32369	33099	32841	32903	32711	32703	
278	0	32720	33083	32357	32673	32719	32852	32855	32807	
279	0	32608	32964	32239	32127	32741	32788	32823	32567	
280	0	32554	33093	32583	31746	32751	32698	32819	32674	
281	0	32664	32809	32847	31717	32599	32775	32771	32796	
282	0	32759	32791	33151	31629	32751	32919	32748	32671	
283	0	32789	32711	33321	31725	32798	32823	32698	32667	
284	0	32759	32673	33093	31959	32807	32773	32678	32741	
285	0	32795	32711	32989	32263	32848	32761	32727	32711	
286	0	32692	32747	32487	32529	32811	32799	32713	32733	
287	0	32696	32549	32442	32739	32887	32711	32711	32775	
288	0	32564	32541	32163	32710	32594	32695	32692	32471	
289	0	32596	32820	32339	32711	32783	32642	32790	32590	
290	0	32645	33031	32835	32855	32743	32810	32823	32523	
291	0	32685	32961	33065	33019	32903	32708	32813	32641	
292	0	32772	32647	33254	33013	32863	32683	32747	32601	
293	0	32832	32783	33151	32765	32943	32532	32640	32647	
294	0	32871	32821	32763	32853	32843	32687	32690	32627	
295	0	32900	32629	32642	32874	32701	32915	32687	32466	
296	0	32876	32822	32606	32903	32807	32769	32803	32630	
297	0	32789	32862	32719	32709	32750	32743	32664	32399	
298	0	32660	32815	32916	32638	32677	32765	32743	32647	
299	0	32769	32655	33031	32577	32659	32615	32806	32675	
300	0	32836	32715	33159	32707	32866	32682	32850	32643	
301	0	32751	32745	32959	32788	32775	32638	32607	32837	
302	0	32727	33009	32966	32669	32838	32762	32724	32775	
303	0	32635	32815	32463	32662	32823	32949	32631	32599	
304	0	32606	32685	31772	32578	32838	32917	32775	32775	
305	0	32685	32863	31439	32493	32851	32811	32738	32868	
306	0	32928	32863	31661	32391	32783	32875	32845	32845	
307	0	32894	32867	31967	32420	32587	32791	32836	32681	
308	0	32818	32691	32193	32538	32791	32879	32935	32833	
309	0	32791	32925	32263	32582	32627	32959	32759	32775	
310	0	32714	32867	32343	32586	32642	32863	32767	32697	
311	0	32820	32724	32623	32621	32877	32858	32839	32582	
312	0	32805	32751	32765	32647	32898	32691	32799	32696	
313	0	32783	32762	33079	32663	32724	32715	32950	32575	
314	0	32615	32975	33129	32642	32727	32911	32867	32387	
315	0	32647	32742	33170	32623	32879	32895	32959	32355	
316	0	32669	32622	33414	32983	32615	32827	33006	32647	
317	0	32732	32695	33254	33495	32791	32739	32957	32519	
318	0	32767	32647	32842	33965	32732	32645	32647	32534	
319	0	32838	32647	32250	33839	33006	32756	32598	32567	
320	0	32730	32499	31878	33555	32890	32879	32638	32738	
321	0	32601	32679	31815	33127	32946	32820	32689	32583	
322	0	32660	32759	32191	32990	32916	32769	32756	32675	
323	0	32666	32834	32587	32919	32911	32799	32747	32575	
324	0	32646	32863	32798	32663	32801	32841	32822	32659	
325	0	32727	32759	32887	32159	32833	32705	32735	32601	
326	0	32679	32927	32919	31751	32703	32645	32794	32503	
327	0	32677	32990	32666	31891	32823	32589	32725	32565	
328	0	32708	32935	33182	31915	32845	32605	32640	32623	
329	0	32630	32943	34069	32149	32850	32570	32724	32527	
330	0	32632	32898	34375	32505	32679	32715	32769	32647	
331	0	32775	32479	34164	33029	32702	32701	32753	32675	
332	0	32566	32597	32999	33283	32773	32903	32576	32675	
333	0	32748	32715	31991	33334	32759	32767	32615	32703	
334	0	33135	32660	31359	33479	32619	32647	32813	32621	
335	0	33187	32594	30997	33618	32687	32706	32695	32647	
336	0	32991	32549	31227	33598	32622	32703	32751	32863	
337	0	32968	32455	31786	33226	32748	32759	32708	32826	
338	0	32965	32481	32001	32885	32683	32775	32762	32711	
339	0	32914	32759	32221	32844	32739	32821	32737	32809	
340	0	32821	32835	32543	32623	32839	32775	32835	32839	
341	0	32810	32867	32674	32516	32807	32763	32807	32860	
342	0	32835	32870	32951	32355	32813	32894	32811	32823	
343	0	32754	32647	32733	32489	32765	32731	32775	32743	
344	0	32718	32571	32710	32711	32764	32643	32879	32586	
345	0	32720	32732	32965	32742	32769	32741	32862	32631	
346	0	32694	32854	33373	32692	32820	32763	32795	32786	
347	0	32601	32925	33959	32743	32911	32502	32679	32767	
348	0	32569	32847	34658	32647	32903	32351	32628	32519	
349	0	32620	32743	34764	32497	32790	32411	32700	32804	
350	0	32655	32837	34199	32075	32775	32535	32687	32755	
351	0	32830	32797	33245	31892	32711	32679	32743	32671	
352	0	33024	32679	32157	32271	32775	32759	32749	32529	
353	0	32751	32348	31380	33065	32852	32827	32500	32750	
354	0	32701	32306	30338	33854	32871	32807	32607	32821	
355	0	32664	32671	30319	34009	32790	32715	32731	32663	
356	0	32596	32687	30973	33519	32819	32767	32791	32742	
357	0	32558	32791	31571	33409	32647	32839	32751	32735	
358	0	32661	32735	32087	33367	32631	32887	32775	32559	
359	0	32685	32571	32421	33215	32751	32847	32687	32639	
360	0	32686	32475	32508	32924	32956	32819	32717	32533	
361	0	32677	32693	32660	32758	32745	32766	32666	32513	
362	0	32901	32647	32617	32455	32799	32679	32725	32299	
363	0	32934	32711	32679	32364	32839	32560	32645	32487	
364	0	32858	32562	32571	32295	32923	32551	32735	32567	
365	0	32730	32523	32587	32303	32997	32687	32715	32583	
366	0	32746	32599	32903	32415	32899	32839	32679	32663	
367	0	32731	32620	32853	32423	32615	32867	32823	32564	
368	0	32758	32655	32995	32306	32695	32889	32948	32629	
369	0	32748	32715	32769	32343	32775	32895	32818	32671	
370	0	32738	32623	32946	32255	32527	32751	32579	32713	
371	0	32663	32484	32941	32251	32847	32701	32613	32678	
372	0	32626	32655	32697	32263	32690	32638	32811	32727	
373	0	32615	32673	32859	32358	32647	32647	32711	32614	
374	0	32729	32671	32845	32391	32711	32879	32766	32775	
375	0	32763	32675	32967	32485	32975	32839	32467	32708	
376	0	32793	32503	33115	32559	33011	32895	32571	32895	
377	0	32750	32599	32991	32659	33079	32853	32573	32771	
378	0	32704	32610	32783	32775	32980	32969	32647	32655	
379	0	32783	32566	32863	32788	32791	33001	32599	32738	
380	0	32743	32687	32558	32763	32642	32898	32723	32756	
381	0	32692	32519	32199	32818	32669	32847	32634	32909	
382	0	32668	32407	31978	32854	32701	32687	32625	32773	
383	0	32731	32663	32148	32790	32819	32708	32693	32999	
384	0	32686	32695	32405	32927	32771	32738	32743	32949	
385	0	32729	32795	32468	32947	32735	32734	32775	32703	
386	0	32858	32642	32877	32970	32767	32679	32967	32813	
387	0	33065	32644	33139	33013	32690	32572	33095	32683	
388	0	33164	32867	33295	32990	32731	32455	33223	32639	
389	0	33332	32879	33543	32915	32599	32467	33427	32378	
390	0	33332	32854	33479	33275	32607	32415	33575	32276	
391	0	33320	32871	33255	33269	32531	32391	33504	32260	
392	0	33262	32795	33143	33329	32656	32533	33574	32386	
393	0	33124	32627	33097	33271	32647	32531	33322	32435	
394	0	32893	32655	32852	33167	32647	32583	33247	32483	
395	0	32772	32831	32623	33001	32711	32740	32965	32415	
396	0	32763	32844	32594	32847	32685	32603	32934	32541	
397	0	32743	32745	32597	32711	32623	32583	32843	32583	
398	0	32730	32591	32569	32633	32757	32751	32801	32690	
399	0	32738	32747	32321	32391	32794	32742	32725	32481	
400	0	32703	32731	32423	32479	32837	32663	32662	32707	
401	0	32629	32767	32407	32511	32823	32732	32598	32763	
402	0	32642	32485	32303	32647	32855	32647	32574	32732	
403	0	32700	32591	32322	32631	32733	32647	32659	32578	
404	0	32655	32601	32487	32683	32839	32839	32595	32719	
405	0	32653	32687	32575	32641	32775	32821	32615	32731	
406	0	32633	32764	32436	32647	32775	32807	32588	32519	
407	0	32761	32549	32439	32631	32679	32682	32694	32663	
408	0	32812	32631	32507	32709	32795	32732	32635	32685	
409	0	32845	32599	32647	32767	32743	32884	32615	32683	
410	0	32831	32707	32787	32726	32735	32915	32758	32562	
411	0	32834	32655	32835	32506	32707	32871	32755	32719	
412	0	32900	32539	32975	32343	32759	32791	32767	32727	
413	0	32816	32479	32877	32171	32663	32767	32669	32626	
414	0	32839	32702	33063	32098	32850	32847	32660	32756	
415	0	32828	32749	32987	32069	32771	32887	32669	32797	
416	0	32806	32919	32673	32335	32862	32771	32710	32837	
417	0	32705	32951	32358	32711	32887	32763	32691	32594	
418	0	32667	32749	32007	32823	32807	32759	32655	32813	
419	0	32788	32771	32095	32646	32799	32590	32753	32789	
420	0	32875	32691	32105	32675	32791	32487	32765	32619	
421	0	32854	32559	32500	32878	32762	32391	32769	32751	
422	0	32839	32575	32679	33105	32765	32557	32741	32735	
423	0	32849	32295	32675	32966	32751	32595	32743	32679	
424	0	32870	32391	32797	32662	32764	32581	32765	32581	
425	0	32858	32555	32790	32407	32839	32466	32723	32532	
426	0	32740	32783	32747	32349	32839	32495	32759	32663	
427	0	32742	32703	32854	32103	32733	32549	32709	32676	
428	0	32679	32810	32714	31959	32791	32604	32799	32701	
429	0	32771	32769	32646	32135	32694	32615	32733	32591	
430	0	32628	32771	32788	32530	32783	32483	32802	32703	
431	0	32791	32867	32877	32983	32793	32499	32755	32764	
432	0	32682	32879	32837	33563	32759	32443	32807	32583	
433	0	32662	32751	32939	34055	32738	32564	32751	32637	
434	0	32659	32846	32583	34298	32861	32498	32775	32703	
435	0	32734	32834	32361	34327	32790	32423	32687	32553	
436	0	32623	32843	32207	34107	32870	32615	32626	32691	
437	0	32472	32973	32015	33957	32748	32611	32887	32713	
438	0	32685	32727	32215	33734	32943	32647	32754	32647	
439	0	32872	32742	32478	33523	32934	32466	32583	32756	
440	0	32884	32719	32711	33287	32881	32435	32554	32630	
441	0	32806	32827	32706	32783	32789	32730	32623	32639	
442	0	32849	32933	32775	32436	32735	32999	32611	32735	
443	0	32879	32715	32678	32190	32727	32823	32930	32769	
444	0	32982	32574	32771	31986	32807	32607	32831	32791	
445	0	32974	32739	32635	32131	32639	32859	32734	32643	
446	0	33015	32809	32572	32121	32561	32915	32709	32839	
447	0	32980	32886	32372	31849	32751	32878	32807	32850	
448	0	32896	32737	32324	31763	32902	32881	32719	32785	
449	0	32743	32673	32279	31876	32743	32815	32668	32475	
450	0	32714	32807	32495	31860	32755	32827	32756	32702	
451	0	32722	32877	32255	31735	32727	32827	32727	32732	
452	0	32636	32950	32378	32067	32771	32823	32775	32447	
453	0	32642	32925	32647	32343	32687	32819	32743	32595	
454	0	32617	32679	32789	32681	32791	32742	32803	32605	
455	0	32653	32571	32677	32615	32827	32811	32711	32523	
456	0	32635	32437	32931	32522	32695	32818	32767	32679	
457	0	32712	32623	33053	32543	32807	32859	32743	32739	
458	0	32666	32598	33111	32673	32711	32763	32747	32533	
459	0	32710	32605	33159	33008	32855	32765	32681	32819	
460	0	32789	32667	33277	33079	32827	32751	32698	32811	
461	0	32764	32557	33215	33119	32815	32785	32743	32542	
462	0	32718	32419	33236	33247	32767	32917	32697	32673	
463	0	32735	32415	32775	33209	32678	32903	32751	32730	
464	0	32620	32727	32487	33140	32756	32943	32790	32699	
465	0	32590	32819	32293	33151	32789	32884	32715	32634	
466	0	32655	32775	32307	33166	32773	32700	32743	32828	
467	0	32759	32839	32375	33155	32755	32643	32803	32590	
468	0	32791	32973	32514	32989	32719	32615	32835	32466	
469	0	32773	33017	32386	32681	32775	32647	32855	32571	
470	0	32761	32749	32433	32423	32746	32627	32819	32566	
471	0	32791	32647	32795	32375	32821	32587	32887	32571	
472	0	32827	32791	32871	32325	32734	32581	32854	32643	
473	0	32841	32870	33013	32357	32807	32679	32923	32371	
474	0	32732	32775	33017	32229	32711	32708	32711	32707	
475	0	32759	32617	33082	32161	32775	32711	32703	32705	
476	0	32814	32831	32783	32167	32718	32687	32519	32631	
477	0	32790	32892	32735	32460	32743	32519	32639	32890	
478	0	32706	33011	32576	32391	32733	32535	32647	32765	
479	0	32759	32823	32425	32434	32767	32687	32797	32850	
480	0	32831	32725	32695	32647	32710	32735	32695	32775	
481	0	32775	32699	32591	32967	32747	32703	32679	32773	
482	0	32804	32893	32897	33307	32802	32588	32663	32739	
483	0	32824	32851	32919	33555	32741	32543	32755	32767	
484	0	32759	32957	33045	33611	32775	32629	32671	32703	
485	0	32749	32837	32854	33495	32720	32675	32791	32733	
486	0	32685	32727	32975	33447	32815	32743	32709	32807	
487	0	32700	32647	33151	33257	32830	32706	32715	32789	
488	0	32760	32735	33077	33173	32738	32687	32691	32727	
489	0	32655	32756	32678	32973	32687	32657	32831	32632	
490	0	32617	32711	32407	32751	32757	32639	32819	32671	
491	0	32815	32807	32013	32714	32811	32647	32807	32739	
492	0	32850	32967	31591	32877	32847	32629	32754	32515	
493	0	32736	32687	31829	32967	32941	32525	32715	32647	
494	0	32756	32739	31999	33110	32797	32607	32773	32655	
495	0	32680	32711	31693	33030	32742	32742	32759	32483	
496	0	32668	32783	31678	32831	32875	32676	32749	32623	
497	0	32738	32775	32167	32407	32705	32714	32963	32647	
498	0	32726	32629	32738	32465	32637	32655	33012	32578	
499	0	32735	32515	32703	32813	32759	32501	32678	32795	
500	0	32897	32677	32979	32891	32745	32595	32786	32679	
501	0	32918	32671	32749	33063	32810	32742	32771	32527	
502	0	32791	32775	32669	33189	32812	32751	32795	32695	
503	0	32764	32695	32573	32903	32871	32807	32643	32687	
504	0	32594	32773	32671	32663	32901	32797	32747	32705	
505	0	32625	32775	32690	32524	32823	32639	32743	32612	
506	0	32688	32799	33023	32215	32700	32790	32763	32769	
507	0	32719	32706	33107	32001	32507	32835	32727	32727	
508	0	32757	32601	33071	31931	32735	32756	32738	32565	
509	0	32740	32743	32998	32029	32799	32787	32783	32735	
510	0	32754	32853	32633	32333	33036	32775	32705	32737	
511	0	32836	32901	32791	32594	32797	32691	32725	32519	
512	0	32948	32615	32671	32742	32818	32647	32773	32735	
513	0	32826	32533	32587	32775	32698	32814	32739	32675	
514	0	32752	32755	32415	32805	32854	32911	32705	32663	
515	0	32791	32811	32579	32962	32755	32895	32721	32679	
516	0	32738	32900	32663	33140	32765	32839	32791	32630	
517	0	32710	32806	32879	33093	32693	32747	32743	32675	
518	0	32757	32895	32687	33049	32807	32671	32710	32635	
519	0	32732	32815	32807	32941	32727	32725	32805	32749	
520	0	32788	32829	32775	32937	32861	32722	32766	32898	
521	0	32775	32719	32822	32887	32766	32863	32823	32695	
522	0	32703	32669	32983	33035	32807	32823	32812	32855	
523	0	32676	32810	32860	33041	32810	32871	32963	32677	
524	0	32692	32927	32887	33215	32915	32673	32671	32801	
525	0	32678	32721	32970	33059	32852	32630	32735	32562	
526	0	32731	32635	32738	33117	32847	32615	32762	32551	
527	0	32677	32881	32191	33039	32663	32450	32807	32523	
528	0	32753	32831	31831	32533	32749	32565	32755	32359	
529	0	32685	32827	32429	31942	32765	32559	32831	32668	
530	0	32766	32846	32559	31409	32785	32447	32823	32500	
531	0	32870	32531	32575	31069	32870	32641	32594	32629	
532	0	32793	32627	32487	30967	33006	32850	32729	32547	
533	0	32529	32647	32311	31519	32939	32817	32781	32701	
534	0	32719	32836	32647	32127	32847	32707	32727	33095	
535	0	32710	32590	32743	32819	32742	32437	32811	32613	
536	0	32790	32580	32823	33238	32831	32439	32845	32679	
537	0	32676	32843	32863	33723	32775	32673	32569	32877	
538	0	32692	32854	32658	34027	32661	32783	32415	32913	
539	0	32695	32895	32698	34655	32784	32797	32438	32901	
540	0	32647	33015	32935	35069	32801	32919	32743	32799	
541	0	32629	32815	32855	35143	32885	32983	32739	32620	
542	0	32577	32807	32991	35069	32850	32871	32763	32821	
543	0	32550	32995	32803	34479	32903	32801	32797	32757	
544	0	32550	32951	32477	33935	32831	32767	32959	32561	
545	0	32467	33019	32727	33474	32820	32755	32914	32679	
546	0	32705	32821	32503	33071	32647	32963	32943	32754	
547	0	32783	32699	32197	32741	32525	33006	32948	32423	
548	0	32877	32860	32375	32383	32655	32894	32926	32495	
549	0	32953	32799	32582	32276	32703	32887	32831	32677	
550	0	32941	32862	32969	32067	32579	32701	32916	32495	
551	0	32961	32574	32975	32087	32772	32685	32775	32439	
552	0	33004	32517	33115	32221	32818	32707	32803	32551	
553	0	32892	32711	33004	32316	32919	32703	32643	32799	
554	0	32919	32775	32735	32463	32925	32734	32701	32508	
555	0	32903	32551	32423	32485	32775	32847	32679	32620	
556	0	32798	32756	32487	32461	32711	32732	32658	32719	
557	0	32669	32787	32249	32329	32627	32754	32983	32684	
558	0	32663	32935	32211	32007	32899	32911	32783	32547	
559	0	32684	32775	32629	31869	32863	32735	32642	32723	
560	0	32666	32756	32727	31767	32807	32754	32676	32637	
561	0	32590	32751	32647	31763	32727	32710	32857	32687	
562	0	32671	32679	32687	32007	32635	32819	32821	32854	
563	0	32714	32823	32532	32231	32583	32685	32814	32737	
564	0	32647	32628	32359	32361	32862	32735	32775	32759	
565	0	32735	32867	32471	32346	32871	32598	32785	32647	
566	0	32775	32691	32610	32549	32867	32421	32891	32473	
567	0	32720	32743	32638	32644	32823	32679	32831	32591	
568	0	32725	32814	32720	32791	32861	32765	32749	32725	
569	0	32598	32703	32803	32945	32917	32529	32838	32613	
570	0	32686	32719	32759	32891	32887	32421	32983	32519	
571	0	32715	32885	32595	32743	32874	32671	32655	32623	
572	0	32722	32839	32708	32671	32899	32663	32498	32509	
573	0	32816	32763	32669	32550	32734	32591	32646	32527	
574	0	32804	32935	32531	32427	32577	32683	32999	32563	
575	0	32763	32627	32532	32436	32790	32691	32791	32727	
576	0	32818	32743	32615	32338	32788	32981	32531	32890	
577	0	32868	32795	32679	32455	32747	32924	32587	32732	
578	0	32831	32739	32683	32508	32723	32901	32833	32519	
579	0	32807	32745	32363	32683	32597	33147	32918	32583	
580	0	32763	32839	32652	33061	32511	33021	32978	32748	
581	0	32845	32611	32923	33074	32703	32721	32679	32723	
582	0	32966	32794	33022	33181	32727	32687	32763	32705	
583	0	32908	32982	33003	33351	32750	32660	32831	32727	
584	0	32934	32647	33031	33279	32841	32594	33047	32605	
585	0	32945	32836	33207	33111	32791	32603	32999	32551	
586	0	32861	32959	32884	33014	32753	32494	32830	32527	
587	0	32815	32745	32710	33159	32861	32644	32378	32879	
588	0	32903	32807	32660	33191	32751	32643	32805	32775	
589	0	32959	32925	32343	33007	32713	32609	32829	32723	
590	0	32879	32787	32059	33041	32943	32609	32631	32705	
591	0	32775	32539	32204	33127	32803	32557	32665	32637	
592	0	32676	32789	32319	32887	32883	32535	32605	32695	
593	0	32736	32847	32436	32773	32767	32621	32711	32743	
594	0	32662	32767	32748	32694	32839	32486	32679	32623	
595	0	32643	32575	32676	32485	32775	32439	32690	32727	
596	0	32708	32699	32799	32455	32771	32507	32903	32671	
597	0	32756	32669	32525	32491	32799	32689	32799	32807	
598	0	32762	32754	32658	32506	32762	32855	32391	32688	
599	0	32844	32562	32786	32574	32683	32773	32431	32806	
600	0	32853	32487	32455	32719	32733	32543	32811	32711	
601	0	32881	32820	32621	32735	32730	32234	33015	32669	
602	0	32732	32879	32670	32719	32742	32475	32723	32686	
603	0	32810	32783	32621	32702	32623	32647	33025	32590	
604	0	32854	32519	32660	32599	32575	32879	32982	32717	
605	0	32895	32535	32611	32558	32781	32914	32709	32773	
606	0	32839	32723	32549	32605	32743	32671	32564	32658	
607	0	32861	32763	32659	32631	32851	32787	32526	32782	
608	0	32813	32620	32499	32613	32814	32903	32767	32807	
609	0	32767	32548	32500	32775	32825	32801	32763	32847	
610	0	32663	32727	32557	32739	32723	32743	32712	32603	
611	0	32787	32748	32523	32735	32834	32630	32831	32767	
612	0	32858	32757	32883	32671	32807	32551	32723	32694	
613	0	32756	32751	32799	32723	33043	32597	32681	32699	
614	0	32804	32559	32823	32791	32949	32699	32851	32603	
615	0	32764	32493	32647	32869	32749	32803	32983	32735	
616	0	32775	32663	32886	32826	32435	32830	33103	32791	
617	0	32799	32687	33093	32845	32551	32985	33069	32715	
618	0	32757	32715	33123	32739	32755	33109	33042	32736	
619	0	32761	32775	32941	32759	32791	33047	32783	32785	
620	0	32724	32511	32603	32797	32813	32903	32807	32764	
621	0	32750	32717	32510	32711	32839	32941	32647	32647	
622	0	32775	32799	32557	32643	33031	32807	32487	32667	
623	0	32782	32822	32486	32775	32939	32817	32591	32890	
624	0	32765	32637	32539	32851	32831	32730	32566	32797	
625	0	32802	32727	32386	32903	32702	32855	32769	32659	
626	0	32845	32687	32538	32974	32791	32719	32687	32647	
627	0	32882	32716	32619	32917	32723	32663	32527	32769	
628	0	32895	32579	32547	32927	32718	32807	32467	32757	
629	0	32890	32419	32682	32885	32918	32745	32731	32615	
630	0	32894	32559	32548	32761	32895	32685	33015	32635	
631	0	32878	32566	32715	32775	32784	32765	33087	32575	
632	0	32857	32638	32823	32786	32695	32575	32871	32615	
633	0	32833	32671	32981	32798	32599	32511	32833	32467	
634	0	32709	32495	32662	32783	32391	32515	32785	32613	
635	0	32665	32443	32863	32711	32630	32587	32818	32681	
636	0	32751	32631	32762	32735	32799	32631	32919	32631	
637	0	32647	32634	32671	32699	32994	32639	32726	32643	
638	0	32655	32733	32759	32615	32871	32645	32471	32795	
639	0	32647	32529	32497	32640	32895	32602	32407	32743	
640	0	32649	32655	32527	32887	32886	32605	32487	32567	
641	0	32662	32647	32439	33031	32870	32655	32682	32598	
642	0	32709	32634	32319	33101	32647	32703	33075	32745	
643	0	32711	32435	32148	33095	32487	32796	33263	32663	
644	0	32675	32402	32047	33207	32687	32628	33003	32594	
645	0	32656	32613	32055	33079	32613	32613	32901	32661	
646	0	32749	32679	32379	33031	32485	32627	32971	32671	
647	0	32789	32695	32679	32901	32753	32500	32742	32698	
648	0	32845	32621	32911	32863	32891	32511	32765	32459	
649	0	32786	32517	32701	32623	32765	32658	32679	32679	
650	0	32785	32639	32919	32679	32951	32572	32830	32591	
651	0	32660	32663	33159	32599	33015	32530	32667	32611	
652	0	32775	32706	32837	32539	32903	32373	32623	32435	
653	0	32813	32599	32789	32460	32797	32679	32681	32628	
654	0	32712	32797	32859	32511	32711	32876	32639	32660	
655	0	32731	32774	32275	32567	32687	32939	32662	32718	
656	0	32836	32958	32095	32547	32623	32866	32771	32561	
657	0	32895	32848	32190	32451	32633	32892	32743	32663	
658	0	32886	32722	32447	32439	32671	32919	32921	32667	
659	0	32896	32919	32873	32519	32695	32847	32725	32662	
660	0	32852	32957	32976	32551	32756	32839	32783	32491	
661	0	32814	33010	33098	32415	32719	32684	32742	32685	
662	0	32919	32836	33164	32452	32898	32603	32646	32593	
663	0	32887	32733	32828	32511	32807	32680	32635	32657	
664	0	32735	32866	32623	32677	32903	32852	32647	32637	
665	0	32734	32752	32495	32870	32775	32867	32695	32703	
666	0	32700	32855	32667	33076	32919	32508	32673	32679	
667	0	32767	32767	32763	33079	32775	32381	32739	32535	
668	0	32748	32595	32690	33093	32807	32571	32733	32631	
669	0	32751	32637	32859	33060	32695	32784	32775	32735	
670	0	32727	32893	32796	32849	32791	32783	32759	32486	
671	0	32755	32957	32731	32726	32767	32551	32773	32715	
672	0	32703	32951	32615	32790	32812	32678	32679	32661	
673	0	32711	32993	32965	32834	32767	32731	32735	32591	
674	0	32655	32935	32827	32543	32835	32609	32695	32871	
675	0	32610	32748	32913	32327	32755	32663	32786	32639	
676	0	32676	32903	32330	32350	32839	32839	32703	32485	
677	0	32699	33047	31949	32371	32735	32786	32749	32355	
678	0	32671	32791	32075	32388	32839	32555	32727	32749	
679	0	32697	32835	32228	32519	32791	32619	32703	32866	
680	0	32841	32819	32407	32864	32727	32681	32751	32861	
681	0	32855	32815	32591	32947	32775	32687	32775	32791	
682	0	32687	32655	32641	32999	32809	32655	32707	32485	
683	0	32726	32868	32659	32671	32826	32446	32850	32661	
684	0	32692	32852	32791	32094	32743	32487	32775	32556	
685	0	32749	32866	32815	31874	32834	32567	32795	32543	
686	0	32735	32666	32823	31390	32813	32629	32745	32500	
687	0	32815	32764	32890	31347	32727	32742	32629	32879	
688	0	32807	32763	32821	31835	32807	32990	32773	32850	
689	0	32733	32839	32631	32455	32828	33287	32797	33023	
690	0	32673	32903	32516	32663	32711	33519	32694	32685	
691	0	32663	32833	32667	32808	32687	33335	32933	31347	
692	0	32721	32863	32759	32943	32655	33106	32869	32031	
693	0	32810	32783	32770	33182	32819	32819	32555	33231	
694	0	32873	32827	32789	33627	32775	32342	32753	33167	
695	0	32689	32689	32746	33975	32698	32066	32876	32720	
696	0	32706	32935	32567	34491	32733	32231	32797	32700	
697	0	32665	32974	32342	34727	32719	32319	32903	32436	
698	0	32727	32771	32719	34557	32847	32631	32894	32245	
699	0	32687	32929	32822	34471	32716	32757	32775	32399	
700	0	32735	32845	32791	34231	32772	32506	32791	32414	
701	0	32566	32743	32838	34175	32743	32767	32647	32463	
702	0	32698	32681	32463	34091	32683	33185	32831	32939	
703	0	32764	32871	32669	33815	32615	33283	32903	32863	
704	0	32695	32801	32623	33611	32711	33021	32677	32716	
705	0	32727	32543	32735	33221	32767	33259	32519	32775	
706	0	32714	32839	32647	32843	32705	32875	32673	32623	
707	0	32756	32903	32717	32594	32718	32749	32867	32694	
708	0	32865	32683	32925	32165	32735	32412	32757	32180	
709	0	32771	32892	32958	31875	32757	32623	32757	32714	
710	0	32883	32839	32899	31197	32818	32996	32879	32895	
711	0	32797	32725	32391	30706	33011	32817	33091	32587	
712	0	32835	32524	32324	30796	32809	33003	32822	32879	
713	0	32902	32602	32254	30887	32814	33169	32214	33029	
714	0	32793	32612	32167	31079	32711	32948	32543	32686	
715	0	32754	32662	32250	31367	32799	32694	32583	32757	
716	0	32583	32619	32213	31895	32623	32556	32739	32691	
717	0	32592	32439	32703	32247	32722	32989	32684	32655	
718	0	32796	32583	32851	32627	32565	33437	32661	32785	
719	0	32780	32663	32823	32807	32553	33255	32551	33154	
720	0	32754	32755	32599	32941	32706	33255	32743	33031	
721	0	32834	32564	32257	32927	32873	32535	32857	32399	
722	0	32877	32689	32668	32829	32799	31909	32751	32575	
723	0	32961	32709	32775	33089	32935	31935	32817	32685	
724	0	32994	32775	32711	33348	32704	32351	32867	32679	
725	0	33012	32636	32850	33395	32827	32063	32887	32263	
726	0	32850	32543	32505	33367	32815	32173	32813	32589	
727	0	32903	32813	32565	33207	32839	32862	32765	32575	
728	0	32894	32869	32711	33189	32739	32655	32795	32749	
729	0	32811	32706	32678	33127	32745	32479	32759	32551	
730	0	32745	32807	32803	32951	32723	32293	32763	32639	
731	0	32748	32743	32679	32834	32796	32231	32775	32711	
732	0	32849	32535	32948	32799	32810	32379	32695	32699	
733	0	32767	32751	32837	32663	32743	32628	32717	32719	
734	0	32730	32876	32701	32551	32799	32603	32663	32789	
735	0	32709	32586	32711	32511	32727	32498	32647	32660	
736	0	32602	32690	32619	32461	32884	32591	32711	32775	
737	0	32575	32743	32494	32468	32837	32647	32847	32835	
738	0	32620	32830	32775	32343	32991	32599	32654	32729	
739	0	32671	32607	33076	32151	32775	32454	32747	32771	
740	0	32674	32751	32706	32135	32631	32647	32822	32918	
741	0	32635	32887	32481	32327	32484	32647	32868	32675	
742	0	32540	32764	32517	32455	32607	32673	32721	32812	
743	0	32737	32884	32815	32389	32733	32505	32639	32581	
744	0	32806	32937	32925	32319	32805	32551	32559	32507	
745	0	32759	32827	33223	32499	32773	32597	32841	32677	
746	0	32868	32715	33474	32866	32999	32670	33159	32485	
747	0	32930	32751	32999	33215	32695	32567	33411	32335	
748	0	32943	32757	32847	33439	32567	32566	33122	32634	
749	0	33042	32703	32279	33257	32606	32592	32675	32679	
750	0	33083	32605	31661	33059	32703	32745	32607	32676	
751	0	32824	32833	31391	33022	32739	32681	32310	32667	
752	0	32681	32967	31783	33010	32671	32575	32041	32647	
753	0	32743	32993	31939	33060	32661	32450	32199	32646	
754	0	32846	32686	32092	33070	32787	32359	32455	32534	
755	0	32871	32810	32732	32852	32694	32646	32399	32725	
756	0	32854	32893	32810	33017	32896	32786	32217	32755	
757	0	32799	32655	32679	33119	32903	32843	32603	32734	
758	0	32663	32855	32609	33107	32843	32939	32787	32767	
759	0	32620	32871	32391	32935	33007	33187	33110	32567	
760	0	32602	32733	32679	32773	32983	33090	33239	32611	
761	0	32444	32762	33077	32703	33085	32612	33136	32708	
762	0	32551	32823	33004	32839	32913	32613	33167	32611	
763	0	32647	32687	32927	32791	32786	32455	33090	32675	
764	0	32659	32785	32659	32751	32755	32822	32935	32691	
765	0	32705	32831	32676	32797	32495	33003	32919	32647	
766	0	32677	32605	32559	32623	32723	32837	33197	32674	
767	0	32665	32815	32454	32807	32775	33061	33137	32735	
768	0	32804	32919	32669	32827	32647	33359	33012	32807	
769	0	32888	32743	32949	32641	32607	32918	33058	32775	
770	0	32953	32871	33238	32685	32765	32709	32991	32699	
771	0	32856	32999	33167	32555	32661	33149	32775	32662	
772	0	32860	32745	33174	32420	32603	33047	32701	32519	
773	0	32859	32850	33071	32306	32795	32694	32751	32575	
774	0	32750	32818	32827	32510	32799	32989	32687	32723	
775	0	32691	32667	32426	32709	32714	32795	32677	32746	
776	0	32743	32756	32705	32858	32767	32583	32767	32607	
777	0	32797	32813	32757	32741	32669	32502	32700	32646	
778	0	32876	32859	32831	32667	32674	32671	32903	32589	
779	0	32721	32623	32493	32685	32637	32797	32823	32647	
780	0	32671	32851	32159	32710	32615	32589	32980	32647	
781	0	32535	32935	32437	32764	32797	32575	32769	32579	
782	0	32434	32730	32790	32524	32911	32599	31890	32613	
783	0	32583	32815	32909	32450	32894	32487	31653	32759	
784	0	32686	32775	32747	32639	32709	32555	32570	32669	
785	0	32743	32563	32693	32761	32599	32583	32499	32675	
786	0	32808	32613	32699	32976	32681	32631	32495	32445	
787	0	32860	32554	32621	33190	32657	32590	32452	32431	
788	0	32864	32453	32710	33458	32903	32539	32447	32484	
789	0	32876	32614	32339	33039	33107	32657	33453	32551	
790	0	32794	32732	31983	32887	33159	32759	33487	32505	
791	0	32893	32738	32062	32772	33095	32615	33095	32743	
792	0	32857	32563	31823	32690	32983	32655	32655	32809	
793	0	32836	32555	32172	32619	32911	32658	32669	32745	
794	0	32836	32791	32500	32503	32589	32695	32775	32495	
795	0	32790	32903	32583	32563	33007	32722	32959	32695	
796	0	32709	32647	32699	32629	33095	32743	33157	32775	
797	0	32687	32935	32621	32607	33020	32738	33347	32700	
798	0	32700	32828	32775	32453	33109	32903	33231	32629	
799	0	32703	32901	32815	32429	32805	32915	32959	32734	
800	0	32678	32559	32967	32535	32428	32955	32733	32723	
801	0	32632	32863	33063	32756	32223	32901	32687	32642	
802	0	32623	32899	32801	32692	32773	32887	32647	32679	
803	0	32617	32791	32986	32615	32999	32967	32836	32596	
804	0	32705	32595	33087	32639	33218	32999	32939	32731	
805	0	32710	32757	32885	32773	33295	32858	32644	32815	
806	0	32780	32763	32959	32765	33221	32946	32812	32855	
807	0	32747	32775	32700	32790	32910	32999	32534	32715	
808	0	32749	32498	32749	32757	31855	32893	32316	32692	
809	0	32854	32763	32740	32767	32020	32807	32495	32684	
810	0	32775	32789	32607	32758	32670	32879	32508	32763	
811	0	32677	32631	32669	32791	32627	32903	32671	32465	
812	0	32802	32543	32959	32709	33351	32903	32767	32599	
813	0	32738	32743	33185	32647	33399	32991	32724	32871	
814	0	32845	32699	33059	32617	33027	32871	32591	32831	
815	0	32873	32615	33268	32735	32686	32635	31943	32743	
816	0	32894	32826	33260	32715	31875	32447	32045	32655	
817	0	32878	32788	33023	32673	31507	32473	32031	32519	
818	0	32827	32643	32627	32735	31919	32524	32327	32775	
819	0	32879	32830	32507	32758	32303	32557	32686	32767	
820	0	32870	32791	32391	32767	32171	32526	32515	32901	
821	0	32823	32655	32287	32721	32324	32628	33366	32901	
822	0	32703	32868	31742	32772	32963	32733	33653	32668	
823	0	32537	32911	31502	32743	33331	32723	33687	32817	
824	0	32448	32735	31363	32689	33321	32629	33727	32794	
825	0	32624	32911	31543	32823	33197	32679	33955	32773	
826	0	32652	32918	31799	32817	33039	32583	33494	32833	
827	0	32730	32717	31954	32708	33099	32623	32789	32611	
828	0	32647	32743	32017	32671	32853	32711	32711	32765	
829	0	32684	32775	32063	32679	32747	32707	32839	32716	
830	0	32746	32699	32302	32677	32692	32690	32615	32715	
831	0	32746	32835	32553	32677	32799	32661	32647	32669	
832	0	32711	32871	32823	32646	32889	32667	32591	32532	
833	0	32797	32829	33075	32647	32867	32647	32455	32740	
834	0	32818	32619	32974	32695	32707	32614	32349	32571	
835	0	32850	32835	33151	32676	32869	32743	32389	32676	
836	0	32799	32857	33412	32621	32814	32783	32567	32453	
837	0	32871	32605	33242	32639	32931	32687	32661	32498	
838	0	32898	32731	33250	32615	32757	32661	32638	32639	
839	0	32933	32795	33375	32615	32695	32775	32762	32607	
840	0	32964	32807	33243	32658	32893	32719	32789	32637	
841	0	32925	32607	33307	32803	32871	32669	32775	32507	
842	0	32890	32807	33058	32788	32823	32629	32702	32515	
843	0	32895	32791	33026	32719	32891	32613	32646	32693	
844	0	32847	32847	33049	32757	32845	32663	32655	32635	
845	0	32754	32615	33028	32791	32999	32757	32667	32723	
846	0	32705	32804	32971	32807	32913	32703	32675	32809	
847	0	32700	32910	32807	32799	32695	32843	32685	32591	
848	0	32664	32575	32327	32738	32581	32799	32745	32535	
849	0	32668	32735	32004	32830	32535	32811	32839	32704	
850	0	32711	32759	31802	32747	32831	32663	32726	32686	
851	0	32775	32775	31911	32699	32959	32557	32667	32775	
852	0	32866	32599	32004	32659	32795	32669	32739	32579	
853	0	32838	32821	32391	32799	32751	32605	32738	32695	
854	0	32814	32855	32407	32862	32727	32699	32773	32623	
855	0	32735	32866	32811	32876	32827	32646	32794	32719	
856	0	32713	32677	32815	32847	32757	32612	32759	32486	
857	0	32690	32815	32735	32950	32839	32555	32767	32722	
858	0	32666	32877	32879	32919	32879	32679	32727	32663	
859	0	32695	32823	32941	32716	32751	32752	32695	32740	
860	0	32785	32949	33159	32709	32863	32637	32717	32583	
861	0	32678	32981	32967	32567	32797	32823	32707	32591	
862	0	32730	32836	32767	32631	32823	32769	32699	32832	
863	0	32732	32633	32457	32784	32862	32827	32679	32732	
864	0	32703	32703	32515	33199	32659	32687	32795	32655	
865	0	32575	32796	32238	33511	32681	32699	32793	32547	
866	0	32580	32583	32175	33847	32685	32797	32637	32711	
867	0	32615	32759	32059	33846	32759	32691	32694	32583	
868	0	32790	32786	32429	33395	32740	32703	32724	32668	
869	0	32786	32564	32402	32911	32667	32797	32796	32717	
870	0	32832	32732	32459	32766	32871	32802	32566	32807	
871	0	32806	32830	32679	32469	32813	32704	32615	32487	
872	0	32773	32554	32543	32431	32659	32722	32671	32519	
873	0	32816	32684	32493	32425	32734	32711	32670	32604	
874	0	32775	32809	32450	32516	32679	32718	32751	32551	
875	0	32775	32578	32435	32762	32732	32623	32679	32677	
876	0	32615	32751	32495	32837	32758	32786	32748	32630	
877	0	32585	32751	32487	32887	32736	32885	32668	32525	
878	0	32663	32749	32647	32740	32827	32802	32659	32687	
879	0	32702	32577	32765	32671	32738	32815	32757	32534	
880	0	32596	32695	32834	32564	32797	32709	32575	32591	
881	0	32714	32749	32507	32714	32695	32668	32712	32468	
882	0	32716	32775	32783	32767	32807	32691	32711	32675	
883	0	32748	32631	32738	32694	32799	32717	32803	32693	
884	0	32703	32534	32877	32587	32735	32900	32721	32595	
885	0	32657	32679	32699	32447	32727	33159	32764	32817	
886	0	32660	32719	32735	32493	32687	33063	32711	32771	
887	0	32719	32683	32799	32633	32743	32695	32692	32615	
888	0	32659	32767	32838	32577	32623	32604	32711	32735	
889	0	32718	32615	32738	32499	32859	32755	32681	32775	
890	0	32717	32562	32913	32475	32887	32703	32545	32759	
891	0	32775	32753	32903	32574	32893	32745	32580	32911	
892	0	32819	32789	32863	32775	32903	32599	32590	33039	
893	0	32734	32598	32879	33059	32708	32591	32677	32919	
894	0	32786	32790	32933	33195	32831	32743	32559	32879	
895	0	32820	32839	32877	33209	32927	32775	32586	32849	
896	0	32924	32646	32733	33143	32711	32623	32860	32623	
897	0	32958	32845	32935	33191	32685	32687	33027	32527	
898	0	33024	32895	33147	33165	32423	32617	33231	32509	
899	0	33103	32762	33302	33125	32590	32585	33407	32439	
900	0	33103	32877	33583	33207	32723	32487	33466	32419	
901	0	33071	32899	33607	33316	32623	32551	33486	32190	
902	0	33042	33051	33423	33270	32639	32619	33375	32487	
903	0	33001	32881	33247	33106	32579	32609	33351	32469	
904	0	32967	32790	32929	33250	32671	32664	33071	32524	
905	0	32863	32827	32751	33245	32681	32647	32983	32458	
906	0	32775	32847	32703	33278	32783	32695	32855	32631	
907	0	32567	32679	32487	33255	32771	32647	32850	32639	
908	0	32472	32563	32135	32847	32939	32702	32703	32727	
909	0	32594	32695	31773	32667	32893	32519	32586	32455	
910	0	32703	32711	31535	32519	32711	32683	32640	32594	
911	0	32871	32559	31477	32412	32891	32675	32679	32647	
912	0	32851	32771	31183	32630	32867	32639	32611	32615	
913	0	32694	32850	31175	32903	32858	32677	32631	32646	
914	0	32614	32590	31613	32903	32967	32769	32703	32695	
915	0	32566	32773	32131	33110	32885	32705	32607	32679	
916	0	32615	32875	32594	33037	32699	32903	32519	32582	
917	0	32639	32679	32583	32751	32819	32775	32615	32695	
918	0	32727	32742	32671	32891	32754	32829	32605	32591	
919	0	32766	32861	32967	32850	32893	32647	32671	32575	
920	0	32786	32619	32762	32663	32903	32745	32710	32667	
921	0	32812	32749	32607	32677	32763	32903	32696	32581	
922	0	32850	32881	32706	32647	32743	33004	32703	32832	
923	0	32775	32735	32675	32631	32666	33067	32690	32783	
924	0	32676	32810	32852	32491	32563	32967	32635	32855	
925	0	32775	32771	33079	32322	32639	33009	32723	32684	
926	0	32836	32839	32983	32335	32557	32931	32673	32563	
927	0	32809	32591	33121	32413	32787	32775	32763	32775	
928	0	32818	32803	33196	32535	32802	32527	32775	32679	
929	0	32799	32940	33127	32824	32627	32709	32849	32701	
930	0	32809	32690	32914	32810	32848	32815	33015	32703	
931	0	32769	32799	32751	32875	32629	32703	32792	32571	
932	0	32738	32858	32596	32811	32891	32567	32629	32588	
933	0	32686	32655	32517	32657	33025	32615	32663	32713	
934	0	32663	32852	32557	32715	33063	32667	32641	32738	
935	0	32668	32735	32775	32603	32831	32703	32669	32774	
936	0	32697	32642	32751	32631	32816	32660	32757	32559	
937	0	32614	32807	32799	32705	32807	32682	32612	32730	
938	0	32543	32916	32913	32858	32775	32759	32698	32683	
939	0	32493	32615	32908	32891	32745	32751	32806	32642	
940	0	32465	32795	32891	32871	32552	32591	32821	32725	
941	0	32514	32985	32791	32691	32605	32607	32927	32574	
942	0	32642	32775	32887	32470	32724	32759	32813	32679	
943	0	32721	32757	32831	32423	32662	32563	32875	32677	
944	0	32816	32868	32447	32293	32641	32604	32869	32613	
945	0	32852	32623	32123	32251	32743	32699	32738	32702	
946	0	32852	32807	31947	32315	32827	32767	32709	32527	
947	0	32817	32863	32071	32305	32991	32774	32847	32511	
948	0	32920	32659	32179	32347	32855	32596	32738	32677	
949	0	32827	32677	32295	32769	32718	32707	32639	32645	
950	0	32646	32703	32518	33125	32895	32583	32783	32807	
951	0	32722	32709	32733	32919	32837	32701	32706	32829	
952	0	32646	32695	32919	32555	32884	32638	32799	32719	
953	0	32645	32931	32655	32431	33011	32567	32583	32769	
954	0	32723	33004	32679	32284	32767	32851	32602	32467	
955	0	32749	32679	32679	32327	32519	32956	32711	32567	
956	0	32646	32839	32439	32455	32594	32863	32663	32607	
957	0	32686	33013	32606	32685	32663	32703	32671	32717	
958	0	32676	32639	32679	32759	32899	32675	32807	32771	
959	0	32748	32854	32659	32691	32775	32681	32709	32730	
960	0	32665	32983	32676	32431	32918	32533	32711	32767	
961	0	32631	32767	32751	32063	32878	32705	32809	32595	
962	0	32550	32910	32966	31937	32761	32674	32697	32547	
963	0	32517	32797	33221	31975	32883	32557	32711	32749	
964	0	32509	32663	33324	32123	32762	32642	32758	32674	
965	0	32735	32759	33191	32423	32630	32515	32771	32722	
966	0	32775	32847	32871	32748	32826	32453	32727	32621	
967	0	32743	32903	32543	32867	32659	32379	32742	32551	
968	0	32796	32677	32162	32807	32716	32528	32903	32595	
969	0	32955	32959	32279	32926	32743	32573	32751	32615	
970	0	33031	33053	32306	32895	32791	32575	32695	32763	
971	0	32913	32851	32350	32814	32764	32573	32717	32515	
972	0	32915	32661	31956	32733	32719	32559	32775	32729	
973	0	32793	32769	32135	32967	32775	32732	32743	32642	
974	0	32647	32626	32291	33060	32895	32743	32711	32661	
975	0	32541	32671	32207	33071	32838	32718	32711	32711	
976	0	32671	32769	32183	32935	32815	32775	32769	32615	
977	0	32647	32699	32283	32851	32719	32641	32811	32519	
978	0	32678	32822	32219	32770	32793	32783	32855	32721	
979	0	32631	32775	32263	32534	32708	32743	32879	32748	
980	0	32749	32583	32614	32498	32511	32858	32727	32698	
981	0	32684	32671	32742	32507	32647	32868	32803	32811	
982	0	32807	32717	33004	32413	32679	32867	32865	32557	
983	0	32818	32747	32941	32402	32827	32767	32719	32735	
984	0	32839	32553	32983	32321	32713	32823	32854	32663	
985	0	32775	32721	33067	32375	32941	32807	32775	32677	
986	0	32806	32783	33039	32573	32895	32769	32694	32751	
987	0	32779	32558	32871	32647	32859	32766	32727	32756	
988	0	32843	32727	32836	32663	32844	32895	32735	32575	
989	0	32818	32787	32901	32659	32815	32915	32700	32797	
990	0	32773	32619	32731	32647	32871	32803	32725	32695	
991	0	32870	32735	32810	32613	32863	32745	32707	32619	
992	0	32775	32775	32642	32532	32742	32802	32679	32677	
993	0	32665	32643	32429	32567	32807	32919	32723	32739	
994	0	32692	32445	32574	32607	32845	32844	32633	32558	
995	0	32564	32633	32477	32787	32911	32966	32756	32790	
996	0	32576	32756	32338	32836	32803	32966	32731	32743	
997	0	32669	32519	32591	32890	32658	32799	32745	32797	
998	0	32719	32743	32772	32875	32636	32838	32798	32871	
999	0	32730	32935	32621	32775	32551	33030	32711	32573	
1000	0	32694	32703	32699	32813	32631	32911	32711	32769	
1001	0	32811	32802	32841	32845	32686	32891	32671	32751	
1002	0	33029	32815	32827	33030	32541	32835	32695	32669	
1003	0	33071	32612	32503	32889	32775	32629	32735	32655	
1004	0	33036	32719	32550	32841	32847	32775	32839	32759	
1005	0	32970	32936	32415	32746	32847	32921	32759	32598	
1006	0	32932	32647	32438	32655	32742	32903	32843	32675	
1007	0	32881	32743	32467	32607	32750	32675	32807	32691	
1008	0	32799	32793	32541	32619	32775	32719	32765	32695	
1009	0	32804	32845	32417	32713	32765	32607	32738	32505	
1010	0	32756	32768	32599	32679	32855	32463	32815	32609	
1011	0	32684	32615	32687	32666	32706	32732	32839	32700	
1012	0	32671	32806	32783	32629	32847	32663	32727	32723	
1013	0	32724	32766	32647	32450	32791	32699	32775	32553	
1014	0	32727	32759	32565	32495	32813	32742	32733	32531	
1015	0	32759	32587	32731	32514	32760	32694	32743	32665	
1016	0	32722	32789	32775	32555	32749	32948	32791	32692	
1017	0	32757	32819	32839	32631	32702	32892	32839	32740	
1018	0	32674	32756	32915	32620	32807	32841	32835	32535	
1019	0	32693	32573	32711	32587	32811	32671	32751	32753	
1020	0	32727	32805	32771	32598	32827	32693	32831	32735	
1021	0	32791	32869	32839	32563	32867	32719	32775	32678	
1022	0	32740	32679	32599	32671	32759	32679	32715	32646	
1023	0	32671	32766	32535	32574	32775	32459	32786	32595	
1024	0	32683	32747	32493	32667	32714	32782	32710	32774	
1025	0	32710	32767	32375	32741	32820	32743	32660	32723	
1026	0	32684	32559	32663	32784	32756	32775	32711	32801	
1027	0	32617	32771	32647	32815	32935	32743	32667	32574	
1028	0	32629	32885	32751	32911	32843	32708	32797	32663	
1029	0	32710	32711	32527	32964	32806	32849	32743	32683	
1030	0	32876	32643	32803	32934	32836	32695	32791	32685	
1031	0	32885	32831	32686	32850	32860	32767	32771	32564	
1032	0	32899	32807	32647	32885	32859	32735	32795	32503	
1033	0	32868	32647	32734	32924	32686	32809	32839	32658	
1034	0	32793	32631	32607	32951	32749	32743	32802	32635	
1035	0	32799	32797	32647	32926	32721	32789	32796	32681	
1036	0	32736	32765	32677	33063	32759	32646	32773	32501	
1037	0	32799	32731	32709	33046	32525	32626	32749	32725	
1038	0	32869	32827	32743	32918	32799	32643	32821	32691	
1039	0	32816	32565	32919	32871	32767	32807	32692	32687	
1040	0	32798	32751	32873	32759	32607	32727	32852	32607	
1041	0	32687	32787	32645	32791	32799	32613	32748	32607	
1042	0	32590	32926	32578	32647	32703	32527	32667	32691	
1043	0	32647	32827	33015	32669	32788	32493	32729	32667	
1044	0	32749	32687	32895	32546	32695	32605	32703	32642	
1045	0	32810	32673	32767	32571	32875	32643	32711	32666	
1046	0	32890	32829	32543	32559	32853	32548	32671	32775	
1047	0	32844	32879	32475	32715	32868	32463	32767	32636	
1048	0	32956	32763	32287	32939	32766	32347	32742	32736	
1049	0	32858	32595	32574	32927	32791	32551	32863	32679	
1050	0	32769	32791	32517	33117	32583	32455	32835	32694	
1051	0	32747	32879	32484	33159	32703	32546	32803	32526	
1052	0	32757	32741	32391	33064	32795	32548	32707	32747	
1053	0	32692	32573	32411	32926	32775	32509	32669	32783	
1054	0	32693	32589	32471	32941	32745	32605	32674	32575	
1055	0	32684	32799	32507	32961	32813	32572	32743	32637	
1056	0	32676	32766	32173	32871	32692	32631	32748	32675	
1057	0	32645	32707	32187	32953	32775	32627	32718	32577	
1058	0	32592	32609	32259	32975	32631	32749	32775	32717	
1059	0	32613	32647	32246	33341	32775	32671	32663	32706	
1060	0	32614	32788	32375	33799	32738	32654	32819	32775	
1061	0	32703	32591	32575	33938	32775	32701	32727	32538	
1062	0	32716	32775	32374	33734	32742	32692	32722	32716	
1063	0	32711	32850	32339	33501	32620	32711	32784	32775	
1064	0	32690	32835	32513	33279	32791	32692	32751	32742	
1065	0	32713	32643	32732	33159	32671	32759	32812	32671	
1066	0	32756	32807	32891	33011	32801	32695	32795	32481	
1067	0	32775	32873	32947	32885	32727	32647	32715	32644	
1068	0	32881	32916	33074	32880	32887	32631	32847	32643	
1069	0	32850	32682	32715	32831	32871	32727	32724	32619	
1070	0	32766	32859	32835	32743	32802	32765	32767	32495	
1071	0	32812	32933	32855	32669	32885	32631	32732	32639	
1072	0	32807	32667	32903	32594	32807	32609	32701	32676	
1073	0	32825	32857	32987	32535	32847	32737	32735	32715	
1074	0	32860	32898	32825	32443	32823	32773	32663	32679	
1075	0	32835	32935	33007	32343	32783	32733	32663	32647	
1076	0	32783	32695	32775	32295	32831	32745	32683	32835	
1077	0	32802	32642	32743	32291	32639	32871	32685	32754	
1078	0	32783	32852	32679	32407	32823	32884	32796	32773	
1079	0	32785	32903	32506	32439	32766	32811	32797	32566	
1080	0	32902	32683	32497	32391	32589	32662	32804	32731	
1081	0	32804	32663	32679	32359	32787	32627	32797	32663	
1082	0	32787	32851	32722	32242	32842	32775	32673	32660	
1083	0	32775	32747	32863	32362	32811	32767	32775	32623	
1084	0	32804	32775	32707	32327	32769	32775	32717	32671	
1085	0	32812	32791	32683	32343	32619	32735	32855	32711	
1086	0	32730	32687	32621	32331	32927	32775	32723	32524	
1087	0	32696	32511	32462	32339	32764	32734	32790	32701	
1088	0	32735	32671	32659	32391	32663	32831	32751	32825	
1089	0	32647	32715	32571	32483	32775	32771	32787	32591	
1090	0	32588	32759	32669	32479	32719	32609	32663	32751	
1091	0	32717	32832	32755	32489	32679	32711	32718	32805	
1092	0	32748	32790	32983	32509	32915	32719	32691	32647	
1093	0	32831	32579	32967	32532	32941	32717	32751	32727	
1094	0	32994	32751	33143	32551	32883	32703	32783	32666	
1095	0	33007	32715	32683	32527	32662	32568	32837	32631	
1096	0	32953	32879	32515	32556	32666	32531	32679	32599	
1097	0	32855	32860	32507	32612	32775	32615	32775	32645	
1098	0	32766	32683	32391	32679	32759	32615	32761	32647	
1099	0	32757	32695	32427	32817	32799	32545	32819	32551	
1100	0	32805	32773	32527	32835	32775	32619	32809	32631	
1101	0	32751	32834	32475	32885	32659	32561	32713	32735	
1102	0	32743	32595	32671	33007	32751	32658	32669	32763	
1103	0	32828	32525	32831	33026	32715	32737	32687	32487	
1104	0	32742	32727	32687	32860	32834	32655	32711	32660	
1105	0	32750	32815	32669	32775	32831	32742	32703	32687	
1106	0	32708	32772	32407	32763	32918	32655	32775	32759	
1107	0	32815	32567	32647	32675	32918	32705	32739	32538	
1108	0	32877	32703	32576	32647	32903	32839	32861	32639	
1109	0	32804	32791	32647	32829	32815	32707	32761	32641	
1110	0	32743	32883	32726	32933	32703	32601	32768	32716	
1111	0	32749	32578	32582	32991	32775	32583	32844	32615	
1112	0	32743	32705	32660	32894	32743	32743	32811	32668	
1113	0	32606	32855	32730	32903	32735	32679	32903	32663	
1114	0	32584	32837	32534	32799	32726	32753	32717	32763	
1115	0	32655	32623	32636	32775	32807	32767	32759	32614	
1116	0	32771	32611	32575	32663	32871	32688	32635	32802	
1117	0	32807	32879	32775	32647	32775	32703	32729	32748	
1118	0	32951	32950	32711	32647	32774	32791	32747	32820	
1119	0	33003	32751	32623	32717	32655	32806	32647	32603	
1120	0	32860	32623	32687	32879	32805	32791	32735	32830	
1121	0	32810	32818	32525	33045	32786	32647	32717	32742	
1122	0	32869	32807	32455	33201	32791	32775	32720	32701	
1123	0	32889	32685	32391	33353	32772	32711	32694	32573	
1124	0	32741	32647	32431	33173	32748	32775	32723	32595	
1125	0	32759	32859	32546	33027	32759	32722	32679	32636	
1126	0	32773	32820	32375	33071	32743	32667	32771	32551	
1127	0	32858	32875	32591	32775	32761	32508	32757	32620	
1128	0	32850	32673	32614	32557	32695	32669	32717	32718	
1129	0	32734	32739	32645	32515	32829	32699	32829	32647	
1130	0	32671	32793	32797	32507	32799	32687	32883	32749	
1131	0	32732	32891	32669	32455	32852	32727	32745	32607	
1132	0	32797	32639	32612	32603	32855	32743	32775	32742	
1133	0	32765	32733	32782	32573	32791	32737	32705	32741	
1134	0	32819	32795	32661	32565	32802	32607	32797	32665	
1135	0	32911	32827	32551	32633	32812	32629	32767	32557	
1136	0	32883	32799	32535	32709	32742	32619	32759	32665	
1137	0	32865	32549	32767	32821	32607	32723	32850	32647	
1138	0	32829	32513	32783	32895	32667	32823	32775	32647	
1139	0	32847	32690	32885	32903	32827	32799	32731	32573	
1140	0	32745	32729	32681	32974	32827	32819	32679	32736	
1141	0	32717	32759	32797	33143	32829	32725	32787	32759	
1142	0	32740	32615	32751	33143	32755	32847	32737	32770	
1143	0	32654	32742	32839	33044	32861	32839	32679	32660	
1144	0	32660	32859	32815	33151	32789	32763	32749	32715	
1145	0	32607	32663	32821	33372	32899	32647	32703	32620	
1146	0	32653	32871	32677	33135	32844	32727	32839	32703	
1147	0	32663	32866	32775	33001	32764	32799	32743	32495	
1148	0	32684	32903	32923	33043	32771	32662	32771	32688	
1149	0	32813	32621	32967	32871	32541	32647	32811	32655	
1150	0	32765	32773	32767	32724	32687	32543	32747	32677	
1151	0	32786	32832	32666	32582	32671	32543	32727	32515	
1152	0	32769	32759	32301	32471	32759	32647	32722	32647	
1153	0	32695	32614	32370	32413	32663	32739	32775	32710	
1154	0	32743	32773	32327	32287	32658	32855	32717	32725	
1155	0	32761	32751	32407	32198	32897	32991	32766	32495	
1156	0	32732	32599	32383	32135	32865	32839	32775	32614	
1157	0	32726	32751	32503	32155	32803	32719	32703	32675	
1158	0	32760	32775	32601	32223	32852	32647	32822	32623	
1159	0	32825	32615	32596	32339	32812	32660	32683	32751	
1160	0	32783	32751	32711	32303	32847	32711	32729	32702	
1161	0	32769	32863	32977	32295	32658	32873	32759	32735	
1162	0	32745	32525	32881	32403	32743	32689	32759	32754	
1163	0	32807	32610	33103	32487	32867	32599	32876	32703	
1164	0	32869	32613	33315	32596	32775	32559	32829	32799	
1165	0	32822	32367	33309	32669	32830	32723	32767	32576	
1166	0	32775	32576	33263	32682	32719	32575	32801	32739	
1167	0	32791	32667	32667	32745	32823	32701	32759	32683	
1168	0	32725	32589	32471	32590	32817	32761	32742	32707	
1169	0	32668	32523	32281	32558	32804	32841	32727	32594	
1170	0	32828	32731	32407	32435	32885	32841	32727	32831	
1171	0	32683	32899	32341	32338	32727	32773	32724	32698	
1172	0	32634	32710	32031	32435	32645	32775	32751	32756	
1173	0	32697	32884	32223	32351	32627	32662	32877	32587	
1174	0	32702	32921	32285	32359	32773	32708	32719	32715	
1175	0	32780	32819	32378	32443	32751	32708	32727	32645	
1176	0	32802	32795	32547	32662	32679	32655	32713	32647	
1177	0	32729	32879	32513	32794	32923	32569	32694	32663	
1178	0	32701	32735	32524	32783	32923	32789	32645	32603	
1179	0	32694	32815	32746	32930	32885	32740	32723	32748	
1180	0	32726	32859	32935	32885	32858	32711	32731	32717	
1181	0	32661	32932	32943	32791	32903	32575	32758	32611	
1182	0	32725	32759	32775	32733	32717	32634	32699	32798	
1183	0	32803	32669	32667	32647	32663	32696	32861	32753	
1184	0	32813	32631	32657	32687	32755	32797	32751	32582	
1185	0	32724	32702	32587	32773	32743	32629	32771	32578	
1186	0	32670	32599	32389	32849	32819	32669	32821	32607	
1187	0	32653	32787	32527	32883	32847	32583	32771	32647	
1188	0	32666	32814	32527	32986	32852	32695	32763	32570	
1189	0	32617	32813	32515	32900	32798	32862	32759	32683	
1190	0	32679	32628	32683	32939	32679	32727	32715	32630	
1191	0	32692	32887	32487	32803	32742	32715	32756	32729	
1192	0	32644	32835	32803	32805	32871	32705	32708	32469	
1193	0	32751	33007	33101	32841	33012	32564	32719	32672	
1194	0	32754	32641	33279	32775	32668	32666	32693	32615	
1195	0	32767	32783	33295	32799	32575	32751	32797	32743	
1196	0	32791	32863	32870	32981	32799	32739	32647	32603	
1197	0	32869	32737	32790	32775	32686	32755	32748	32594	
1198	0	32844	32846	32731	32495	32796	32739	32733	32719	
1199	0	32839	32881	32499	32365	32852	32871	32683	32723	
1200	0	32727	32817	32315	32492	32764	32742	32754	32844	
1201	0	32647	32647	32363	32450	32869	32717	32677	32690	
1202	0	32782	32831	32337	32486	32775	32687	32775	32677	
1203	0	32736	32903	32726	32575	32707	32903	32833	32611	
1204	0	32663	32647	32862	32765	32738	32861	32831	32647	
1205	0	32695	32845	32807	32939	32694	32868	32895	32827	
1206	0	32783	32847	32839	32999	32789	32659	32913	32655	
1207	0	32897	32877	32558	33095	32775	32577	32795	32775	
1208	0	32847	32689	32438	33099	32799	32775	32756	32795	
1209	0	32916	32839	32471	33115	32847	32763	32817	32873	
1210	0	32895	32759	32540	33103	32814	32679	32765	32698	
1211	0	32790	32751	32743	32987	32807	32655	32726	32967	
1212	0	32806	32524	32426	33044	32762	32698	32799	32911	
1213	0	32760	32731	32445	33083	32831	32732	32708	32967	
1214	0	32699	32743	32317	33013	32708	32747	32757	32701	
1215	0	32798	32846	32297	32865	32811	32854	32711	32822	
1216	0	32729	32679	32378	32767	32835	32855	32759	32710	
1217	0	32799	32567	32342	32653	32834	32845	32741	32587	
1218	0	32755	32771	32541	32639	32699	32967	32770	32655	
1219	0	32775	32839	32487	32493	32831	32837	32787	32672	
1220	0	32797	32611	32551	32551	32773	32903	32775	32617	
1221	0	32761	32707	32604	32836	32669	33031	32836	32679	
1222	0	32722	32769	32575	33043	32709	33079	32676	32514	
1223	0	32713	32790	32642	32963	32679	32743	32723	32563	
1224	0	32828	32607	32575	32945	32793	32598	32823	32595	
1225	0	32850	32785	32831	32697	32735	32477	32806	32647	
1226	0	32818	32839	32873	32599	32854	32605	32795	32479	
1227	0	32725	32875	32879	32655	32795	32744	32692	32567	
1228	0	32684	32671	33026	32615	32804	32662	32694	32643	
1229	0	32640	32831	32923	32559	32763	32661	32788	32617	
1230	0	32577	32869	32739	32611	32741	32551	32719	32677	
1231	0	32622	32607	32795	32531	32795	32543	32771	32434	
1232	0	32668	32637	32711	32583	32677	32623	32775	32623	
1233	0	32749	32786	32609	32534	32721	32695	32798	32609	
1234	0	32748	32839	32487	32643	32671	32647	32730	32534	
1235	0	32811	32831	32493	32635	32767	32639	32695	32551	
1236	0	32852	32683	32553	32658	32743	32662	32727	32542	
1237	0	32738	32564	32599	32612	32805	32607	32775	32478	
1238	0	32749	32625	32709	32685	32773	32671	32713	32601	
1239	0	32764	32811	32839	32751	32834	32767	32687	32668	
1240	0	32862	32831	32847	32631	32773	32763	32733	32709	
1241	0	32826	32851	32724	32603	32825	32743	32739	32532	
1242	0	32786	32839	32623	32610	32786	32735	32733	32637	
1243	0	32756	32621	32423	32647	32829	32698	32806	32703	
1244	0	32697	32588	32609	32687	32749	32604	32789	32477	
1245	0	32708	32831	32775	32682	32847	32851	32737	32707	
1246	0	32733	32847	32759	32679	32698	32767	32799	32659	
1247	0	32801	32859	32903	32708	32743	32678	32821	32679	
1248	0	32807	32647	32823	32727	32631	32734	32909	32534	
1249	0	32835	32820	32799	32881	32836	32685	32878	32646	
1250	0	32766	32862	32647	32868	32798	32612	32897	32663	
1251	0	32668	32869	32526	32971	32818	32679	32802	32663	
1252	0	32647	32917	32631	32903	32751	32674	32773	32547	
1253	0	32653	32629	32579	32911	32711	32663	32807	32747	
1254	0	32740	32733	32775	32925	32701	32501	32827	32715	
1255	0	32660	32759	32927	32866	32623	32663	32811	32775	
1256	0	32786	32797	32551	32838	32675	32775	32815	32569	
1257	0	32806	32564	32489	32748	32615	32814	32751	32647	
1258	0	32718	32564	32421	32791	32829	32775	32734	32703	
1259	0	32759	32677	32547	32679	32855	32701	32630	32694	
1260	0	32719	32709	32762	32527	32875	32749	32687	32666	
1261	0	32762	32625	32727	32479	32855	32806	32740	32589	
1262	0	32783	32807	32694	32445	32783	32765	32705	32708	
1263	0	32816	32783	32775	32463	32964	32647	32802	32743	
1264	0	32823	32877	32795	32559	32885	32675	32732	32619	
1265	0	32854	32530	32694	32561	32614	32756	32903	32527	
1266	0	32787	32775	32633	32708	32671	32719	32879	32633	
1267	0	32781	32818	32615	32756	32594	32559	32973	32589	
1268	0	32775	32901	32635	32759	32762	32566	32923	32663	
1269	0	32823	32638	32550	32743	32711	32716	32843	32524	
1270	0	32903	32855	32575	32775	32755	32660	32871	32695	
1271	0	32956	32837	32723	32946	32767	32734	32751	32722	
1272	0	32988	32754	32463	33027	32758	32686	32775	32702	
1273	0	32962	32799	32443	33039	32867	32789	32875	32774	
1274	0	32879	32815	32559	32934	32903	32730	32846	32599	
1275	0	32810	32854	32699	32871	32903	32715	32775	32743	
1276	0	32705	32631	32391	32759	32847	32775	32751	32735	
1277	0	32630	32759	32311	32759	32631	32723	32698	32835	
1278	0	32582	32774	32310	32727	32655	32751	32669	32564	
1279	0	32617	32823	32468	32831	32691	32789	32591	32671	
1280	0	32499	32595	32509	32851	32935	32739	32566	32767	
1281	0	32505	32754	32533	32903	32871	32647	32581	32775	
1282	0	32604	32756	32780	32870	32792	32647	32749	32519	
1283	0	32748	32847	32967	32761	32694	32815	32748	32551	
1284	0	32726	32599	33037	32647	32663	32775	32717	32673	
1285	0	32813	32762	33019	32626	32767	32786	32825	32632	
1286	0	32725	32765	32916	32568	32771	32679	32804	32621	
1287	0	32745	32869	32839	32797	32847	32655	32813	32530	
1288	0	32878	32807	32733	32871	32847	32566	32874	32559	
1289	0	32969	32663	32465	32929	32826	32711	32735	32601	
1290	0	32866	32566	32489	32935	32854	32692	32853	32725	
1291	0	32832	32803	32447	32783	32709	32604	32761	32584	
1292	0	32866	32813	32375	32749	32769	32769	32767	32660	
1293	0	32817	32669	32383	32743	32687	32738	32775	32647	
1294	0	32787	32679	32383	32639	32791	32815	32799	32647	
1295	0	32841	32775	32359	32647	32810	32747	32835	32455	
1296	0	32851	32774	32447	32493	32731	32603	32751	32647	
1297	0	32815	32875	32621	32495	32868	32677	32809	32679	
1298	0	32784	32725	32499	32471	32709	32797	32775	32799	
1299	0	32752	32598	32454	32451	32833	32719	32732	32626	
1300	0	32696	32698	32607	32635	32783	32769	32764	32719	
1301	0	32714	32709	32771	32773	32807	32783	32711	32751	
1302	0	32696	32770	33055	32805	32627	32685	32821	32699	
1303	0	32703	32683	32901	32775	32835	32519	32694	32844	
1304	0	32734	32548	32935	32797	32845	32557	32788	32678	
1305	0	32672	32790	32875	32815	32809	32731	32794	32682	
1306	0	32766	32857	32775	32615	32863	32695	32758	32635	
1307	0	32765	32660	32703	32519	32755	32591	32863	32464	
1308	0	32751	32595	33046	32554	32839	32627	32725	32708	
1309	0	32766	32771	33135	32630	32775	32671	32850	32742	
1310	0	32786	32767	33005	32751	32876	32691	32811	32473	
1311	0	32783	32788	33069	32725	32839	32713	32789	32739	
1312	0	32781	32775	32855	32738	32819	32821	32687	32734	
1313	0	32728	32615	32750	32815	32641	32850	32767	32606	
1314	0	32657	32615	32479	32829	32839	32841	32647	32623	
1315	0	32716	32771	32596	32773	32855	32827	32563	32735	
1316	0	32775	32870	32495	32743	32919	32882	32735	32735	
1317	0	32742	32967	32338	32769	32982	32670	32603	32773	
1318	0	32748	32645	32135	32790	32727	32647	32701	32570	
1319	0	32813	32821	32011	32767	32511	32759	32787	32700	
1320	0	32759	32847	32157	32851	32541	32717	32743	32559	
1321	0	32837	32930	32207	32631	32727	32775	32783	32751	
1322	0	32797	32751	32229	32590	32807	32736	32679	32749	
1323	0	32769	32845	32383	32567	32735	32647	32692	32588	
1324	0	32692	32843	32283	32487	32838	32483	32694	32693	
1325	0	32652	32891	32423	32479	32727	32482	32695	32561	
1326	0	32707	32626	32455	32578	32834	32647	32791	32683	
1327	0	32720	32701	32475	32871	32759	32699	32756	32647	
1328	0	32759	32698	32607	32997	32754	32596	32726	32619	
1329	0	32827	32786	32807	32989	32811	32562	32843	32815	
1330	0	32868	32559	32925	32932	32831	32709	32850	32775	
1331	0	32903	32751	33014	32971	32677	32807	32749	32835	
1332	0	32894	32837	33213	33019	32695	32815	32791	32578	
1333	0	32834	32871	32965	32901	32690	32803	32675	32671	
1334	0	32825	32766	32775	32737	32759	32803	32741	32739	
1335	0	32788	32673	32623	32626	32719	32771	32644	32759	
1336	0	32823	32825	32487	32631	32807	32676	32789	32551	
1337	0	32783	32827	32683	32607	32871	32839	32738	32638	
1338	0	32775	32903	32620	32791	32887	32793	32721	32733	
1339	0	32685	32911	32471	32913	32646	32663	32762	32551	
1340	0	32647	32887	32471	32923	32679	32720	32847	32773	
1341	0	32597	32764	32503	32762	32662	32815	32749	32743	
1342	0	32561	32623	32855	32635	32894	32855	32730	32573	
1343	0	32591	32719	32957	32795	32815	32871	32759	32575	
1344	0	32692	32711	32838	32725	32877	32995	32701	32751	
1345	0	32681	32807	32943	32756	32758	32671	32787	32623	
1346	0	32743	32658	32983	32663	32647	32621	32773	32555	
1347	0	32820	32541	32895	32775	32775	32567	32763	32523	
1348	0	32831	32775	32847	32855	32695	32605	32831	32634	
1349	0	32909	32806	32863	32791	32791	32447	32699	32623	
1350	0	32909	32839	32500	32756	32711	32471	32790	32531	
1351	0	32805	32715	32581	32726	32865	32524	32729	32503	
1352	0	32772	32607	32646	32775	32748	32739	32827	32699	
1353	0	32820	32837	32599	32877	32850	32817	32756	32719	
1354	0	32691	32820	32623	32891	32845	32895	32787	32597	
1355	0	32773	32855	32455	32979	32805	32970	32709	32695	
1356	0	32729	32731	32737	33070	32726	32855	32773	32703	
1357	0	32760	32595	32707	33115	32750	32751	32767	32623	
1358	0	32889	32725	32903	33063	32797	32802	32723	32634	
1359	0	32835	32863	32859	32829	32743	32783	32783	32711	
1360	0	32800	32631	32715	32703	32719	32742	32739	32695	
1361	0	32725	32647	32756	32623	32773	32757	32827	32759	
1362	0	32722	32823	32638	32541	32843	32722	32732	32609	
1363	0	32696	32902	32615	32554	32807	32827	32706	32622	
1364	0	32727	32737	32323	32755	32921	32731	32753	32701	
1365	0	32759	32823	32503	32979	32855	32809	32735	32631	
1366	0	32786	32821	32617	33085	32775	32659	32759	32737	
1367	0	32684	32885	32739	33011	32816	32663	32814	32743	
1368	0	32739	32804	32679	32883	32831	32628	32791	32697	
1369	0	32672	32590	32604	32791	32832	32717	32751	32692	
1370	0	32724	32786	32594	32718	32735	32602	32775	32466	
1371	0	32679	32903	32771	32623	32807	32607	32871	32711	
1372	0	32621	32775	32484	32591	32725	32559	32839	32705	
1373	0	32571	32815	32239	32675	32821	32579	32791	32773	
1374	0	32685	32836	32407	32681	32790	32703	32839	32788	
1375	0	32821	32815	32523	32719	32761	32663	32626	32684	
1376	0	32768	32613	32631	32749	32853	32786	32595	32851	
1377	0	32759	32853	32810	32615	32788	32721	32558	32871	
1378	0	32850	32839	32989	32590	32825	32703	32679	32699	
1379	0	32926	32811	32793	32615	32803	32707	32647	32865	
1380	0	32903	32564	32855	32613	32877	32711	32718	32733	
1381	0	33011	32716	32775	32679	32647	32663	32717	32703	
1382	0	32915	32727	32615	32637	32703	32711	32692	32759	
1383	0	32807	32820	32333	32703	32717	32679	32758	32701	
1384	0	32698	32738	32303	32788	32763	32713	32655	32607	
1385	0	32621	32591	32621	32775	32685	32470	32647	32573	
1386	0	32606	32743	32701	32763	32789	32598	32759	32647	
1387	0	32707	32790	32683	32695	32713	32590	32788	32605	
1388	0	32590	32831	32391	32683	32860	32596	32743	32386	
1389	0	32581	32613	32321	32487	32745	32647	32757	32439	
1390	0	32663	32733	32450	32453	32745	32631	32685	32677	
1391	0	32751	32775	32505	32373	32791	32575	32703	32647	
1392	0	32662	32743	32738	32485	32747	32646	32706	32463	
1393	0	32719	32626	32595	32609	32695	32799	32682	32740	
1394	0	32722	32723	32694	32590	32699	32911	32665	32655	
1395	0	32761	32683	32690	32513	32773	32853	32747	32527	
1396	0	32790	32703	32543	32504	32759	32885	32711	32603	
1397	0	32814	32709	32687	32527	32799	32834	32661	32692	
1398	0	32806	32574	32645	32683	32749	32947	32637	32635	
1399	0	32807	32771	32729	32767	32827	32869	32599	32695	
1400	0	32818	32805	32583	32887	32723	32763	32591	32743	
1401	0	32844	32825	32389	33063	32771	32806	32661	32669	
1402	0	32787	32698	32135	32966	32671	32790	32655	32813	
1403	0	32721	32471	32153	33079	32719	32820	32647	32687	
1404	0	32751	32687	32346	32987	32741	32683	32684	32631	
1405	0	32721	32710	32549	32933	32927	32755	32577	32719	
1406	0	32719	32759	32475	32957	32887	32759	32643	32823	
1407	0	32798	32563	32647	32933	32815	32667	32701	32821	
1408	0	32751	32842	32703	32967	32807	32855	32655	32679	
1409	0	32808	32931	32477	32877	32811	32788	32663	32913	
1410	0	32734	32742	32690	32862	32923	32783	32730	32863	
1411	0	32798	32821	32956	32927	32890	32598	32867	32809	
1412	0	32889	32790	33181	32941	32756	32555	32986	32703	
1413	0	32962	32903	33329	32959	32723	32629	33039	32583	
1414	0	33053	32695	33534	33047	32623	32683	33388	32687	
1415	0	33049	32923	33275	33119	32679	32741	33335	32557	
1416	0	33102	32965	33413	33137	32630	32612	33467	32453	
1417	0	33086	32967	33299	33181	32633	32516	33303	32551	
1418	0	32988	32808	33255	33093	32615	32550	33158	32551	
1419	0	32943	32890	33135	33002	32599	32623	33075	32639	
1420	0	32861	32844	32845	32965	32586	32759	32935	32513	
1421	0	32739	32955	32813	32869	32771	32727	32828	32707	
1422	0	32726	32735	32767	32678	32739	32665	32727	32669	
1423	0	32644	32782	32738	32558	32775	32645	32815	32678	
1424	0	32631	32742	32869	32447	32807	32631	32731	32417	
1425	0	32533	32687	32565	32452	32642	32679	32641	32613	
1426	0	32564	32590	32404	32431	32551	32636	32708	32591	
1427	0	32551	32834	32373	32540	32869	32626	32733	32639	
1428	0	32532	32858	32366	32647	32877	32540	32692	32447	
1429	0	32607	32897	32415	32630	32868	32685	32698	32677	
1430	0	32758	32805	32606	32731	32925	32759	32581	32739	
1431	0	32846	32599	32493	32711	32758	32893	32719	32605	
1432	0	32832	32767	32647	32735	32831	32950	32775	32679	
1433	0	32822	32770	32423	32771	32747	32929	32799	32565	
1434	0	32884	32773	32503	32679	32869	32809	32671	32695	
1435	0	32791	32687	32196	32850	32743	32711	32743	32702	
1436	0	32782	32775	32251	32999	32805	32839	32702	32687	
1437	0	32713	32850	32399	32935	32839	32919	32547	32727	
1438	0	32629	32883	32229	32887	32750	32783	32593	32671	
1439	0	32582	32647	32004	32747	32823	32918	32620	32799	
1440	0	32564	32807	32207	32588	32829	32799	32676	32775	
1441	0	32663	32839	32383	32543	32771	32829	32683	32805	
1442	0	32653	32615	32602	32647	32782	32731	32615	32677	
1443	0	32690	32723	32883	32695	32786	32823	32639	32561	
1444	0	32708	32839	32805	32597	32789	32775	32758	32727	
1445	0	32677	32719	32596	32583	32759	32713	32756	32713	
1446	0	32738	32585	32807	32711	32775	32695	32871	32767	
1447	0	32773	32495	32903	32682	32687	32786	32823	32601	
1448	0	32839	32679	33061	32677	32746	32505	32715	32571	
1449	0	32822	32743	33213	32682	32759	32548	32746	32603	
1450	0	32852	32647	32819	32843	32783	32667	32751	32735	
1451	0	32844	32583	32735	32839	32788	32743	32751	32562	
1452	0	32775	32791	32701	32687	32709	32705	32767	32617	
1453	0	32815	32741	32567	32617	32751	32737	32725	32771	
1454	0	32780	32845	32579	32597	32790	32699	32711	32719	
1455	0	32850	32628	32551	32623	32729	32711	32703	32772	
1456	0	32783	32813	32579	32559	32835	32800	32687	32817	
1457	0	32728	32918	32436	32341	32841	32701	32658	32687	
1458	0	32710	32679	32382	32525	32719	32795	32759	32619	
1459	0	32736	32594	32271	32719	32855	32822	32723	32691	
1460	0	32719	32729	32617	32767	32783	32847	32727	32699	
1461	0	32678	32786	32623	32947	32855	32722	32769	32687	
1462	0	32656	32902	32463	32881	32927	32695	32724	32679	
1463	0	32653	32647	32373	32798	32787	32772	32766	32543	
1464	0	32639	32785	32402	32701	32893	32773	32711	32740	
1465	0	32723	32838	32322	32802	32738	32635	32751	32732	
1466	0	32718	32831	32767	32847	32701	32466	32826	32625	
1467	0	32686	32511	32798	32966	32751	32711	32711	32519	
1468	0	32788	32743	32823	33031	32799	32683	32783	32519	
1469	0	32787	32946	33038	33154	32958	32569	32823	32626	
1470	0	32796	32711	33027	32889	32943	32543	32727	32542	
1471	0	32903	32814	32999	32855	32903	32695	32690	32645	
1472	0	32834	32775	32694	32897	32793	32711	32691	32559	
1473	0	32817	32855	32742	32635	32607	32718	32711	32617	
1474	0	32756	32575	32804	32715	32693	32844	32751	32660	
1475	0	32800	32691	32895	32759	32738	32783	32814	32671	
1476	0	32861	32687	32685	32727	32855	32725	32765	32677	
1477	0	32820	32679	32724	32775	32759	32717	32715	32637	
1478	0	32730	32723	32847	32721	32891	32775	32690	32687	
1479	0	32719	32691	32764	32698	32775	32745	32711	32563	
1480	0	32698	32627	32535	32679	32679	32705	32672	32647	
1481	0	32686	32787	32627	32567	32767	32713	32775	32735	
1482	0	32697	32933	32403	32581	32775	32727	32775	32707	
1483	0	32661	32647	32549	32701	32857	32731	32790	32775	
1484	0	32736	32629	32515	32775	32745	32757	32706	32715	
1485	0	32759	32763	32709	32847	32692	32715	32790	32758	
1486	0	32758	32807	32641	32773	32735	32626	32845	32715	
1487	0	32767	32655	32545	32823	32671	32743	32814	32599	
1488	0	32834	32535	32425	32831	32839	32732	32868	32621	
1489	0	32771	32749	32713	32695	32825	32775	32700	32646	
1490	0	32804	32903	32751	32643	32647	32647	32773	32715	
1491	0	32802	32713	32662	32507	32876	32599	32754	32515	
1492	0	32798	32772	32749	32573	32666	32681	32745	32645	
1493	0	32773	32739	32531	32551	32647	32719	32843	32733	
1494	0	32738	32862	32598	32532	32733	32603	32721	32713	
1495	0	32740	32623	32719	32575	32647	32663	32745	32722	
1496	0	32786	32571	32690	32619	32703	32732	32804	32609	
1497	0	32802	32790	32802	32727	32815	32764	32674	32635	
1498	0	32793	32767	32807	32678	32899	32695	32759	32751	
1499	0	32736	32581	32444	32615	32919	32635	32742	32727	
1500	0	32751	32775	32334	32591	32973	32791	32759	32774	
1501	0	32783	32834	32541	32743	32771	32927	32793	32719	
1502	0	32890	32647	32751	32695	32890	32759	32756	32662	
1503	0	32789	32845	32487	32689	32757	32733	32751	32675	
1504	0	32715	32911	32477	32708	32555	32695	32903	32743	
1505	0	32837	32574	32551	32773	32679	32727	32900	32647	
1506	0	32911	32769	32613	32543	32791	32609	32707	32692	
1507	0	32749	32800	32730	32699	32711	32693	32815	32674	
1508	0	32751	32611	32535	32721	32775	32595	32807	32635	
1509	0	32743	32867	32551	32767	32771	32481	32711	32597	
1510	0	32710	32787	32518	32805	32903	32516	32811	32594	
1511	0	32809	32851	32519	32831	32829	32567	32663	32684	
1512	0	32821	32689	32671	32775	32870	32613	32707	32519	
1513	0	32695	32775	32743	32788	32762	32483	32711	32594	
1514	0	32677	32863	32854	32743	32830	32535	32659	32683	
1515	0	32754	32723	32791	32551	32884	32623	32742	32739	
1516	0	32745	32681	32897	32487	32861	32683	32742	32859	
1517	0	32775	32775	32879	32359	32775	32803	32767	32623	
1518	0	32716	32845	32757	32502	32759	32667	32753	32767	
1519	0	32710	32707	32681	32615	32679	32647	32707	32745	
1520	0	32775	32793	32767	32831	32815	32711	32759	32815	
1521	0	32798	32802	32603	32913	32775	32749	32731	32527	
1522	0	32843	32795	32443	32981	32701	32823	32711	32554	
1523	0	32815	32594	32389	32901	32708	32757	32756	32660	
1524	0	32787	32765	32482	32877	32797	32785	32743	32695	
1525	0	32749	32871	32543	32839	32692	32823	32783	32631	
1526	0	32666	32831	32535	32755	32951	32673	32751	32702	
1527	0	32671	32819	32583	33013	32914	32707	32754	32727	
1528	0	32706	32611	32627	33037	32647	32732	32708	32594	
1529	0	32705	32689	32775	33018	32789	32723	32815	32467	
1530	0	32766	32847	32813	32879	32839	32758	32767	32605	
1531	0	32908	32531	32903	32895	32743	32706	32759	32634	
1532	0	32868	32661	32967	32775	32711	32668	32732	32695	
1533	0	32881	32823	32621	32703	32811	32767	32810	32709	
1534	0	32902	32559	32743	32855	32765	32739	32852	32647	
1535	0	32804	32735	32660	32854	32679	32711	32839	32639	
1536	0	32881	32895	32621	32897	32827	32747	32786	32689	
1537	0	32821	32607	32684	32990	32759	32746	32789	32470	
1538	0	32711	32819	32775	32895	32782	32743	32685	32599	
1539	0	32855	32839	32915	32767	32762	32673	32700	32689	
1540	0	32709	32637	32751	32642	32711	32783	32686	32771	
1541	0	32727	32775	32740	32532	32669	32791	32655	32647	
1542	0	32804	32801	32567	32364	32739	32806	32727	32775	
1543	0	32775	32682	32815	32245	32723	32743	32709	32742	
1544	0	32890	32703	32942	32342	32831	32773	32831	32765	
1545	0	32850	32769	33091	32327	32807	32749	32699	32575	
1546	0	32883	32797	32848	32405	32775	32751	32800	32743	
1547	0	32861	32749	32783	32690	32822	32719	32761	32671	
1548	0	32782	32583	32775	32871	32839	32641	32865	32437	
1549	0	32751	32711	32595	32893	32742	32687	32839	32581	
1550	0	32726	32813	32443	32924	32694	32738	32775	32514	
1551	0	32759	32574	32327	32935	32883	32795	32751	32663	
1552	0	32742	32711	32214	32835	32823	32751	32738	32726	
1553	0	32644	32739	31967	32935	32751	32799	32679	32535	
1554	0	32666	32631	31933	32919	32819	32813	32839	32631	
1555	0	32709	32788	32255	32804	32787	32871	32566	32681	
1556	0	32719	32727	32492	32635	32854	32819	32741	32743	
1557	0	32674	32859	32563	32671	32775	32655	32731	32614	
1558	0	32703	32597	32895	32727	32663	32767	32723	32551	
1559	0	32802	32734	32983	32681	32724	32726	32775	32738	
1560	0	32739	32829	32551	32749	32644	32803	32775	32743	
1561	0	32721	32623	32337	32687	32723	32785	32828	32818	
1562	0	32669	32875	32287	32902	32773	32727	32821	32818	
1563	0	32676	32847	32287	32863	32743	32663	32812	32540	
1564	0	32737	32630	32254	32762	32751	32687	32806	32759	
1565	0	32782	32710	32207	32766	32826	32603	32765	32707	
1566	0	32789	32759	32259	32735	32807	32646	32687	32831	
1567	0	32825	32830	32107	32773	32875	32730	32815	32629	
1568	0	32767	32758	32631	32674	32845	32665	32775	32687	
1569	0	32726	32658	32695	32673	32802	32727	32767	32676	
1570	0	32724	32775	32903	32769	32808	32727	32758	32786	
1571	0	32676	32892	32903	32766	32790	32503	32783	32481	
1572	0	32758	32773	33046	32835	32823	32534	32831	32673	
1573	0	32647	32629	32953	32804	32805	32642	32819	32796	
1574	0	32599	32759	32994	32773	32891	32739	32903	32590	
1575	0	32647	32804	32837	32727	32871	32655	32775	32715	
1576	0	32792	32863	33069	32681	32877	32819	32706	32726	
1577	0	32812	32619	32978	32743	32847	32831	32775	32692	
1578	0	32767	32797	33044	32615	32678	32708	32737	32573	
1579	0	32741	32771	32685	32637	32775	32823	32775	32647	
1580	0	32807	32771	32719	32591	32748	32834	32679	32646	
1581	0	32870	32614	32836	32615	32748	32879	32670	32655	
1582	0	32788	32831	32775	32559	32839	32759	32663	32635	
1583	0	32720	32943	32663	32463	32775	32685	32722	32704	
1584	0	32708	32665	32527	32551	32775	32801	32791	32660	
1585	0	32723	32784	32601	32613	32820	32617	32791	32690	
1586	0	32719	32775	32647	32756	32786	32685	32839	32535	
1587	0	32735	32738	32711	32695	32765	32671	32754	32686	
1588	0	32767	32647	32646	32711	32738	32666	32751	32743	
1589	0	32738	32775	32514	32708	32766	32679	32845	32750	
1590	0	32778	32831	32647	32743	32647	32661	32751	32491	
1591	0	32748	32663	32699	32903	32726	32603	32811	32628	
1592	0	32716	32575	32682	32887	32739	32658	32833	32671	
1593	0	32711	32722	32843	33117	32687	32861	32743	32711	
1594	0	32713	32742	32839	33135	32815	32679	32785	32513	
1595	0	32730	32785	32999	33109	32765	32747	32775	32579	
1596	0	32726	32715	32762	33007	32775	32715	32789	32620	
1597	0	32712	32701	32831	32947	32743	32798	32709	32642	
1598	0	32734	32807	32754	32932	32711	32735	32767	32687	
1599	0	32797	32839	32596	32871	32711	32755	32775	32812	
1600	0	32737	32597	32582	32822	32857	32771	32823	32708	
1601	0	32717	32751	32596	32799	32821	32769	32791	32540	
1602	0	32822	32827	32539	32766	32722	32751	32667	32786	
1603	0	32878	32725	32709	32686	32775	32571	32703	32727	
1604	0	32968	32639	32647	32711	32684	32503	32679	32493	
1605	0	33072	32771	32791	32723	32924	32615	32735	32573	
1606	0	32980	32835	32676	32711	32839	32685	32773	32630	
1607	0	32879	32658	32557	32619	32739	32697	32783	32647	
1608	0	32655	32543	32319	32601	32785	32599	32799	32539	
1609	0	32626	32843	32207	32626	32915	32569	32727	32647	
1610	0	32579	32884	32214	32631	32754	32551	32767	32614	
1611	0	32523	32751	32073	32682	32823	32661	32775	32698	
1612	0	32494	32628	32134	32769	32791	32734	32800	32442	
1613	0	32504	32787	32359	32687	32775	32831	32727	32647	
1614	0	32631	32807	32422	32661	32869	32871	32817	32711	
1615	0	32589	32827	32359	32703	32847	32775	32726	32607	
1616	0	32621	32829	32642	32759	32671	32763	32823	32711	
1617	0	32636	32823	32769	32805	32893	32775	32719	32769	
1618	0	32711	32605	32961	32691	32685	32799	32863	32583	
1619	0	32646	32721	32855	32631	32846	32731	32771	32706	
1620	0	32638	32775	33086	32679	32775	32743	32771	32710	
1621	0	32655	32869	32949	32647	32765	32825	32766	32678	
1622	0	32764	32674	32837	32745	32783	32695	32775	32660	
1623	0	32700	32575	32535	32775	32799	32678	32711	32647	
1624	0	32787	32715	32554	32775	32789	32647	32767	32727	
1625	0	32809	32735	32375	32795	32679	32727	32771	32543	
1626	0	32828	32871	32583	32839	32775	32759	32775	32743	
1627	0	32764	32763	32443	32869	32859	32738	32810	32743	
1628	0	32791	32647	32407	32775	32835	32743	32839	32571	
1629	0	32758	32829	32579	32807	32891	32675	32767	32671	
1630	0	32754	32855	32391	32705	32868	32615	32739	32667	
1631	0	32711	32853	32612	32703	32834	32672	32786	32687	
1632	0	32655	32683	32641	32607	32868	32591	32795	32579	
1633	0	32740	32625	32839	32535	32794	32639	32783	32737	
1634	0	32793	32847	32804	32583	32823	32507	32755	32711	
1635	0	32909	32827	32927	32647	32775	32685	32730	32811	
1636	0	32902	32647	32959	32694	32786	32579	32691	32555	
1637	0	32910	32634	32943	32775	32709	32647	32783	32743	
1638	0	32925	32790	32647	32867	32751	32948	32695	32702	
1639	0	32848	32834	32774	32867	32723	32903	32815	32757	
1640	0	32791	32647	32751	32806	32731	32839	32759	32636	
1641	0	32754	32771	32797	32787	32709	32860	32673	32797	
1642	0	32773	32539	32620	32884	32743	32867	32790	32738	
1643	0	32761	32767	32711	32878	32707	32647	32725	32637	
1644	0	32743	32879	32695	32892	32813	32663	32799	32769	
1645	0	32775	32775	32706	32771	32735	32787	32725	32775	
1646	0	32741	32831	32773	32795	32775	32733	32757	32738	
1647	0	32655	32821	32663	32767	32771	32757	32743	32673	
1648	0	32747	32887	32575	32743	32775	32795	32751	32667	
1649	0	32761	32833	32711	32709	32743	32703	32743	32722	
1650	0	32726	32690	32583	32684	32845	32678	32786	32557	
1651	0	32703	32576	32759	32709	32829	32814	32713	32690	
1652	0	32703	32771	32652	32694	32751	32636	32719	32599	
1653	0	32762	32867	32566	32815	32815	32679	32767	32603	
1654	0	32774	32567	32622	32873	32775	32639	32807	32523	
1655	0	32765	32703	32733	32855	32768	32802	32735	32637	
1656	0	32789	32863	32626	32706	32727	32772	32775	32735	
1657	0	32783	32863	32575	32722	32663	32813	32790	32691	
1658	0	32725	33022	32631	32692	32787	32677	32797	32725	
1659	0	32772	33019	32825	32585	32799	32799	32794	32699	
1660	0	32802	33011	33015	32571	32738	32775	32715	32673	
1661	0	32789	32767	32742	32731	32863	32754	32733	32769	
1662	0	32775	32947	32915	32786	32773	32644	32724	32673	
1663	0	32806	32939	32631	32663	32775	32723	32702	32749	
1664	0	32713	32679	32459	32647	32818	32790	32701	32637	
1665	0	32822	32797	32455	32633	32734	32775	32731	32583	
1666	0	32804	32759	32295	32679	32810	32631	32759	32759	
1667	0	32772	32658	32362	32626	32759	32692	32767	32734	
1668	0	32703	32737	32475	32599	32811	32617	32748	32695	
1669	0	32799	32711	32687	32663	32775	32743	32709	32731	
1670	0	32760	32799	32871	32709	32531	32739	32773	32555	
1671	0	32768	32659	33046	32679	32527	32715	32843	32694	
1672	0	32732	32543	32676	32643	32709	32679	32839	32599	
1673	0	32765	32661	32629	32679	32999	32755	32655	32675	
1674	0	32765	32614	32602	32775	32875	32755	32598	32711	
1675	0	32687	32711	32621	32867	32877	32647	32706	32539	
1676	0	32669	32735	32509	32771	32860	32735	32755	32694	
1677	0	32637	32711	32631	32673	32711	32705	32846	32726	
1678	0	32663	32671	32659	32807	32711	32671	32847	32629	
1679	0	32777	32763	32685	32715	32614	32633	32740	32723	
1680	0	32704	32663	32796	32627	32797	32835	32751	32773	
1681	0	32751	32739	32583	32671	32839	32819	32724	32615	
1682	0	32740	32751	32709	32743	32663	32722	32711	32615	
1683	0	32751	32629	32681	32839	32866	32679	32843	32707	
1684	0	32764	32532	32679	32859	32876	32773	32811	32686	
1685	0	32786	32743	32493	32818	32738	32643	32834	32612	
1686	0	32806	32839	32527	32834	32743	32675	32773	32628	
1687	0	32871	32612	32482	32724	32594	32540	32691	32708	
1688	0	32807	32759	32450	32671	32852	32564	32759	32711	
1689	0	32765	32775	32455	32699	32915	32679	32730	32677	
1690	0	32756	32769	32250	32717	32927	32583	32743	32595	
1691	0	32758	32613	32449	32715	32805	32567	32781	32745	
1692	0	32783	32771	32479	32796	32700	32615	32711	32733	
1693	0	32741	32871	32467	32823	32753	32555	32743	32591	
1694	0	32682	32628	32562	32799	32759	32676	32711	32445	
1695	0	32669	32771	32447	32811	32731	32766	32687	32605	
1696	0	32711	32781	32541	32914	32773	32699	32763	32711	
1697	0	32711	32743	32599	32698	32807	32775	32731	32671	
1698	0	32727	32890	32647	32770	32723	32753	32758	32740	
1699	0	32817	32588	32799	32799	32731	32749	32791	32745	
1700	0	32838	32699	32730	32775	32762	32611	32748	32572	
1701	0	32842	32879	32765	32723	32727	32749	32705	32579	
1702	0	32881	32642	32813	32705	32806	32723	32786	32767	
1703	0	32903	32723	32927	32719	32706	32627	32783	32771	
1704	0	32860	32783	32758	32817	32822	32563	32759	32763	
1705	0	32813	32903	32943	32887	32738	32527	32818	32477	
1706	0	32788	32699	32795	32861	32875	32719	32787	32631	
1707	0	32814	32605	32742	32837	32871	32711	32798	32657	
1708	0	32743	32731	32505	32844	32723	32749	32759	32621	
1709	0	32739	32839	32639	32881	32787	32690	32845	32610	
1710	0	32728	32586	32501	32894	32807	32730	32878	32692	
1711	0	32754	32615	32647	32823	32775	32839	32742	32702	
1712	0	32797	32799	32579	32891	32794	32758	32698	32753	
1713	0	32775	32829	32647	32835	32711	32738	32731	32587	
1714	0	32816	32807	32621	32823	32775	32631	32829	32690	
1715	0	32829	32647	32589	32742	32747	32644	32751	32783	
1716	0	32844	32605	32587	32801	32797	32766	32759	32615	
1717	0	32828	32775	32855	32821	32845	32799	32692	32726	
1718	0	32813	32837	32843	32774	32853	32802	32782	32767	
1719	0	32900	32679	32961	32749	32797	32989	32726	32775	
1720	0	32826	32625	32609	32790	32801	32879	32826	32742	
1721	0	32853	32813	32759	32775	32715	32615	32818	32551	
1722	0	32788	32860	32619	32839	32845	32759	32730	32626	
1723	0	32748	32582	32687	32775	32759	32799	32823	32707	
1724	0	32727	32807	32766	32735	32749	32704	32775	32646	
1725	0	32669	32879	32574	32671	32683	32717	32767	32669	
1726	0	32715	32615	32534	32783	32806	32685	32851	32507	
1727	0	32698	32723	32731	32775	32854	32658	32751	32575	
1728	0	32762	32797	32653	32821	32799	32717	32727	32717	
1729	0	32773	32589	32655	32727	32862	32631	32811	32646	
1730	0	32730	32685	32709	32692	32813	32599	32775	32623	
1731	0	32733	32723	32548	32633	32731	32640	32703	32547	
1732	0	32708	32794	32727	32637	32679	32687	32795	32671	
1733	0	32743	32659	32679	32743	32623	32668	32679	32735	
1734	0	32747	32743	32775	32630	32796	32695	32775	32675	
1735	0	32756	32751	32545	32741	32903	32802	32730	32511	
1736	0	32764	32703	32447	32687	32807	32807	32647	32721	
1737	0	32748	32583	32603	32685	32871	32747	32719	32679	
1738	0	32738	32791	32611	32455	32775	32763	32774	32727	
1739	0	32727	32895	32553	32566	32679	32775	32756	32595	
1740	0	32725	32739	32758	32551	32678	32757	32875	32561	
1741	0	32712	32863	32839	32647	32831	32690	32814	32713	
1742	0	32644	32870	32730	32670	32956	32797	32667	32692	
1743	0	32694	32981	32914	32737	32869	32703	32794	32551	
1744	0	32726	32885	32707	32783	32707	32703	32775	32639	
1745	0	32834	32718	32621	32677	32743	32683	32825	32679	
1746	0	32793	32637	32729	32706	32677	32796	32895	32583	
1747	0	32753	32846	32903	32801	32757	32769	32764	32742	
1748	0	32716	32859	32879	32771	32869	32668	32607	32739	
1749	0	32636	32775	32813	32877	32855	32731	32703	32796	
1750	0	32645	32719	32356	32981	32855	32718	32671	32613	
1751	0	32687	32843	32452	32884	32873	32787	32719	32706	
1752	0	32725	32803	32383	32887	32749	32722	32695	32791	
1753	0	32829	32795	32617	32869	32733	32671	32745	32531	
1754	0	32818	32671	32370	32876	32415	32523	32715	32653	
1755	0	32823	32797	32679	32895	32655	32690	32861	32679	
1756	0	32791	32831	32647	32877	32876	32853	32922	32675	
1757	0	32725	32646	32517	32718	32903	32863	32839	32573	
1758	0	32730	32742	32615	32671	32903	32743	32695	32887	
1759	0	32774	32799	32324	32676	32934	32655	32563	32861	
1760	0	32816	32855	32439	32742	32839	32623	32639	32617	
1761	0	32669	32911	32460	32775	32747	32662	32609	32743	
1762	0	32718	32647	32495	32687	32671	32815	32711	32734	
1763	0	32796	32763	32584	32707	32823	32743	32727	32671	
1764	0	32871	32743	32813	32690	32769	32670	32703	32653	
1765	0	32969	32838	32731	32653	32811	32663	32759	32647	
1766	0	32871	32693	32693	32774	32775	32679	32655	32737	
1767	0	32747	32646	32258	32701	32805	32617	32751	32660	
1768	0	32699	32845	32227	32745	32775	32615	32785	32687	
1769	0	32535	32839	32315	32807	32887	32541	32802	32673	
1770	0	32605	32877	32417	32764	32759	32619	32751	32519	
1771	0	32685	32661	32667	32759	32711	32626	32887	32731	
1772	0	32786	32594	32935	32743	32635	32743	32799	32685	
1773	0	32878	32742	33242	32747	32679	32669	32856	32749	
1774	0	32846	32902	33138	32786	32782	32669	32842	32673	
1775	0	32815	32599	33107	32722	32699	32749	32703	32503	
1776	0	32866	32711	33158	32739	32807	32667	32723	32706	
1777	0	32946	32698	32839	32706	32743	32663	32769	32676	
1778	0	32925	32813	32903	32717	32828	32535	32775	32773	
1779	0	32879	32602	32743	32679	32908	32647	32791	32510	
1780	0	32882	32685	32655	32788	32810	32599	32751	32675	
1781	0	32840	32722	32519	32751	32895	32726	32802	32726	
1782	0	32873	32759	32500	32706	32676	32784	32881	32751	
1783	0	32839	32599	32535	32663	32549	32699	32829	32543	
1784	0	32752	32811	32496	32661	32466	32846	32809	32702	
1785	0	32740	32863	32475	32738	32629	32807	32801	32643	
1786	0	32714	32684	32553	32831	32893	32941	32771	32603	
1787	0	32684	32699	32405	32874	32743	32822	32759	32567	
1788	0	32644	32887	32391	32796	32839	32743	32812	32484	
1789	0	32711	32813	32580	32847	32811	32941	32767	32707	
1790	0	32754	32591	32607	32847	32719	32903	32790	32629	
1791	0	32710	32775	32685	32759	32852	32871	32709	32722	
1792	0	32687	32775	32613	32841	32693	32807	32773	32591	
1793	0	32749	32847	32751	32739	32810	32825	32766	32727	
1794	0	32703	32655	32759	32775	32807	32719	32743	32815	
1795	0	32766	32541	32855	32679	32903	32736	32667	32641	
1796	0	32782	32703	32615	32663	32775	32839	32665	32763	
1797	0	32694	32709	32799	32689	32877	32926	32611	32726	
1798	0	32796	32757	32775	32711	32853	32865	32694	32612	
1799	0	32860	32847	32930	32740	32850	32868	32723	32662	
1800	0	32881	32790	32723	32695	32854	32807	32711	32671	
1801	0	32843	32598	32647	32732	32715	32639	32827	32695	
1802	0	32862	32771	32759	32793	32871	32747	32775	32717	
1803	0	32815	32855	32623	32733	32793	32607	32835	32556	
1804	0	32812	32685	32546	32738	32698	32691	32867	32598	
1805	0	32786	32775	32406	32825	32844	32677	32765	32666	
1806	0	32735	32895	32351	32727	32838	32614	32739	32710	
1807	0	32719	32711	32513	32751	32763	32623	32799	32663	
1808	0	32740	32535	32422	32902	32687	32647	32844	32749	
1809	0	32748	32679	32453	32901	32623	32775	32819	32773	
1810	0	32797	32765	32615	32844	32748	33311	32871	32583	
1811	0	32727	32759	32628	32935	32903	33695	32799	32527	
1812	0	32698	32797	32693	32967	32871	33614	32875	32583	
1813	0	32769	32887	33067	32835	32703	33622	32807	32831	
1814	0	32884	32619	33227	32737	32743	33391	32903	32749	
1815	0	32855	32740	33110	32701	32739	33090	32806	32711	
1816	0	32918	32775	33207	32638	32748	33015	32803	32599	
1817	0	32839	32859	33213	32681	32627	33023	32881	32559	
1818	0	32893	32711	32958	32587	32601	32879	32807	32738	
1819	0	32852	32617	32819	32615	32902	32705	32775	32639	
1820	0	32736	32815	32471	32631	32674	32717	32919	32726	
1821	0	32823	32881	32477	32661	32623	32571	32815	32519	
1822	0	32793	32647	32545	32687	32708	32498	32762	32571	
1823	0	32801	32795	32595	32674	32799	32463	32743	32643	
1824	0	32806	32783	32505	32587	32959	32549	32743	32688	
1825	0	32809	32733	32407	32487	32941	32527	32679	32819	
1826	0	32668	32549	32263	32479	32795	32479	32681	32543	
1827	0	32611	32818	31921	32599	32959	32339	32671	32689	
1828	0	32676	32847	31835	32565	32854	32471	32751	32730	
1829	0	32567	32583	31917	32591	32758	32539	32723	32723	
1830	0	32573	32847	32015	32655	32775	32427	32807	32535	
1831	0	32496	32887	32167	32811	32861	32563	32683	32743	
1832	0	32565	32967	32066	32805	32705	32503	32668	32763	
1833	0	32642	32587	32359	32951	32730	32577	32717	32757	
1834	0	32647	32807	32547	32810	32798	32519	32633	32791	
1835	0	32677	32910	32637	32711	32694	32619	32631	32643	
1836	0	32664	32694	32711	32814	32767	32527	32663	32535	
1837	0	32738	32807	33035	32791	32787	32663	32675	32807	
1838	0	32679	32879	33241	32795	32610	32678	32820	32751	
1839	0	32678	32683	33062	32889	32674	32692	32845	32747	
1840	0	32719	32780	33172	32775	32703	32555	32743	32635	
1841	0	32845	32771	33151	32827	32731	32578	32807	32534	
1842	0	32970	32593	33063	32919	32813	32741	32803	32609	
1843	0	32974	32525	32965	32877	32929	32716	32695	32647	
1844	0	32994	32743	32799	32807	32828	32679	32732	32703	
1845	0	32929	32819	32580	32715	32879	32749	32709	32607	
1846	0	32870	32610	32692	32641	32838	32743	32765	32711	
1847	0	32806	32630	32679	32683	32803	32567	32736	32639	
1848	0	32793	32803	32701	32757	32557	32630	32849	32575	
1849	0	32819	32813	32575	32739	32791	32671	32711	32631	
1850	0	32767	32855	32914	32788	32819	32547	32775	32675	
1851	0	32903	32655	33196	32662	32590	32693	32839	32591	
1852	0	32895	32848	33364	32727	32787	32684	32923	32709	
1853	0	32816	32874	33411	32809	32727	32741	32931	32587	
1854	0	32818	32931	33002	32757	32757	32647	32877	32601	
1855	0	32834	32859	32759	32759	32813	32643	32852	32683	
1856	0	32806	32635	32565	32690	32671	32685	32701	32703	
1857	0	32696	32935	32594	32675	32574	32581	32628	32541	
1858	0	32703	32903	32437	32711	32687	32711	32685	32731	
1859	0	32602	32901	32479	32757	33234	32741	32708	32839	
1860	0	32440	32707	32155	32921	32957	32719	32695	32796	
1861	0	32379	32614	32167	32803	32925	32791	32586	32471	
1862	0	32437	32770	32243	32745	32739	32693	32617	32642	
1863	0	32574	32903	32407	32956	32987	32551	32687	32725	
1864	0	32732	32691	32502	32940	32501	32551	32751	32742	
1865	0	32661	32639	32611	32839	32039	32507	32901	32759	
1866	0	32644	32775	32375	32762	32305	32559	32695	32647	
1867	0	32844	32835	32495	32758	32864	32647	32640	32719	
1868	0	32886	32643	32587	32787	32929	32507	32727	32715	
1869	0	32871	32543	32426	32613	33063	32531	32669	32702	
1870	0	32851	32784	32423	32556	32981	32549	32611	32643	
1871	0	32804	32845	32292	32551	32919	32487	32628	32524	
1872	0	32836	32644	31943	32543	32989	32527	32647	32695	
1873	0	32856	32591	32135	32719	32919	32497	32727	32671	
1874	0	32796	32738	32278	32791	32531	32535	32785	32775	
1875	0	32831	32831	32391	32823	32654	32647	32774	32671	
1876	0	32781	32845	32249	32739	32831	32615	32883	32753	
1877	0	32855	32740	32531	32738	32835	32723	32815	32659	
1878	0	32797	32589	32655	32579	32706	32663	32850	32683	
1879	0	32803	32881	32943	32433	32679	32775	32775	32803	
1880	0	32838	32922	33079	32647	32710	32623	32935	32455	
1881	0	32807	32689	32932	32643	32835	32671	32939	32391	
1882	0	32852	32599	33127	32759	32607	32621	32721	32655	
1883	0	32879	32759	33145	32810	32773	32639	32701	32815	
1884	0	32866	32772	33334	32887	32775	32663	32707	32831	
1885	0	32868	32791	33283	32859	32877	32674	32911	32631	
1886	0	32903	32516	33502	33022	32747	32703	32833	32703	
1887	0	32876	32615	33671	32971	32839	32646	32767	32586	
1888	0	32782	32711	33431	33038	32727	32588	32839	32647	
1889	0	32762	32711	33415	33019	32692	32692	32871	32582	
1890	0	32760	32623	33063	32929	32733	32647	32669	32557	
1891	0	32836	32762	32897	32829	33031	32775	32775	32670	
1892	0	32642	32959	32619	32834	32826	32705	32665	32663	
1893	0	32749	32679	32381	32751	32655	32790	32679	32722	
1894	0	32802	32775	32255	32687	32899	32876	32461	32655	
1895	0	32726	32807	32167	32831	32854	32950	32534	32883	
1896	0	32677	32845	31999	32863	32355	32973	33037	32710	
1897	0	32705	32887	32006	32871	32069	32804	32911	32721	
1898	0	32620	32638	31809	32871	32187	32699	32786	32703	
1899	0	32571	32571	32063	32821	32047	32809	32477	32699	
1900	0	32604	32713	32125	32725	32247	32942	32591	32807	
1901	0	32609	32775	32479	32655	32590	32862	32694	32639	
1902	0	32845	32738	32919	32606	32695	32900	32677	32825	
1903	0	32829	32615	32763	32663	32759	32822	32535	32695	
1904	0	32822	32573	32883	32659	32695	32807	32659	32807	
1905	0	32685	32743	32638	32667	32839	32735	32585	32630	
1906	0	32730	32749	32574	32615	32863	32765	32639	32739	
1907	0	32730	32805	32438	32503	32996	32804	32751	32722	
1908	0	32666	32677	31877	32501	32903	32794	32626	32743	
1909	0	32566	32661	31846	32493	32863	32731	32743	32610	
1910	0	32617	32783	31822	32494	32960	32647	32615	32655	
1911	0	32586	32759	31879	32483	32829	32791	32686	32659	
1912	0	32565	32783	31775	32503	33053	32845	32807	32511	
1913	0	32674	32594	32015	32754	33079	32763	32735	32467	
1914	0	32721	32703	32207	32876	33044	32747	32823	32572	
1915	0	32752	32764	32543	32871	32998	32711	32691	32654	
1916	0	32740	32786	32878	32919	32871	32671	32647	32583	
1917	0	32759	32562	33183	32773	32707	32693	32667	32468	
1918	0	32799	32715	33519	32630	32785	32742	32871	32663	
1919	0	32884	32743	33467	32623	32927	32923	32729	32819	
1920	0	32860	32754	33367	32577	32871	32839	32604	32671	
1921	0	32830	32615	33388	32562	32845	32854	32611	32491	
1922	0	32770	32613	33281	32613	32845	32824	32604	32783	
1923	0	32830	32823	33076	32535	32991	32959	32527	32781	
1924	0	32729	32851	32834	32463	33023	32809	32563	32727	
1925	0	32678	32895	32591	32571	32434	32773	32615	32679	
1926	0	32677	32629	32617	32717	32748	32861	32578	33159	
1927	0	32735	32836	32263	32876	32983	32799	32621	32989	
1928	0	32744	32815	32109	32898	33094	32758	32759	32786	
1929	0	32770	32979	32165	33103	32807	32707	32951	32607	
1930	0	32943	32695	32291	33099	32567	32630	33211	32631	
1931	0	33014	32875	32526	33125	32607	32685	33263	32487	
1932	0	33002	32895	32711	33167	32636	32607	33333	32579	
1933	0	33138	32879	32931	33159	32685	32501	33301	32311	
1934	0	33154	32637	32951	33281	32799	32549	33314	32519	
1935	0	33107	32703	33149	33133	32967	32566	33221	32574	
1936	0	32991	32839	33063	32998	32829	32463	33178	32483	
1937	0	32937	32903	33287	32903	32901	32671	32951	32621	
1938	0	32821	32994	33159	32630	32831	32679	32814	32619	
1939	0	32751	32769	32759	32317	32994	32706	32711	32406	
1940	0	32742	32813	32751	32226	32302	32873	33009	32375	
1941	0	32704	32935	32590	32212	32260	32850	32951	32325	
1942	0	32701	32799	32499	32223	32455	32863	32661	32706	
1943	0	32655	32922	32495	32417	32846	32801	32683	32868	
1944	0	32612	32969	32391	32671	32854	32757	32730	32743	
1945	0	32541	32647	32382	32825	32571	32655	32663	32669	
1946	0	32640	32749	32454	33006	32559	32715	32694	32548	
1947	0	32613	32702	32135	32993	32685	32562	32687	32615	
1948	0	32669	32659	32199	33086	32812	32573	32741	32605	
1949	0	32709	32455	32455	33059	32941	32647	32671	32667	
1950	0	32666	32630	32570	33025	32967	32669	32623	32583	
1951	0	32789	32555	32590	32811	32879	32727	32771	32469	
1952	0	32804	32639	32795	32698	32887	32564	32723	32611	
1953	0	32748	32479	32855	32751	32803	32631	32695	32647	
1954	0	32804	32663	32599	32603	32836	32719	32667	32658	
1955	0	32834	32708	32749	32551	32775	32711	32643	32517	
1956	0	32792	32775	32805	32490	32727	32747	32715	32647	
1957	0	32721	32541	32723	32463	32839	32699	32621	32749	
1958	0	32782	32498	32705	32511	32809	32730	32727	32765	
1959	0	32833	32703	32642	32463	32911	32687	32679	32549	
1960	0	32794	32789	32597	32549	32935	32742	32715	32670	
1961	0	32772	32602	32657	32637	32703	32771	32681	32783	
1962	0	32743	32738	32667	32619	32712	32845	32667	32673	
1963	0	32746	32701	32790	32820	32756	32797	32751	32635	
1964	0	32706	32795	32843	32925	32695	32761	32639	32519	
1965	0	32673	32591	32569	32837	32690	32814	32671	32612	
1966	0	32657	32749	32687	32802	32827	32879	32597	32838	
1967	0	32705	32831	32731	32687	32854	32817	32743	32851	
1968	0	32786	32894	32748	32679	32677	32708	32772	32583	
1969	0	32832	32709	32901	32631	32697	32630	32751	32695	
1970	0	32832	32641	32743	32591	32638	32551	32755	32635	
1971	0	32770	32738	32879	32663	32860	32533	32973	32444	
1972	0	32734	32763	32815	32786	32967	32582	33063	32693	
1973	0	32798	32711	32685	32731	33326	32796	32932	32774	
1974	0	32761	32775	32685	32837	33083	32706	32799	32797	
1975	0	32735	32783	32671	32807	32983	32793	32480	32999	
1976	0	32724	32759	32551	32742	32333	32912	32415	32711	
1977	0	32660	32589	32317	32695	32443	32839	32579	32644	
1978	0	32618	32751	32455	32782	32583	32743	32581	32659	
1979	0	32686	32895	32493	32700	32891	32843	32679	32663	
1980	0	32679	32623	32567	32783	33039	32915	32759	32774	
1981	0	32750	32743	32591	32519	33037	32919	32699	32679	
1982	0	32743	32831	32711	32514	33057	32763	32730	32591	
1983	0	32751	32598	32486	32639	32916	32989	32807	32619	
1984	0	32686	32706	32503	32587	32891	32927	32685	32698	
1985	0	32710	32807	32573	32747	32263	32755	32709	32635	
1986	0	32718	32933	32675	32747	32301	32822	32850	32482	
1987	0	32704	32745	32739	32799	32941	32687	32537	32727	
1988	0	32766	32547	32635	32775	33012	32585	32755	32593	
1989	0	32863	32762	32838	32871	33087	32605	32595	32683	
1990	0	32817	32770	33129	32932	32839	32738	32951	32525	
1991	0	32842	32683	33375	32986	32487	32875	33695	32423	
1992	0	32965	32498	33543	32919	33095	33083	33483	32495	
1993	0	33052	32647	33769	32847	32937	33005	32933	32719	
1994	0	32908	32751	33515	32804	32709	32935	32665	32603	
1995	0	32820	32731	33685	32829	32774	32961	33356	32850	
1996	0	32794	32574	33492	32747	32706	32883	32413	32735	
1997	0	32735	32788	33311	32743	33141	32853	32228	32695	
1998	0	32652	32933	32887	32716	32647	32811	32594	32886	
1999	0	32751	32647	32236	32586	32103	32703	32159	32814	
2000	0	32582	32836	31680	32445	31309	32690	32321	32774	
2001	0	32534	32914	31191	32503	32465	32567	32806	32722	
2002	0	32455	32967	30903	32647	32833	32535	32721	32643	
2003	0	32339	32791	31111	32821	32462	32570	32658	32451	
2004	0	32500	32874	31199	32921	32745	32529	32793	32743	
2005	0	32635	32807	30973	32959	32911	32559	32910	32760	
2006	0	32517	32848	31063	32903	32959	32594	32855	32570	
2007	0	32580	32791	31095	32786	32923	32515	32763	32659	
2008	0	32706	32711	31619	32503	32850	32519	32753	32642	
2009	0	32756	32767	32383	32595	32735	32527	32759	32571	
2010	0	32802	32743	32991	32715	32900	32535	32759	32565	
2011	0	32867	32594	33306	32646	32735	32535	32807	32463	
2012	0	32961	32757	33787	32745	32887	32589	32835	32483	
2013	0	32866	32813	33657	32734	33079	32748	32683	32815	
2014	0	32921	32865	33629	32391	32852	32702	32797	32763	
2015	0	32880	32647	33543	32231	32581	32623	32903	32819	
2016	0	32903	32775	33142	32359	32469	32943	32822	32710	
2017	0	32950	32855	32545	32397	32890	32799	32583	32763	
2018	0	32775	32749	32119	32509	33140	32791	32431	32753	
2019	0	32764	32767	31655	32852	33023	32663	32587	32702	
2020	0	32720	32749	31693	33235	33150	32855	32759	32751	
2021	0	32612	32670	31709	33524	32966	32845	32687	32767	
2022	0	32631	32695	31887	33505	32823	32755	32706	32639	
2023	0	32656	32815	32178	33503	32818	32775	32791	32564	
2024	0	32662	32551	32410	33319	32878	32802	32684	32644	
2025	0	32722	32773	32887	33167	32719	32743	32695	32775	
2026	0	32831	32827	33207	33079	32679	32676	32811	32671	
2027	0	32769	32655	33106	33054	32775	32830	32722	32690	
2028	0	32815	32791	33383	32954	32762	32971	32923	32463	
2029	0	32787	32871	33423	32803	32732	32975	32911	32687	
2030	0	32764	32943	33375	32743	32534	32858	32863	32583	
2031	0	32812	32852	33539	32604	32719	32807	32599	32607	
2032	0	32849	32615	33278	32540	32810	32761	32841	32442	
2033	0	32930	32807	33175	32481	32903	32839	32983	32551	
2034	0	32926	32841	33499	32423	32659	32976	32879	32634	
2035	0	32895	32775	33764	32471	32539	33011	32566	32523	
2036	0	32833	32786	33797	32391	32796	33141	32587	32715	
2037	0	32797	32865	33621	32348	33263	33060	32725	32695	
2038	0	32783	32775	33271	32563	33884	33076	32885	32814	
2039	0	32839	32637	33010	32646	33681	32956	32815	32845	
2040	0	32882	32573	32647	32644	32935	32883	32775	32745	
2041	0	32851	32647	32599	32739	32339	32871	32661	32412	
2042	0	32769	32619	32349	32694	31623	32732	32527	32535	
2043	0	32783	32663	32250	32639	32051	32797	32893	32899	
2044	0	32745	32697	32095	32743	32495	32773	32687	32935	
2045	0	32666	32615	31734	32679	32679	32814	32839	32679	
2046	0	32647	32578	31845	32583	32775	32595	32713	32489	
2047	0	32690	32756	31999	32546	32563	32507	32867	32541	
2048	0	32743	32751	32078	32541	33059	32671	32711	32647	
2049	0	32660	32887	32047	32551	32434	32511	32615	32701	
2050	0	32733	32719	32156	32621	32623	32447	32727	32722	
2051	0	32756	32583	32317	32701	33309	32495	33236	32639	
2052	0	32788	32801	32484	32815	33235	32417	33093	32927	
2053	0	32727	32834	32715	32823	33130	32271	32734	33055	
2054	0	32802	32815	32926	32887	33287	32311	32801	32831	
2055	0	32831	32673	32727	32945	33101	32474	32675	32385	
2056	0	32756	32811	32989	32901	32831	32378	32583	32382	
2057	0	32783	32775	32903	32923	32049	32233	32595	32647	
2058	0	32809	32815	32887	32959	32057	32354	32644	32877	
2059	0	32848	32589	32943	32927	31830	32369	32886	32703	
2060	0	32756	32805	32895	32919	32362	32345	32671	32477	
2061	0	32700	32871	32847	32919	33091	32415	32745	32621	
2062	0	32674	32883	32666	32895	32630	32441	32658	32837	
2063	0	32818	32733	32801	32639	33061	32502	32487	32938	
2064	0	32861	32629	32841	32691	33687	32615	33071	32524	
2065	0	32961	32827	32945	32839	35007	32647	32742	32567	
2066	0	33116	32708	33133	32711	36709	32847	33042	32687	
2067	0	32950	32790	33029	32807	33001	32338	32303	32770	
2068	0	32740	32663	32911	32853	29511	32187	32671	32660	
2069	0	32794	32767	32611	32711	30391	32405	33047	32639	
2070	0	32747	32833	32863	32615	31703	32567	32749	32549	
2071	0	32793	32802	32870	32463	31873	32834	32159	32671	
2072	0	32850	32716	32845	32492	33775	32917	33479	32647	
2073	0	32713	32605	32581	32671	32434	32719	33044	32791	
2074	0	32791	32762	32423	32698	32497	32711	33316	33014	
2075	0	32836	32759	32516	32715	33139	32862	33366	32877	
2076	0	32631	32967	32647	32911	32063	32758	33437	32551	
2077	0	32839	32663	32919	32773	32478	32903	32585	32838	
2078	0	32974	32719	33251	32733	32941	32767	32194	33071	
2079	0	32895	32811	33201	32647	32445	32868	32564	32959	
2080	0	32912	32699	33263	32287	32164	33004	32509	32242	
2081	0	32873	32747	33261	32025	32607	33279	32666	32316	
2082	0	32791	32863	32960	32051	32999	33047	32686	33123	
2083	0	32714	32892	32693	32359	33074	33143	32557	32698	
2084	0	32716	32670	32829	32773	32628	32975	32709	32326	
2085	0	32609	32983	32701	33474	33046	32727	32897	32450	
2086	0	32731	32915	32927	33465	33641	32834	32967	32311	
2087	0	32806	32599	33415	33102	34271	33103	33261	32457	
2088	0	32886	32403	33671	32605	34299	33042	32551	32548	
2089	0	32775	32551	33258	32513	31967	32898	32135	32738	
2090	0	32825	32660	33387	32702	32767	32974	32742	32817	
2091	0	32677	32687	32913	32949	33037	33053	32643	32993	
2092	0	32571	32826	31931	33014	32391	32935	32775	32695	
2093	0	32454	32856	30942	32860	31926	32827	32385	32479	
2094	0	32423	32932	30177	32791	32341	32854	32559	32775	
2095	0	32595	32730	29692	32535	33127	32893	32775	32815	
2096	0	32603	32831	29469	32507	33045	32914	32869	32943	
2097	0	32626	32852	29500	32667	32914	32903	32593	32795	
2098	0	32667	32733	30017	32775	32623	32767	32711	32785	
2099	0	32689	32807	30701	32903	32543	32705	32727	32765	
2100	0	32656	32879	31559	32935	33149	32851	33115	32487	
2101	0	32692	32607	32190	33119	33135	32844	32987	32511	
2102	0	32669	32733	32795	33090	33051	32895	33127	32842	
2103	0	32679	32804	33327	32775	32479	32863	32735	32775	
2104	0	32684	32598	33487	32647	32415	32669	32515	32607	
2105	0	32826	32737	33683	32531	33095	32814	32391	32730	
2106	0	32850	32737	33575	32372	32567	32923	32341	33021	
2107	0	32826	32609	33353	32606	33132	32775	32919	32838	
2108	0	32732	32807	33184	32941	32699	32695	32751	32548	
2109	0	32952	32799	33303	33082	33461	32811	32676	32823	
2110	0	32939	32617	33255	33093	33375	32756	32770	32598	
2111	0	32828	32790	33402	33079	32151	32743	32809	32715	
2112	0	32839	32786	33526	32935	31492	32675	32775	32626	
2113	0	32876	32668	33461	32751	32995	32702	32933	32547	
2114	0	32823	32787	33287	32675	32914	32687	32647	32647	
2115	0	32808	32709	33188	32791	32311	32691	32531	32426	
2116	0	32815	32711	33248	32647	33511	32731	32599	32715	
2117	0	32816	32857	33206	32566	33607	32767	32655	32789	
2118	0	32839	32723	33030	32564	32987	32655	32724	32759	
2119	0	32830	32596	33131	32582	31851	32501	32332	32797	
2120	0	32757	32819	32826	32567	31145	32487	32962	32436	
2121	0	32745	32827	32914	32540	32499	32519	33383	32549	
2122	0	32876	32699	32943	32527	32694	32413	33114	32443	
2123	0	32812	32582	32925	32499	32881	32461	33110	32487	
2124	0	32773	32761	32831	32717	32978	32423	32890	32719	
2125	0	32810	32683	32787	32823	32899	32271	32686	32646	
2126	0	32826	32609	32829	32836	32903	32367	32748	32647	
2127	0	32780	32823	32772	32673	33044	32470	32687	32868	
2128	0	32806	32839	32834	32499	33549	32639	32659	32935	
2129	0	32846	32603	32767	32342	33469	32647	32668	33035	
2130	0	32852	32746	32775	32373	32967	32550	32565	32791	
2131	0	32825	32887	32740	32335	31538	32710	32647	32364	
2132	0	32772	32759	32663	32343	32677	32841	33315	32537	
2133	0	32695	32881	32599	32179	32566	32565	32919	32855	
2134	0	32712	33002	32527	32463	32489	32563	32749	32854	
2135	0	32743	32733	32607	32749	33333	32740	32769	32279	
2136	0	32800	32671	32478	33230	33959	32739	32924	32347	
2137	0	32861	32500	32585	33567	32799	32459	32642	32631	
2138	0	32884	32581	32447	33622	31729	32316	32582	32719	
2139	0	32860	32389	32385	33511	32927	32578	32832	32785	
2140	0	32852	32514	32477	33585	32452	32487	32839	32891	
2141	0	32759	32722	32412	33501	32359	32466	32707	32841	
2142	0	32764	32502	32415	33213	32967	32636	32647	32356	
2143	0	32735	32707	32455	32966	32835	32715	32797	32564	
2144	0	32713	32851	32567	32635	33091	32530	32708	32859	
2145	0	32698	32671	32524	32501	33542	32500	32549	32757	
2146	0	32644	32794	32646	32455	32831	32455	32365	32698	
2147	0	32690	32888	32534	32739	32790	32543	32601	32684	
