# OpenSignals Text File Format
# {"00:07:80:3B:46:38": {"sensor": ["CUSTOM/0.5/1.0/V", "CUSTOM/0.5/1.0/V", "CUSTOM/0.5/1.0/V", "CUSTOM/0.5/1.0/V", "CUSTOM/0.5/1.0/V", "CUSTOM/0.5/1.0/V", "CUSTOM/0.5/1.0/V", "CUSTOM/0.5/1.0/V"], "device name": "EMGs", "column": ["nSeq", "DI", "RA_L", "RA_R", "OE_L", "OE:R", "IL_L", "IL_R", "MF_L", "MF_R"], "sync interval": 2, "time": "17:40:21.148", "comments": "", "device connection": "BTH00:07:80:3B:46:38", "channels": [1, 2, 3, 4, 5, 6, 7, 8], "date": "2017-6-1", "mode": 0, "digital IO": [0, 1], "firmware version": 772, "device": "biosignalsplux", "position": 0, "sampling rate": 1000, "label": ["RA_L", "RA_R", "OE_L", "OE:R", "IL_L", "IL_R", "MF_L", "MF_R"], "resolution": [16, 16, 16, 16, 16, 16, 16, 16], "special": [{}, {}, {}, {}, {}, {}, {}, {}]}}
# EndOfHeader
0	0	32751	32623	32775	32554	32603	32807	32583	32751	
1	0	32701	32815	32835	32463	32870	32791	32847	32753	
2	0	32771	32741	32643	32610	32791	32739	32751	32743	
3	0	32794	32751	32567	32530	32671	32771	32797	32711	
4	0	32775	32595	32532	32669	32739	32810	32733	32667	
5	0	32713	32715	32647	32561	32807	32731	32578	32599	
6	0	32724	32791	32687	32717	32862	32724	32727	32602	
7	0	32612	32717	32795	32591	32815	32804	32695	32691	
8	0	32642	32721	32733	32711	32700	32738	32827	32698	
9	0	32687	32755	32660	32495	32859	32727	32715	32785	
10	0	32674	32799	32743	32724	32804	32718	32763	32773	
11	0	32767	32663	32865	32623	32635	32751	32731	32767	
12	0	32730	32703	32949	32758	32835	32668	32641	32611	
13	0	32815	32846	32821	32583	32762	32853	32775	32743	
14	0	32855	32693	32772	32740	32620	32735	32749	32754	
15	0	32791	32855	32749	32561	32815	32746	32639	32749	
16	0	32820	32747	32678	32631	32755	32783	32862	32731	
17	0	32852	32645	32786	32615	32810	32775	32815	32710	
18	0	32910	32902	32815	32700	32835	32737	32759	32713	
19	0	32838	32803	32807	32674	32751	32724	32771	32719	
20	0	32844	32613	32766	32661	32655	32731	32597	32531	
21	0	32833	32615	32635	32679	32852	32767	32850	32607	
22	0	32816	32685	32647	32655	32751	32759	32790	32603	
23	0	32804	32629	32642	32735	32594	32775	32679	32519	
24	0	32752	32637	32647	32511	32847	32806	32799	32560	
25	0	32679	32749	32684	32635	32812	32693	32719	32607	
26	0	32662	32699	32759	32495	32695	32724	32687	32487	
27	0	32727	32633	32763	32759	32751	32799	32809	32541	
28	0	32749	32751	32823	32574	32775	32723	32703	32572	
29	0	32754	32799	32775	32719	32719	32833	32895	32775	
30	0	32763	32661	32647	32541	32687	32835	32797	32717	
31	0	32658	32820	32677	32674	32869	32758	32884	32662	
32	0	32703	32722	32715	32591	32877	32759	32775	32692	
33	0	32738	32775	32605	32767	32791	32751	32809	32661	
34	0	32743	32711	32574	32631	32751	32727	32756	32685	
35	0	32762	32668	32663	32637	32767	32814	32699	32670	
36	0	32822	32733	32647	32561	32695	32739	32791	32719	
37	0	32759	32715	32631	32791	32819	32756	32629	32739	
38	0	32825	32581	32675	32637	32865	32815	32903	32775	
39	0	32809	32757	32662	32710	32677	32751	32810	32775	
40	0	32764	32769	32743	32599	32726	32676	32682	32825	
41	0	32714	32781	32845	32703	32795	32829	32775	32557	
42	0	32745	32723	32817	32529	32738	32847	32629	32515	
43	0	32737	32711	32823	32583	32671	32727	32853	32549	
44	0	32765	32621	32665	32458	32719	32804	32763	32727	
45	0	32745	32692	32561	32604	32662	32723	32601	32635	
46	0	32775	32755	32669	32507	32655	32747	32757	32627	
47	0	32767	32802	32754	32594	32701	32835	32717	32577	
48	0	32828	32671	32767	32545	32838	32757	32719	32487	
49	0	32742	32814	32743	32703	32833	32885	32827	32789	
50	0	32809	32727	32711	32713	32717	32737	32802	32741	
51	0	32796	32786	32742	32627	32799	32735	32551	32687	
52	0	32765	32745	32773	32679	32734	32683	32805	32765	
53	0	32717	32643	32677	32647	32805	32751	32783	32788	
54	0	32679	32647	32748	32794	32860	32855	32829	32639	
55	0	32723	32701	32711	32887	32679	32758	32818	32615	
56	0	32671	32635	32679	32631	32850	32815	32612	32749	
57	0	32695	32749	32671	32751	32809	32733	32767	32771	
58	0	32740	32725	32708	32735	32843	32733	32711	32783	
59	0	32783	32678	32703	32655	32823	32703	32619	32795	
60	0	32804	32799	32702	32741	32771	32771	32895	32742	
61	0	32786	32695	32666	32741	32637	32847	32766	32765	
62	0	32739	32703	32734	32739	32835	32751	32735	32663	
63	0	32719	32629	32771	32615	32799	32829	32743	32687	
64	0	32700	32655	32720	32671	32757	32749	32750	32755	
65	0	32756	32631	32708	32661	32614	32838	32789	32681	
66	0	32754	32763	32707	32669	32775	32711	32855	32695	
67	0	32728	32817	32743	32727	32771	32790	32647	32783	
68	0	32804	32655	32783	32711	32615	32756	32919	32583	
69	0	32775	32868	32703	32731	32786	32774	32734	32463	
70	0	32799	32797	32694	32751	32747	32759	32815	32579	
71	0	32749	32709	32669	32739	32580	32692	32775	32639	
72	0	32737	32687	32599	32631	32742	32795	32703	32727	
73	0	32811	32791	32639	32695	32811	32812	32773	32599	
74	0	32815	32823	32701	32681	32795	32758	32676	32685	
75	0	32820	32635	32838	32685	32807	32802	32839	32662	
76	0	32769	32850	32759	32579	32679	32699	32669	32687	
77	0	32751	32751	32743	32726	32875	32765	32715	32711	
78	0	32726	32626	32775	32591	32785	32797	32699	32748	
79	0	32708	32605	32887	32715	32727	32698	32631	32698	
80	0	32701	32771	32788	32621	32775	32807	32790	32594	
81	0	32783	32725	32710	32694	32775	32791	32619	32615	
82	0	32748	32789	32551	32610	32875	32741	32829	32708	
83	0	32789	32677	32697	32533	32729	32851	32775	32683	
84	0	32839	32847	32755	32499	32615	32854	32828	32660	
85	0	32811	32759	32639	32693	32775	32695	32775	32679	
86	0	32798	32775	32575	32611	32804	32783	32621	32655	
87	0	32814	32701	32692	32678	32701	32767	32830	32615	
88	0	32751	32821	32644	32510	32895	32772	32775	32659	
89	0	32753	32766	32623	32759	32855	32847	32863	32711	
90	0	32743	32855	32573	32623	32703	32743	32751	32738	
91	0	32707	32743	32614	32795	32725	32767	32775	32786	
92	0	32720	32775	32695	32756	32803	32807	32775	32583	
93	0	32780	32767	32743	32861	32782	32647	32627	32519	
94	0	32793	32738	32835	32727	32743	32834	32741	32579	
95	0	32775	32602	32741	32821	32827	32691	32807	32570	
96	0	32773	32773	32741	32613	32695	32797	32883	32703	
97	0	32795	32767	32727	32703	32791	32867	32797	32703	
98	0	32782	32635	32769	32621	32698	32759	32698	32681	
99	0	32749	32751	32620	32711	32871	32755	32807	32765	
100	0	32790	32748	32647	32583	32887	32790	32591	32663	
101	0	32741	32739	32699	32647	32767	32710	32762	32677	
102	0	32749	32615	32703	32709	32819	32751	32589	32749	
103	0	32733	32647	32671	32661	32655	32807	32815	32706	
104	0	32790	32799	32707	32681	32809	32647	32680	32763	
105	0	32853	32815	32711	32711	32711	32763	32679	32741	
106	0	32817	32759	32802	32686	32615	32807	32846	32727	
107	0	32738	32838	32855	32671	32759	32679	32626	32623	
108	0	32804	32847	32862	32623	32775	32761	32869	32638	
109	0	32787	32695	32755	32741	32627	32743	32727	32551	
110	0	32724	32705	32695	32711	32700	32711	32806	32567	
111	0	32815	32757	32663	32771	32801	32775	32751	32547	
112	0	32775	32763	32631	32717	32838	32763	32797	32629	
113	0	32841	32647	32647	32583	32879	32703	32783	32711	
114	0	32824	32639	32732	32663	32772	32806	32755	32647	
115	0	32783	32795	32663	32481	32751	32799	32751	32647	
116	0	32756	32754	32695	32645	32835	32730	32539	32739	
117	0	32811	32670	32791	32617	32641	32783	32805	32695	
118	0	32732	32765	32694	32705	32711	32775	32789	32655	
119	0	32773	32796	32627	32604	32745	32725	32695	32767	
120	0	32782	32715	32605	32647	32812	32741	32819	32636	
121	0	32761	32661	32707	32559	32838	32799	32668	32583	
122	0	32734	32743	32727	32757	32587	32735	32837	32589	
123	0	32796	32658	32732	32647	32819	32819	32783	32565	
124	0	32827	32773	32711	32723	32858	32815	32836	32609	
125	0	32749	32739	32587	32743	32769	32668	32711	32575	
126	0	32748	32659	32607	32709	32733	32759	32623	32583	
127	0	32742	32611	32631	32594	32615	32865	32741	32481	
128	0	32694	32765	32613	32761	32754	32688	32566	32612	
129	0	32644	32762	32727	32706	32737	32831	32834	32621	
130	0	32666	32647	32845	32791	32687	32785	32781	32623	
131	0	32647	32774	32705	32897	32701	32739	32719	32535	
132	0	32684	32796	32738	32838	32731	32791	32755	32567	
133	0	32769	32707	32637	32775	32711	32695	32639	32529	
134	0	32754	32892	32575	32647	32839	32703	32887	32631	
135	0	32784	32799	32636	32749	32891	32813	32722	32637	
136	0	32742	32715	32831	32562	32679	32695	32679	32659	
137	0	32775	32751	32793	32642	32852	32835	32835	32759	
138	0	32813	32846	32687	32670	32839	32775	32818	32855	
139	0	32844	32759	32721	32603	32722	32775	32885	32764	
140	0	32805	32812	32727	32647	32831	32820	32806	32599	
141	0	32859	32757	32717	32694	32843	32751	32759	32548	
142	0	32843	32660	32726	32601	32717	32835	32731	32585	
143	0	32805	32639	32691	32755	32700	32882	32574	32632	
144	0	32814	32783	32647	32691	32635	32727	32850	32699	
145	0	32764	32743	32719	32686	32893	32775	32623	32660	
146	0	32711	32633	32563	32742	32751	32756	32775	32741	
147	0	32689	32743	32695	32647	32763	32724	32759	32725	
148	0	32679	32804	32615	32710	32663	32775	32625	32684	
149	0	32686	32647	32615	32717	32751	32787	32861	32615	
150	0	32748	32661	32619	32811	32691	32743	32764	32639	
151	0	32722	32787	32647	32749	32876	32818	32903	32707	
152	0	32720	32755	32689	32692	32897	32807	32759	32647	
153	0	32750	32673	32775	32707	32703	32775	32843	32815	
154	0	32783	32598	32841	32639	32765	32711	32775	32759	
155	0	32779	32751	32837	32812	32789	32807	32581	32745	
156	0	32762	32739	32818	32707	32760	32843	32837	32615	
157	0	32716	32723	32753	32751	32853	32707	32625	32594	
158	0	32734	32647	32679	32581	32699	32791	32887	32551	
159	0	32718	32797	32795	32599	32790	32823	32687	32567	
160	0	32762	32763	32903	32460	32820	32695	32799	32715	
161	0	32754	32851	32829	32533	32814	32765	32749	32799	
162	0	32786	32775	32726	32455	32825	32783	32679	32685	
163	0	32799	32743	32674	32663	32581	32678	32796	32725	
164	0	32764	32807	32565	32609	32775	32783	32583	32623	
165	0	32758	32741	32477	32631	32791	32775	32847	32711	
166	0	32694	32655	32563	32566	32647	32749	32726	32727	
167	0	32725	32743	32626	32759	32813	32807	32635	32683	
168	0	32742	32745	32732	32535	32791	32765	32703	32698	
169	0	32775	32709	32743	32711	32621	32852	32589	32637	
170	0	32781	32686	32775	32592	32759	32793	32787	32562	
171	0	32804	32845	32709	32741	32769	32829	32743	32679	
172	0	32789	32795	32717	32614	32671	32767	32586	32703	
173	0	32856	32629	32757	32713	32830	32819	32743	32759	
174	0	32774	32615	32735	32647	32889	32679	32604	32743	
175	0	32793	32735	32762	32791	32742	32741	32831	32700	
176	0	32781	32789	32710	32679	32700	32775	32590	32641	
177	0	32799	32663	32818	32643	32615	32698	32887	32637	
178	0	32783	32754	32818	32617	32859	32885	32762	32575	
179	0	32748	32670	32829	32676	32855	32769	32851	32525	
180	0	32775	32797	32900	32678	32719	32743	32775	32615	
181	0	32734	32605	32879	32812	32719	32783	32833	32711	
182	0	32726	32719	32903	32749	32811	32797	32827	32695	
183	0	32739	32733	32759	32711	32663	32711	32607	32687	
184	0	32760	32693	32691	32669	32695	32789	32799	32749	
185	0	32757	32717	32581	32675	32875	32711	32732	32714	
186	0	32804	32754	32463	32775	32807	32775	32799	32764	
187	0	32727	32645	32559	32709	32759	32747	32829	32671	
188	0	32801	32719	32577	32659	32805	32686	32660	32755	
189	0	32839	32819	32677	32703	32727	32803	32887	32767	
190	0	32804	32801	32682	32566	32740	32823	32663	32671	
191	0	32816	32813	32703	32647	32775	32754	32847	32742	
192	0	32742	32748	32773	32599	32758	32828	32577	32749	
193	0	32802	32757	32660	32485	32796	32745	32797	32775	
194	0	32836	32829	32669	32516	32731	32807	32613	32621	
195	0	32846	32775	32751	32541	32743	32767	32863	32709	
196	0	32852	32647	32735	32639	32790	32743	32703	32669	
197	0	32775	32623	32822	32587	32738	32742	32786	32631	
198	0	32751	32615	32590	32807	32831	32719	32791	32665	
199	0	32642	32663	32628	32727	32851	32775	32573	32613	
200	0	32658	32755	32717	32695	32692	32725	32827	32607	
201	0	32647	32639	32734	32557	32842	32783	32774	32675	
202	0	32631	32692	32688	32637	32859	32775	32727	32703	
203	0	32663	32575	32715	32507	32677	32679	32790	32637	
204	0	32695	32663	32787	32711	32742	32855	32749	32609	
205	0	32662	32754	32783	32599	32831	32854	32846	32615	
206	0	32724	32811	32815	32775	32805	32687	32601	32693	
207	0	32751	32663	32791	32585	32771	32839	32793	32715	
208	0	32763	32812	32679	32679	32807	32757	32747	32756	
209	0	32758	32791	32775	32627	32854	32689	32818	32723	
210	0	32799	32663	32753	32708	32799	32815	32789	32703	
211	0	32780	32839	32711	32569	32663	32751	32801	32715	
212	0	32775	32789	32775	32773	32834	32773	32809	32775	
213	0	32799	32819	32807	32751	32843	32821	32879	32749	
214	0	32810	32663	32813	32644	32735	32820	32701	32615	
215	0	32829	32756	32723	32715	32679	32845	32735	32822	
216	0	32794	32799	32735	32737	32647	32786	32783	32690	
217	0	32772	32797	32703	32695	32709	32757	32738	32519	
218	0	32863	32701	32711	32605	32717	32765	32747	32647	
219	0	32835	32761	32734	32685	32663	32817	32655	32643	
220	0	32870	32758	32635	32653	32891	32741	32786	32775	
221	0	32869	32617	32701	32659	32855	32781	32743	32771	
222	0	32765	32667	32573	32743	32833	32731	32613	32791	
223	0	32734	32647	32557	32519	32740	32734	32869	32615	
224	0	32671	32679	32701	32605	32727	32707	32660	32567	
225	0	32722	32794	32858	32546	32767	32791	32850	32583	
226	0	32710	32751	32970	32725	32687	32743	32769	32596	
227	0	32724	32749	32887	32635	32716	32679	32799	32727	
228	0	32674	32679	32815	32738	32679	32799	32765	32711	
229	0	32671	32834	32726	32719	32797	32851	32598	32674	
230	0	32694	32743	32763	32819	32839	32726	32853	32657	
231	0	32753	32647	32743	32735	32655	32799	32803	32693	
232	0	32836	32708	32783	32559	32733	32847	32831	32677	
233	0	32884	32735	32759	32599	32785	32719	32761	32677	
234	0	32853	32803	32634	32469	32806	32811	32743	32658	
235	0	32830	32636	32577	32708	32773	32785	32711	32623	
236	0	32844	32621	32641	32591	32615	32743	32775	32691	
237	0	32823	32763	32591	32722	32799	32767	32799	32751	
238	0	32806	32734	32551	32699	32845	32780	32852	32543	
239	0	32846	32743	32679	32742	32771	32711	32855	32564	
240	0	32854	32639	32681	32799	32887	32771	32859	32711	
241	0	32784	32738	32575	32645	32839	32725	32871	32634	
242	0	32789	32711	32431	32743	32775	32706	32666	32592	
243	0	32743	32647	32501	32603	32771	32803	32823	32621	
244	0	32695	32658	32620	32669	32809	32638	32587	32678	
245	0	32701	32757	32759	32486	32884	32803	32927	32717	
246	0	32740	32775	32735	32695	32839	32813	32631	32717	
247	0	32722	32710	32838	32668	32669	32738	32767	32663	
248	0	32714	32789	32795	32802	32647	32721	32677	32605	
249	0	32719	32865	32839	32632	32759	32811	32749	32661	
250	0	32791	32887	32919	32715	32703	32663	32749	32647	
251	0	32761	32711	32813	32507	32695	32815	32567	32559	
252	0	32715	32807	32751	32669	32795	32735	32830	32701	
253	0	32676	32839	32703	32571	32797	32759	32605	32711	
254	0	32671	32751	32563	32647	32789	32783	32831	32767	
255	0	32712	32711	32599	32679	32631	32787	32719	32700	
256	0	32717	32687	32743	32662	32773	32743	32638	32679	
257	0	32667	32636	32783	32615	32749	32783	32701	32711	
258	0	32743	32635	32823	32702	32795	32751	32551	32645	
259	0	32734	32691	32831	32749	32887	32743	32791	32766	
260	0	32724	32711	32801	32790	32823	32820	32663	32810	
261	0	32748	32614	32796	32869	32775	32708	32775	32771	
262	0	32759	32722	32731	32680	32826	32756	32757	32532	
263	0	32749	32775	32647	32751	32694	32831	32607	32527	
264	0	32745	32677	32615	32771	32701	32793	32717	32545	
265	0	32738	32677	32732	32723	32775	32823	32765	32567	
266	0	32743	32787	32783	32659	32679	32679	32855	32572	
267	0	32767	32734	32719	32693	32815	32799	32815	32653	
268	0	32841	32635	32698	32615	32825	32802	32677	32647	
269	0	32809	32761	32711	32703	32635	32829	32847	32711	
270	0	32730	32771	32807	32541	32799	32783	32646	32716	
271	0	32762	32668	32593	32617	32811	32671	32895	32711	
272	0	32838	32639	32505	32549	32707	32837	32775	32677	
273	0	32826	32687	32619	32731	32764	32799	32645	32703	
274	0	32827	32678	32709	32741	32727	32803	32791	32711	
275	0	32722	32647	32578	32613	32743	32843	32727	32710	
276	0	32644	32704	32583	32727	32854	32756	32697	32647	
277	0	32743	32761	32631	32687	32873	32791	32791	32596	
278	0	32775	32641	32735	32700	32694	32828	32623	32677	
279	0	32773	32623	32861	32743	32721	32731	32829	32667	
280	0	32775	32815	32765	32681	32667	32794	32595	32699	
281	0	32741	32791	32681	32771	32934	32749	32858	32703	
282	0	32748	32627	32591	32732	32863	32738	32749	32598	
283	0	32728	32631	32604	32634	32863	32693	32865	32693	
284	0	32761	32749	32559	32578	32789	32725	32747	32583	
285	0	32799	32759	32775	32639	32615	32771	32586	32583	
286	0	32773	32711	32835	32566	32732	32759	32852	32621	
287	0	32823	32827	32767	32631	32775	32679	32747	32730	
288	0	32820	32837	32807	32450	32756	32775	32861	32699	
289	0	32759	32761	32797	32647	32793	32811	32775	32707	
290	0	32742	32619	32761	32535	32735	32647	32793	32629	
291	0	32786	32791	32821	32663	32719	32791	32825	32662	
292	0	32697	32785	32852	32551	32836	32807	32695	32726	
293	0	32655	32659	32773	32727	32579	32739	32921	32662	
294	0	32724	32853	32738	32524	32819	32863	32769	32703	
295	0	32756	32783	32708	32698	32842	32746	32799	32727	
296	0	32717	32727	32549	32689	32831	32775	32711	32709	
297	0	32689	32677	32557	32835	32766	32743	32743	32695	
298	0	32715	32647	32609	32717	32694	32738	32713	32748	
299	0	32727	32733	32663	32750	32740	32775	32646	32734	
300	0	32872	32708	32869	32767	32823	32829	32771	32743	
301	0	32781	32679	32751	32756	32647	32719	32781	32735	
302	0	32745	32807	32694	32628	32813	32799	32771	32815	
303	0	32791	32791	32807	32687	32791	32767	32775	32807	
304	0	32825	32701	32822	32662	32743	32767	32647	32541	
305	0	32736	32815	32691	32733	32813	32775	32890	32541	
306	0	32769	32786	32733	32635	32827	32718	32767	32583	
307	0	32825	32711	32737	32725	32847	32769	32787	32503	
308	0	32833	32705	32799	32755	32815	32811	32755	32595	
309	0	32804	32775	32687	32735	32805	32839	32671	32566	
310	0	32746	32823	32605	32646	32887	32891	32903	32687	
311	0	32818	32679	32691	32739	32759	32743	32738	32687	
312	0	32806	32669	32743	32813	32687	32767	32829	32703	
313	0	32838	32751	32679	32804	32756	32839	32766	32775	
314	0	32862	32727	32593	32799	32767	32697	32668	32715	
315	0	32930	32655	32573	32725	32765	32807	32785	32691	
316	0	32847	32767	32631	32759	32743	32743	32678	32638	
317	0	32762	32689	32647	32671	32695	32715	32863	32661	
318	0	32751	32711	32747	32679	32775	32716	32638	32639	
319	0	32742	32647	32710	32581	32851	32711	32797	32717	
320	0	32769	32646	32669	32647	32805	32731	32646	32735	
321	0	32735	32701	32571	32482	32805	32725	32843	32629	
322	0	32743	32695	32643	32615	32751	32692	32751	32557	
323	0	32678	32631	32717	32559	32718	32797	32871	32603	
324	0	32727	32737	32692	32643	32799	32813	32791	32509	
325	0	32764	32745	32743	32578	32775	32695	32903	32639	
326	0	32769	32791	32715	32739	32759	32791	32643	32749	
327	0	32737	32685	32761	32661	32667	32763	32811	32611	
328	0	32705	32699	32791	32571	32831	32807	32590	32709	
329	0	32671	32727	32855	32663	32711	32676	32773	32807	
330	0	32722	32773	32819	32596	32673	32788	32575	32707	
331	0	32759	32811	32804	32763	32723	32834	32687	32647	
332	0	32751	32719	32924	32612	32767	32743	32532	32722	
333	0	32757	32806	32775	32681	32775	32852	32775	32699	
334	0	32827	32700	32735	32671	32762	32670	32727	32727	
335	0	32775	32671	32775	32751	32775	32729	32679	32623	
336	0	32798	32815	32684	32689	32733	32753	32716	32692	
337	0	32783	32775	32613	32730	32791	32775	32647	32676	
338	0	32784	32647	32671	32773	32743	32767	32807	32711	
339	0	32761	32806	32751	32731	32757	32679	32551	32775	
340	0	32757	32698	32647	32775	32703	32789	32805	32735	
341	0	32694	32663	32631	32639	32745	32683	32731	32671	
342	0	32724	32811	32559	32751	32833	32815	32791	32617	
343	0	32762	32703	32563	32659	32690	32891	32806	32563	
344	0	32757	32719	32732	32763	32839	32759	32793	32631	
345	0	32735	32611	32743	32603	32821	32767	32775	32699	
346	0	32755	32714	32847	32711	32647	32679	32695	32711	
347	0	32727	32775	32890	32647	32799	32786	32796	32791	
348	0	32805	32727	32839	32756	32755	32842	32767	32603	
349	0	32791	32695	32735	32662	32833	32735	32807	32548	
350	0	32769	32775	32737	32559	32815	32871	32775	32727	
351	0	32823	32807	32667	32710	32631	32877	32748	32731	
352	0	32826	32735	32626	32575	32799	32749	32615	32663	
353	0	32777	32685	32537	32695	32827	32855	32828	32676	
354	0	32702	32789	32620	32703	32597	32742	32771	32581	
355	0	32770	32644	32876	32687	32831	32742	32734	32710	
356	0	32711	32646	32965	32679	32797	32727	32833	32791	
357	0	32698	32737	32829	32663	32685	32769	32643	32646	
358	0	32765	32713	32829	32695	32787	32799	32925	32707	
359	0	32756	32599	32835	32743	32815	32743	32735	32693	
360	0	32745	32799	32789	32799	32801	32773	32829	32767	
361	0	32773	32671	32775	32737	32731	32789	32715	32607	
362	0	32735	32685	32608	32749	32607	32687	32726	32591	
363	0	32798	32655	32567	32647	32681	32751	32767	32691	
364	0	32721	32803	32575	32535	32595	32757	32599	32791	
365	0	32797	32797	32689	32687	32789	32790	32755	32783	
366	0	32804	32771	32613	32559	32807	32791	32667	32679	
367	0	32783	32770	32698	32647	32749	32775	32847	32662	
368	0	32788	32790	32655	32515	32858	32751	32746	32642	
369	0	32757	32791	32647	32657	32687	32811	32839	32569	
370	0	32852	32671	32646	32631	32738	32813	32799	32457	
371	0	32836	32799	32743	32698	32815	32805	32667	32535	
372	0	32785	32693	32685	32640	32735	32846	32834	32478	
373	0	32738	32591	32709	32756	32847	32711	32603	32562	
374	0	32700	32647	32700	32703	32695	32838	32814	32703	
375	0	32701	32742	32597	32460	32751	32806	32621	32719	
376	0	32763	32741	32663	32687	32799	32753	32862	32713	
377	0	32807	32581	32667	32611	32817	32819	32754	32687	
378	0	32784	32775	32708	32705	32809	32724	32602	32747	
379	0	32751	32679	32749	32655	32765	32790	32811	32755	
380	0	32758	32767	32718	32647	32628	32673	32771	32709	
381	0	32810	32773	32735	32722	32788	32727	32652	32731	
382	0	32771	32623	32758	32623	32809	32717	32739	32679	
383	0	32642	32685	32785	32691	32625	32732	32567	32723	
384	0	32728	32811	32677	32615	32775	32775	32854	32692	
385	0	32735	32687	32751	32783	32847	32748	32691	32701	
386	0	32770	32775	32878	32647	32691	32835	32679	32591	
387	0	32825	32791	32719	32746	32771	32759	32795	32621	
388	0	32824	32679	32617	32557	32743	32797	32581	32692	
389	0	32976	32831	32687	32839	32771	32703	32773	32679	
390	0	32874	32759	32695	32623	32742	32749	32743	32623	
391	0	32799	32695	32679	32679	32732	32821	32681	32588	
392	0	32695	32775	32579	32570	32796	32733	32835	32655	
393	0	32621	32807	32579	32639	32802	32775	32686	32743	
394	0	32661	32704	32660	32540	32775	32829	32870	32701	
395	0	32636	32749	32679	32603	32781	32724	32786	32654	
396	0	32709	32791	32831	32517	32772	32823	32899	32743	
397	0	32717	32628	32903	32663	32850	32839	32853	32665	
398	0	32700	32735	32925	32645	32839	32655	32787	32637	
399	0	32671	32683	32825	32727	32889	32749	32807	32551	
400	0	32766	32687	32775	32525	32807	32767	32629	32594	
401	0	32852	32762	32751	32703	32699	32707	32821	32662	
402	0	32793	32702	32684	32513	32845	32716	32773	32730	
403	0	32767	32570	32607	32708	32915	32708	32813	32719	
404	0	32738	32647	32573	32637	32705	32655	32766	32647	
405	0	32799	32724	32748	32775	32885	32682	32562	32709	
406	0	32871	32559	32804	32703	32829	32703	32759	32734	
407	0	32803	32663	32775	32835	32642	32791	32623	32849	
408	0	32781	32669	32820	32695	32786	32677	32743	32775	
409	0	32737	32519	32861	32948	32789	32527	32563	32731	
410	0	32764	32646	32735	32775	32645	32659	32559	32847	
411	0	32763	32703	32716	32757	32775	32697	32511	33029	
412	0	32759	32615	32687	32532	32813	32735	32629	32796	
413	0	32636	32626	32571	32612	32690	32685	32551	32793	
414	0	32599	32726	32519	32447	32715	32799	32593	32903	
415	0	32679	32719	32597	32484	32691	32900	32567	32820	
416	0	32647	32753	32603	32399	32751	32788	32679	32812	
417	0	32627	32813	32577	32535	32619	32855	32591	32797	
418	0	32622	32875	32589	32391	32477	32895	32679	32805	
419	0	32647	32739	32621	32535	32583	32951	32714	32850	
420	0	32680	32902	32631	32565	32661	32863	32789	32847	
421	0	32647	32903	32519	32531	32567	32932	32767	32711	
422	0	32638	32849	32535	32335	32557	33074	32866	32663	
423	0	32775	32902	32443	32439	32647	32953	32871	32383	
424	0	32793	32895	32269	32215	32591	33042	32903	32421	
425	0	32838	32845	32287	32359	32582	32967	32895	32475	
426	0	32795	32943	32297	32243	32454	32976	32766	32439	
427	0	32771	32999	32205	32277	32602	32951	32887	32630	
428	0	32730	33103	32193	32223	32501	33079	32699	32516	
429	0	32820	33026	32204	32115	32571	33084	32867	32634	
430	0	32715	33087	32203	32357	32535	33053	32626	32647	
431	0	32676	33107	32261	32281	32486	32847	32837	32703	
432	0	32674	32854	32348	32387	32647	33006	32733	32727	
433	0	32756	33031	32391	32199	32564	32999	32706	32709	
434	0	32823	32961	32542	32364	32517	32881	32895	32391	
435	0	32918	33041	32533	32383	32685	32978	32858	32559	
436	0	32811	32829	32655	32586	32688	32844	33133	32559	
437	0	32761	32635	32727	32830	32978	32757	33167	32385	
438	0	32790	32666	32843	32769	33036	32615	33276	32271	
439	0	32836	32622	33050	33031	33108	32603	33271	32221	
440	0	32916	32595	33018	33085	33124	32597	33131	32423	
441	0	32945	32468	33079	33031	33139	32574	33090	32543	
442	0	32902	32381	33243	33133	33117	32441	32925	32551	
443	0	32889	32433	33305	33087	33178	32525	32807	32591	
444	0	33063	32511	33301	33155	33261	32542	32935	32582	
445	0	33159	32431	33555	33121	33341	32487	32787	32623	
446	0	33272	32502	33738	33287	33159	32391	33015	32599	
447	0	33317	32516	33755	33311	33263	32415	32845	32535	
448	0	33303	32425	33769	33295	33343	32479	33067	32391	
449	0	33205	32531	33730	33399	33259	32369	32927	32443	
450	0	33141	32487	33595	33191	33159	32479	32918	32454	
451	0	33084	32429	33494	33287	33195	32439	32743	32679	
452	0	32991	32391	33367	33117	33204	32389	32714	32759	
453	0	32847	32507	33265	33117	33089	32495	32679	32749	
454	0	32752	32479	33101	32887	32839	32563	32505	32693	
455	0	32728	32519	32871	32959	32995	32497	32509	32738	
456	0	32623	32647	32775	32789	32911	32641	32353	32807	
457	0	32555	32655	32695	32835	32715	32669	32567	32879	
458	0	32460	32523	32703	32647	32932	32615	32511	32667	
459	0	32453	32679	32538	32715	32833	32743	32391	32727	
460	0	32462	32757	32389	32527	32598	32751	32579	32898	
461	0	32476	32695	32453	32519	32692	32747	32556	32855	
462	0	32503	32795	32287	32301	32581	32861	32631	32851	
463	0	32527	32855	32296	32373	32468	32903	32603	32749	
464	0	32518	32765	32311	32437	32583	32851	32495	32684	
465	0	32529	32839	32335	32410	32571	32962	32751	32666	
466	0	32524	32813	32263	32327	32507	33006	32628	32668	
467	0	32560	32679	32263	32311	32420	33038	32871	32745	
468	0	32563	32787	32322	32365	32503	33039	32718	32791	
469	0	32609	32774	32421	32359	32518	32951	32741	32804	
470	0	32556	32711	32351	32470	32485	32895	32698	32707	
471	0	32592	32863	32349	32365	32602	32959	32492	32655	
472	0	32639	32775	32535	32605	32507	32875	32741	32731	
473	0	32669	32771	32564	32606	32559	32895	32743	32685	
474	0	32771	32789	32551	32647	32647	32765	32571	32844	
475	0	32740	32883	32567	32449	32630	32851	32703	32799	
476	0	32733	32647	32621	32498	32791	32865	32637	32791	
477	0	32703	32839	32468	32474	32645	32690	32818	32807	
478	0	32730	32815	32467	32615	32745	32775	32703	32751	
479	0	32775	32711	32647	32431	32703	32903	32732	32663	
480	0	32824	32831	32660	32564	32595	32669	32807	32702	
481	0	32788	32765	32662	32447	32863	32844	32773	32594	
482	0	32764	32630	32703	32629	32795	32813	32815	32546	
483	0	32746	32759	32799	32547	32583	32711	32585	32489	
484	0	32864	32805	32927	32636	32839	32758	32831	32657	
485	0	32846	32711	32823	32468	32787	32843	32786	32759	
486	0	32868	32837	32806	32647	32835	32724	32700	32710	
487	0	32832	32775	32759	32527	32903	32775	32738	32602	
488	0	32824	32775	32801	32705	32831	32850	32602	32666	
489	0	32745	32723	32803	32658	32735	32754	32799	32677	
490	0	32694	32863	32707	32829	32833	32807	32725	32423	
491	0	32821	32823	32621	32791	32807	32843	32775	32693	
492	0	32791	32647	32724	32737	32747	32867	32615	32639	
493	0	32806	32631	32695	32791	32687	32679	32743	32727	
494	0	32783	32709	32663	32591	32615	32853	32587	32766	
495	0	32852	32703	32683	32788	32805	32847	32741	32623	
496	0	32828	32692	32791	32615	32855	32732	32582	32581	
497	0	32801	32829	32799	32701	32691	32823	32791	32720	
498	0	32786	32817	32725	32559	32757	32793	32735	32703	
499	0	32822	32647	32638	32595	32795	32647	32788	32727	
500	0	32802	32783	32647	32551	32830	32839	32837	32685	
501	0	32783	32772	32687	32596	32775	32773	32879	32692	
502	0	32702	32687	32655	32703	32583	32671	32841	32555	
503	0	32783	32775	32699	32451	32679	32815	32819	32641	
504	0	32690	32646	32705	32519	32807	32819	32893	32628	
505	0	32702	32861	32741	32499	32790	32666	32775	32669	
506	0	32801	32759	32734	32647	32828	32727	32775	32679	
507	0	32811	32791	32765	32607	32734	32732	32773	32783	
508	0	32831	32678	32695	32727	32671	32725	32791	32582	
509	0	32826	32802	32605	32740	32839	32757	32634	32499	
510	0	32751	32750	32599	32727	32797	32758	32775	32591	
511	0	32748	32647	32690	32735	32813	32787	32433	32723	
512	0	32681	32630	32725	32736	32679	32791	32821	32775	
513	0	32688	32759	32734	32782	32723	32791	32647	32703	
514	0	32692	32775	32705	32735	32802	32767	32892	32647	
515	0	32666	32598	32687	32630	32709	32775	32749	32647	
516	0	32732	32751	32655	32740	32766	32811	32759	32695	
517	0	32743	32786	32647	32703	32835	32773	32773	32815	
518	0	32743	32677	32663	32703	32665	32791	32631	32645	
519	0	32743	32671	32793	32702	32810	32829	32791	32579	
520	0	32775	32701	32695	32731	32765	32775	32765	32529	
521	0	32852	32783	32775	32647	32773	32791	32695	32569	
522	0	32797	32719	32788	32787	32763	32780	32725	32590	
523	0	32799	32727	32783	32535	32719	32773	32636	32559	
524	0	32801	32799	32639	32647	32759	32743	32901	32611	
525	0	32748	32745	32487	32551	32791	32708	32631	32631	
526	0	32775	32676	32598	32726	32806	32737	32863	32675	
527	0	32794	32771	32569	32647	32698	32810	32687	32647	
528	0	32823	32775	32599	32730	32819	32707	32750	32627	
529	0	32774	32615	32660	32679	32789	32791	32759	32677	
530	0	32775	32786	32719	32734	32813	32823	32623	32643	
531	0	32716	32725	32751	32665	32890	32711	32881	32719	
532	0	32741	32671	32719	32662	32815	32698	32592	32788	
533	0	32667	32690	32839	32667	32692	32804	32892	32531	
534	0	32745	32731	32879	32747	32767	32810	32829	32660	
535	0	32715	32785	32829	32695	32809	32743	32765	32711	
536	0	32783	32604	32765	32749	32655	32775	32786	32677	
537	0	32781	32601	32753	32737	32789	32742	32679	32635	
538	0	32791	32709	32718	32613	32831	32821	32735	32689	
539	0	32855	32829	32647	32743	32644	32814	32743	32745	
540	0	32892	32723	32692	32694	32767	32756	32829	32743	
541	0	32837	32743	32802	32868	32711	32831	32773	32771	
542	0	32703	32773	32743	32823	32823	32734	32591	32733	
543	0	32722	32671	32831	32711	32685	32871	32863	32603	
544	0	32775	32859	32805	32765	32799	32794	32709	32525	
545	0	32761	32797	32829	32775	32743	32809	32837	32535	
546	0	32756	32766	32723	32695	32613	32734	32783	32681	
547	0	32708	32625	32561	32791	32716	32741	32847	32645	
548	0	32641	32805	32596	32612	32797	32729	32705	32594	
549	0	32710	32827	32638	32635	32725	32683	32815	32771	
550	0	32748	32773	32587	32505	32805	32755	32723	32599	
551	0	32780	32699	32551	32723	32707	32741	32829	32642	
552	0	32798	32687	32667	32647	32775	32670	32837	32693	
553	0	32794	32747	32694	32703	32771	32783	32617	32709	
554	0	32753	32695	32621	32581	32639	32830	32787	32693	
555	0	32677	32611	32612	32695	32815	32681	32583	32734	
556	0	32628	32731	32639	32623	32839	32731	32852	32693	
557	0	32713	32759	32569	32694	32802	32855	32679	32629	
558	0	32720	32694	32634	32551	32870	32763	32629	32745	
559	0	32657	32739	32759	32631	32820	32762	32743	32747	
560	0	32681	32855	32831	32535	32585	32843	32575	32749	
561	0	32782	32638	32878	32663	32663	32787	32846	32695	
562	0	32795	32775	32903	32533	32839	32743	32822	32681	
563	0	32749	32709	32783	32735	32782	32804	32895	32707	
564	0	32735	32758	32850	32593	32773	32719	32775	32685	
565	0	32793	32647	32742	32748	32775	32767	32582	32687	
566	0	32825	32717	32714	32671	32713	32774	32847	32679	
567	0	32900	32713	32765	32551	32879	32751	32786	32594	
568	0	32861	32679	32794	32692	32684	32761	32612	32701	
569	0	32869	32767	32701	32583	32751	32742	32871	32647	
570	0	32811	32743	32605	32773	32719	32799	32877	32637	
571	0	32806	32810	32647	32773	32734	32731	32678	32581	
572	0	32783	32748	32583	32711	32726	32743	32838	32599	
573	0	32807	32588	32571	32755	32794	32771	32742	32635	
574	0	32784	32855	32653	32775	32795	32758	32661	32763	
575	0	32807	32723	32727	32711	32719	32797	32813	32737	
576	0	32756	32703	32747	32695	32871	32759	32547	32754	
577	0	32708	32735	32733	32607	32863	32819	32813	32723	
578	0	32719	32791	32694	32685	32806	32663	32621	32661	
579	0	32711	32792	32726	32527	32630	32759	32911	32773	
580	0	32711	32629	32759	32645	32743	32695	32868	32647	
581	0	32767	32733	32815	32583	32839	32804	32677	32633	
582	0	32760	32658	32765	32733	32631	32787	32903	32670	
583	0	32828	32759	32839	32677	32860	32687	32727	32619	
584	0	32714	32769	32775	32659	32798	32783	32631	32661	
585	0	32715	32735	32567	32694	32771	32843	32803	32647	
586	0	32738	32860	32678	32647	32723	32759	32607	32571	
587	0	32732	32775	32703	32621	32671	32725	32900	32697	
588	0	32732	32831	32660	32719	32647	32806	32765	32789	
589	0	32772	32698	32713	32631	32775	32757	32839	32629	
590	0	32807	32798	32733	32673	32799	32807	32699	32571	
591	0	32844	32743	32689	32647	32726	32765	32628	32491	
592	0	32774	32587	32695	32695	32695	32703	32767	32511	
593	0	32762	32775	32759	32635	32827	32789	32629	32567	
594	0	32807	32797	32751	32775	32699	32826	32811	32575	
595	0	32749	32705	32703	32601	32751	32685	32719	32785	
596	0	32767	32867	32687	32623	32877	32807	32719	32705	
597	0	32762	32711	32671	32633	32703	32853	32805	32707	
598	0	32745	32623	32711	32751	32749	32775	32727	32647	
599	0	32743	32771	32733	32707	32846	32774	32839	32677	
600	0	32743	32710	32727	32715	32685	32741	32582	32599	
601	0	32759	32597	32807	32626	32719	32791	32807	32627	
602	0	32743	32756	32751	32733	32767	32685	32787	32706	
603	0	32725	32719	32642	32671	32685	32795	32866	32751	
604	0	32715	32691	32749	32647	32766	32791	32829	32635	
605	0	32730	32631	32623	32599	32769	32671	32695	32586	
606	0	32695	32783	32607	32647	32839	32787	32847	32711	
607	0	32695	32823	32593	32564	32871	32831	32669	32735	
608	0	32711	32663	32739	32759	32691	32839	32783	32647	
609	0	32722	32671	32740	32729	32703	32698	32684	32647	
610	0	32677	32691	32763	32805	32699	32783	32783	32703	
611	0	32689	32775	32702	32790	32860	32717	32599	32847	
612	0	32701	32769	32759	32628	32859	32823	32735	32581	
613	0	32740	32703	32741	32637	32745	32735	32655	32679	
614	0	32796	32701	32769	32495	32755	32751	32755	32743	
615	0	32783	32815	32815	32715	32850	32811	32627	32695	
616	0	32868	32642	32859	32559	32791	32799	32804	32663	
617	0	32851	32735	32847	32647	32786	32775	32647	32679	
618	0	32836	32773	32819	32513	32762	32795	32855	32631	
619	0	32886	32647	32736	32703	32738	32861	32713	32738	
620	0	32782	32793	32647	32543	32711	32701	32742	32671	
621	0	32844	32767	32630	32657	32635	32756	32691	32681	
622	0	32729	32803	32719	32553	32639	32762	32837	32741	
623	0	32772	32659	32567	32647	32823	32775	32807	32525	
624	0	32749	32731	32706	32466	32706	32747	32666	32514	
625	0	32801	32751	32614	32641	32727	32773	32854	32501	
626	0	32775	32588	32655	32540	32775	32759	32635	32622	
627	0	32740	32789	32703	32611	32786	32751	32847	32789	
628	0	32735	32821	32719	32527	32769	32747	32743	32759	
629	0	32759	32717	32671	32663	32685	32806	32687	32690	
630	0	32770	32804	32655	32579	32863	32700	32775	32727	
631	0	32775	32754	32895	32807	32791	32799	32566	32742	
632	0	32759	32628	32751	32629	32646	32903	32787	32787	
633	0	32769	32727	32723	32699	32707	32715	32615	32698	
634	0	32807	32759	32727	32492	32775	32730	32799	32647	
635	0	32808	32729	32766	32687	32803	32827	32809	32663	
636	0	32804	32679	32741	32623	32795	32861	32845	32635	
637	0	32839	32658	32639	32809	32803	32770	32599	32485	
638	0	32733	32675	32631	32767	32871	32763	32903	32545	
639	0	32741	32695	32644	32718	32723	32719	32756	32679	
640	0	32716	32655	32626	32631	32825	32759	32805	32719	
641	0	32676	32679	32707	32623	32825	32702	32775	32677	
642	0	32608	32751	32642	32563	32685	32806	32721	32759	
643	0	32715	32666	32635	32673	32767	32798	32807	32687	
644	0	32748	32677	32655	32738	32708	32683	32751	32671	
645	0	32769	32796	32603	32594	32738	32751	32809	32731	
646	0	32754	32775	32596	32743	32743	32775	32662	32571	
647	0	32736	32694	32719	32615	32716	32775	32773	32494	
648	0	32799	32839	32754	32700	32719	32759	32621	32695	
649	0	32818	32887	32811	32631	32655	32783	32751	32759	
650	0	32815	32709	32833	32675	32773	32788	32564	32766	
651	0	32784	32757	32817	32564	32761	32723	32787	32631	
652	0	32798	32788	32804	32685	32851	32839	32591	32668	
653	0	32726	32629	32771	32629	32757	32867	32852	32725	
654	0	32729	32673	32690	32668	32631	32775	32773	32759	
655	0	32775	32667	32749	32591	32841	32763	32866	32731	
656	0	32757	32647	32775	32753	32775	32775	32788	32731	
657	0	32797	32775	32647	32675	32571	32613	32731	32647	
658	0	32796	32702	32549	32735	32762	32786	32749	32820	
659	0	32794	32738	32543	32517	32884	32715	32615	32639	
660	0	32780	32647	32647	32645	32903	32763	32748	32671	
661	0	32759	32711	32635	32595	32815	32661	32559	32725	
662	0	32782	32727	32655	32668	32683	32751	32813	32715	
663	0	32713	32587	32673	32531	32736	32756	32719	32681	
664	0	32629	32789	32674	32655	32736	32761	32657	32703	
665	0	32735	32799	32701	32598	32605	32903	32751	32685	
666	0	32686	32661	32769	32676	32671	32748	32621	32765	
667	0	32751	32831	32750	32571	32775	32783	32834	32765	
668	0	32805	32847	32843	32743	32641	32799	32671	32784	
669	0	32767	32658	32863	32671	32765	32685	32903	32621	
670	0	32824	32743	32775	32691	32805	32751	32843	32591	
671	0	32820	32741	32807	32647	32821	32757	32957	32582	
672	0	32831	32686	32601	32758	32819	32695	32791	32557	
673	0	32751	32716	32567	32749	32658	32743	32709	32621	
674	0	32812	32773	32687	32703	32699	32767	32668	32594	
675	0	32833	32759	32647	32541	32761	32837	32911	32711	
676	0	32773	32775	32662	32671	32879	32729	32599	32759	
677	0	32732	32723	32789	32537	32823	32832	32834	32663	
678	0	32791	32785	32775	32621	32655	32810	32723	32638	
679	0	32789	32741	32652	32490	32875	32732	32839	32615	
680	0	32789	32621	32743	32679	32769	32765	32768	32551	
681	0	32751	32719	32811	32543	32725	32799	32887	32527	
682	0	32810	32731	32835	32713	32743	32687	32758	32635	
683	0	32742	32671	32734	32711	32871	32827	32806	32647	
684	0	32702	32759	32628	32690	32791	32815	32711	32631	
685	0	32702	32771	32647	32738	32799	32775	32844	32787	
686	0	32745	32700	32639	32853	32704	32687	32611	32643	
687	0	32742	32599	32683	32738	32687	32765	32763	32687	
688	0	32758	32671	32695	32594	32723	32815	32603	32716	
689	0	32775	32810	32790	32703	32679	32687	32763	32662	
690	0	32756	32787	32719	32559	32699	32787	32615	32742	
691	0	32808	32663	32716	32729	32674	32753	32719	32715	
692	0	32813	32703	32787	32723	32850	32731	32698	32791	
693	0	32771	32767	32803	32793	32843	32711	32790	32557	
694	0	32765	32623	32754	32775	32683	32727	32627	32675	
695	0	32724	32668	32799	32789	32807	32807	32715	32815	
696	0	32740	32833	32723	32687	32765	32735	32732	32773	
697	0	32743	32737	32725	32485	32815	32769	32742	32695	
698	0	32710	32767	32747	32638	32721	32809	32855	32743	
699	0	32812	32658	32605	32575	32796	32845	32735	32540	
700	0	32799	32691	32671	32727	32763	32715	32839	32751	
701	0	32713	32727	32703	32583	32804	32821	32765	32729	
702	0	32728	32773	32701	32621	32703	32815	32671	32643	
703	0	32822	32647	32727	32687	32711	32631	32709	32591	
704	0	32845	32671	32742	32759	32812	32758	32606	32635	
705	0	32829	32667	32799	32599	32681	32719	32860	32710	
706	0	32806	32657	32751	32698	32827	32820	32823	32617	
707	0	32780	32655	32775	32647	32854	32767	32665	32645	
708	0	32722	32703	32742	32791	32733	32763	32713	32743	
709	0	32729	32775	32775	32743	32761	32679	32608	32727	
710	0	32780	32717	32675	32843	32671	32747	32789	32548	
711	0	32807	32679	32691	32785	32823	32807	32647	32607	
712	0	32836	32679	32871	32662	32764	32668	32831	32543	
713	0	32796	32671	32829	32794	32726	32719	32647	32555	
714	0	32735	32658	32806	32789	32852	32666	32959	32537	
715	0	32730	32722	32775	32663	32828	32694	32787	32524	
716	0	32825	32739	32748	32719	32783	32755	32709	32463	
717	0	32822	32731	32681	32551	32860	32690	32757	32513	
718	0	32836	32722	32716	32691	32823	32727	32633	32551	
719	0	32796	32709	32783	32567	32834	32767	32915	32643	
720	0	32722	32663	32603	32647	32775	32797	32667	32740	
721	0	32758	32743	32599	32467	32763	32769	32891	32671	
722	0	32769	32715	32634	32643	32647	32823	32812	32639	
723	0	32716	32708	32549	32694	32667	32725	32855	32639	
724	0	32647	32667	32391	32765	32765	32795	32767	32773	
725	0	32695	32659	32551	32775	32829	32729	32804	32627	
726	0	32721	32731	32701	32755	32813	32734	32749	32564	
727	0	32706	32702	32815	32655	32717	32676	32642	32687	
728	0	32708	32797	32710	32791	32725	32774	32750	32811	
729	0	32727	32813	32629	32751	32703	32783	32799	32641	
730	0	32704	32775	32687	32685	32647	32815	32575	32553	
731	0	32804	32789	32695	32655	32759	32859	32831	32619	
732	0	32858	32849	32791	32692	32871	32711	32671	32775	
733	0	32797	32786	32747	32726	32871	32773	32948	32685	
734	0	32740	32727	32742	32659	32690	32807	32804	32705	
735	0	32799	32749	32775	32646	32807	32799	32599	32675	
736	0	32828	32743	32725	32543	32726	32763	32839	32692	
737	0	32808	32695	32727	32647	32834	32775	32628	32749	
738	0	32730	32731	32735	32583	32809	32749	32890	32540	
739	0	32759	32772	32646	32677	32811	32838	32794	32563	
740	0	32780	32723	32623	32687	32663	32863	32838	32711	
741	0	32788	32615	32647	32692	32839	32705	32836	32639	
742	0	32789	32693	32708	32587	32861	32771	32695	32565	
743	0	32815	32721	32807	32647	32643	32831	32809	32668	
744	0	32774	32607	32671	32647	32790	32690	32603	32709	
745	0	32778	32759	32679	32541	32773	32691	32795	32660	
746	0	32736	32838	32785	32765	32831	32794	32699	32550	
747	0	32749	32719	32823	32719	32773	32843	32764	32695	
748	0	32745	32783	32895	32823	32557	32757	32709	32699	
749	0	32740	32647	32831	32743	32745	32839	32754	32703	
750	0	32638	32667	32821	32709	32862	32836	32785	32655	
751	0	32690	32775	32791	32738	32636	32879	32811	32665	
752	0	32697	32823	32769	32751	32799	32705	32663	32620	
753	0	32722	32715	32543	32646	32659	32775	32775	32597	
754	0	32750	32786	32597	32722	32765	32807	32764	32742	
755	0	32803	32775	32671	32629	32739	32748	32647	32685	
756	0	32837	32640	32727	32767	32759	32747	32813	32819	
757	0	32911	32759	32748	32719	32759	32857	32663	32708	
758	0	32836	32691	32667	32715	32805	32783	32807	32801	
759	0	32772	32617	32623	32595	32723	32775	32579	32839	
760	0	32730	32669	32807	32647	32743	32834	32759	32765	
761	0	32711	32775	32689	32565	32724	32719	32791	32679	
762	0	32801	32751	32663	32647	32797	32723	32683	32647	
763	0	32771	32647	32666	32690	32607	32743	32754	32743	
764	0	32745	32723	32646	32599	32691	32755	32575	32637	
765	0	32770	32783	32703	32663	32775	32821	32871	32647	
766	0	32689	32723	32679	32697	32743	32773	32772	32734	
767	0	32677	32635	32573	32539	32759	32715	32655	32687	
768	0	32705	32667	32707	32661	32851	32725	32843	32698	
769	0	32769	32735	32639	32566	32741	32647	32643	32605	
770	0	32785	32661	32789	32725	32815	32675	32869	32714	
771	0	32801	32697	32751	32643	32655	32733	32775	32679	
772	0	32692	32749	32615	32729	32721	32823	32825	32697	
773	0	32739	32831	32532	32575	32788	32695	32687	32613	
774	0	32739	32695	32583	32663	32643	32873	32759	32647	
775	0	32764	32639	32655	32658	32690	32861	32839	32775	
776	0	32772	32738	32799	32611	32775	32747	32671	32615	
777	0	32773	32796	32877	32468	32655	32747	32773	32567	
778	0	32791	32708	32682	32598	32743	32869	32791	32703	
779	0	32827	32732	32677	32599	32763	32743	32807	32715	
780	0	32832	32839	32633	32676	32629	32787	32739	32557	
781	0	32772	32718	32594	32723	32889	32722	32631	32575	
782	0	32780	32751	32677	32639	32887	32799	32863	32614	
783	0	32770	32751	32863	32726	32698	32855	32629	32631	
784	0	32729	32675	32775	32599	32759	32711	32551	32719	
785	0	32834	32785	32837	32793	32841	32775	32751	32807	
786	0	32860	32683	32991	32719	32679	32843	32678	32671	
787	0	32836	32694	32847	32644	32789	32751	32775	32571	
788	0	32765	32775	32686	32615	32781	32867	32641	32655	
789	0	32748	32775	32727	32642	32698	32687	32997	32701	
790	0	32770	32755	32804	32579	32847	32754	32762	32623	
791	0	32745	32683	32703	32743	32799	32763	32745	32657	
792	0	32709	32805	32473	32631	32674	32691	32755	32758	
793	0	32726	32805	32575	32687	32781	32767	32647	32791	
794	0	32724	32686	32671	32527	32838	32803	32804	32679	
795	0	32731	32765	32657	32619	32743	32681	32615	32754	
796	0	32736	32775	32595	32535	32789	32771	32889	32685	
797	0	32711	32775	32622	32665	32781	32807	32839	32661	
798	0	32744	32761	32711	32495	32860	32711	32807	32700	
799	0	32783	32739	32851	32661	32743	32734	32846	32775	
800	0	32806	32738	32925	32691	32815	32791	32837	32647	
801	0	32756	32655	32973	32613	32692	32797	32847	32547	
802	0	32724	32703	32710	32675	32743	32799	32847	32663	
803	0	32743	32645	32559	32495	32819	32705	32663	32673	
804	0	32803	32731	32519	32689	32693	32783	32788	32679	
805	0	32757	32740	32615	32738	32801	32807	32653	32751	
806	0	32761	32671	32638	32735	32786	32727	32743	32655	
807	0	32780	32724	32710	32701	32735	32821	32775	32617	
808	0	32683	32783	32815	32730	32775	32769	32706	32719	
809	0	32739	32798	32925	32683	32591	32843	32733	32647	
810	0	32698	32659	32903	32717	32743	32703	32575	32581	
811	0	32729	32683	32903	32711	32769	32711	32852	32662	
812	0	32716	32775	32875	32741	32711	32775	32751	32741	
813	0	32850	32685	32675	32804	32703	32695	32799	32722	
814	0	32775	32662	32587	32814	32844	32791	32745	32663	
815	0	32811	32729	32485	32839	32806	32871	32612	32738	
816	0	32806	32665	32599	32711	32743	32735	32809	32785	
817	0	32825	32756	32583	32731	32761	32793	32707	32647	
818	0	32815	32655	32573	32563	32623	32669	32658	32687	
819	0	32750	32619	32369	32655	32743	32832	32796	32636	
820	0	32740	32670	32479	32673	32863	32755	32759	32445	
821	0	32747	32698	32607	32611	32869	32690	32683	32495	
822	0	32778	32668	32647	32730	32867	32786	32791	32543	
823	0	32708	32679	32831	32486	32683	32751	32575	32556	
824	0	32743	32730	32759	32642	32823	32793	32877	32559	
825	0	32736	32711	32645	32561	32711	32791	32815	32734	
826	0	32767	32634	32652	32746	32767	32699	32807	32747	
827	0	32742	32727	32855	32775	32787	32755	32798	32679	
828	0	32710	32799	32847	32829	32712	32791	32711	32749	
829	0	32792	32719	32854	32735	32754	32755	32826	32811	
830	0	32790	32815	32879	32615	32795	32801	32627	32679	
831	0	32839	32815	32827	32674	32660	32871	32807	32581	
832	0	32749	32647	32743	32537	32824	32711	32767	32589	
833	0	32773	32655	32807	32687	32831	32730	32855	32767	
834	0	32783	32714	32929	32727	32845	32721	32647	32655	
835	0	32759	32756	32975	32679	32783	32748	32915	32743	
836	0	32788	32687	32847	32620	32679	32743	32794	32659	
837	0	32786	32726	32732	32685	32803	32722	32684	32612	
838	0	32831	32722	32735	32671	32806	32743	32807	32790	
839	0	32805	32763	32647	32763	32621	32717	32619	32671	
840	0	32805	32687	32527	32663	32819	32804	32747	32677	
841	0	32816	32763	32513	32647	32692	32727	32725	32642	
842	0	32711	32717	32533	32551	32785	32813	32839	32706	
843	0	32717	32639	32507	32726	32673	32865	32807	32709	
844	0	32749	32830	32546	32622	32701	32711	32647	32599	
845	0	32711	32797	32669	32767	32883	32769	32911	32571	
846	0	32798	32671	32679	32773	32847	32812	32797	32613	
847	0	32775	32767	32673	32747	32791	32695	32811	32643	
848	0	32706	32775	32735	32783	32786	32765	32743	32595	
849	0	32642	32655	32711	32615	32762	32727	32583	32631	
850	0	32687	32823	32632	32767	32739	32754	32718	32739	
851	0	32726	32807	32642	32575	32771	32854	32749	32711	
852	0	32738	32671	32703	32705	32845	32757	32790	32657	
853	0	32739	32799	32773	32555	32927	32751	32787	32605	
854	0	32745	32703	32877	32641	32621	32834	32719	32759	
855	0	32764	32742	32883	32531	32769	32661	32823	32702	
856	0	32674	32635	32739	32628	32807	32789	32613	32583	
857	0	32745	32761	32811	32541	32609	32847	32847	32663	
858	0	32730	32671	32679	32647	32673	32780	32790	32711	
859	0	32758	32698	32613	32739	32815	32749	32623	32711	
860	0	32799	32786	32579	32756	32877	32791	32807	32666	
861	0	32841	32771	32679	32766	32772	32814	32659	32713	
862	0	32814	32655	32647	32511	32743	32835	32739	32733	
863	0	32788	32723	32751	32731	32646	32727	32710	32659	
864	0	32748	32647	32591	32679	32787	32753	32564	32591	
865	0	32789	32731	32759	32574	32823	32730	32839	32555	
866	0	32810	32714	32754	32700	32615	32807	32789	32543	
867	0	32775	32613	32795	32574	32850	32749	32647	32481	
868	0	32765	32676	32879	32641	32773	32739	32731	32541	
869	0	32809	32747	32957	32647	32773	32755	32715	32553	
870	0	32797	32702	32759	32671	32795	32687	32795	32592	
871	0	32799	32815	32743	32671	32743	32743	32775	32631	
872	0	32807	32775	32823	32583	32818	32758	32644	32621	
873	0	32823	32750	32638	32667	32658	32759	32835	32733	
874	0	32762	32820	32757	32487	32766	32715	32738	32759	
875	0	32831	32903	32668	32671	32801	32795	32751	32879	
876	0	32799	32733	32615	32563	32700	32767	32767	32646	
877	0	32855	32751	32607	32667	32763	32675	32615	32613	
878	0	32803	32799	32613	32679	32879	32830	32865	32695	
879	0	32756	32662	32627	32759	32719	32690	32773	32661	
880	0	32742	32748	32647	32605	32819	32839	32775	32706	
881	0	32775	32669	32626	32644	32711	32818	32775	32735	
882	0	32711	32623	32659	32675	32823	32831	32571	32691	
883	0	32708	32707	32743	32631	32812	32759	32607	32647	
884	0	32659	32631	32749	32671	32762	32762	32827	32813	
885	0	32623	32615	32797	32587	32599	32775	32583	32567	
886	0	32646	32693	32725	32737	32732	32699	32887	32647	
887	0	32665	32735	32727	32623	32775	32751	32739	32708	
888	0	32726	32756	32799	32739	32669	32766	32847	32585	
889	0	32729	32787	32742	32564	32740	32719	32759	32711	
890	0	32775	32709	32791	32671	32632	32811	32963	32615	
891	0	32804	32711	32675	32566	32879	32815	32773	32667	
892	0	32742	32694	32569	32731	32741	32685	32860	32695	
893	0	32784	32802	32679	32647	32691	32743	32767	32631	
894	0	32791	32791	32622	32647	32732	32811	32807	32727	
895	0	32765	32773	32757	32627	32700	32751	32751	32463	
896	0	32789	32695	32805	32697	32803	32758	32630	32551	
897	0	32750	32775	32686	32637	32813	32801	32781	32769	
898	0	32764	32759	32659	32697	32643	32672	32609	32679	
899	0	32716	32658	32511	32709	32758	32747	32815	32747	
900	0	32806	32615	32669	32783	32871	32735	32627	32771	
901	0	32897	32735	32775	32713	32663	32752	32818	32783	
902	0	32854	32759	32735	32723	32759	32785	32796	32647	
903	0	32855	32663	32822	32660	32831	32669	32819	32614	
904	0	32786	32773	32660	32685	32726	32711	32775	32497	
905	0	32795	32775	32679	32613	32738	32671	32603	32540	
906	0	32766	32707	32679	32663	32706	32883	32807	32599	
907	0	32814	32647	32719	32711	32857	32735	32669	32639	
908	0	32751	32797	32629	32615	32855	32734	32803	32614	
909	0	32731	32794	32598	32627	32869	32671	32685	32729	
910	0	32735	32818	32679	32548	32809	32743	32891	32759	
911	0	32775	32733	32719	32759	32789	32771	32775	32667	
912	0	32759	32739	32591	32670	32811	32809	32743	32610	
913	0	32800	32707	32703	32767	32743	32851	32727	32583	
914	0	32738	32679	32809	32638	32663	32702	32583	32711	
915	0	32743	32791	32693	32732	32743	32827	32804	32595	
916	0	32663	32766	32719	32623	32662	32829	32687	32559	
917	0	32713	32687	32695	32687	32605	32783	32819	32759	
918	0	32793	32626	32748	32647	32767	32839	32755	32759	
919	0	32772	32755	32711	32735	32794	32715	32609	32717	
920	0	32724	32807	32775	32598	32708	32788	32847	32725	
921	0	32784	32647	32839	32666	32821	32750	32756	32694	
922	0	32780	32701	32771	32596	32711	32795	32839	32829	
923	0	32736	32725	32751	32699	32807	32805	32763	32599	
924	0	32761	32702	32743	32647	32758	32705	32655	32631	
925	0	32775	32711	32844	32773	32700	32739	32767	32694	
926	0	32833	32749	32758	32631	32813	32699	32763	32676	
927	0	32858	32727	32751	32702	32879	32733	32953	32721	
928	0	32879	32719	32710	32527	32831	32737	32818	32837	
929	0	32850	32775	32743	32732	32677	32647	32679	32667	
930	0	32826	32827	32726	32739	32819	32799	32740	32631	
931	0	32756	32671	32679	32743	32796	32775	32516	32711	
932	0	32769	32711	32677	32647	32773	32727	32834	32679	
933	0	32679	32773	32467	32791	32795	32811	32707	32678	
934	0	32775	32743	32579	32647	32662	32767	32845	32615	
935	0	32827	32671	32791	32798	32671	32715	32738	32684	
936	0	32791	32639	32693	32773	32687	32801	32827	32669	
937	0	32783	32851	32726	32717	32770	32827	32705	32731	
938	0	32723	32727	32740	32742	32790	32679	32871	32555	
939	0	32697	32743	32690	32477	32831	32735	32767	32647	
940	0	32646	32765	32701	32623	32791	32751	32899	32702	
941	0	32663	32610	32723	32423	32647	32727	32831	32629	
942	0	32709	32671	32794	32578	32807	32765	32683	32647	
943	0	32652	32789	32615	32454	32799	32731	32751	32599	
944	0	32702	32690	32639	32637	32705	32631	32641	32647	
945	0	32740	32671	32580	32559	32775	32807	32764	32743	
946	0	32693	32791	32703	32717	32794	32735	32576	32628	
947	0	32670	32791	32740	32631	32667	32790	32747	32631	
948	0	32733	32707	32711	32663	32787	32845	32564	32687	
949	0	32769	32775	32739	32529	32875	32743	32855	32815	
950	0	32837	32775	32749	32679	32664	32801	32743	32604	
951	0	32823	32679	32751	32570	32751	32797	32775	32599	
952	0	32793	32767	32578	32723	32675	32783	32759	32645	
953	0	32888	32815	32775	32802	32751	32841	32579	32695	
954	0	32846	32647	32694	32817	32787	32723	32694	32607	
955	0	32871	32791	32633	32773	32737	32786	32571	32711	
956	0	32812	32783	32767	32667	32647	32756	32815	32783	
957	0	32742	32756	32911	32719	32878	32759	32738	32515	
958	0	32748	32667	32822	32559	32861	32783	32823	32742	
959	0	32711	32793	32791	32582	32679	32763	32831	32659	
960	0	32732	32658	32734	32557	32852	32825	32679	32717	
961	0	32751	32708	32675	32676	32839	32761	32811	32647	
962	0	32829	32613	32727	32709	32773	32775	32647	32566	
963	0	32792	32773	32747	32722	32735	32719	32737	32691	
964	0	32804	32756	32839	32671	32687	32831	32631	32615	
965	0	32823	32669	32775	32721	32775	32757	32935	32733	
966	0	32811	32663	32747	32583	32801	32817	32685	32773	
967	0	32782	32727	32719	32718	32619	32854	32887	32431	
968	0	32779	32807	32603	32559	32816	32726	32789	32647	
969	0	32769	32668	32547	32692	32839	32775	32861	32679	
970	0	32751	32713	32534	32531	32763	32855	32761	32662	
971	0	32736	32791	32519	32735	32718	32691	32711	32607	
972	0	32708	32812	32635	32591	32615	32749	32743	32710	
973	0	32640	32839	32715	32679	32799	32852	32871	32711	
974	0	32718	32767	32765	32707	32847	32789	32797	32732	
975	0	32746	32677	32754	32737	32843	32707	32831	32647	
976	0	32733	32806	32783	32737	32879	32711	32771	32743	
977	0	32817	32703	32812	32695	32671	32743	32807	32694	
978	0	32819	32743	32755	32655	32775	32667	32733	32773	
979	0	32768	32647	32735	32463	32821	32754	32833	32626	
980	0	32770	32580	32767	32583	32817	32813	32796	32539	
981	0	32788	32758	32850	32543	32801	32679	32757	32711	
982	0	32728	32679	32854	32619	32615	32863	32751	32617	
983	0	32714	32692	32802	32615	32835	32807	32623	32628	
984	0	32686	32679	32734	32702	32813	32747	32725	32703	
985	0	32668	32725	32775	32633	32669	32807	32557	32771	
986	0	32769	32771	32855	32727	32839	32739	32833	32615	
987	0	32812	32706	32737	32623	32795	32759	32767	32527	
988	0	32830	32725	32603	32724	32691	32805	32785	32551	
989	0	32779	32811	32598	32655	32679	32718	32749	32733	
990	0	32775	32807	32635	32846	32807	32751	32670	32735	
991	0	32753	32719	32511	32811	32672	32790	32898	32725	
992	0	32757	32795	32541	32721	32711	32647	32647	32797	
993	0	32743	32719	32611	32759	32815	32759	32839	32823	
994	0	32822	32685	32719	32702	32859	32820	32749	32595	
995	0	32775	32647	32623	32729	32735	32727	32852	32638	
996	0	32775	32775	32675	32541	32834	32786	32831	32671	
997	0	32781	32743	32793	32647	32850	32749	32729	32583	
998	0	32825	32619	32775	32535	32767	32733	32775	32647	
999	0	32847	32733	32775	32756	32646	32822	32559	32629	
1000	0	32785	32717	32775	32723	32751	32775	32749	32635	
1001	0	32735	32683	32733	32685	32615	32767	32821	32631	
1002	0	32679	32703	32787	32661	32727	32742	32775	32695	
1003	0	32704	32675	32757	32535	32545	32851	32917	32573	
1004	0	32664	32631	32796	32707	32671	32833	32755	32683	
1005	0	32740	32690	32725	32595	32838	32671	32863	32775	
1006	0	32742	32766	32767	32695	32692	32743	32754	32719	
1007	0	32802	32698	32811	32621	32819	32806	32815	32701	
1008	0	32930	32823	32830	32823	32883	32754	32773	32663	
1009	0	32916	32891	32813	32814	32685	32839	32591	32743	
1010	0	32836	32749	32683	32742	32817	32677	32754	32775	
1011	0	32775	32821	32607	32692	32761	32775	32591	32703	
1012	0	32711	32869	32639	32570	32757	32687	32833	32667	
1013	0	32821	32703	32771	32696	32775	32831	32775	32404	
1014	0	32831	32719	32692	32535	32828	32839	32799	32513	
1015	0	32786	32727	32628	32635	32583	32775	32749	32541	
1016	0	32705	32775	32772	32513	32751	32789	32823	32695	
1017	0	32736	32635	32757	32640	32769	32837	32723	32715	
1018	0	32679	32821	32775	32563	32784	32837	32859	32719	
1019	0	32706	32717	32631	32647	32727	32839	32809	32756	
1020	0	32713	32647	32647	32468	32807	32715	32619	32822	
1021	0	32698	32718	32767	32613	32803	32751	32845	32645	
1022	0	32750	32769	32773	32593	32775	32708	32607	32751	
1023	0	32745	32758	32717	32711	32811	32756	32791	32694	
1024	0	32727	32673	32775	32699	32813	32799	32619	32745	
1025	0	32782	32660	32791	32691	32658	32823	32769	32603	
1026	0	32788	32775	32851	32742	32799	32714	32703	32659	
1027	0	32740	32749	32706	32767	32821	32796	32827	32677	
1028	0	32801	32823	32662	32647	32894	32799	32861	32755	
1029	0	32755	32702	32724	32487	32839	32791	32755	32567	
1030	0	32707	32735	32689	32591	32819	32684	32745	32723	
1031	0	32756	32731	32647	32537	32813	32799	32591	32635	
1032	0	32775	32742	32471	32708	32691	32799	32743	32727	
1033	0	32696	32789	32446	32669	32806	32674	32675	32807	
1034	0	32698	32647	32455	32647	32661	32823	32803	32615	
1035	0	32713	32751	32559	32595	32788	32843	32647	32543	
1036	0	32742	32705	32634	32750	32847	32699	32845	32686	
1037	0	32712	32767	32687	32639	32772	32811	32605	32631	
1038	0	32779	32641	32612	32645	32835	32843	32695	32751	
1039	0	32775	32647	32671	32613	32612	32722	32583	32643	
1040	0	32799	32756	32687	32599	32759	32765	32742	32591	
1041	0	32775	32767	32885	32783	32869	32730	32607	32665	
1042	0	32786	32711	32966	32690	32823	32714	32758	32717	
1043	0	32725	32663	32927	32669	32901	32775	32677	32695	
1044	0	32774	32662	32935	32681	32775	32729	32711	32532	
1045	0	32724	32771	32767	32799	32775	32789	32785	32706	
1046	0	32810	32732	32807	32679	32719	32699	32805	32687	
1047	0	32810	32787	32675	32551	32711	32721	32870	32687	
1048	0	32788	32679	32690	32695	32749	32789	32703	32831	
1049	0	32820	32789	32687	32626	32762	32723	32804	32659	
1050	0	32807	32787	32759	32694	32797	32783	32803	32691	
1051	0	32815	32764	32703	32595	32785	32813	32895	32699	
1052	0	32855	32711	32804	32797	32771	32677	32775	32647	
1053	0	32805	32711	32803	32686	32799	32745	32884	32636	
1054	0	32807	32759	32855	32693	32791	32751	32750	32681	
1055	0	32852	32720	32853	32719	32858	32774	32829	32821	
1056	0	32822	32741	32781	32698	32733	32757	32577	32604	
1057	0	32812	32666	32698	32685	32823	32804	32804	32715	
1058	0	32687	32611	32685	32685	32703	32678	32645	32735	
1059	0	32655	32663	32671	32679	32757	32725	32822	32573	
1060	0	32637	32791	32582	32613	32623	32823	32599	32383	
1061	0	32679	32817	32549	32677	32731	32695	32743	32571	
1062	0	32733	32791	32591	32659	32785	32809	32604	32620	
1063	0	32732	32711	32617	32599	32717	32735	32775	32655	
1064	0	32756	32799	32709	32751	32745	32781	32687	32676	
1065	0	32695	32759	32775	32708	32733	32839	32972	32727	
1066	0	32668	32847	32699	32695	32831	32773	32637	32543	
1067	0	32711	32661	32685	32623	32775	32847	32873	32730	
1068	0	32753	32755	32663	32735	32637	32863	32828	32706	
1069	0	32794	32805	32647	32685	32782	32769	32891	32615	
1070	0	32809	32775	32703	32775	32795	32742	32623	32727	
1071	0	32726	32671	32751	32663	32823	32637	32807	32530	
1072	0	32663	32647	32727	32765	32839	32799	32723	32717	
1073	0	32767	32681	32759	32789	32837	32813	32823	32621	
1074	0	32831	32755	32809	32630	32804	32809	32679	32639	
1075	0	32798	32698	32822	32667	32701	32845	32823	32553	
1076	0	32783	32614	32769	32450	32771	32810	32647	32555	
1077	0	32772	32663	32749	32627	32747	32815	32795	32711	
1078	0	32839	32660	32739	32691	32836	32741	32821	32739	
1079	0	32821	32717	32758	32555	32645	32755	32783	32775	
1080	0	32846	32738	32613	32621	32698	32797	32815	32559	
1081	0	32836	32775	32607	32503	32579	32833	32563	32723	
1082	0	32820	32731	32759	32703	32663	32719	32869	32658	
1083	0	32780	32711	32765	32759	32693	32828	32615	32763	
1084	0	32837	32647	32667	32631	32647	32807	32711	32626	
1085	0	32743	32738	32655	32742	32751	32699	32535	32573	
1086	0	32751	32743	32657	32711	32775	32607	32707	32637	
1087	0	32717	32759	32596	32863	32791	32739	32685	32703	
1088	0	32744	32812	32643	32723	32853	32756	32698	32612	
1089	0	32725	32709	32663	32612	32823	32855	32813	32748	
1090	0	32729	32687	32759	32807	32815	32775	32599	32769	
1091	0	32681	32659	32743	32759	32817	32684	32759	32623	
1092	0	32741	32726	32691	32736	32706	32772	32591	32620	
1093	0	32771	32789	32589	32743	32738	32859	32775	32663	
1094	0	32867	32687	32711	32551	32733	32807	32564	32738	
1095	0	32770	32655	32679	32681	32806	32722	32756	32609	
1096	0	32839	32775	32639	32573	32799	32751	32742	32532	
1097	0	32889	32758	32599	32658	32677	32790	32802	32638	
1098	0	32839	32621	32556	32593	32759	32775	32803	32743	
1099	0	32805	32599	32551	32655	32781	32739	32775	32775	
1100	0	32820	32715	32591	32575	32786	32751	32834	32751	
1101	0	32783	32767	32633	32689	32797	32795	32827	32621	
1102	0	32815	32703	32647	32683	32771	32767	32851	32687	
1103	0	32758	32635	32677	32516	32844	32791	32846	32722	
1104	0	32711	32835	32599	32661	32695	32692	32767	32599	
1105	0	32638	32849	32717	32475	32831	32754	32723	32628	
1106	0	32621	32795	32838	32719	32743	32754	32790	32629	
1107	0	32647	32727	32829	32693	32775	32767	32539	32641	
1108	0	32759	32831	32903	32797	32849	32847	32751	32545	
1109	0	32767	32787	32850	32639	32765	32698	32639	32677	
1110	0	32673	32759	32799	32669	32791	32773	32877	32827	
1111	0	32799	32647	32823	32642	32687	32767	32549	32753	
1112	0	32823	32711	32788	32575	32621	32843	32775	32663	
1113	0	32815	32791	32607	32621	32715	32717	32609	32663	
1114	0	32765	32743	32599	32539	32641	32813	32797	32715	
1115	0	32731	32663	32607	32655	32821	32804	32636	32708	
1116	0	32807	32679	32577	32625	32829	32711	32775	32703	
1117	0	32832	32716	32647	32799	32623	32761	32558	32514	
1118	0	32837	32691	32639	32765	32747	32836	32775	32631	
1119	0	32742	32745	32619	32646	32629	32660	32599	32677	
1120	0	32708	32647	32734	32735	32827	32775	32797	32662	
1121	0	32711	32605	32702	32671	32757	32865	32631	32668	
1122	0	32775	32623	32677	32724	32807	32767	32791	32751	
1123	0	32812	32791	32525	32767	32825	32690	32759	32775	
1124	0	32764	32751	32505	32567	32764	32783	32801	32655	
1125	0	32738	32755	32592	32755	32839	32747	32843	32551	
1126	0	32740	32797	32643	32732	32647	32844	32775	32577	
1127	0	32751	32699	32727	32725	32799	32715	32639	32599	
1128	0	32707	32773	32701	32719	32775	32763	32741	32759	
1129	0	32688	32839	32641	32673	32630	32690	32631	32733	
1130	0	32775	32839	32775	32668	32738	32711	32764	32654	
1131	0	32822	32761	32794	32499	32575	32758	32741	32705	
1132	0	32799	32641	32843	32692	32786	32775	32831	32845	
1133	0	32717	32791	32839	32515	32895	32791	32719	32633	
1134	0	32722	32679	32941	32669	32847	32807	32826	32609	
1135	0	32742	32695	32820	32615	32790	32685	32638	32727	
1136	0	32799	32585	32807	32735	32663	32663	32731	32662	
1137	0	32782	32619	32807	32695	32769	32717	32749	32639	
1138	0	32774	32775	32854	32578	32847	32756	32822	32685	
1139	0	32733	32773	32694	32671	32863	32764	32711	32693	
1140	0	32747	32678	32655	32465	32859	32790	32807	32551	
1141	0	32767	32603	32700	32577	32733	32868	32717	32549	
1142	0	32749	32615	32791	32582	32708	32727	32735	32647	
1143	0	32711	32759	32786	32671	32631	32825	32763	32637	
1144	0	32719	32749	32765	32640	32719	32767	32771	32679	
1145	0	32743	32743	32775	32633	32694	32782	32863	32707	
1146	0	32753	32645	32685	32791	32655	32789	32884	32734	
1147	0	32718	32773	32658	32787	32643	32718	32738	32684	
1148	0	32720	32607	32715	32614	32703	32775	32580	32749	
1149	0	32725	32839	32679	32703	32804	32798	32831	32845	
1150	0	32673	32807	32639	32553	32639	32671	32725	32743	
1151	0	32745	32787	32751	32797	32755	32765	32847	32591	
1152	0	32736	32719	32753	32622	32855	32827	32773	32543	
1153	0	32709	32813	32743	32747	32751	32759	32839	32719	
1154	0	32762	32709	32743	32685	32837	32791	32615	32740	
1155	0	32823	32738	32746	32715	32725	32802	32787	32659	
1156	0	32804	32711	32679	32719	32858	32703	32743	32671	
1157	0	32807	32685	32711	32757	32841	32765	32822	32719	
1158	0	32831	32687	32757	32783	32790	32773	32756	32735	
1159	0	32857	32699	32669	32631	32829	32668	32854	32615	
1160	0	32885	32697	32743	32763	32687	32719	32813	32508	
1161	0	32807	32583	32711	32611	32855	32725	32795	32497	
1162	0	32692	32710	32749	32753	32889	32661	32787	32566	
1163	0	32798	32663	32807	32603	32719	32759	32590	32679	
1164	0	32623	32515	32625	32727	32877	32742	32637	32839	
1165	0	32696	32511	32623	32610	32823	32612	32539	32919	
1166	0	32720	32671	32743	32751	32591	32679	32527	32799	
1167	0	32707	32754	32727	32607	32603	32717	32409	32826	
1168	0	32617	32607	32625	32742	32694	32647	32463	32951	
1169	0	32647	32691	32609	32645	32713	32737	32470	33007	
1170	0	32655	32747	32693	32701	32623	32758	32519	32828	
1171	0	32685	32775	32627	32565	32723	32676	32559	32791	
1172	0	32714	32766	32599	32695	32741	32822	32526	32831	
1173	0	32705	32719	32647	32660	32637	32883	32637	32882	
1174	0	32662	32851	32605	32574	32451	32791	32647	32839	
1175	0	32660	32854	32471	32495	32653	32783	32690	32775	
1176	0	32711	32798	32516	32419	32577	32766	32791	32718	
1177	0	32750	32797	32604	32391	32553	32831	32751	32783	
1178	0	32682	32903	32529	32354	32645	32919	32837	32655	
1179	0	32738	32899	32509	32379	32631	32927	32941	32556	
1180	0	32718	32999	32415	32295	32437	32975	32927	32591	
1181	0	32707	32919	32123	32323	32497	33061	33059	32643	
1182	0	32700	32847	32135	32309	32461	33015	32771	32509	
1183	0	32799	32959	32268	32383	32631	32983	32989	32439	
1184	0	32818	33122	32154	32297	32627	33079	32786	32457	
1185	0	32788	33077	32087	32198	32435	33054	32829	32493	
1186	0	32787	32903	32289	32405	32556	33104	32661	32535	
1187	0	32721	33001	32399	32247	32532	33111	32775	32598	
1188	0	32744	32918	32453	32379	32667	33012	32615	32683	
1189	0	32697	32911	32487	32279	32634	33007	32805	32708	
1190	0	32799	32927	32415	32315	32690	32983	32647	32516	
1191	0	32941	33111	32525	32253	32548	32987	32836	32538	
1192	0	32933	33071	32594	32527	32612	32981	32949	32603	
1193	0	32912	32927	32541	32711	32819	32802	33265	32302	
1194	0	32841	32787	32687	32887	32951	32843	33156	32199	
1195	0	32895	32621	32791	33055	32957	32738	33284	32215	
1196	0	32876	32678	32895	33131	33058	32543	32997	32361	
1197	0	32873	32583	33087	33125	33125	32586	33133	32387	
1198	0	32836	32373	33191	33059	33046	32580	32943	32595	
1199	0	32788	32327	33142	33221	32999	32477	32949	32708	
1200	0	32863	32359	33260	33134	33181	32485	32869	32711	
1201	0	32909	32468	33439	33269	33159	32423	32852	32633	
1202	0	33127	32487	33622	33151	33229	32446	32911	32595	
1203	0	33255	32405	33708	33327	33257	32502	33139	32567	
1204	0	33396	32589	33766	33333	33368	32407	33119	32602	
1205	0	33367	32519	33773	33447	33319	32388	33031	32452	
1206	0	33281	32486	33746	33327	33255	32503	32903	32399	
1207	0	33223	32412	33706	33147	33103	32439	32914	32551	
1208	0	33061	32260	33601	33357	33159	32409	32775	32643	
1209	0	32961	32398	33447	33188	33281	32468	32613	32629	
1210	0	32879	32427	33177	33187	32995	32431	32615	32669	
1211	0	32832	32431	33060	33031	33055	32538	32437	32743	
1212	0	32684	32595	33013	33071	33003	32502	32619	32718	
1213	0	32603	32639	32911	32839	32775	32663	32591	32663	
1214	0	32477	32639	32885	32795	32799	32690	32671	32717	
1215	0	32548	32645	32687	32631	32839	32551	32519	32777	
1216	0	32530	32757	32623	32647	32807	32717	32567	32735	
1217	0	32495	32843	32703	32415	32629	32835	32513	32786	
1218	0	32492	32735	32557	32459	32519	32775	32546	32819	
1219	0	32548	32757	32487	32279	32703	32903	32727	32850	
1220	0	32556	32917	32469	32361	32659	32974	32523	32839	
1221	0	32477	32807	32135	32279	32503	32831	32775	32687	
1222	0	32445	32783	32101	32451	32487	32901	32677	32667	
1223	0	32515	32743	32125	32375	32551	33053	32791	32767	
1224	0	32527	32775	32221	32399	32347	32975	32711	32723	
1225	0	32475	32783	32279	32383	32453	32995	32655	32759	
1226	0	32452	32788	32263	32411	32491	32891	32645	32820	
1227	0	32476	32749	32319	32460	32533	32934	32687	32687	
1228	0	32530	32803	32390	32503	32519	32918	32607	32690	
1229	0	32593	32766	32493	32372	32606	32859	32543	32603	
1230	0	32609	32801	32398	32499	32471	32919	32615	32677	
1231	0	32709	32863	32411	32415	32690	32733	32455	32815	
1232	0	32742	32707	32407	32463	32726	32799	32687	32871	
1233	0	32773	32895	32621	32354	32551	32825	32589	32804	
1234	0	32797	32791	32681	32507	32711	32870	32831	32723	
1235	0	32795	32759	32655	32391	32771	32898	32631	32687	
1236	0	32865	32819	32711	32611	32735	32715	32839	32708	
1237	0	32844	32885	32562	32673	32598	32719	32799	32747	
1238	0	32823	32711	32639	32695	32775	32717	32727	32718	
1239	0	32833	32831	32669	32795	32713	32786	32805	32717	
1240	0	32843	32759	32692	32647	32773	32855	32645	32723	
1241	0	32825	32617	32763	32681	32646	32733	32839	32692	
1242	0	32804	32715	32717	32641	32827	32831	32791	32724	
1243	0	32720	32747	32575	32647	32811	32719	32852	32708	
1244	0	32756	32735	32707	32562	32890	32787	32775	32679	
1245	0	32773	32791	32759	32699	32687	32863	32718	32590	
1246	0	32758	32702	32687	32578	32703	32668	32727	32703	
1247	0	32739	32759	32607	32727	32603	32827	32873	32725	
1248	0	32742	32679	32765	32640	32839	32775	32775	32543	
1249	0	32756	32707	32871	32749	32838	32755	32863	32526	
1250	0	32773	32787	32975	32765	32729	32729	32759	32667	
1251	0	32823	32759	32855	32716	32719	32794	32851	32703	
1252	0	32850	32767	32775	32695	32867	32783	32820	32659	
1253	0	32814	32710	32749	32745	32647	32845	32676	32677	
1254	0	32769	32775	32667	32646	32786	32843	32827	32661	
1255	0	32804	32791	32628	32719	32811	32687	32541	32596	
1256	0	32742	32645	32559	32703	32687	32797	32877	32711	
1257	0	32759	32751	32599	32775	32812	32786	32807	32741	
1258	0	32709	32799	32799	32599	32819	32799	32751	32742	
1259	0	32836	32655	32767	32637	32676	32807	32797	32735	
1260	0	32805	32750	32703	32559	32832	32793	32605	32767	
1261	0	32812	32775	32623	32701	32827	32811	32879	32763	
1262	0	32805	32671	32402	32639	32738	32715	32791	32787	
1263	0	32705	32815	32567	32827	32811	32847	32663	32693	
1264	0	32661	32791	32657	32805	32804	32747	32839	32735	
1265	0	32647	32695	32707	32833	32789	32853	32765	32765	
1266	0	32788	32695	32747	32695	32787	32769	32873	32621	
1267	0	32788	32799	32847	32717	32790	32811	32784	32759	
1268	0	32799	32739	32751	32701	32655	32815	32742	32655	
1269	0	32717	32647	32639	32799	32868	32820	32787	32581	
1270	0	32783	32823	32697	32775	32743	32685	32559	32647	
1271	0	32887	32839	32875	32727	32807	32775	32788	32671	
1272	0	32831	32659	32910	32749	32639	32676	32813	32647	
1273	0	32824	32711	32886	32643	32745	32757	32839	32767	
1274	0	32802	32788	32773	32643	32804	32811	32789	32643	
1275	0	32810	32667	32634	32519	32717	32710	32639	32687	
1276	0	32790	32748	32847	32615	32839	32807	32775	32662	
1277	0	32756	32735	32756	32455	32751	32710	32690	32598	
1278	0	32716	32623	32699	32559	32699	32756	32887	32645	
1279	0	32728	32759	32673	32527	32735	32819	32775	32591	
1280	0	32703	32847	32647	32661	32711	32731	32621	32689	
1281	0	32727	32625	32709	32645	32807	32788	32839	32756	
1282	0	32757	32839	32787	32687	32745	32879	32604	32773	
1283	0	32781	32773	32757	32518	32708	32806	32756	32570	
1284	0	32851	32797	32749	32679	32643	32806	32567	32553	
1285	0	32794	32799	32662	32615	32691	32815	32747	32647	
1286	0	32826	32703	32647	32687	32775	32759	32694	32643	
1287	0	32849	32675	32647	32783	32737	32723	32843	32767	
1288	0	32887	32726	32575	32691	32743	32679	32615	32838	
1289	0	32858	32799	32595	32831	32701	32783	32831	32623	
1290	0	32775	32647	32717	32699	32693	32751	32695	32627	
1291	0	32693	32687	32519	32751	32637	32765	32751	32578	
1292	0	32732	32831	32666	32525	32743	32635	32705	32611	
1293	0	32671	32693	32734	32735	32871	32759	32729	32679	
1294	0	32670	32745	32807	32631	32839	32763	32831	32711	
1295	0	32751	32608	32839	32675	32769	32815	32765	32725	
1296	0	32759	32685	32860	32723	32684	32629	32789	32761	
1297	0	32807	32751	32823	32622	32787	32766	32775	32647	
1298	0	32752	32789	32775	32663	32820	32795	32818	32559	
1299	0	32757	32731	32717	32663	32783	32839	32711	32647	
1300	0	32775	32755	32727	32743	32826	32709	32727	32589	
1301	0	32743	32679	32707	32647	32799	32761	32883	32687	
1302	0	32727	32709	32715	32567	32827	32815	32603	32551	
1303	0	32764	32733	32690	32679	32683	32805	32815	32619	
1304	0	32724	32807	32684	32534	32699	32709	32607	32691	
1305	0	32681	32727	32590	32687	32715	32805	32807	32647	
1306	0	32791	32775	32641	32550	32578	32797	32799	32751	
1307	0	32830	32895	32695	32647	32835	32742	32895	32743	
1308	0	32828	32733	32694	32519	32883	32767	32761	32655	
1309	0	32715	32703	32670	32599	32775	32715	32866	32717	
1310	0	32773	32679	32759	32539	32719	32805	32799	32755	
1311	0	32762	32647	32801	32807	32775	32749	32695	32767	
1312	0	32769	32638	32676	32700	32807	32726	32824	32759	
1313	0	32767	32749	32601	32817	32743	32869	32537	32767	
1314	0	32777	32775	32743	32613	32681	32891	32721	32828	
1315	0	32756	32694	32739	32613	32821	32791	32687	32655	
1316	0	32803	32823	32863	32591	32815	32795	32804	32575	
1317	0	32780	32737	32775	32658	32642	32731	32671	32585	
1318	0	32775	32742	32759	32605	32711	32689	32799	32647	
1319	0	32780	32636	32711	32827	32727	32786	32805	32679	
1320	0	32684	32767	32695	32795	32877	32748	32791	32623	
1321	0	32709	32647	32773	32789	32835	32681	32763	32631	
1322	0	32756	32719	32862	32781	32723	32759	32807	32663	
1323	0	32731	32705	32799	32549	32755	32835	32876	32647	
1324	0	32709	32669	32727	32711	32673	32775	32596	32569	
1325	0	32756	32735	32737	32581	32748	32741	32727	32525	
1326	0	32735	32773	32647	32572	32775	32789	32687	32559	
1327	0	32728	32647	32505	32439	32823	32674	32811	32550	
1328	0	32703	32803	32495	32591	32803	32791	32755	32567	
1329	0	32820	32775	32509	32591	32775	32738	32850	32751	
1330	0	32824	32796	32643	32715	32763	32822	32743	32698	
1331	0	32805	32773	32647	32711	32659	32689	32811	32669	
1332	0	32698	32583	32685	32632	32743	32871	32615	32735	
1333	0	32681	32627	32679	32729	32581	32756	32759	32571	
1334	0	32678	32754	32679	32659	32735	32751	32730	32639	
1335	0	32726	32695	32767	32799	32823	32715	32882	32695	
1336	0	32719	32759	32807	32727	32876	32807	32885	32675	
1337	0	32802	32741	32977	32699	32831	32817	32799	32756	
1338	0	32808	32838	32927	32671	32629	32683	32738	32647	
1339	0	32878	32759	32748	32611	32775	32655	32724	32730	
1340	0	32826	32717	32709	32723	32854	32711	32676	32775	
1341	0	32836	32717	32579	32475	32879	32679	32717	32500	
1342	0	32836	32711	32518	32671	32804	32709	32835	32631	
1343	0	32799	32763	32702	32499	32621	32814	32787	32684	
1344	0	32749	32839	32770	32647	32829	32703	32703	32603	
1345	0	32775	32727	32695	32487	32823	32759	32818	32701	
1346	0	32814	32801	32683	32659	32643	32842	32837	32737	
1347	0	32821	32767	32783	32631	32734	32735	32775	32782	
1348	0	32768	32740	32749	32687	32796	32773	32671	32622	
1349	0	32727	32647	32595	32591	32727	32646	32767	32587	
1350	0	32726	32775	32500	32701	32591	32802	32599	32591	
1351	0	32725	32692	32621	32695	32801	32775	32703	32694	
1352	0	32723	32647	32763	32692	32715	32679	32605	32733	
1353	0	32727	32667	32687	32613	32894	32743	32803	32727	
1354	0	32679	32747	32562	32693	32861	32703	32598	32623	
1355	0	32671	32685	32669	32537	32662	32775	32813	32655	
1356	0	32705	32735	32700	32730	32836	32820	32771	32636	
1357	0	32736	32759	32767	32679	32811	32854	32823	32690	
1358	0	32838	32704	32855	32693	32793	32807	32772	32694	
1359	0	32829	32747	32791	32709	32617	32812	32597	32647	
1360	0	32843	32798	32812	32637	32745	32771	32793	32639	
1361	0	32828	32629	32815	32739	32775	32775	32711	32717	
1362	0	32757	32663	32647	32537	32818	32694	32763	32685	
1363	0	32692	32647	32643	32671	32725	32731	32749	32741	
1364	0	32747	32611	32791	32575	32727	32802	32647	32723	
1365	0	32730	32703	32748	32629	32801	32775	32759	32751	
1366	0	32721	32839	32813	32639	32775	32829	32609	32663	
1367	0	32791	32708	32727	32677	32682	32703	32799	32679	
1368	0	32790	32812	32587	32719	32789	32735	32802	32635	
1369	0	32839	32879	32599	32775	32775	32761	32863	32647	
1370	0	32820	32743	32757	32695	32771	32685	32785	32727	
1371	0	32824	32831	32735	32796	32821	32843	32631	32766	
1372	0	32826	32835	32763	32818	32775	32707	32839	32747	
1373	0	32809	32701	32714	32702	32790	32762	32677	32751	
1374	0	32753	32749	32703	32620	32668	32839	32807	32635	
1375	0	32748	32801	32723	32775	32796	32701	32658	32524	
1376	0	32773	32678	32679	32775	32787	32748	32847	32585	
1377	0	32707	32727	32594	32839	32619	32685	32743	32533	
1378	0	32719	32659	32639	32762	32887	32815	32717	32743	
1379	0	32691	32663	32635	32708	32827	32757	32839	32707	
1380	0	32742	32623	32629	32785	32631	32861	32703	32677	
1381	0	32687	32695	32655	32749	32751	32849	32823	32749	
1382	0	32754	32695	32759	32623	32797	32687	32634	32771	
1383	0	32725	32511	32817	32690	32676	32775	32727	32719	
1384	0	32741	32727	32859	32641	32711	32796	32751	32663	
1385	0	32813	32758	32823	32655	32807	32806	32895	32717	
1386	0	32772	32615	32811	32662	32745	32783	32735	32718	
1387	0	32796	32855	32735	32537	32772	32786	32642	32788	
1388	0	32704	32807	32775	32775	32671	32715	32828	32631	
1389	0	32755	32732	32743	32708	32847	32647	32647	32567	
1390	0	32767	32773	32811	32730	32827	32737	32796	32677	
1391	0	32751	32658	32883	32627	32679	32719	32755	32567	
1392	0	32727	32679	32799	32719	32887	32756	32702	32576	
1393	0	32748	32666	32663	32581	32845	32826	32735	32551	
1394	0	32820	32807	32662	32692	32710	32771	32754	32493	
1395	0	32798	32731	32711	32610	32809	32791	32807	32517	
1396	0	32809	32699	32621	32679	32831	32671	32726	32519	
1397	0	32711	32783	32660	32727	32689	32759	32523	32583	
1398	0	32761	32806	32850	32755	32722	32831	32839	32629	
1399	0	32773	32679	32847	32695	32747	32741	32754	32665	
1400	0	32824	32797	32813	32687	32738	32821	32807	32676	
1401	0	32780	32819	32663	32714	32679	32676	32787	32753	
1402	0	32800	32724	32683	32487	32747	32791	32676	32711	
1403	0	32799	32815	32647	32567	32733	32707	32807	32879	
1404	0	32770	32791	32454	32511	32682	32807	32598	32803	
1405	0	32804	32705	32407	32799	32595	32819	32833	32810	
1406	0	32817	32794	32503	32629	32751	32697	32731	32692	
1407	0	32722	32833	32365	32725	32821	32821	32695	32701	
1408	0	32626	32743	32549	32638	32797	32768	32822	32679	
1409	0	32647	32815	32741	32688	32887	32763	32611	32639	
1410	0	32679	32820	32813	32540	32899	32731	32759	32631	
1411	0	32712	32663	32821	32623	32773	32642	32541	32646	
1412	0	32721	32731	32878	32593	32819	32749	32717	32757	
1413	0	32726	32733	32797	32635	32655	32775	32555	32737	
1414	0	32767	32654	32683	32453	32825	32763	32831	32730	
1415	0	32750	32605	32587	32575	32815	32775	32841	32763	
1416	0	32809	32711	32666	32583	32659	32687	32631	32679	
1417	0	32863	32658	32914	32703	32773	32788	32845	32735	
1418	0	32819	32775	32901	32739	32799	32841	32839	32639	
1419	0	32788	32771	32868	32623	32722	32807	32861	32771	
1420	0	32764	32667	32631	32677	32813	32839	32839	32742	
1421	0	32689	32711	32639	32575	32793	32716	32595	32743	
1422	0	32730	32703	32799	32758	32735	32745	32903	32738	
1423	0	32738	32689	32799	32623	32903	32767	32799	32789	
1424	0	32760	32743	32858	32727	32724	32775	32679	32703	
1425	0	32797	32677	32775	32737	32829	32757	32893	32692	
1426	0	32783	32763	32674	32533	32711	32823	32751	32679	
1427	0	32813	32810	32676	32741	32775	32756	32582	32673	
1428	0	32783	32717	32769	32581	32775	32717	32819	32671	
1429	0	32789	32739	32726	32743	32710	32751	32747	32663	
1430	0	32751	32713	32691	32635	32730	32679	32749	32666	
1431	0	32817	32847	32547	32668	32769	32815	32783	32573	
1432	0	32804	32844	32703	32827	32631	32682	32787	32487	
1433	0	32779	32519	32719	32734	32822	32751	32887	32516	
1434	0	32822	32756	32706	32762	32775	32677	32795	32631	
1435	0	32826	32743	32747	32583	32751	32819	32644	32607	
1436	0	32877	32706	32686	32639	32655	32749	32747	32590	
1437	0	32838	32773	32703	32485	32739	32815	32573	32695	
1438	0	32850	32797	32698	32582	32871	32799	32854	32659	
1439	0	32856	32647	32685	32516	32695	32711	32742	32809	
1440	0	32766	32735	32602	32621	32731	32775	32819	32731	
1441	0	32801	32727	32647	32549	32723	32797	32853	32719	
1442	0	32762	32773	32655	32675	32740	32775	32563	32711	
1443	0	32734	32675	32667	32668	32613	32724	32743	32681	
1444	0	32733	32724	32655	32671	32839	32749	32685	32796	
1445	0	32738	32647	32749	32615	32683	32727	32775	32738	
1446	0	32757	32737	32802	32647	32799	32735	32743	32695	
1447	0	32708	32638	32831	32751	32758	32823	32623	32658	
1448	0	32613	32745	32767	32611	32795	32657	32841	32679	
1449	0	32666	32699	32731	32819	32845	32717	32855	32723	
1450	0	32678	32783	32795	32879	32789	32665	32788	32682	
1451	0	32772	32747	32819	32749	32775	32741	32747	32620	
1452	0	32804	32643	32877	32763	32827	32715	32564	32637	
1453	0	32721	32679	32713	32657	32679	32823	32775	32574	
1454	0	32741	32748	32670	32717	32803	32839	32743	32598	
1455	0	32813	32727	32711	32555	32775	32675	32604	32527	
1456	0	32841	32831	32659	32738	32791	32818	32775	32794	
1457	0	32703	32718	32631	32721	32801	32719	32775	32729	
1458	0	32745	32695	32562	32631	32669	32781	32584	32764	
1459	0	32713	32647	32679	32703	32769	32670	32775	32742	
1460	0	32695	32716	32717	32491	32781	32799	32775	32717	
1461	0	32692	32727	32815	32711	32804	32721	32641	32703	
1462	0	32761	32668	32771	32687	32655	32773	32823	32647	
1463	0	32738	32724	32903	32527	32842	32679	32791	32671	
1464	0	32724	32635	32789	32639	32759	32791	32671	32711	
1465	0	32731	32734	32911	32531	32583	32775	32823	32735	
1466	0	32845	32761	32826	32715	32797	32796	32695	32823	
1467	0	32834	32727	32725	32706	32707	32868	32691	32743	
1468	0	32847	32743	32689	32663	32870	32687	32731	32681	
1469	0	32769	32707	32751	32679	32662	32786	32579	32644	
1470	0	32694	32767	32679	32519	32879	32727	32715	32583	
1471	0	32739	32691	32695	32851	32755	32775	32832	32527	
1472	0	32834	32803	32711	32732	32877	32743	32810	32554	
1473	0	32882	32811	32647	32597	32647	32818	32679	32479	
1474	0	32809	32671	32437	32692	32831	32663	32855	32690	
1475	0	32835	32775	32511	32748	32793	32775	32812	32727	
1476	0	32823	32733	32611	32719	32843	32743	32871	32795	
1477	0	32785	32791	32659	32733	32724	32790	32831	32795	
1478	0	32785	32830	32795	32662	32821	32839	32617	32787	
1479	0	32756	32674	32707	32676	32815	32734	32775	32679	
1480	0	32775	32791	32821	32466	32791	32823	32617	32670	
1481	0	32733	32859	32749	32605	32775	32703	32859	32609	
1482	0	32751	32731	32702	32543	32807	32759	32775	32601	
1483	0	32762	32749	32751	32710	32765	32707	32738	32579	
1484	0	32858	32756	32719	32791	32687	32734	32756	32587	
1485	0	32805	32786	32674	32620	32655	32671	32565	32799	
1486	0	32839	32727	32722	32675	32823	32766	32869	32687	
1487	0	32838	32677	32671	32615	32799	32775	32786	32743	
1488	0	32726	32754	32587	32747	32791	32772	32647	32703	
1489	0	32740	32745	32633	32671	32718	32796	32817	32735	
1490	0	32743	32603	32707	32784	32755	32692	32658	32815	
1491	0	32713	32683	32731	32748	32855	32899	32811	32748	
1492	0	32678	32615	32687	32587	32775	32756	32802	32701	
1493	0	32631	32772	32587	32663	32798	32783	32635	32741	
1494	0	32559	32735	32751	32487	32775	32721	32834	32727	
1495	0	32708	32647	32791	32679	32799	32839	32828	32623	
1496	0	32710	32743	32836	32700	32799	32876	32647	32623	
1497	0	32749	32731	32858	32527	32607	32767	32799	32640	
1498	0	32836	32723	32807	32603	32815	32783	32591	32685	
1499	0	32751	32716	32855	32538	32807	32806	32813	32689	
1500	0	32745	32647	32845	32602	32655	32799	32735	32639	
1501	0	32800	32775	32791	32481	32829	32786	32775	32713	
1502	0	32767	32668	32737	32639	32658	32765	32765	32655	
1503	0	32734	32791	32701	32685	32767	32747	32562	32599	
1504	0	32850	32643	32721	32531	32827	32773	32681	32759	
1505	0	32847	32743	32795	32685	32669	32660	32799	32695	
1506	0	32852	32788	32701	32692	32769	32815	32683	32743	
1507	0	32870	32723	32663	32699	32731	32812	32813	32711	
1508	0	32771	32764	32611	32711	32797	32789	32751	32647	
1509	0	32773	32730	32587	32501	32766	32701	32663	32643	
1510	0	32765	32783	32526	32703	32583	32727	32749	32612	
1511	0	32790	32670	32655	32739	32716	32681	32799	32679	
1512	0	32751	32715	32597	32577	32765	32823	32847	32692	
1513	0	32736	32793	32617	32647	32895	32711	32825	32671	
1514	0	32764	32710	32518	32739	32836	32827	32817	32607	
1515	0	32745	32684	32575	32826	32767	32759	32815	32632	
1516	0	32759	32621	32731	32729	32775	32839	32815	32647	
1517	0	32735	32813	32747	32666	32877	32774	32685	32681	
1518	0	32679	32767	32636	32687	32707	32753	32823	32587	
1519	0	32748	32719	32642	32605	32765	32695	32719	32607	
1520	0	32679	32755	32723	32835	32721	32799	32583	32514	
1521	0	32671	32639	32695	32815	32739	32731	32863	32583	
1522	0	32766	32719	32791	32629	32703	32757	32775	32643	
1523	0	32743	32759	32723	32679	32871	32634	32881	32635	
1524	0	32695	32685	32703	32541	32817	32727	32826	32655	
1525	0	32749	32785	32815	32758	32773	32807	32611	32807	
1526	0	32775	32692	32823	32735	32679	32774	32847	32756	
1527	0	32794	32739	32690	32623	32721	32804	32717	32749	
1528	0	32822	32783	32679	32742	32722	32871	32706	32772	
1529	0	32812	32725	32749	32615	32830	32823	32791	32713	
1530	0	32723	32769	32757	32820	32731	32815	32811	32749	
1531	0	32739	32655	32767	32785	32775	32748	32710	32743	
1532	0	32790	32829	32708	32687	32749	32775	32767	32737	
1533	0	32687	32766	32677	32703	32795	32703	32612	32743	
1534	0	32742	32663	32771	32583	32615	32783	32807	32711	
1535	0	32734	32719	32789	32623	32719	32724	32715	32643	
1536	0	32780	32748	32789	32541	32759	32902	32579	32674	
1537	0	32755	32642	32803	32721	32740	32711	32787	32715	
1538	0	32794	32709	32741	32623	32747	32807	32603	32775	
1539	0	32882	32756	32539	32635	32837	32807	32836	32791	
1540	0	32833	32669	32539	32659	32647	32793	32763	32755	
1541	0	32799	32764	32701	32695	32807	32823	32675	32727	
1542	0	32722	32791	32621	32717	32747	32759	32847	32751	
1543	0	32710	32611	32641	32582	32839	32807	32767	32741	
1544	0	32678	32774	32698	32718	32818	32687	32679	32739	
1545	0	32743	32827	32687	32671	32706	32787	32732	32599	
1546	0	32779	32743	32665	32701	32826	32679	32521	32775	
1547	0	32699	32765	32629	32559	32609	32895	32767	32743	
1548	0	32745	32700	32834	32715	32791	32775	32845	32623	
1549	0	32759	32799	32877	32767	32679	32823	32595	32615	
1550	0	32769	32838	32607	32659	32787	32727	32806	32675	
1551	0	32791	32727	32643	32631	32639	32837	32773	32679	
1552	0	32871	32742	32727	32583	32823	32711	32647	32807	
1553	0	32881	32727	32636	32644	32747	32763	32822	32803	
1554	0	32828	32799	32635	32706	32863	32647	32709	32797	
1555	0	32837	32711	32679	32731	32711	32747	32763	32553	
1556	0	32786	32727	32735	32582	32809	32759	32726	32470	
1557	0	32804	32663	32639	32679	32843	32742	32647	32582	
1558	0	32703	32708	32564	32707	32739	32775	32707	32658	
1559	0	32732	32710	32573	32715	32731	32711	32607	32666	
1560	0	32736	32562	32647	32700	32789	32722	32821	32703	
1561	0	32773	32629	32621	32701	32701	32804	32838	32647	
1562	0	32712	32646	32715	32667	32722	32743	32903	32658	
1563	0	32662	32639	32771	32607	32835	32747	32871	32676	
1564	0	32687	32647	32813	32647	32687	32701	32745	32711	
1565	0	32694	32754	32699	32582	32807	32807	32805	32722	
1566	0	32663	32751	32807	32701	32795	32738	32599	32775	
1567	0	32764	32775	32815	32535	32646	32748	32791	32808	
1568	0	32783	32818	32875	32611	32819	32775	32719	32757	
1569	0	32857	32708	32827	32527	32713	32727	32803	32623	
1570	0	32818	32717	32749	32739	32631	32818	32839	32607	
1571	0	32819	32751	32789	32623	32811	32773	32663	32551	
1572	0	32773	32775	32719	32765	32813	32813	32853	32567	
1573	0	32807	32713	32583	32681	32903	32647	32775	32543	
1574	0	32789	32787	32604	32695	32647	32766	32692	32525	
1575	0	32756	32677	32589	32703	32845	32711	32751	32571	
1576	0	32719	32835	32606	32579	32815	32775	32550	32587	
1577	0	32695	32794	32658	32604	32670	32743	32887	32551	
1578	0	32765	32613	32733	32567	32855	32823	32789	32519	
1579	0	32761	32807	32677	32615	32823	32874	32852	32631	
1580	0	32737	32763	32647	32529	32647	32762	32751	32725	
1581	0	32715	32756	32755	32639	32875	32815	32775	32771	
1582	0	32763	32743	32852	32534	32731	32769	32797	32743	
1583	0	32774	32799	32823	32751	32599	32703	32694	32775	
1584	0	32720	32863	32843	32549	32834	32763	32839	32711	
1585	0	32763	32783	32871	32636	32815	32711	32629	32749	
1586	0	32783	32703	32867	32551	32659	32673	32775	32710	
1587	0	32810	32745	32811	32758	32863	32767	32811	32743	
1588	0	32729	32719	32611	32711	32815	32757	32838	32695	
1589	0	32812	32634	32615	32719	32564	32767	32717	32564	
1590	0	32759	32717	32639	32691	32807	32787	32677	32575	
1591	0	32818	32729	32576	32767	32845	32711	32775	32549	
1592	0	32735	32663	32611	32685	32660	32797	32591	32627	
1593	0	32717	32721	32701	32749	32791	32831	32806	32711	
1594	0	32765	32671	32719	32713	32815	32701	32626	32647	
1595	0	32751	32595	32647	32764	32623	32775	32789	32773	
1596	0	32773	32691	32519	32775	32703	32677	32734	32723	
1597	0	32775	32727	32683	32615	32775	32796	32747	32671	
1598	0	32772	32577	32675	32714	32869	32775	32796	32647	
1599	0	32738	32791	32859	32597	32764	32702	32635	32647	
1600	0	32669	32701	32895	32671	32668	32807	32759	32683	
1601	0	32671	32605	32982	32519	32799	32698	32599	32741	
1602	0	32751	32679	32815	32647	32639	32758	32804	32703	
1603	0	32719	32647	32567	32463	32695	32782	32762	32719	
1604	0	32676	32739	32466	32639	32791	32791	32879	32727	
1605	0	32745	32775	32519	32449	32665	32811	32795	32710	
1606	0	32743	32826	32695	32620	32715	32711	32820	32743	
1607	0	32828	32839	32839	32487	32805	32743	32775	32748	
1608	0	32873	32711	32827	32647	32671	32846	32761	32578	
1609	0	32788	32839	32825	32613	32850	32714	32775	32605	
1610	0	32852	32852	32743	32739	32813	32862	32587	32599	
1611	0	32775	32757	32711	32775	32853	32803	32797	32647	
1612	0	32757	32863	32765	32733	32862	32663	32623	32543	
1613	0	32678	32807	32759	32765	32773	32727	33007	32532	
1614	0	32807	32771	32705	32578	32787	32827	32839	32551	
1615	0	32824	32875	32674	32629	32631	32820	32643	32615	
1616	0	32844	32836	32647	32485	32837	32838	32813	32564	
1617	0	32871	32703	32615	32557	32715	32708	32687	32587	
1618	0	32742	32789	32703	32711	32749	32732	32707	32647	
1619	0	32775	32699	32703	32551	32690	32667	32701	32663	
1620	0	32736	32727	32623	32646	32871	32717	32548	32593	
1621	0	32751	32687	32563	32605	32736	32759	32883	32633	
1622	0	32679	32587	32615	32679	32829	32773	32811	32783	
1623	0	32763	32627	32767	32734	32661	32787	32583	32831	
1624	0	32761	32655	32659	32553	32739	32756	32891	32831	
1625	0	32799	32623	32603	32690	32681	32807	32737	32879	
1626	0	32788	32732	32724	32678	32799	32709	32695	32823	
1627	0	32757	32733	32759	32775	32787	32823	32787	32679	
1628	0	32694	32799	32673	32743	32843	32698	32799	32811	
1629	0	32756	32717	32813	32517	32838	32767	32749	32722	
1630	0	32719	32647	32711	32711	32642	32699	32788	32701	
1631	0	32711	32747	32639	32621	32827	32805	32605	32725	
1632	0	32684	32791	32804	32756	32903	32847	32847	32673	
1633	0	32712	32711	32805	32694	32791	32852	32772	32736	
1634	0	32669	32850	32639	32695	32719	32850	32673	32553	
1635	0	32717	32819	32623	32711	32753	32783	32859	32534	
1636	0	32756	32695	32775	32485	32847	32817	32839	32623	
1637	0	32801	32771	32715	32644	32647	32694	32623	32775	
1638	0	32773	32707	32727	32711	32727	32727	32797	32815	
1639	0	32790	32815	32567	32685	32759	32719	32703	32711	
1640	0	32844	32775	32657	32665	32799	32785	32647	32623	
1641	0	32816	32663	32793	32509	32647	32788	32803	32647	
1642	0	32751	32751	32747	32671	32813	32790	32635	32706	
1643	0	32774	32775	32771	32493	32854	32765	32806	32703	
1644	0	32807	32627	32722	32705	32685	32686	32775	32645	
1645	0	32767	32663	32667	32719	32683	32759	32723	32621	
1646	0	32786	32635	32693	32533	32789	32676	32797	32695	
1647	0	32795	32723	32639	32647	32763	32706	32575	32685	
1648	0	32833	32733	32659	32599	32828	32715	32866	32763	
1649	0	32833	32631	32619	32743	32773	32771	32740	32757	
1650	0	32719	32719	32622	32727	32807	32820	32806	32687	
1651	0	32751	32718	32941	32797	32804	32775	32727	32509	
1652	0	32720	32667	32973	32852	32833	32751	32599	32531	
1653	0	32686	32820	32915	32690	32727	32751	32791	32563	
1654	0	32705	32732	32828	32759	32711	32823	32623	32479	
1655	0	32690	32638	32711	32711	32691	32747	32821	32575	
1656	0	32674	32647	32706	32743	32667	32703	32565	32725	
1657	0	32733	32717	32708	32586	32775	32807	32881	32687	
1658	0	32725	32683	32623	32671	32743	32762	32764	32691	
1659	0	32761	32758	32543	32433	32659	32787	32903	32698	
1660	0	32775	32773	32691	32567	32823	32789	32863	32765	
1661	0	32821	32679	32673	32642	32708	32714	32759	32727	
1662	0	32828	32711	32638	32519	32807	32771	32799	32630	
1663	0	32860	32631	32743	32559	32809	32713	32748	32711	
1664	0	32821	32676	32775	32531	32690	32767	32671	32676	
1665	0	32807	32711	32756	32711	32843	32639	32754	32543	
1666	0	32799	32706	32663	32735	32716	32751	32759	32598	
1667	0	32825	32764	32903	32669	32826	32735	32661	32748	
1668	0	32806	32719	32847	32717	32675	32858	32839	32700	
1669	0	32818	32807	32775	32647	32769	32768	32711	32701	
1670	0	32730	32739	32773	32527	32823	32854	32785	32703	
1671	0	32751	32783	32743	32646	32803	32793	32815	32669	
1672	0	32807	32797	32739	32569	32775	32895	32587	32594	
1673	0	32788	32725	32647	32687	32767	32703	32841	32647	
1674	0	32747	32772	32524	32539	32775	32709	32597	32687	
1675	0	32738	32767	32553	32677	32775	32766	32845	32657	
1676	0	32710	32663	32566	32694	32902	32635	32819	32715	
1677	0	32666	32711	32575	32775	32797	32714	32628	32791	
1678	0	32732	32694	32711	32709	32829	32659	32823	32749	
1679	0	32766	32790	32727	32551	32831	32805	32773	32685	
1680	0	32789	32687	32743	32599	32832	32751	32722	32725	
1681	0	32797	32647	32647	32629	32759	32775	32845	32690	
1682	0	32836	32745	32663	32695	32791	32801	32785	32727	
1683	0	32785	32627	32803	32727	32724	32687	32879	32667	
1684	0	32733	32571	32695	32637	32719	32799	32843	32749	
1685	0	32780	32739	32822	32668	32757	32749	32645	32684	
1686	0	32814	32791	32775	32583	32770	32791	32885	32687	
1687	0	32828	32758	32795	32660	32655	32743	32834	32567	
1688	0	32733	32811	32639	32655	32847	32814	32675	32503	
1689	0	32764	32767	32775	32611	32754	32773	32887	32593	
1690	0	32714	32775	32647	32745	32844	32814	32741	32852	
1691	0	32717	32832	32628	32711	32647	32941	32647	32623	
1692	0	32713	32859	32555	32519	32702	32822	32849	32658	
1693	0	32763	32775	32693	32743	32661	32837	32795	32613	
1694	0	32793	32713	32775	32773	32803	32757	32676	32767	
1695	0	32838	32767	32751	32740	32669	32759	32727	32775	
1696	0	32823	32797	32761	32695	32845	32711	32686	32757	
1697	0	32809	32769	32628	32567	32751	32847	32741	32735	
1698	0	32784	32771	32589	32723	32884	32711	32735	32687	
1699	0	32699	32697	32775	32717	32691	32775	32679	32581	
1700	0	32742	32623	32754	32700	32751	32775	32785	32567	
1701	0	32721	32711	32708	32633	32839	32711	32570	32553	
1702	0	32714	32775	32715	32707	32775	32803	32775	32655	
1703	0	32722	32694	32785	32671	32807	32715	32617	32690	
1704	0	32773	32715	32726	32843	32667	32767	32899	32703	
1705	0	32720	32727	32754	32757	32735	32807	32763	32698	
1706	0	32679	32733	32951	32553	32775	32785	32613	32503	
1707	0	32736	32681	32773	32747	32767	32806	32807	32740	
1708	0	32809	32697	32735	32712	32731	32755	32805	32741	
1709	0	32782	32807	32809	32583	32743	32815	32795	32723	
1710	0	32767	32743	32815	32611	32775	32699	32775	32719	
1711	0	32743	32797	32708	32723	32763	32845	32743	32735	
1712	0	32751	32738	32759	32719	32734	32647	32787	32791	
1713	0	32866	32789	32695	32716	32858	32735	32775	32709	
1714	0	32826	32759	32587	32583	32831	32742	32671	32613	
1715	0	32775	32613	32681	32711	32863	32738	32818	32501	
1716	0	32808	32645	32675	32731	32652	32669	32743	32551	
1717	0	32704	32673	32674	32517	32647	32803	32599	32679	
1718	0	32703	32751	32567	32687	32818	32767	32725	32685	
1719	0	32745	32745	32647	32693	32732	32794	32610	32809	
1720	0	32710	32645	32733	32695	32647	32843	32791	32742	
1721	0	32775	32711	32781	32633	32786	32717	32583	32671	
1722	0	32718	32623	32563	32548	32811	32823	32775	32647	
1723	0	32774	32691	32631	32671	32735	32784	32810	32685	
1724	0	32787	32675	32710	32677	32748	32877	32646	32631	
1725	0	32775	32755	32692	32559	32641	32815	32831	32691	
1726	0	32750	32663	32573	32743	32711	32709	32767	32661	
1727	0	32737	32799	32566	32786	32759	32673	32647	32641	
1728	0	32705	32843	32625	32580	32863	32807	32946	32621	
1729	0	32741	32691	32707	32775	32831	32703	32831	32578	
1730	0	32715	32698	32807	32775	32763	32793	32839	32549	
1731	0	32724	32699	32846	32647	32751	32790	32795	32647	
1732	0	32799	32665	32813	32701	32853	32847	32669	32858	
1733	0	32799	32734	32819	32654	32677	32807	32799	32795	
1734	0	32856	32701	32733	32727	32775	32831	32615	32771	
1735	0	32861	32829	32745	32663	32815	32815	32861	32791	
1736	0	32796	32853	32663	32668	32627	32668	32765	32710	
1737	0	32833	32775	32628	32663	32789	32761	32769	32727	
1738	0	32799	32791	32724	32615	32770	32719	32813	32775	
1739	0	32812	32751	32702	32721	32735	32735	32607	32677	
1740	0	32806	32695	32675	32669	32831	32747	32854	32647	
1741	0	32758	32759	32691	32659	32815	32679	32807	32566	
1742	0	32720	32687	32679	32668	32775	32695	32765	32549	
1743	0	32728	32799	32727	32434	32689	32749	32802	32593	
1744	0	32687	32743	32743	32668	32813	32767	32699	32539	
1745	0	32722	32823	32743	32647	32785	32733	32623	32605	
1746	0	32736	32771	32722	32527	32814	32796	32811	32757	
1747	0	32754	32774	32799	32666	32679	32708	32709	32743	
1748	0	32812	32787	32895	32655	32815	32837	32643	32676	
1749	0	32773	32637	32783	32519	32741	32754	32845	32726	
1750	0	32775	32791	32644	32699	32839	32767	32719	32695	
1751	0	32769	32754	32637	32574	32765	32719	32756	32673	
1752	0	32796	32607	32499	32775	32759	32694	32763	32679	
1753	0	32701	32709	32554	32663	32861	32707	32655	32663	
1754	0	32752	32807	32679	32755	32764	32644	32837	32711	
1755	0	32807	32709	32821	32703	32743	32799	32605	32748	
1756	0	32831	32671	32935	32839	32679	32791	32797	32707	
1757	0	32765	32765	32807	32687	32835	32671	32729	32784	
1758	0	32749	32733	32787	32803	32827	32775	32903	32743	
1759	0	32790	32639	32887	32749	32799	32783	32701	32551	
1760	0	32749	32709	32767	32727	32732	32663	32850	32595	
1761	0	32780	32775	32711	32639	32620	32711	32756	32577	
1762	0	32789	32661	32738	32635	32743	32775	32599	32588	
1763	0	32743	32763	32731	32523	32815	32661	32718	32719	
1764	0	32692	32758	32581	32583	32643	32804	32535	32725	
1765	0	32734	32641	32559	32459	32732	32767	32749	32675	
1766	0	32687	32807	32645	32607	32819	32751	32615	32545	
1767	0	32732	32803	32661	32450	32711	32879	32804	32607	
1768	0	32725	32699	32583	32716	32817	32731	32582	32594	
1769	0	32752	32751	32734	32805	32847	32775	32797	32692	
1770	0	32807	32695	32751	32762	32719	32679	32783	32636	
1771	0	32752	32679	32749	32847	32815	32775	32735	32714	
1772	0	32781	32694	32699	32711	32797	32851	32830	32758	
1773	0	32716	32759	32767	32677	32643	32775	32639	32679	
1774	0	32719	32675	32694	32498	32786	32927	32935	32658	
1775	0	32758	32717	32723	32711	32727	32788	32854	32676	
1776	0	32785	32668	32839	32679	32843	32759	32635	32667	
1777	0	32775	32710	32775	32481	32647	32831	32741	32645	
1778	0	32804	32667	32537	32721	32836	32838	32767	32551	
1779	0	32795	32775	32595	32623	32839	32751	32583	32547	
1780	0	32838	32807	32637	32727	32703	32783	32901	32679	
1781	0	32815	32647	32717	32754	32819	32668	32756	32783	
1782	0	32815	32805	32711	32605	32737	32715	32674	32769	
1783	0	32782	32679	32775	32615	32821	32775	32823	32739	
1784	0	32737	32791	32647	32563	32679	32775	32783	32735	
1785	0	32663	32727	32743	32647	32762	32852	32858	32798	
1786	0	32734	32711	32684	32581	32807	32715	32759	32695	
1787	0	32713	32775	32757	32739	32561	32811	32604	32694	
1788	0	32725	32775	32691	32748	32799	32710	32783	32683	
1789	0	32758	32647	32733	32598	32734	32775	32602	32700	
1790	0	32757	32598	32714	32647	32672	32850	32831	32756	
1791	0	32717	32775	32581	32586	32847	32716	32727	32709	
1792	0	32763	32716	32690	32687	32818	32797	32727	32674	
1793	0	32783	32621	32771	32595	32726	32812	32787	32679	
1794	0	32813	32789	32775	32772	32786	32708	32679	32686	
1795	0	32780	32871	32683	32617	32791	32775	32839	32635	
1796	0	32753	32756	32681	32737	32647	32693	32741	32647	
1797	0	32824	32806	32695	32541	32829	32775	32791	32675	
1798	0	32742	32813	32814	32703	32789	32834	32759	32587	
1799	0	32711	32677	32775	32639	32749	32743	32831	32615	
1800	0	32685	32767	32833	32763	32735	32759	32827	32645	
1801	0	32738	32775	32925	32716	32775	32775	32623	32691	
1802	0	32830	32647	32822	32775	32821	32719	32807	32619	
1803	0	32765	32820	32759	32685	32687	32799	32582	32621	
1804	0	32762	32807	32817	32603	32717	32742	32815	32677	
1805	0	32719	32695	32749	32698	32773	32757	32793	32609	
1806	0	32758	32743	32575	32551	32807	32822	32727	32601	
1807	0	32772	32828	32667	32671	32825	32815	32775	32623	
1808	0	32805	32735	32693	32611	32731	32831	32571	32675	
1809	0	32813	32793	32563	32742	32764	32687	32877	32693	
1810	0	32812	32805	32511	32640	32711	32743	32796	32703	
1811	0	32773	32709	32477	32667	32775	32797	32821	32762	
1812	0	32822	32837	32590	32793	32807	32747	32763	32749	
1813	0	32788	32815	32527	32722	32795	32871	32691	32750	
1814	0	32799	32690	32615	32746	32821	32722	32841	32851	
1815	0	32715	32812	32663	32671	32743	32763	32523	32809	
1816	0	32757	32733	32733	32541	32623	32827	32743	32853	
1817	0	32810	32756	32807	32615	32803	32723	32631	32629	
1818	0	32836	32698	32783	32527	32807	32800	32846	32607	
1819	0	32784	32759	32809	32615	32775	32772	32599	32603	
1820	0	32758	32742	32781	32385	32705	32621	32903	32604	
1821	0	32801	32659	32731	32583	32766	32757	32782	32663	
1822	0	32811	32647	32711	32383	32845	32766	32723	32623	
1823	0	32818	32743	32676	32621	32766	32806	32759	32547	
1824	0	32666	32607	32679	32667	32795	32791	32567	32690	
1825	0	32739	32647	32803	32775	32751	32757	32827	32694	
1826	0	32703	32660	32807	32804	32705	32787	32807	32701	
1827	0	32678	32647	32903	32687	32775	32759	32855	32674	
1828	0	32725	32743	32743	32717	32647	32831	32819	32743	
1829	0	32831	32695	32703	32743	32743	32793	32721	32775	
1830	0	32787	32647	32674	32711	32860	32749	32771	32750	
1831	0	32820	32703	32690	32602	32615	32807	32695	32734	
1832	0	32789	32775	32565	32695	32815	32751	32863	32759	
1833	0	32770	32631	32631	32687	32663	32733	32738	32681	
1834	0	32724	32763	32666	32725	32763	32691	32865	32706	
1835	0	32703	32815	32597	32605	32799	32794	32766	32631	
1836	0	32801	32647	32707	32759	32835	32661	32759	32785	
1837	0	32780	32775	32828	32710	32804	32847	32791	32751	
1838	0	32762	32739	32781	32795	32879	32845	32683	32663	
1839	0	32775	32667	32699	32676	32839	32743	32789	32577	
1840	0	32708	32749	32687	32769	32685	32835	32574	32567	
1841	0	32692	32739	32726	32639	32809	32877	32852	32596	
1842	0	32699	32775	32775	32737	32787	32695	32735	32591	
1843	0	32727	32859	32743	32722	32639	32727	32677	32511	
1844	0	32709	32791	32671	32634	32887	32807	32751	32627	
1845	0	32749	32583	32675	32607	32818	32678	32583	32527	
1846	0	32729	32759	32655	32638	32642	32751	32807	32692	
1847	0	32713	32827	32775	32694	32727	32812	32639	32669	
1848	0	32753	32819	32871	32747	32787	32762	32919	32707	
1849	0	32775	32711	32711	32751	32767	32796	32807	32663	
1850	0	32818	32783	32775	32775	32807	32738	32701	32679	
1851	0	32732	32775	32748	32677	32655	32665	32735	32647	
1852	0	32757	32647	32703	32687	32887	32735	32571	32731	
1853	0	32739	32783	32586	32759	32743	32795	32791	32645	
1854	0	32694	32706	32699	32589	32743	32829	32727	32695	
1855	0	32756	32727	32791	32740	32791	32750	32713	32782	
1856	0	32813	32667	32743	32613	32734	32775	32735	32757	
1857	0	32790	32789	32729	32715	32757	32693	32647	32701	
1858	0	32747	32635	32671	32551	32763	32847	32871	32719	
1859	0	32762	32695	32798	32692	32703	32758	32787	32709	
1860	0	32838	32695	32755	32538	32753	32749	32839	32743	
1861	0	32839	32771	32715	32674	32709	32812	32829	32694	
1862	0	32829	32827	32631	32687	32869	32773	32629	32647	
1863	0	32887	32690	32813	32615	32815	32815	32871	32599	
1864	0	32800	32708	32711	32735	32795	32695	32791	32627	
1865	0	32789	32673	32682	32709	32758	32846	32655	32635	
1866	0	32825	32694	32706	32775	32813	32795	32738	32619	
1867	0	32827	32763	32635	32685	32838	32699	32511	32647	
1868	0	32733	32719	32678	32721	32787	32765	32967	32655	
1869	0	32679	32735	32791	32735	32806	32726	32823	32703	
1870	0	32710	32879	32726	32717	32764	32733	32685	32623	
1871	0	32727	32703	32759	32542	32787	32719	32879	32559	
1872	0	32797	32769	32647	32685	32765	32773	32751	32647	
1873	0	32797	32773	32788	32764	32787	32829	32609	32795	
1874	0	32838	32775	32687	32580	32633	32839	32708	32729	
1875	0	32793	32821	32675	32719	32693	32789	32737	32787	
1876	0	32764	32595	32597	32596	32841	32694	32661	32769	
1877	0	32802	32735	32637	32702	32859	32775	32810	32707	
1878	0	32717	32765	32709	32511	32751	32743	32687	32709	
1879	0	32723	32658	32765	32647	32851	32711	32771	32743	
1880	0	32709	32757	32727	32519	32762	32743	32607	32679	
1881	0	32685	32727	32791	32719	32665	32795	32764	32717	
1882	0	32719	32623	32879	32606	32797	32755	32663	32685	
1883	0	32751	32721	32891	32691	32846	32775	32887	32706	
1884	0	32772	32751	32765	32741	32749	32775	32735	32707	
1885	0	32739	32587	32731	32743	32767	32805	32811	32765	
1886	0	32764	32717	32637	32775	32773	32769	32739	32727	
1887	0	32788	32609	32619	32621	32799	32647	32575	32673	
1888	0	32818	32805	32500	32742	32633	32791	32901	32679	
1889	0	32746	32751	32791	32715	32839	32741	32687	32679	
1890	0	32807	32679	32763	32767	32711	32819	32683	32691	
1891	0	32823	32743	32694	32753	32775	32847	32791	32671	
1892	0	32814	32647	32771	32797	32714	32827	32621	32643	
1893	0	32833	32818	32703	32767	32703	32895	32830	32647	
1894	0	32815	32754	32698	32583	32787	32762	32627	32581	
1895	0	32878	32631	32767	32647	32783	32742	32863	32655	
1896	0	32775	32700	32708	32549	32747	32808	32766	32671	
1897	0	32739	32751	32715	32628	32815	32711	32628	32695	
1898	0	32722	32663	32782	32525	32709	32735	32743	32767	
1899	0	32775	32789	32631	32587	32773	32679	32615	32753	
1900	0	32820	32754	32551	32495	32815	32727	32825	32677	
1901	0	32827	32679	32631	32615	32611	32735	32724	32671	
1902	0	32764	32775	32695	32530	32839	32739	32606	32695	
1903	0	32821	32676	32671	32703	32757	32767	32853	32736	
1904	0	32771	32687	32477	32686	32871	32791	32775	32703	
1905	0	32766	32819	32609	32623	32666	32839	32695	32679	
1906	0	32644	32751	32660	32635	32807	32747	32807	32732	
1907	0	32605	32820	32607	32631	32766	32799	32655	32673	
1908	0	32617	32886	32599	32718	32629	32845	32823	32711	
1909	0	32676	32719	32725	32611	32674	32723	32611	32691	
1910	0	32694	32738	32790	32703	32748	32803	32861	32706	
1911	0	32775	32823	32838	32737	32747	32757	32627	32647	
1912	0	32765	32740	32773	32590	32817	32750	32813	32724	
1913	0	32780	32759	32631	32662	32795	32731	32610	32775	
1914	0	32764	32685	32603	32503	32813	32719	32847	32775	
1915	0	32749	32792	32667	32662	32695	32767	32631	32543	
1916	0	32797	32769	32811	32639	32823	32662	32893	32597	
1917	0	32740	32647	32924	32671	32829	32716	32724	32535	
1918	0	32708	32730	32951	32461	32663	32759	32671	32583	
1919	0	32751	32695	32759	32666	32787	32803	32759	32543	
1920	0	32775	32719	32711	32558	32793	32855	32637	32541	
1921	0	32790	32715	32843	32739	32555	32715	32738	32677	
1922	0	32751	32660	32743	32711	32791	32799	32725	32755	
1923	0	32827	32643	32785	32596	32775	32631	32719	32671	
1924	0	32751	32749	32679	32711	32821	32754	32743	32717	
1925	0	32692	32701	32647	32607	32663	32730	32557	32767	
1926	0	32753	32668	32732	32773	32758	32732	32683	32721	
1927	0	32740	32739	32727	32699	32695	32799	32591	32581	
1928	0	32744	32740	32727	32823	32815	32743	32749	32609	
1929	0	32775	32669	32734	32647	32783	32721	32631	32786	
1930	0	32759	32758	32783	32717	32639	32807	32847	32743	
1931	0	32735	32775	32731	32655	32828	32869	32692	32725	
1932	0	32676	32655	32575	32695	32823	32679	32838	32603	
1933	0	32730	32692	32557	32633	32637	32793	32647	32573	
1934	0	32817	32742	32567	32619	32751	32767	32805	32564	
1935	0	32781	32701	32647	32714	32761	32753	32671	32508	
1936	0	32758	32579	32719	32561	32775	32703	32762	32606	
1937	0	32800	32788	32805	32611	32821	32747	32727	32679	
1938	0	32767	32739	32759	32516	32719	32647	32799	32671	
1939	0	32791	32703	32796	32583	32887	32753	32676	32671	
1940	0	32781	32655	32831	32497	32863	32774	32803	32711	
1941	0	32771	32687	32807	32701	32687	32675	32683	32701	
1942	0	32719	32628	32846	32695	32738	32749	32757	32698	
1943	0	32752	32583	32831	32831	32787	32763	32615	32775	
1944	0	32749	32663	32865	32771	32686	32607	32797	32845	
1945	0	32663	32687	32707	32835	32839	32677	32662	32819	
1946	0	32749	32566	32767	32723	32793	32739	32581	32858	
1947	0	32721	32567	32686	32877	32771	32683	32607	32831	
1948	0	32704	32642	32734	32746	32719	32679	32415	32839	
1949	0	32608	32595	32726	32871	32759	32729	32646	32831	
1950	0	32746	32743	32748	32887	32811	32787	32562	32828	
1951	0	32775	32799	32663	32799	32775	32780	32579	32841	
1952	0	32756	32743	32605	32611	32717	32771	32503	32891	
1953	0	32698	32765	32647	32630	32527	32699	32519	32903	
1954	0	32614	32863	32620	32526	32679	32873	32609	32863	
1955	0	32599	32689	32503	32549	32546	32943	32487	32763	
1956	0	32588	32738	32427	32339	32383	32823	32701	32773	
1957	0	32525	32871	32492	32471	32615	32903	32626	32797	
1958	0	32564	32875	32665	32291	32691	32911	32867	32831	
1959	0	32620	32813	32738	32388	32579	32791	32773	32707	
1960	0	32631	32805	32661	32269	32529	33005	32951	32615	
1961	0	32752	32929	32389	32439	32597	33037	32916	32551	
1962	0	32687	32911	32258	32181	32527	32919	32935	32565	
1963	0	32801	32874	32363	32334	32629	33019	32923	32567	
1964	0	32861	33021	32359	32191	32569	33103	32741	32575	
1965	0	32852	33031	32183	32201	32350	33011	32995	32519	
1966	0	32861	33086	32092	31991	32447	33089	32693	32631	
1967	0	32854	33013	32143	32284	32567	33127	32879	32695	
1968	0	32758	33037	32291	32186	32447	32919	32743	32594	
1969	0	32728	33015	32242	32340	32519	32903	32839	32563	
1970	0	32717	33091	32345	32429	32445	32981	32572	32685	
1971	0	32786	33009	32415	32259	32583	33071	32839	32569	
1972	0	32855	33044	32438	32305	32725	32954	32850	32407	
1973	0	32842	33093	32527	32283	32549	32999	32935	32372	
1974	0	32827	32811	32530	32525	32700	32900	32989	32386	
1975	0	32775	32718	32559	32571	32850	32839	33271	32372	
1976	0	32821	32770	32631	32895	32973	32671	33259	32367	
1977	0	32873	32647	32796	32953	33063	32631	33257	32419	
1978	0	32925	32575	32933	33156	32949	32614	33047	32406	
1979	0	32940	32431	33010	33004	33087	32527	33095	32495	
1980	0	32903	32391	33230	33338	33221	32487	32935	32538	
1981	0	32996	32403	33427	33228	33154	32495	32946	32453	
1982	0	33030	32286	33449	33281	33095	32431	32962	32519	
1983	0	33092	32439	33701	33277	33367	32458	32787	32519	
1984	0	33255	32493	33742	33415	33263	32465	33129	32431	
1985	0	33207	32390	33837	33397	33268	32364	32991	32502	
1986	0	33265	32511	33807	33397	33373	32404	33055	32655	
1987	0	33151	32460	33671	33367	33199	32479	33001	32647	
1988	0	33104	32334	33671	33212	33319	32503	32679	32564	
1989	0	33076	32403	33579	33254	33251	32518	32861	32631	
1990	0	32995	32343	33503	33261	33247	32421	32715	32687	
1991	0	32930	32419	33359	33191	33147	32518	32423	32756	
1992	0	32854	32564	33127	32981	33045	32453	32498	32762	
1993	0	32789	32677	32999	33023	33051	32495	32263	32773	
1994	0	32615	32583	32877	32898	32827	32599	32495	32815	
1995	0	32484	32628	32565	32708	32851	32561	32471	32921	
1996	0	32401	32587	32519	32783	32845	32647	32343	32903	
1997	0	32512	32639	32524	32569	32615	32577	32607	32852	
1998	0	32471	32715	32391	32500	32665	32775	32495	32833	
1999	0	32469	32811	32391	32421	32675	32884	32557	32811	
2000	0	32553	32766	32477	32407	32519	32775	32561	32711	
2001	0	32479	32887	32391	32228	32626	32879	32542	32716	
2002	0	32506	32845	32305	32235	32583	32983	32735	32726	
2003	0	32514	32735	32279	32263	32367	32909	32731	32727	
2004	0	32493	32927	32179	32327	32539	32948	32799	32735	
2005	0	32515	32887	32262	32351	32499	32873	32751	32722	
2006	0	32513	32799	32415	32217	32463	32939	32607	32809	
2007	0	32512	32763	32333	32331	32468	32949	32791	32707	
2008	0	32652	32775	32343	32317	32447	32998	32562	32723	
2009	0	32683	32644	32471	32548	32589	32966	32767	32643	
2010	0	32740	32837	32479	32426	32601	32839	32686	32677	
2011	0	32700	32791	32567	32601	32557	32809	32690	32626	
2012	0	32741	32755	32586	32511	32647	32843	32775	32583	
2013	0	32745	32844	32643	32687	32718	32863	32614	32607	
2014	0	32716	32747	32621	32581	32683	32815	32751	32607	
2015	0	32679	32703	32599	32657	32815	32917	32698	32583	
2016	0	32740	32807	32642	32620	32551	32810	32532	32655	
2017	0	32743	32751	32535	32492	32735	32783	32675	32838	
2018	0	32748	32759	32661	32615	32735	32807	32875	32762	
2019	0	32799	32827	32695	32551	32833	32753	32693	32687	
2020	0	32780	32615	32621	32659	32787	32747	32899	32700	
2021	0	32743	32723	32611	32668	32719	32742	32775	32679	
2022	0	32718	32813	32719	32671	32733	32692	32711	32748	
2023	0	32773	32631	32660	32623	32641	32791	32775	32646	
2024	0	32780	32769	32749	32629	32732	32767	32566	32676	
2025	0	32761	32841	32781	32625	32735	32823	32855	32679	
2026	0	32775	32783	32694	32475	32727	32867	32783	32676	
2027	0	32823	32754	32644	32647	32647	32799	32603	32647	
2028	0	32869	32715	32570	32577	32899	32819	32875	32647	
2029	0	32868	32788	32691	32775	32795	32775	32774	32732	
2030	0	32822	32775	32599	32664	32813	32823	32669	32743	
2031	0	32827	32873	32763	32515	32759	32789	32883	32755	
2032	0	32822	32927	32805	32655	32788	32812	32791	32721	
2033	0	32828	32715	32759	32573	32821	32743	32703	32710	
2034	0	32790	32767	32773	32719	32719	32765	32836	32682	
2035	0	32729	32695	32710	32783	32805	32793	32775	32667	
2036	0	32773	32798	32859	32599	32771	32734	32679	32691	
2037	0	32834	32775	32855	32687	32767	32795	32804	32703	
2038	0	32824	32683	32831	32759	32757	32789	32713	32716	
2039	0	32809	32711	32703	32697	32643	32847	32831	32726	
2040	0	32743	32714	32631	32729	32719	32739	32743	32677	
2041	0	32737	32731	32669	32589	32727	32787	32629	32775	
2042	0	32764	32791	32478	32701	32839	32719	32835	32722	
2043	0	32795	32578	32581	32741	32903	32790	32767	32591	
2044	0	32751	32723	32519	32559	32677	32723	32668	32527	
2045	0	32749	32599	32687	32751	32668	32855	32866	32520	
2046	0	32694	32725	32722	32679	32786	32739	32783	32534	
2047	0	32758	32773	32815	32709	32863	32767	32759	32525	
2048	0	32765	32671	32923	32717	32804	32663	32821	32557	
2049	0	32799	32759	32823	32581	32775	32775	32586	32578	
2050	0	32758	32797	32687	32647	32783	32759	32855	32599	
2051	0	32743	32695	32753	32519	32601	32727	32765	32663	
2052	0	32745	32775	32759	32738	32775	32798	32615	32747	
2053	0	32775	32623	32743	32645	32791	32694	32787	32730	
2054	0	32746	32739	32709	32607	32791	32735	32743	32718	
2055	0	32835	32765	32719	32639	32771	32751	32603	32739	
2056	0	32816	32673	32833	32519	32710	32795	32807	32677	
2057	0	32790	32747	32711	32663	32763	32716	32721	32628	
2058	0	32740	32703	32735	32749	32628	32812	32775	32709	
2059	0	32783	32826	32615	32495	32783	32761	32831	32671	
2060	0	32826	32871	32660	32695	32810	32857	32820	32683	
2061	0	32809	32737	32621	32687	32823	32766	32739	32676	
2062	0	32810	32747	32686	32557	32771	32855	32781	32717	
2063	0	32705	32631	32599	32731	32689	32815	32751	32717	
2064	0	32720	32843	32719	32626	32711	32698	32613	32543	
2065	0	32775	32717	32784	32607	32759	32795	32902	32595	
2066	0	32721	32771	32760	32791	32866	32759	32743	32486	
2067	0	32695	32850	32708	32767	32699	32767	32663	32581	
2068	0	32690	32703	32719	32847	32751	32813	32748	32671	
2069	0	32754	32682	32669	32812	32759	32683	32567	32687	
2070	0	32776	32707	32647	32695	32641	32783	32815	32748	
2071	0	32739	32674	32559	32847	32661	32815	32791	32713	
2072	0	32675	32642	32585	32679	32759	32771	32827	32703	
2073	0	32682	32757	32597	32719	32843	32720	32655	32803	
2074	0	32710	32722	32715	32759	32843	32767	32805	32839	
2075	0	32684	32631	32839	32767	32659	32731	32783	32767	
2076	0	32747	32759	32795	32759	32829	32647	32793	32647	
2077	0	32771	32775	32783	32743	32845	32743	32791	32695	
2078	0	32796	32621	32791	32579	32751	32751	32691	32551	
2079	0	32791	32575	32866	32685	32895	32815	32835	32542	
2080	0	32800	32725	32697	32499	32739	32827	32623	32567	
2081	0	32914	32633	32691	32669	32761	32745	32822	32677	
2082	0	32913	32661	32775	32540	32775	32766	32682	32759	
2083	0	32887	32761	32764	32639	32805	32871	32823	32668	
2084	0	32812	32775	32623	32493	32635	32701	32791	32669	
2085	0	32838	32711	32587	32569	32847	32711	32831	32613	
2086	0	32734	32802	32583	32505	32811	32795	32787	32663	
2087	0	32782	32847	32751	32747	32661	32743	32623	32695	
2088	0	32780	32703	32713	32833	32789	32807	32839	32671	
2089	0	32763	32807	32767	32625	32669	32709	32710	32677	
2090	0	32767	32743	32646	32719	32743	32794	32635	32703	
2091	0	32722	32889	32635	32510	32734	32819	32802	32706	
2092	0	32692	32812	32663	32703	32743	32819	32642	32653	
2093	0	32694	32691	32748	32479	32853	32763	32823	32877	
2094	0	32701	32821	32769	32687	32799	32773	32615	32630	
2095	0	32667	32730	32747	32531	32813	32727	32775	32709	
2096	0	32646	32623	32833	32614	32606	32747	32767	32615	
2097	0	32646	32788	32897	32459	32839	32772	32883	32599	
2098	0	32732	32733	32797	32582	32813	32823	32823	32590	
2099	0	32811	32573	32850	32539	32619	32845	32703	32517	
2100	0	32873	32689	32859	32647	32684	32711	32823	32495	
2101	0	32825	32670	32855	32697	32775	32783	32799	32548	
2102	0	32879	32605	32821	32567	32837	32799	32901	32660	
2103	0	32833	32767	32626	32765	32703	32765	32827	32658	
2104	0	32850	32755	32637	32734	32723	32771	32767	32665	
2105	0	32815	32775	32527	32725	32727	32745	32749	32671	
2106	0	32751	32903	32625	32527	32615	32791	32661	32711	
2107	0	32777	32802	32613	32783	32718	32759	32874	32711	
2108	0	32745	32668	32681	32695	32687	32702	32759	32695	
2109	0	32735	32759	32595	32818	32875	32757	32699	32665	
2110	0	32794	32679	32663	32823	32739	32711	32871	32647	
2111	0	32713	32695	32647	32647	32827	32769	32742	32663	
2112	0	32683	32807	32675	32751	32847	32795	32843	32725	
2113	0	32658	32726	32739	32607	32707	32732	32743	32644	
2114	0	32635	32615	32685	32652	32879	32772	32757	32713	
2115	0	32734	32705	32663	32455	32711	32773	32751	32679	
2116	0	32698	32653	32851	32559	32815	32757	32559	32703	
2117	0	32718	32756	32876	32644	32655	32885	32787	32786	
2118	0	32838	32727	32823	32607	32839	32663	32721	32739	
2119	0	32803	32607	32639	32672	32847	32737	32606	32687	
2120	0	32902	32727	32643	32635	32805	32785	32845	32583	
2121	0	32869	32717	32631	32596	32551	32874	32791	32574	
2122	0	32791	32685	32543	32503	32813	32871	32769	32615	
2123	0	32734	32775	32615	32681	32756	32775	32773	32713	
2124	0	32766	32799	32619	32503	32715	32743	32635	32701	
2125	0	32676	32819	32479	32695	32869	32742	32919	32647	
2126	0	32659	32759	32626	32799	32783	32791	32813	32703	
2127	0	32743	32655	32797	32735	32793	32819	32603	32735	
2128	0	32816	32823	32863	32757	32647	32743	32775	32693	
2129	0	32807	32724	32862	32658	32783	32849	32718	32643	
2130	0	32823	32818	32755	32775	32775	32814	32677	32654	
2131	0	32831	32775	32735	32684	32639	32743	32743	32758	
2132	0	32807	32695	32657	32782	32861	32823	32567	32765	
2133	0	32716	32699	32628	32754	32775	32743	32871	32707	
2134	0	32712	32743	32775	32799	32892	32775	32799	32707	
2135	0	32705	32683	32683	32663	32655	32727	32658	32658	
2136	0	32772	32743	32789	32527	32783	32698	32889	32703	
2137	0	32714	32739	32828	32679	32757	32825	32803	32740	
2138	0	32777	32666	32749	32553	32850	32703	32795	32676	
2139	0	32879	32743	32751	32603	32684	32803	32764	32693	
2140	0	32800	32775	32679	32495	32701	32828	32647	32692	
2141	0	32788	32670	32727	32545	32759	32718	32786	32701	
2142	0	32781	32679	32725	32500	32607	32735	32633	32699	
2143	0	32722	32719	32743	32559	32711	32767	32855	32765	
2144	0	32703	32663	32751	32485	32829	32655	32711	32739	
2145	0	32621	32671	32741	32655	32763	32753	32723	32711	
2146	0	32655	32757	32687	32465	32647	32751	32761	32758	
2147	0	32783	32759	32561	32605	32758	32679	32646	32741	
