# OpenSignals Text File Format
# {"00:07:80:64:6D:DA": {"sensor": ["CUSTOM/0.5/1.0/V", "CUSTOM/0.5/1.0/V", "CUSTOM/0.5/1.0/V", "CUSTOM/0.5/1.0/V"], "device name": "Plataforma", "column": ["nSeq", "DI", "CH1", "CH2", "CH3", "CH4"], "sync interval": 2, "time": "11:21:27.215", "comments": "", "device connection": "BTH00:07:80:64:6D:DA", "channels": [1, 2, 3, 4], "date": "2017-6-2", "mode": 0, "digital IO": [0, 1], "firmware version": 772, "device": "biosignalsplux", "position": 0, "sampling rate": 1000, "label": ["CH1", "CH2", "CH3", "CH4"], "resolution": [16, 16, 16, 16], "special": [{}, {}, {}, {}]}, "00:07:80:3B:46:38": {"sensor": ["CUSTOM/0.5/1.0/V", "CUSTOM/0.5/1.0/V", "CUSTOM/0.5/1.0/V", "CUSTOM/0.5/1.0/V", "CUSTOM/0.5/1.0/V", "CUSTOM/0.5/1.0/V", "CUSTOM/0.5/1.0/V", "CUSTOM/0.5/1.0/V"], "device name": "EMGs", "column": ["nSeq", "DI", "RA_L", "RA_R", "OE_L", "OE:R", "IL_L", "IL_R", "MF_L", "MF_R"], "sync interval": 2, "time": "11:21:27.215", "comments": "", "device connection": "BTH00:07:80:3B:46:38", "channels": [1, 2, 3, 4, 5, 6, 7, 8], "date": "2017-6-2", "mode": 0, "digital IO": [0, 1], "firmware version": 772, "device": "biosignalsplux", "position": 1, "sampling rate": 1000, "label": ["RA_L", "RA_R", "OE_L", "OE:R", "IL_L", "IL_R", "MF_L", "MF_R"], "resolution": [16, 16, 16, 16, 16, 16, 16, 16], "special": [{}, {}, {}, {}, {}, {}, {}, {}]}}
# EndOfHeader
4734	0	2181	4264	4970	8000	0	0	32836	32939	32529	32638	32770	32731	32722	32669	
4735	0	2265	4262	5043	8002	1	0	32842	32961	32671	32708	32686	32747	32647	32733	
4736	0	2193	4250	4966	7992	2	0	32833	32859	32607	32706	32789	32827	32463	32749	
4737	0	2248	4257	4949	7981	3	0	32882	32829	32558	32663	32693	32764	32671	32693	
4738	0	2202	4267	5006	7988	4	0	32868	32773	32583	32647	32863	32761	32598	32567	
4739	0	2182	4289	4963	7957	5	0	32854	32811	32679	32596	32667	32794	32807	32631	
4740	0	2216	4234	4956	8048	6	0	32802	32877	32703	32639	32742	32771	32735	32617	
4741	0	2228	4230	4951	7968	7	0	32784	32870	32493	32625	32806	32685	32811	32647	
4742	0	2284	4255	4959	7986	8	0	32732	32767	32455	32785	32805	32647	32715	32747	
4743	0	2291	4296	4990	7976	9	0	32726	32679	32519	32771	32725	32589	32765	32694	
4744	0	2228	4298	4990	8000	10	0	32784	32663	32615	32597	32685	32594	32775	32727	
4745	0	2318	4285	4989	7970	11	0	32752	32723	32583	32758	32789	32775	32759	32771	
4746	0	2248	4295	4966	8004	12	0	32749	32775	32647	32719	32783	32775	32759	32687	
4747	0	2220	4300	4921	7966	13	0	32730	32603	32706	32731	32850	32754	32759	32759	
4748	0	2256	4314	4986	7944	14	0	32775	32766	32708	32859	32731	32745	32860	32739	
4749	0	2304	4354	4964	7946	15	0	32809	32553	32743	32891	32759	32702	32871	32631	
4750	0	2225	4350	4933	7922	16	0	32784	32463	32895	32869	32851	32775	33070	32551	
4751	0	2245	4334	4912	7939	17	0	32764	32457	32775	33069	32885	32821	32975	32589	
4752	0	2268	4360	4925	7918	18	0	32866	32551	32759	33023	32931	32811	33095	32477	
4753	0	2282	4354	4938	7936	19	0	32873	32561	32891	32887	32828	32799	33095	32487	
4754	0	2285	4365	4902	7915	20	0	32837	32470	33019	32923	32869	32709	33199	32503	
4755	0	2246	4358	4877	7902	21	0	32903	32487	33135	32889	32823	32545	33001	32585	
4756	0	2262	4333	4877	7922	22	0	32870	32483	33111	33014	32875	32482	33159	32519	
4757	0	2255	4384	4874	7914	23	0	32910	32367	33181	32903	32823	32551	32935	32602	
4758	0	2289	4335	4864	7935	24	0	32926	32437	33175	32967	32871	32533	32986	32679	
4759	0	2270	4430	4870	7888	25	0	32762	32535	33063	32967	32668	32463	32657	32807	
4760	0	2276	4369	4882	7906	26	0	32758	32607	32974	32804	32663	32647	32722	32835	
4761	0	2320	4399	4835	7904	27	0	32680	32658	32911	32548	32676	32676	32527	32857	
4762	0	2268	4368	4870	7874	28	0	32714	32711	32595	32731	32647	32671	32608	32884	
4763	0	2307	4403	4854	7862	29	0	32621	32711	32613	32655	32667	32663	32500	32951	
4764	0	2263	4384	4872	7874	30	0	32593	32730	32527	32445	32523	32669	32468	33019	
4765	0	2284	4461	4848	7826	31	0	32554	32723	32349	32551	32479	32719	32293	33045	
4766	0	2320	4401	4846	7873	32	0	32567	32700	32263	32431	32554	32734	32349	33026	
4767	0	2337	4393	4790	7858	33	0	32555	32767	32261	32564	32484	32831	32222	33031	
4768	0	2273	4480	4793	7845	34	0	32564	32797	32351	32660	32509	32819	32291	33071	
4769	0	2336	4384	4805	7842	35	0	32589	32807	32470	32723	32571	32743	32315	33039	
4770	0	2309	4454	4839	7837	36	0	32628	32807	32546	32785	32485	32679	32285	33073	
4771	0	2335	4385	4817	7860	37	0	32658	32858	32585	32935	32519	32721	32347	33075	
4772	0	2327	4392	4770	7875	38	0	32652	32683	32391	32914	32630	32847	32340	33047	
4773	0	2336	4428	4798	7812	39	0	32647	32629	32314	33015	32685	32807	32323	32971	
4774	0	2369	4441	4779	7798	40	0	32692	32619	32351	33031	32685	32645	32363	32921	
4775	0	2340	4472	4838	7801	41	0	32711	32663	32471	33063	32623	32662	32454	32948	
4776	0	2338	4448	4798	7794	42	0	32611	32611	32587	33042	32626	32615	32375	32985	
4777	0	2365	4474	4752	7795	43	0	32695	32698	32627	32916	32631	32791	32501	32853	
4778	0	2385	4416	4777	7817	44	0	32684	32751	32695	32873	32707	32826	32455	32807	
4779	0	2356	4482	4771	7771	45	0	32652	32713	32695	32667	32742	32798	32631	32759	
4780	0	2389	4463	4760	7802	46	0	32625	32731	32582	32687	32814	32818	32598	32743	
4781	0	2291	4468	4721	7728	47	0	32722	32743	32593	32603	32743	32797	32699	32711	
4782	0	2349	4469	4760	7765	48	0	32804	32791	32707	32647	32809	32775	32613	32677	
4783	0	2380	4482	4748	7750	49	0	32797	32977	32677	32711	32801	32759	32799	32673	
4784	0	2410	4500	4773	7738	50	0	32793	32962	32727	32687	32757	32716	32711	32659	
4785	0	2392	4525	4716	7732	51	0	32858	32875	32801	32557	32675	32711	32803	32675	
4786	0	2393	4508	4693	7764	52	0	32903	32788	32613	32731	32639	32764	32595	32731	
4787	0	2403	4525	4750	7721	53	0	32900	32807	32548	32711	32766	32818	32730	32636	
4788	0	2426	4512	4726	7745	54	0	32885	32661	32503	32574	32759	32895	32607	32678	
4789	0	2414	4534	4708	7698	55	0	32843	32647	32535	32735	32799	32847	32722	32819	
4790	0	2375	4528	4708	7719	56	0	32879	32620	32617	32695	32759	32707	32655	32703	
4791	0	2415	4559	4676	7741	57	0	32733	32767	32694	32762	32709	32731	32716	32679	
4792	0	2420	4545	4709	7698	58	0	32730	32741	32753	32767	32807	32747	32535	32685	
4793	0	2411	4580	4736	7712	59	0	32762	32775	32743	32797	32823	32742	32711	32657	
4794	0	2416	4534	4698	7683	60	0	32802	32706	32662	32786	32831	32735	32615	32689	
4795	0	2448	4549	4753	7702	61	0	32762	32619	32719	32811	32631	32709	32743	32735	
4796	0	2423	4544	4723	7680	62	0	32756	32719	32719	32771	32701	32685	32559	32659	
4797	0	2453	4570	4686	7691	63	0	32690	32647	32575	32815	32743	32615	32715	32695	
4798	0	2469	4557	4716	7712	64	0	32702	32647	32597	32679	32799	32643	32633	32759	
4799	0	2467	4571	4730	7702	65	0	32703	32727	32373	32647	32743	32573	32819	32786	
4800	0	2449	4568	4712	7707	66	0	32766	32743	32447	32423	32767	32579	32767	32749	
4801	0	2442	4644	4717	7700	67	0	32830	32809	32583	32671	32844	32655	32863	32738	
4802	0	2468	4608	4700	7696	68	0	32825	32787	32647	32719	32740	32663	32775	32647	
4803	0	2475	4662	4700	7692	69	0	32745	32783	32692	32831	32703	32789	32769	32655	
4804	0	2465	4590	4655	7693	70	0	32756	32743	32791	32959	32713	32833	32795	32687	
4805	0	2457	4600	4665	7681	71	0	32748	32751	32575	32903	32804	32876	32593	32711	
4806	0	2481	4665	4698	7654	72	0	32775	32837	32717	32903	32717	32914	32717	32758	
4807	0	2498	4630	4708	7666	73	0	32844	32727	32595	32687	32605	32821	32694	32769	
4808	0	2451	4672	4733	7648	74	0	32731	32743	32633	32764	32695	32931	32735	32783	
4809	0	2478	4673	4744	7682	75	0	32700	32621	32756	32710	32695	32839	32737	32871	
4810	0	2484	4622	4714	7677	76	0	32708	32635	32775	32539	32717	32878	32679	32788	
4811	0	2476	4678	4692	7628	77	0	32758	32662	32681	32631	32711	32903	32637	32794	
4812	0	2494	4660	4739	7640	78	0	32797	32807	32740	32629	32751	32803	32727	32885	
4813	0	2532	4660	4707	7649	79	0	32890	32887	32831	32622	32863	32762	32619	32883	
4814	0	2552	4694	4721	7681	80	0	32879	32875	32899	32733	32835	32684	32647	32775	
4815	0	2550	4707	4708	7660	81	0	32799	32731	32835	32647	32775	32575	32628	32813	
4816	0	2531	4645	4684	7608	82	0	32784	32695	32743	32733	32763	32546	32751	32839	
4817	0	2501	4699	4724	7638	83	0	32742	32541	32801	32769	32660	32605	32565	32755	
4818	0	2549	4694	4749	7623	84	0	32783	32555	32753	32723	32692	32647	32715	32724	
4819	0	2553	4723	4704	7643	85	0	32756	32629	32738	32717	32764	32789	32615	32717	
4820	0	2530	4668	4698	7654	86	0	32807	32717	32587	32775	32783	32769	32751	32743	
4821	0	2566	4680	4684	7614	87	0	32793	32735	32507	32751	32635	32607	32679	32701	
4822	0	2576	4698	4746	7626	88	0	32798	32771	32643	32658	32710	32831	32751	32727	
4823	0	2538	4722	4705	7653	89	0	32898	32814	32607	32519	32759	32871	32591	32710	
4824	0	2588	4762	4715	7636	90	0	32854	32775	32575	32621	32769	32775	32733	32763	
4825	0	2555	4746	4701	7620	91	0	32812	32751	32510	32607	32763	32847	32645	32769	
4826	0	2574	4731	4763	7588	92	0	32836	32754	32575	32734	32795	32797	32764	32736	
4827	0	2596	4747	4734	7645	93	0	32802	32757	32566	32749	32684	32923	32567	32679	
4828	0	2574	4728	4715	7589	94	0	32759	32813	32615	32799	32735	32914	32739	32743	
4829	0	2596	4770	4772	7600	95	0	32795	32885	32449	32983	32791	32865	32591	32805	
4830	0	2635	4792	4745	7546	96	0	32725	32767	32557	33060	32775	32935	32671	32826	
4831	0	2639	4767	4678	7642	97	0	32734	32815	32663	32931	32802	32759	32566	32783	
4832	0	2580	4779	4732	7592	98	0	32738	32727	32719	33039	32703	32615	32739	32749	
4833	0	2621	4788	4743	7564	99	0	32738	32658	32735	32946	32658	32540	32591	32815	
4834	0	2644	4803	4726	7576	100	0	32727	32647	32759	32721	32790	32591	32673	32845	
4835	0	2593	4769	4771	7560	101	0	32756	32751	32836	32788	32711	32611	32599	32866	
4836	0	2668	4809	4710	7536	102	0	32775	32665	32573	32683	32663	32647	32701	32838	
4837	0	2610	4796	4740	7584	103	0	32754	32695	32647	32545	32599	32615	32660	32775	
4838	0	2596	4813	4706	7566	104	0	32800	32571	32742	32717	32722	32703	32711	32803	
4839	0	2648	4868	4716	7531	105	0	32749	32605	32678	32696	32713	32615	32706	32743	
4840	0	2653	4840	4669	7538	106	0	32676	32775	32772	32743	32646	32703	32541	32739	
4841	0	2640	4836	4715	7522	107	0	32685	32718	32782	32759	32739	32613	32711	32804	
4842	0	2633	4861	4694	7542	108	0	32711	32774	32827	32799	32767	32615	32703	32731	
4843	0	2642	4878	4738	7522	109	0	32778	32751	32535	32673	32743	32563	32783	32775	
4844	0	2685	4830	4752	7529	110	0	32758	32684	32594	32771	32755	32751	32647	32748	
4845	0	2686	4832	4703	7497	111	0	32795	32789	32583	32745	32647	32749	32739	32802	
4846	0	2689	4853	4720	7536	112	0	32801	32695	32687	32647	32662	32775	32623	32759	
4847	0	2691	4872	4691	7528	113	0	32834	32732	32567	32647	32743	32773	32647	32695	
4848	0	2698	4909	4694	7544	114	0	32748	32695	32590	32679	32747	32727	32583	32698	
4849	0	2740	4876	4676	7526	115	0	32761	32786	32589	32579	32773	32772	32708	32703	
4850	0	2690	4899	4725	7530	116	0	32769	32767	32534	32747	32705	32793	32563	32737	
4851	0	2674	4942	4708	7540	117	0	32727	32775	32487	32815	32843	32871	32701	32669	
4852	0	2713	4961	4726	7513	118	0	32772	32839	32725	32717	32831	32799	32602	32703	
4853	0	2749	4927	4738	7446	119	0	32759	32791	32715	32869	32687	32607	32775	32738	
4854	0	2723	4928	4709	7497	120	0	32679	32775	32562	32868	32713	32895	32527	32691	
4855	0	2731	4941	4741	7482	121	0	32722	32717	32519	32929	32691	32773	32703	32715	
4856	0	2696	4976	4724	7456	122	0	32775	32663	32699	32809	32630	32755	32559	32765	
4857	0	2744	4931	4689	7480	123	0	32785	32647	32532	32727	32596	32741	32719	32811	
4858	0	2732	4929	4723	7462	124	0	32764	32751	32623	32934	32455	32765	32631	32775	
4859	0	2769	4964	4744	7420	125	0	32793	32762	32663	32903	32464	32807	32811	32771	
4860	0	2704	4945	4701	7448	126	0	32756	32807	32743	32851	32370	32703	32785	32743	
4861	0	2741	4953	4716	7452	127	0	32808	32719	32762	32685	32343	32711	32738	32765	
4862	0	2746	4932	4698	7405	128	0	32719	32707	32553	32756	32567	32701	32795	32775	
4863	0	2774	4983	4762	7440	129	0	32728	32686	32477	32735	33007	32801	32687	32855	
4864	0	2770	4966	4709	7434	130	0	32699	32739	32455	32756	33463	32863	32679	32855	
4865	0	2804	4978	4706	7444	131	0	32760	32743	32571	32757	33303	32827	32588	32799	
4866	0	2782	4996	4693	7449	132	0	32765	32771	32607	32707	33046	32737	32757	32783	
4867	0	2761	5021	4708	7419	133	0	32761	32661	32565	32791	33107	32756	32737	32723	
4868	0	2775	5034	4706	7433	134	0	32807	32679	32495	32897	32927	32807	32531	32788	
4869	0	2741	4985	4700	7412	135	0	32751	32719	32479	32903	32839	32849	32681	32711	
4870	0	2812	5012	4713	7425	136	0	32719	32646	32547	32846	32775	32647	32607	32719	
4871	0	2818	5014	4704	7344	137	0	32775	32557	32767	32708	32687	32836	32687	32702	
4872	0	2804	5020	4650	7408	138	0	32751	32525	32641	32639	32623	32799	32635	32743	
4873	0	2830	5053	4749	7408	139	0	32740	32647	32588	32743	32621	32757	32623	32787	
4874	0	2836	5080	4702	7399	140	0	32703	32676	32775	32703	32579	32830	32679	32791	
4875	0	2762	5064	4701	7377	141	0	32678	32711	32743	32602	32591	32735	32769	32763	
4876	0	2816	5054	4662	7350	142	0	32796	32837	33030	32643	32613	32745	32699	32825	
4877	0	2791	5067	4678	7414	143	0	32750	32775	32903	32711	32627	32666	32687	32870	
4878	0	2813	5096	4675	7332	144	0	32820	32615	32899	32687	32726	32743	32641	32869	
4879	0	2827	5095	4616	7392	145	0	32818	32694	33017	32647	32623	32587	32644	32814	
4880	0	2809	5043	4691	7322	146	0	32783	32791	32789	32735	32722	32783	32647	32775	
4881	0	2822	5065	4655	7324	147	0	32740	32767	32478	32706	32737	32639	32549	32815	
4882	0	2844	5128	4642	7340	148	0	32748	32751	32807	32631	32687	32839	32515	32685	
4883	0	2866	5087	4676	7304	149	0	32771	32855	32587	32628	32724	32607	32582	32756	
4884	0	2824	5122	4674	7282	150	0	32745	32951	32514	32839	32639	32903	32567	32707	
4885	0	2813	5124	4659	7292	151	0	32751	32813	32615	32757	32718	32713	32565	32767	
4886	0	2874	5101	4654	7320	152	0	32791	32835	32599	32837	32783	32647	32583	32751	
4887	0	2837	5104	4665	7308	153	0	32812	32851	32630	32775	32725	32605	32703	32803	
4888	0	2851	5129	4658	7312	154	0	32807	32690	32557	32663	32733	32607	32711	32726	
4889	0	2887	5138	4638	7268	155	0	32824	32671	32657	32789	32725	32623	32681	32814	
4890	0	2861	5146	4661	7280	156	0	32822	32815	32561	32623	32755	32698	32563	32846	
4891	0	2861	5153	4628	7277	157	0	32773	32743	32439	32705	32690	32671	32631	32839	
4892	0	2877	5144	4599	7245	158	0	32841	32692	32663	32812	32751	32647	32609	32803	
4893	0	2907	5132	4613	7273	159	0	32857	32687	32532	32717	32709	32775	32735	32773	
4894	0	2892	5150	4640	7209	160	0	32860	32699	32647	32773	32787	32747	32595	32694	
4895	0	2876	5124	4624	7217	161	0	32914	32631	32677	32709	32762	32681	32717	32719	
4896	0	2870	5183	4634	7228	162	0	32854	32623	32427	32767	32787	32621	32598	32753	
4897	0	2890	5206	4603	7194	163	0	32762	32709	32335	32691	32719	32693	32740	32795	
4898	0	2909	5186	4549	7171	164	0	32796	32767	32470	32659	32691	32658	32687	32687	
4899	0	2881	5216	4618	7185	165	0	32775	32826	32599	32675	32795	32626	32692	32647	
4900	0	2894	5177	4588	7192	166	0	32741	32836	32549	32725	32743	32615	32555	32687	
4901	0	2898	5239	4579	7164	167	0	32780	32667	32622	32663	32765	32583	32679	32743	
4902	0	2942	5217	4567	7176	168	0	32831	32722	32738	32825	32639	32631	32556	32724	
4903	0	2903	5252	4554	7177	169	0	32822	32745	32749	32839	32579	32579	32711	32623	
4904	0	2948	5232	4547	7192	170	0	32789	32838	32563	32903	32710	32567	32575	32735	
4905	0	2896	5235	4580	7153	171	0	32781	32871	32700	32862	32709	32578	32709	32783	
4906	0	2921	5240	4575	7184	172	0	32807	32852	32861	32858	32751	32583	32551	32828	
4907	0	2928	5283	4540	7194	173	0	32720	32791	32743	32962	32727	32791	32695	32791	
4908	0	2906	5253	4564	7126	174	0	32788	32695	32722	32998	32761	32775	32570	32787	
4909	0	2953	5284	4532	7076	175	0	32663	32647	32773	32845	32837	32819	32727	32829	
4910	0	2934	5242	4467	7116	176	0	32660	32647	32783	32979	32759	32767	32586	32775	
4911	0	2933	5277	4504	7122	177	0	32647	32783	32819	32858	32797	32801	32723	32812	
4912	0	2953	5264	4515	7102	178	0	32775	32738	32887	32783	32803	32790	32806	32847	
4913	0	2944	5288	4526	7082	179	0	32788	32751	32903	32661	32630	32715	32751	32797	
4914	0	2961	5276	4487	7082	180	0	32843	32775	32646	32715	32655	32757	32806	32766	
4915	0	2912	5304	4527	7100	181	0	32795	32626	32701	32566	32775	32743	32869	32795	
4916	0	2897	5289	4545	7088	182	0	32788	32595	32703	32507	32767	32783	32730	32811	
4917	0	2981	5316	4477	7108	183	0	32800	32679	32613	32421	32690	32735	32775	32799	
4918	0	2913	5312	4451	7109	184	0	32718	32731	32580	32495	32710	32837	32821	32763	
4919	0	2970	5312	4545	7049	185	0	32711	32727	32573	32513	32628	32903	32694	32785	
4920	0	2970	5290	4494	7080	186	0	32668	32714	32557	32611	32742	32828	32647	32765	
4921	0	2983	5378	4475	7033	187	0	32690	32761	32596	32423	32727	32807	32637	32805	
4922	0	2984	5294	4460	7030	188	0	32655	32775	32663	32543	32743	32702	32687	32637	
4923	0	2972	5330	4450	7022	189	0	32694	32685	32703	32660	32678	32642	32589	32681	
4924	0	2971	5318	4436	7051	190	0	32740	32717	32727	32815	32629	32630	32735	32677	
4925	0	3031	5348	4490	7040	191	0	32762	32727	32775	32887	32695	32838	32658	32730	
4926	0	2977	5286	4432	7011	192	0	32723	32626	32687	32900	32820	32737	32719	32754	
4927	0	2978	5354	4448	7002	193	0	32719	32669	32679	32983	32773	32775	32749	32743	
4928	0	2986	5399	4468	6977	194	0	32749	32727	32726	32935	32763	32748	32587	32789	
4929	0	2994	5389	4390	6965	195	0	32761	32822	32543	32903	32787	32767	32749	32671	
4930	0	2965	5367	4438	6964	196	0	32715	32727	32475	33037	32647	32775	32516	32727	
4931	0	2978	5402	4472	6980	197	0	32669	32739	32679	33015	32710	32767	32681	32773	
4932	0	2998	5360	4417	6978	198	0	32727	32679	32643	32895	32748	32766	32695	32784	
4933	0	2986	5371	4436	6924	199	0	32712	32756	32627	32823	32687	32773	32647	32708	
4934	0	3007	5345	4414	6950	200	0	32785	32715	32640	32575	32773	32707	32679	32708	
4935	0	2997	5376	4429	6962	201	0	32780	32647	32447	32647	32705	32771	32535	32762	
4936	0	2980	5401	4388	6909	202	0	32772	32615	32605	32799	32623	32575	32727	32823	
4937	0	3043	5356	4371	6932	203	0	32772	32695	32715	32765	32655	32827	32668	32799	
4938	0	2997	5394	4380	6952	204	0	32783	32681	32643	33043	32711	32831	32719	32799	
4939	0	2970	5394	4402	6904	205	0	32804	32749	32731	33121	32707	32709	32635	32823	
4940	0	2984	5407	4358	6894	206	0	32782	32825	32809	32975	32708	32727	32707	32839	
4941	0	3028	5467	4392	6933	207	0	32767	32851	32807	33010	32695	32723	32543	32863	
4942	0	3012	5433	4358	6892	208	0	32756	32893	32788	32957	32647	32687	32743	32751	
4943	0	3033	5422	4367	6850	209	0	32703	32749	32562	32998	32795	32727	32641	32773	
4944	0	3016	5434	4379	6829	210	0	32795	32685	32535	32971	32757	32766	32731	32831	
4945	0	3013	5437	4349	6895	211	0	32694	32783	32589	32827	32829	32759	32557	32813	
4946	0	3038	5467	4324	6856	212	0	32713	32690	32559	32895	32681	32762	32694	32789	
4947	0	3032	5442	4308	6830	213	0	32805	32751	32519	32721	32767	32787	32548	32783	
4948	0	3024	5420	4400	6892	214	0	32735	32549	32607	32459	32742	32751	32711	32787	
4949	0	3034	5423	4305	6854	215	0	32717	32415	32516	32438	32743	32807	32493	32743	
4950	0	2986	5462	4344	6817	216	0	32791	32567	32467	32405	32767	32820	32668	32757	
4951	0	3016	5452	4323	6832	217	0	32809	32644	32662	32289	32647	32823	32503	32825	
4952	0	3038	5433	4318	6800	218	0	32866	32695	32815	32373	32703	32795	32692	32775	
4953	0	3024	5476	4302	6798	219	0	32836	32769	32703	32473	32782	32804	32522	32662	
4954	0	3047	5449	4317	6854	220	0	32848	32679	32694	32401	32799	32877	32691	32679	
4955	0	3052	5461	4284	6776	221	0	32889	32743	32843	32474	32759	32959	32530	32647	
4956	0	3022	5459	4274	6828	222	0	32852	32819	32647	32581	32647	32887	32615	32641	
4957	0	3044	5494	4368	6774	223	0	32797	32783	32709	32681	32743	32797	32615	32702	
4958	0	3018	5488	4285	6785	224	0	32786	32818	32625	32775	32735	32799	32727	32743	
4959	0	3084	5457	4352	6794	225	0	32763	32631	32639	32981	32695	32793	32719	32791	
4960	0	3033	5480	4286	6777	226	0	32727	32863	32706	32975	32735	32742	32579	32835	
4961	0	3040	5492	4313	6776	227	0	32738	32807	32706	32738	32803	32718	32733	32841	
4962	0	3041	5476	4289	6781	228	0	32773	32847	32551	32839	32748	32712	32647	32766	
4963	0	3070	5474	4275	6801	229	0	32814	32733	32631	32747	32701	32723	32719	32751	
4964	0	3093	5493	4274	6781	230	0	32764	32757	32615	32687	32703	32691	32551	32767	
4965	0	3068	5499	4282	6754	231	0	32785	32713	32695	32804	32803	32647	32759	32775	
4966	0	3039	5530	4229	6740	232	0	32767	32711	32647	32775	32740	32740	32668	32757	
4967	0	3072	5540	4245	6763	233	0	32772	32743	32723	32703	32770	32723	32756	32821	
4968	0	3061	5522	4260	6774	234	0	32727	32775	32773	32925	32703	32757	32554	32655	
4969	0	3096	5536	4234	6776	235	0	32694	32791	32519	32868	32615	32775	32731	32671	
4970	0	3061	5544	4207	6733	236	0	32697	32663	32636	32963	32762	32811	32581	32687	
4971	0	3038	5520	4268	6710	237	0	32607	32605	32638	32855	32790	32625	32743	32775	
4972	0	3101	5509	4267	6692	238	0	32687	32692	32820	33059	32709	32647	32705	32839	
4973	0	3069	5477	4259	6706	239	0	32735	32695	32564	32861	32783	32719	32767	32855	
4974	0	3034	5541	4197	6750	240	0	32739	32657	32461	32641	32668	32700	32701	32769	
4975	0	3039	5546	4228	6696	241	0	32814	32711	33101	32703	32733	32647	32735	32749	
4976	0	3032	5560	4228	6720	242	0	32823	32719	33455	32721	32743	32593	32773	32691	
4977	0	3078	5513	4234	6744	243	0	32924	32751	33423	32647	32699	32567	32679	32735	
4978	0	3108	5581	4198	6736	244	0	32926	32679	33190	32773	32791	32590	32711	32786	
4979	0	3048	5541	4192	6693	245	0	32939	32627	33127	32695	32718	32699	32516	32859	
4980	0	3085	5520	4171	6692	246	0	32917	32692	32767	32576	32731	32617	32698	32807	
4981	0	3071	5572	4227	6670	247	0	32806	32687	32263	32279	32633	32719	32519	32771	
4982	0	3100	5513	4223	6679	248	0	32769	32828	32071	32389	32743	32731	32773	32763	
4983	0	3042	5593	4235	6658	249	0	32741	32743	32183	32459	32735	32757	32587	32702	
4984	0	3046	5574	4174	6681	250	0	32634	32823	32043	32492	32798	32770	32687	32775	
4985	0	3084	5552	4196	6702	251	0	32669	32863	31997	32475	32723	32807	32503	32870	
4986	0	3045	5574	4186	6693	252	0	32655	32743	32007	32475	32725	32788	32727	32765	
4987	0	3103	5617	4247	6696	253	0	32741	32679	31965	32835	32751	32831	32638	32762	
4988	0	3106	5577	4213	6666	254	0	32731	32660	31973	32996	32813	32797	32717	32759	
4989	0	3077	5597	4204	6674	255	0	32599	32775	32003	33115	32671	32679	32687	32773	
4990	0	3060	5626	4173	6676	256	0	32570	32769	32142	33206	32719	32740	32660	32759	
4991	0	3081	5611	4132	6664	257	0	32473	32735	32335	33217	32617	32705	32707	32791	
4992	0	3075	5601	4159	6685	258	0	32447	32803	32527	33185	32751	32711	32721	32775	
4993	0	3113	5560	4190	6658	259	0	32463	32687	32370	33065	32749	32715	32719	32775	
4994	0	3100	5596	4136	6650	260	0	32617	32690	32511	32988	32647	32865	32705	32775	
4995	0	3130	5587	4138	6680	261	0	32700	32678	32685	32762	32683	32869	32548	32771	
4996	0	3110	5624	4175	6643	262	0	32684	32655	32669	32767	32710	32837	32647	32773	
4997	0	3071	5632	4180	6653	263	0	32793	32591	32769	32547	32733	32789	32527	32831	
4998	0	3081	5645	4132	6660	264	0	32775	32515	32852	32447	32698	32830	32668	32791	
4999	0	3038	5632	4173	6620	265	0	32784	32613	32707	32467	32681	32817	32623	32762	
5000	0	3053	5648	4111	6656	266	0	32845	32701	32807	32399	32749	32758	32723	32790	
5001	0	3058	5641	4149	6644	267	0	32841	32775	32839	32226	32807	32727	32503	32775	
5002	0	3070	5604	4117	6692	268	0	32866	32757	32768	32293	32735	32775	32620	32745	
5003	0	3100	5628	4117	6618	269	0	32837	32743	32843	32462	32821	32853	32671	32814	
5004	0	3037	5640	4119	6631	270	0	32925	32900	32815	32551	32815	32804	32623	32833	
5005	0	3052	5596	4169	6644	271	0	32877	32892	32839	32819	32710	32615	32687	32871	
5006	0	3031	5646	4151	6679	272	0	32826	32899	32985	32927	32783	32562	32615	32799	
5007	0	3117	5608	4101	6637	273	0	32862	32759	32859	33005	32644	32629	32783	32647	
5008	0	3082	5657	4154	6638	274	0	32845	32756	33031	33223	32757	32668	32571	32765	
5009	0	3115	5602	4094	6641	275	0	32799	32827	32802	33261	32783	32775	32759	32705	
5010	0	3097	5631	4113	6654	276	0	32817	32798	32855	33207	32774	32743	32609	32647	
5011	0	3078	5636	4125	6634	277	0	32926	32815	32883	33143	32749	32775	32663	32702	
5012	0	3091	5674	4141	6648	278	0	32795	32623	32829	32823	32717	32821	32543	32733	
5013	0	3064	5685	4107	6671	279	0	32765	32598	32773	32670	32660	32799	32698	32718	
5014	0	3083	5674	4079	6596	280	0	32895	32684	32877	32541	32735	32871	32596	32695	
5015	0	3112	5657	4101	6653	281	0	32796	32713	32630	32502	32716	32887	32683	32695	
5016	0	3090	5661	4116	6622	282	0	32834	32623	32758	32469	32627	32804	32663	32767	
5017	0	3103	5633	4086	6616	283	0	32744	32579	32669	32485	32623	32825	32703	32743	
5018	0	3071	5700	4102	6656	284	0	32735	32597	32662	32683	32751	32869	32717	32789	
5019	0	3041	5680	4070	6662	285	0	32695	32716	32685	32658	32735	32860	32735	32796	
5020	0	3067	5640	4100	6646	286	0	32751	32743	32503	32717	32647	32879	32749	32759	
5021	0	3094	5691	4093	6555	287	0	32743	32775	32563	32878	32603	32895	32610	32742	
5022	0	3125	5658	4115	6564	288	0	32780	32679	32641	32839	32751	32871	32726	32670	
5023	0	3063	5604	4069	6600	289	0	32748	32760	32647	32869	32756	32843	32843	32685	
5024	0	3092	5659	4112	6629	290	0	32799	32832	32631	32931	32858	32851	32807	32783	
5025	0	3057	5681	4099	6643	291	0	32775	32891	32742	32935	32751	32898	32854	32851	
5026	0	3107	5656	4065	6616	292	0	32806	32801	32839	32855	32901	32909	32751	32829	
5027	0	3085	5668	4103	6617	293	0	32807	32791	32633	32963	32791	32820	32557	32847	
5028	0	3084	5673	4091	6644	294	0	32775	32639	32849	32765	32695	32764	32646	32787	
5029	0	3141	5657	4086	6610	295	0	32799	32647	33103	32324	32743	32819	32578	32695	
5030	0	3077	5651	4098	6618	296	0	32765	32639	33231	32251	32721	32791	32799	32655	
5031	0	3083	5641	4083	6620	297	0	32767	32683	32959	32271	32647	32749	32700	32685	
5032	0	3125	5683	4110	6620	298	0	32679	32579	32943	32338	32711	32579	32820	32709	
5033	0	3077	5722	4089	6606	299	0	32713	32727	32862	32331	32734	32758	32839	32763	
5034	0	3091	5673	4059	6602	300	0	32765	32821	32719	32612	32759	32797	32839	32833	
5035	0	3097	5702	4100	6630	301	0	32766	32767	32403	32710	32775	32511	32789	32771	
5036	0	3104	5671	4066	6613	302	0	32808	32707	32359	32599	32687	32583	32840	32759	
5037	0	3017	5670	4067	6610	303	0	32867	32677	32181	32759	32731	32589	32718	32719	
5038	0	3106	5679	4098	6624	304	0	32837	32692	32017	32804	32717	32593	32682	32743	
5039	0	3076	5714	4037	6646	305	0	32790	32589	32111	33007	32735	32551	32631	32839	
5040	0	3070	5667	4034	6638	306	0	32735	32677	32184	33039	32692	32799	32703	32845	
5041	0	3105	5666	4070	6634	307	0	32772	32679	32207	32743	32705	32799	32707	32711	
5042	0	3109	5704	4099	6605	308	0	32690	32807	32372	32573	32726	32631	32803	32745	
5043	0	3072	5674	4069	6639	309	0	32743	32862	32487	32343	32747	32763	32662	32743	
5044	0	3056	5686	4013	6672	310	0	32738	32839	32557	32239	32679	32735	32748	32761	
5045	0	3050	5699	4072	6646	311	0	32711	32836	33039	32217	32660	32799	32647	32715	
5046	0	3039	5723	4096	6635	312	0	32750	32925	33685	32454	32758	32583	32749	32775	
5047	0	3090	5697	4033	6659	313	0	32801	32923	33463	32540	32758	32655	32739	32813	
5048	0	3102	5670	4035	6604	314	0	32876	32759	33245	32874	32635	32621	32767	32749	
5049	0	3101	5718	4059	6578	315	0	32831	32691	32863	33117	32717	32638	32749	32717	
5050	0	3103	5704	4073	6670	316	0	32828	32797	32485	33215	32739	32619	32549	32775	
5051	0	3112	5730	4049	6630	317	0	32902	32763	32439	33549	32731	32647	32661	32794	
5052	0	3148	5696	4076	6671	318	0	32850	32519	32510	33683	32681	32757	32599	32751	
5053	0	3071	5710	4085	6667	319	0	32879	32418	32195	33639	32711	32756	32710	32787	
5054	0	3119	5707	4030	6672	320	0	32775	32451	32159	33597	32791	32802	32660	32687	
5055	0	3128	5692	4082	6645	321	0	32767	32463	32145	33183	32715	32899	32543	32769	
5056	0	3088	5713	4082	6626	322	0	32782	32558	31927	33128	32766	32783	32647	32751	
5057	0	3128	5727	4087	6620	323	0	32743	32577	32090	33102	32743	32775	32551	32789	
5058	0	3074	5692	4044	6648	324	0	32672	32667	32383	33103	32640	32804	32647	32758	
5059	0	3089	5736	4080	6646	325	0	32551	32703	32383	33019	32759	32822	32647	32775	
5060	0	3147	5670	4080	6659	326	0	32411	32761	32503	32511	32734	32871	32734	32819	
5061	0	3059	5706	4063	6657	327	0	32482	32887	32575	32403	32770	32847	32719	32743	
5062	0	3096	5694	4017	6641	328	0	32611	32834	32493	32279	32638	32821	32679	32727	
5063	0	3096	5673	4088	6681	329	0	32719	32902	32653	31855	32722	32863	32647	32759	
5064	0	3112	5725	4013	6668	330	0	32775	32885	32863	32149	32647	32854	32470	32749	
5065	0	3085	5693	4103	6633	331	0	32775	32983	32765	31979	32701	32846	32702	32819	
5066	0	3118	5668	4076	6693	332	0	32710	32865	32571	32179	32623	32775	32533	32823	
5067	0	3090	5724	4023	6637	333	0	32759	32829	32595	32471	32735	32742	32679	32749	
5068	0	3094	5736	4082	6665	334	0	32745	32959	32527	32826	32791	32762	32679	32669	
5069	0	3104	5646	4072	6645	335	0	32725	33053	32615	32901	32723	32694	32645	32708	
5070	0	3141	5733	4054	6670	336	0	32740	32955	32799	33333	32831	32684	32716	32797	
5071	0	3111	5700	4029	6670	337	0	32797	33037	32818	33575	32829	32694	32532	32807	
5072	0	3103	5737	4098	6633	338	0	32780	32902	32903	33437	32707	32721	32646	32855	
5073	0	3120	5747	4062	6688	339	0	32797	32622	33111	33515	32773	32759	32701	32791	
5074	0	3109	5697	4048	6672	340	0	32854	32507	32903	33324	32747	32748	32783	32847	
5075	0	3127	5732	4052	6656	341	0	32764	32451	32897	33061	32767	32725	32681	32751	
5076	0	3136	5702	4090	6665	342	0	32698	32327	32611	32901	32679	32756	32683	32719	
5077	0	3123	5730	4034	6681	343	0	32668	32275	32433	32615	32607	32820	32519	32719	
5078	0	3135	5691	4062	6690	344	0	32668	32391	32391	32557	32647	32891	32668	32742	
5079	0	3130	5724	4075	6674	345	0	32694	32627	32287	32519	32732	32946	32487	32719	
5080	0	3067	5733	4114	6688	346	0	32775	32731	32301	32454	32731	32903	32703	32711	
5081	0	3078	5731	4058	6650	347	0	32762	32807	32455	32677	32831	32900	32663	32775	
5082	0	3105	5748	4060	6706	348	0	32775	32738	32420	32705	32719	32863	32734	32807	
5083	0	3152	5760	4074	6678	349	0	32754	32703	32487	32591	32775	32852	32630	32733	
5084	0	3115	5758	4065	6666	350	0	32741	32751	32707	32719	32823	32799	32795	32687	
5085	0	3098	5724	4069	6692	351	0	32799	32890	32798	32703	32789	32763	32818	32743	
5086	0	3095	5722	4044	6692	352	0	32756	32795	32621	32534	32644	32735	32535	32754	
5087	0	3104	5761	4116	6689	353	0	32766	32739	32738	32727	32683	32732	32637	32775	
5088	0	3099	5761	4074	6660	354	0	32748	32695	32858	32591	32638	32759	32553	32775	
5089	0	3099	5724	4079	6661	355	0	32749	32797	32915	32281	32721	32727	32743	32755	
5090	0	3140	5708	4073	6666	356	0	32735	32822	32867	32135	32660	32738	32546	32685	
5091	0	3032	5735	4000	6701	357	0	32748	32801	32847	32051	32623	32693	32583	32716	
5092	0	3132	5740	4059	6698	358	0	32736	32833	32903	32066	32706	32751	32463	32775	
5093	0	3060	5720	4090	6672	359	0	32757	32716	32903	32305	32799	32755	32671	32851	
5094	0	3126	5689	4082	6687	360	0	32772	32694	32639	32438	32855	32786	32619	32718	
5095	0	3077	5732	4056	6705	361	0	32795	32839	32599	32633	32623	32767	32789	32740	
5096	0	3086	5694	4055	6685	362	0	32791	32775	32703	32765	32783	32751	32641	32843	
5097	0	3112	5725	4059	6687	363	0	32724	32807	32658	32983	32742	32783	32823	32879	
5098	0	3100	5738	4097	6692	364	0	32758	32783	32708	33135	32786	32825	32660	32851	
5099	0	3125	5740	4047	6710	365	0	32780	32726	32783	33117	32670	32807	32764	32871	
5100	0	3090	5748	4051	6730	366	0	32832	32686	32825	33075	32727	32789	32679	32694	
5101	0	3083	5704	4068	6705	367	0	32892	32735	32599	33159	32775	32887	32719	32671	
5102	0	3105	5704	4040	6710	368	0	32847	32757	32742	33037	32775	32871	32737	32647	
5103	0	3116	5712	4003	6732	369	0	32867	32667	33125	32761	32663	32812	32749	32725	
5104	0	3122	5714	4048	6713	370	0	32821	32703	33071	32770	32735	32767	32731	32791	
5105	0	3132	5724	4002	6725	371	0	32826	32811	33045	32791	32756	32803	32639	32717	
5106	0	3131	5686	4026	6770	372	0	32759	32727	32949	32563	32763	32758	32765	32679	
5107	0	3095	5720	4046	6746	373	0	32775	32737	33143	32629	32759	32775	32518	32679	
5108	0	3125	5700	4026	6730	374	0	32780	32663	33318	32629	32743	32775	32702	32771	
5109	0	3111	5705	4054	6724	375	0	32837	32719	33407	32706	32925	32721	32775	32823	
5110	0	3100	5712	4028	6752	376	0	32871	32695	33243	32703	32845	32734	32775	32749	
5111	0	3108	5744	4052	6751	377	0	32843	32679	32843	32555	32757	32751	32775	32763	
5112	0	3094	5754	4027	6707	378	0	32784	32743	32711	32551	32645	32759	32718	32767	
5113	0	3104	5696	4069	6704	379	0	32848	32695	32423	32181	32695	32775	32717	32723	
5114	0	3115	5701	4003	6700	380	0	32797	32667	32254	31760	32717	32758	32714	32799	
5115	0	3097	5732	4001	6744	381	0	32859	32783	32407	31578	32683	32775	32743	32750	
5116	0	3106	5704	4012	6736	382	0	32893	32647	32559	31781	32611	32807	32722	32679	
5117	0	3077	5694	4006	6683	383	0	32911	32709	32587	31975	32615	32836	32679	32711	
5118	0	3134	5728	3975	6692	384	0	32901	32715	32391	32277	32711	32823	32687	32735	
5119	0	3108	5678	4028	6768	385	0	32784	32838	32469	32639	32679	32831	32521	32679	
5120	0	3106	5741	4004	6721	386	0	32784	32769	32275	32897	32631	32861	32726	32819	
5121	0	3078	5686	4013	6746	387	0	32775	32797	32239	33215	32717	32775	32751	32786	
5122	0	3097	5730	4008	6747	388	0	32562	32883	32123	33324	32711	32749	32807	32754	
5123	0	3104	5709	4006	6743	389	0	32329	32919	31863	33701	32727	32731	32762	32711	
5124	0	3081	5690	3996	6740	390	0	32273	33025	31695	33927	32703	32739	32783	32775	
5125	0	3074	5668	3988	6732	391	0	32420	32852	31680	33927	32755	32786	32797	32839	
5126	0	3112	5701	3995	6727	392	0	32521	32846	31643	33831	32747	32791	32715	32815	
5127	0	3116	5698	4028	6789	393	0	32569	32703	31455	33356	32745	32773	32749	32831	
5128	0	3088	5723	3997	6760	394	0	32647	32539	31615	33391	32687	32791	32615	32861	
5129	0	3055	5704	4015	6736	395	0	32667	32370	31674	33373	32754	32883	32671	32844	
5130	0	3068	5670	3995	6755	396	0	32841	32299	31988	33231	32703	32843	32514	32850	
5131	0	3065	5700	4029	6774	397	0	32717	32293	32054	33092	32749	32810	32685	32821	
5132	0	3099	5700	4027	6729	398	0	32653	32471	32367	33005	32658	32719	32519	32815	
5133	0	3084	5688	4038	6745	399	0	32601	32663	32759	33053	32733	32575	32671	32821	
5134	0	3094	5694	4038	6786	400	0	32698	32641	33159	32942	32801	32611	32587	32775	
5135	0	3086	5661	4063	6790	401	0	32703	32631	33153	32845	32775	32719	32703	32751	
5136	0	3084	5669	3965	6744	402	0	32660	32729	33277	32503	32693	32642	32588	32799	
5137	0	3101	5665	3992	6772	403	0	32668	32707	33399	32612	32823	32695	32655	32791	
5138	0	3076	5692	3980	6771	404	0	32850	32775	33389	32570	32797	32675	32810	32759	
5139	0	3090	5688	3994	6736	405	0	32822	32796	33132	32439	32732	32615	32613	32751	
5140	0	3106	5655	4035	6738	406	0	32937	32878	33330	32391	32767	32659	32727	32737	
5141	0	3078	5692	3982	6774	407	0	32916	32946	33228	32481	32727	32623	32658	32695	
5142	0	3100	5648	4020	6813	408	0	32864	32963	33063	32615	32799	32564	32754	32677	
5143	0	3057	5678	4048	6766	409	0	32859	32887	32962	32615	32683	32607	32772	32709	
5144	0	3129	5674	4010	6806	410	0	32903	32735	32786	32621	32804	32609	32679	32799	
5145	0	3087	5675	4029	6793	411	0	32853	32771	32677	32506	32799	32615	32729	32775	
5146	0	3035	5664	4021	6786	412	0	32871	32839	32727	32413	32839	32771	32535	32695	
5147	0	3063	5680	3972	6756	413	0	32836	32786	32713	32541	32711	32757	32605	32724	
5148	0	3093	5685	4014	6800	414	0	32863	32855	32621	32501	32630	32775	32495	32767	
5149	0	3133	5637	3989	6804	415	0	32803	32804	32635	32533	32679	32775	32735	32850	
5150	0	3073	5670	3996	6789	416	0	32828	32769	32710	32563	32641	32790	32695	32815	
5151	0	3056	5696	3948	6827	417	0	32765	32614	32671	32595	32659	32667	32627	32746	
5152	0	3094	5668	3956	6799	418	0	32817	32564	32767	32634	32715	32702	32694	32719	
5153	0	3064	5629	4046	6807	419	0	32732	32596	32741	32523	32795	32692	32491	32743	
5154	0	3086	5633	4060	6787	420	0	32759	32578	32703	32599	32607	32692	32667	32662	
5155	0	3060	5675	4004	6808	421	0	32789	32751	32631	32743	32615	32691	32551	32676	
5156	0	3074	5726	3996	6751	422	0	32852	32642	32647	32644	32759	32591	32711	32738	
5157	0	3070	5640	4002	6819	423	0	32807	32717	32746	32579	32711	32604	32639	32797	
5158	0	3068	5699	4002	6796	424	0	32865	32708	32823	32519	32749	32601	32775	32702	
5159	0	3039	5684	4031	6820	425	0	32863	32773	32934	32671	32799	32784	32638	32814	
5160	0	3058	5649	3993	6814	426	0	32839	32702	32871	32706	32733	32769	32782	32851	
5161	0	3090	5683	4025	6828	427	0	32746	32686	32829	32743	32711	32727	32671	32847	
5162	0	3059	5612	4002	6812	428	0	32807	32658	32709	32700	32795	32815	32694	32743	
5163	0	3082	5604	3991	6864	429	0	32813	32791	32731	32741	32775	32804	32645	32719	
5164	0	3088	5628	4026	6814	430	0	32801	32858	32719	32826	32775	32775	32666	32700	
5165	0	3057	5600	4000	6794	431	0	32775	32839	32613	32797	32751	32766	32567	32711	
5166	0	3057	5635	3974	6838	432	0	32714	32862	32586	32683	32731	32755	32660	32687	
5167	0	3039	5614	3998	6845	433	0	32695	32745	32711	32705	32799	32855	32537	32715	
5168	0	3061	5596	3979	6816	434	0	32693	32695	32690	32698	32767	32879	32647	32731	
5169	0	3015	5631	3998	6855	435	0	32723	32715	32751	32845	32791	32817	32697	32751	
5170	0	3007	5636	3988	6831	436	0	32739	32772	32575	32898	32722	32773	32711	32755	
5171	0	3023	5621	4010	6848	437	0	32741	32821	32500	32775	32727	32745	32695	32807	
5172	0	3035	5613	4000	6816	438	0	32739	32723	32515	32821	32725	32782	32603	32775	
5173	0	3056	5622	3964	6834	439	0	32730	32695	32694	32691	32695	32839	32669	32738	
5174	0	3055	5620	4025	6848	440	0	32751	32636	32726	32663	32579	32839	32527	32751	
5175	0	3065	5605	3993	6861	441	0	32814	32757	32703	32629	32739	32843	32675	32747	
5176	0	3066	5597	4010	6862	442	0	32807	32749	32805	32676	32719	32951	32589	32797	
5177	0	3022	5617	3980	6871	443	0	32811	32775	32645	32719	32643	32876	32751	32805	
5178	0	3068	5604	3990	6882	444	0	32797	32615	32738	32735	32791	32839	32834	32787	
5179	0	3061	5630	3980	6836	445	0	32665	32745	32707	32543	32821	32739	32583	32810	
5180	0	3053	5594	3961	6879	446	0	32644	32788	32727	32447	32751	32791	32701	32825	
5181	0	3080	5596	4022	6846	447	0	32672	32821	32771	32601	32743	32821	32551	32671	
5182	0	3053	5598	3991	6874	448	0	32766	32735	32876	32646	32727	32894	32774	32703	
5183	0	3021	5629	3995	6820	449	0	32783	32658	32667	32573	32767	32844	32605	32719	
5184	0	3114	5602	3984	6858	450	0	32771	32739	32716	32515	32702	32877	32750	32758	
5185	0	3060	5569	4008	6884	451	0	32809	32758	32639	32631	32823	32870	32679	32775	
5186	0	3092	5634	4011	6880	452	0	32791	32751	32583	32681	32762	32914	32751	32751	
5187	0	3033	5497	4030	6902	453	0	32751	32660	32548	32747	32797	32891	32749	32783	
5188	0	3027	5564	3952	6895	454	0	32743	32693	32255	32799	32655	32813	32604	32775	
5189	0	3062	5604	3994	6896	455	0	32729	32735	32263	32937	32785	32833	32735	32831	
5190	0	3030	5564	4022	6910	456	0	32780	32662	32378	33071	32767	32807	32549	32818	
5191	0	3033	5588	4032	6917	457	0	32741	32725	32292	33197	32679	32789	32615	32847	
5192	0	3053	5554	3996	6904	458	0	32762	32623	32493	33148	32719	32771	32587	32869	
5193	0	3045	5588	3974	6890	459	0	32733	32677	32669	33223	32775	32799	32723	32839	
5194	0	3059	5536	4051	6905	460	0	32748	32687	32487	32839	32623	32829	32707	32839	
5195	0	3076	5582	4025	6936	461	0	32694	32742	32703	32487	32771	32769	32564	32819	
5196	0	3043	5569	4045	6918	462	0	32745	32714	32755	32135	32709	32759	32677	32787	
5197	0	3026	5593	3978	6872	463	0	32670	32707	32787	32111	32797	32749	32647	32839	
5198	0	3034	5552	4002	6932	464	0	32720	32759	32839	32214	32769	32775	32767	32775	
5199	0	3016	5540	3968	6912	465	0	32774	32630	32951	32335	32775	32846	32707	32667	
5200	0	3060	5552	4006	6930	466	0	32697	32694	32967	32438	32695	32751	32630	32639	
5201	0	3048	5540	4022	6882	467	0	32797	32623	32807	32633	32703	32724	32791	32695	
5202	0	3012	5541	4046	6922	468	0	32742	32703	32752	32903	32711	32751	32775	32727	
5203	0	3040	5546	4006	6948	469	0	32743	32789	32594	33015	32751	32711	32775	32745	
5204	0	3050	5552	3953	6904	470	0	32775	32703	32351	33330	32647	32701	32691	32758	
5205	0	3022	5520	4010	6931	471	0	32772	32719	32119	33486	32673	32735	32705	32775	
5206	0	3057	5509	4020	6969	472	0	32724	32773	32223	33543	32701	32788	32698	32790	
5207	0	3038	5530	4008	6955	473	0	32741	32791	32235	33639	32663	32855	32613	32839	
5208	0	3042	5519	3963	6925	474	0	32767	32815	32359	33703	32685	32846	32743	32845	
5209	0	3056	5511	4014	6933	475	0	32782	32695	32598	33695	32742	32790	32573	32775	
5210	0	3041	5521	3953	6958	476	0	32775	32583	32551	33415	32759	32815	32751	32704	
5211	0	3032	5540	4024	6938	477	0	32775	32644	32579	33297	32678	32849	32619	32679	
5212	0	3007	5549	4003	6945	478	0	32721	32646	32647	33215	32647	32807	32693	32717	
5213	0	3012	5524	3999	6949	479	0	32747	32676	32866	33014	32695	32903	32597	32695	
5214	0	3027	5526	4015	6943	480	0	32767	32839	32755	32895	32769	32947	32749	32743	
5215	0	3074	5526	3985	6934	481	0	32838	32692	32831	32887	32882	32833	32691	32727	
5216	0	3052	5488	3989	6995	482	0	32809	32615	32845	32634	32723	32876	32669	32775	
5217	0	3026	5477	4012	6938	483	0	32727	32694	32555	32519	32795	32902	32685	32690	
5218	0	3048	5469	4018	6974	484	0	32679	32667	32604	32567	32801	32903	32801	32730	
5219	0	3045	5484	3994	6962	485	0	32692	32655	32698	32571	32725	32879	32783	32775	
5220	0	3034	5449	4037	6959	486	0	32692	32791	32665	32483	32643	32885	32706	32827	
5221	0	3049	5451	4018	7004	487	0	32732	32693	32786	32524	32740	32859	32695	32807	
5222	0	3051	5473	3997	6980	488	0	32745	32747	32677	32455	32759	32845	32609	32757	
5223	0	3046	5444	3992	7003	489	0	32818	32815	32583	32375	32787	32781	32791	32758	
5224	0	3051	5441	4021	6976	490	0	32846	32839	32705	32375	32691	32826	32700	32823	
5225	0	3007	5480	3989	6972	491	0	32851	32847	32647	32391	32671	32597	32747	32815	
5226	0	3046	5455	3973	7000	492	0	32832	32963	32635	32160	32731	32699	32660	32791	
5227	0	3040	5421	3990	7020	493	0	32859	32887	32711	31879	32703	32802	32718	32807	
5228	0	3016	5460	3992	6992	494	0	32799	32919	32727	31887	32655	32823	32591	32742	
5229	0	3011	5482	4013	7024	495	0	32765	32931	32693	31943	32707	32877	32719	32743	
5230	0	3040	5476	3976	7010	496	0	32756	32887	32919	32093	32647	32839	32587	32719	
5231	0	2980	5482	4039	7001	497	0	32766	32867	32865	32231	32669	32839	32717	32771	
5232	0	3035	5463	4023	7007	498	0	32804	32775	32607	32363	32693	32831	32679	32711	
5233	0	3045	5435	3986	7013	499	0	32790	32868	32671	32467	32826	32815	32710	32758	
5234	0	3060	5455	3983	7022	500	0	32805	32835	32840	32639	32818	32699	32587	32775	
5235	0	3004	5394	4004	7002	501	0	32721	32694	32903	32627	32739	32663	32719	32826	
5236	0	3034	5480	3973	7000	502	0	32734	32667	33063	32667	32804	32607	32647	32792	
5237	0	3027	5432	3949	7030	503	0	32749	32615	33015	32934	32695	32607	32685	32827	
5238	0	3048	5442	4005	7099	504	0	32847	32503	33127	32927	32660	32595	32593	32807	
5239	0	3020	5406	3957	7008	505	0	32802	32495	33095	32939	32803	32700	32609	32727	
5240	0	3002	5420	4030	7000	506	0	32832	32391	32933	32943	32742	32735	32542	32767	
5241	0	3038	5441	3968	7000	507	0	32815	32519	32693	32919	32867	32741	32706	32799	
5242	0	3043	5428	3990	7031	508	0	32751	32622	32359	33107	32673	32707	32573	32807	
5243	0	3011	5416	4043	7039	509	0	32717	32695	32182	33031	32807	32727	32692	32751	
5244	0	3028	5410	3998	7044	510	0	32642	32847	32029	32605	32682	32699	32609	32739	
5245	0	2968	5417	3988	7067	511	0	32643	32931	32018	32609	32739	32757	32711	32724	
5246	0	3011	5405	3962	7026	512	0	32739	32822	31990	32765	32699	32799	32583	32783	
5247	0	3028	5405	4019	7068	513	0	32605	32788	32239	32617	32738	32787	32708	32743	
5248	0	3031	5367	3963	7027	514	0	32669	32699	32323	32837	32731	32803	32683	32815	
5249	0	3034	5363	4010	7093	515	0	32612	32679	32397	33142	32759	32775	32693	32844	
5250	0	3016	5406	3982	7042	516	0	32640	32693	32581	33041	32647	32751	32694	32807	
5251	0	3051	5372	3982	7068	517	0	32583	32694	32291	33415	32733	32861	32716	32733	
5252	0	3031	5398	4012	7096	518	0	32668	32745	32615	33517	32709	32860	32756	32749	
5253	0	3043	5366	3956	7088	519	0	32718	32709	32767	33423	32751	32884	32751	32835	
5254	0	2996	5389	3928	7063	520	0	32750	32684	32647	33503	32762	32787	32581	32772	
5255	0	2984	5324	4002	7076	521	0	32749	32691	32565	33308	32669	32717	32711	32724	
5256	0	3008	5354	3920	7018	522	0	32763	32690	32511	33201	32802	32699	32595	32691	
5257	0	2980	5354	3931	7072	523	0	32829	32556	32575	32939	32815	32751	32733	32717	
5258	0	3054	5352	3974	7118	524	0	32810	32543	32604	32868	32801	32759	32759	32775	
5259	0	2996	5300	3994	7078	525	0	32808	32669	32487	32557	32663	32763	32805	32807	
5260	0	3032	5340	3963	7090	526	0	32815	32639	32426	32439	32743	32703	32729	32813	
5261	0	3019	5322	4002	7120	527	0	32795	32709	32531	32409	32677	32668	32746	32693	
5262	0	3042	5368	3994	7108	528	0	32791	32775	32759	32385	32835	32647	32695	32739	
5263	0	3017	5370	4011	7071	529	0	32700	32919	32703	32317	32623	32549	32702	32720	
5264	0	3020	5352	4006	7123	530	0	32667	32788	32796	32158	32567	32578	32717	32757	
5265	0	3073	5340	3976	7105	531	0	32717	32731	32823	32025	32726	32563	32725	32799	
5266	0	3011	5352	3993	7139	532	0	32809	32765	32751	32031	32647	32591	32597	32783	
5267	0	3021	5339	4010	7105	533	0	32751	32807	32526	32197	32711	32647	32655	32827	
5268	0	3026	5298	3984	7075	534	0	32718	32871	32714	32468	32665	32548	32692	32743	
5269	0	3049	5322	4001	7137	535	0	32775	32841	32737	32736	32765	32595	32698	32767	
5270	0	2983	5284	3976	7112	536	0	32810	32794	32607	32839	32765	32631	32647	32815	
5271	0	3064	5319	3972	7128	537	0	32781	32695	32603	33223	32801	32637	32613	32786	
5272	0	3022	5300	4014	7173	538	0	32775	32766	32445	33266	32631	32598	32663	32751	
5273	0	3031	5333	3998	7148	539	0	32790	32763	32523	33173	32647	32541	32657	32735	
5274	0	2973	5308	3989	7173	540	0	32775	32679	32734	33255	32799	32586	32703	32772	
5275	0	3036	5277	3939	7126	541	0	32794	32802	32877	33199	32735	32755	32727	32831	
5276	0	3028	5289	3971	7202	542	0	32767	32679	32852	32980	32623	32623	32863	32763	
5277	0	3024	5268	3981	7133	543	0	32735	32629	32887	33023	32749	32657	32662	32707	
5278	0	3004	5259	3975	7144	544	0	32775	32686	32631	32859	32771	32647	32660	32671	
5279	0	3004	5325	4003	7160	545	0	32781	32669	32806	32663	32749	32660	32709	32703	
5280	0	3026	5320	4034	7176	546	0	32740	32735	32807	32533	32671	32599	32801	32743	
5281	0	3039	5295	4005	7194	547	0	32804	32621	32729	32476	32719	32580	32684	32789	
5282	0	3010	5304	3945	7180	548	0	32856	32711	32798	32503	32655	32598	32743	32797	
5283	0	3012	5284	3977	7176	549	0	32828	32884	32967	32481	32775	32633	32822	32735	
5284	0	3012	5245	3975	7171	550	0	32807	32858	32681	32598	32827	32682	32742	32715	
5285	0	3028	5282	3972	7182	551	0	32796	32757	32705	32463	32791	32813	32692	32715	
5286	0	3006	5231	3999	7202	552	0	32828	32786	32730	32441	32711	32806	32495	32786	
5287	0	3068	5246	4018	7245	553	0	32802	32853	32783	32543	32789	32845	32622	32836	
5288	0	3038	5204	3980	7222	554	0	32812	32855	32655	32709	32735	32903	32627	32898	
5289	0	3033	5229	3981	7227	555	0	32681	32647	32690	32682	32685	32847	32551	32823	
5290	0	3019	5207	3983	7216	556	0	32679	32717	32601	32739	32727	32843	32542	32810	
5291	0	3037	5208	4032	7230	557	0	32679	32774	32637	32757	32675	32786	32485	32895	
5292	0	3040	5242	4026	7240	558	0	32685	32859	32615	32677	32566	32771	32615	32831	
5293	0	3049	5235	3982	7234	559	0	32705	32727	32647	32745	32647	32747	32617	32833	
5294	0	3036	5216	4007	7221	560	0	32679	32695	32822	32710	32679	32834	32669	32878	
5295	0	3022	5206	4000	7240	561	0	32707	32756	32728	32743	32757	32827	32594	32785	
5296	0	2999	5236	3988	7224	562	0	32743	32775	32775	32449	32629	32807	32455	32729	
5297	0	3021	5183	4013	7230	563	0	32797	32655	32627	32420	32690	32797	32684	32703	
5298	0	3013	5232	4037	7248	564	0	32810	32775	32463	32263	32673	32807	32621	32670	
5299	0	3035	5159	4004	7248	565	0	32813	32845	32429	32403	32679	32807	32694	32655	
5300	0	3011	5224	4018	7282	566	0	32850	32855	32455	32355	32793	32663	32703	32645	
5301	0	2976	5134	4018	7285	567	0	32945	32871	32372	32458	32731	32691	32583	32609	
5302	0	3021	5189	4046	7290	568	0	32902	33031	32593	32695	32757	32725	32763	32647	
5303	0	2980	5188	4003	7300	569	0	32910	33010	32523	32790	32791	32711	32748	32709	
5304	0	3010	5206	4055	7277	570	0	32919	32918	32581	33079	32755	32748	32623	32711	
5305	0	3049	5195	4061	7291	571	0	32879	32978	32308	32915	32839	32903	32703	32745	
5306	0	2977	5136	4067	7301	572	0	32891	32903	32423	33143	32823	32940	32605	32732	
5307	0	3012	5206	4014	7304	573	0	32800	32861	32335	33279	32733	32961	32767	32727	
5308	0	2999	5214	4041	7333	574	0	32753	32707	32439	33287	32764	32951	32791	32643	
5309	0	2980	5143	4088	7301	575	0	32789	32757	32309	33189	32759	32903	32690	32703	
5310	0	2992	5142	4026	7308	576	0	32822	32627	32555	33055	32609	32805	32758	32679	
5311	0	2970	5155	4072	7334	577	0	32816	32547	32406	32823	32758	32847	32668	32677	
5312	0	2988	5160	4097	7322	578	0	32811	32589	32475	32594	32775	32775	32694	32644	
5313	0	3012	5188	4102	7293	579	0	32753	32687	32347	32691	32747	32699	32687	32723	
5314	0	3038	5152	4068	7330	580	0	32703	32643	32631	32676	32786	32797	32727	32769	
5315	0	2954	5171	4114	7305	581	0	32716	32695	32740	32551	32771	32764	32847	32726	
5316	0	3019	5174	4098	7341	582	0	32652	32509	32845	32682	32796	32758	32815	32794	
5317	0	3002	5153	4060	7343	583	0	32745	32611	33035	32658	32683	32671	32901	32751	
5318	0	3018	5149	4092	7340	584	0	32772	32551	32917	32687	32763	32647	32817	32698	
5319	0	2980	5125	4046	7380	585	0	32835	32491	33086	32847	32815	32659	33127	32647	
5320	0	3012	5132	4089	7352	586	0	32866	32618	33206	32973	32820	32660	32993	32567	
5321	0	3010	5188	4078	7384	587	0	32955	32530	33391	32885	32812	32661	33271	32499	
5322	0	3002	5128	4109	7396	588	0	32852	32573	33223	33013	32895	32662	33281	32559	
5323	0	2986	5147	4022	7378	589	0	32824	32443	33254	33012	32895	32690	33201	32503	
5324	0	2984	5163	4098	7394	590	0	32897	32474	32924	33175	32791	32701	33207	32590	
5325	0	3017	5167	4088	7416	591	0	32849	32423	33014	33217	32927	32724	32879	32676	
5326	0	3006	5115	4129	7410	592	0	32839	32581	32882	33243	32925	32749	33059	32626	
5327	0	3001	5165	4114	7372	593	0	32673	32505	32903	33177	32743	32519	32851	32691	
5328	0	3012	5107	4057	7396	594	0	32669	32442	32683	33019	32767	32479	32615	32853	
5329	0	3012	5144	4116	7420	595	0	32701	32599	32655	33023	32786	32575	32759	32903	
5330	0	3035	5147	4092	7402	596	0	32693	32647	32527	32885	32615	32775	32567	33010	
5331	0	3023	5137	4121	7395	597	0	32679	32559	32473	32853	32620	32764	32231	33071	
5332	0	3036	5091	4111	7426	598	0	32655	32742	32277	32591	32578	32698	32309	33028	
5333	0	2998	5091	4170	7416	599	0	32636	32710	32455	32711	32647	32694	32303	33138	
5334	0	2994	5120	4125	7424	600	0	32583	32766	32257	32580	32571	32687	32318	33127	
5335	0	3025	5075	4173	7428	601	0	32558	32637	32311	32447	32526	32723	32249	33058	
5336	0	2982	5101	4130	7438	602	0	32546	32715	32415	32546	32574	32739	32348	33003	
5337	0	3017	5110	4168	7461	603	0	32549	32684	32519	32596	32507	32735	32327	32951	
5338	0	3047	5061	4096	7460	604	0	32605	32814	32362	32363	32587	32731	32359	32987	
5339	0	2979	5120	4149	7400	605	0	32572	32850	32429	32483	32551	32775	32429	32935	
5340	0	3040	5061	4165	7489	606	0	32535	32771	32493	32519	32559	32775	32425	32978	
5341	0	3008	5059	4167	7442	607	0	32575	32842	32457	32403	32596	32787	32501	32943	
5342	0	3006	5067	4136	7447	608	0	32568	32828	32613	32562	32598	32743	32383	32903	
5343	0	3004	5085	4190	7430	609	0	32609	32877	32457	32507	32629	32807	32639	32900	
5344	0	3004	5046	4142	7451	610	0	32627	32725	32453	32557	32795	32807	32637	32887	
5345	0	3003	5060	4105	7487	611	0	32655	32775	32540	32619	32679	32864	32623	32771	
5346	0	2976	5096	4132	7470	612	0	32728	32827	32655	32554	32770	32767	32587	32786	
5347	0	2984	5089	4112	7432	613	0	32686	32843	32669	32587	32759	32559	32757	32787	
5348	0	3033	5036	4164	7483	614	0	32783	32858	32751	32615	32807	32587	32759	32831	
5349	0	2992	5002	4159	7488	615	0	32785	32834	32599	32691	32839	32639	32789	32854	
5350	0	3038	5056	4142	7492	616	0	32847	32850	32707	32699	32766	32677	32655	32761	
5351	0	2999	5029	4152	7456	617	0	32846	32775	32581	32645	32765	32705	32499	32804	
5352	0	3000	5037	4112	7491	618	0	32832	32847	32658	32727	32771	32807	32683	32807	
5353	0	2998	5058	4139	7494	619	0	32874	32758	32495	32763	32739	32831	32675	32711	
5354	0	2986	5023	4133	7520	620	0	32805	32771	32631	32811	32818	32855	32598	32655	
5355	0	2969	5027	4116	7552	621	0	32848	32797	32743	32839	32733	32851	32707	32612	
5356	0	3032	5027	4112	7494	622	0	32823	32791	32743	32807	32622	32829	32615	32657	
5357	0	2984	5037	4114	7506	623	0	32806	32567	32579	32807	32691	32807	32727	32687	
5358	0	2987	4994	4116	7548	624	0	32767	32749	32623	32709	32726	32793	32735	32695	
5359	0	2992	4993	4198	7484	625	0	32728	32691	32767	32847	32847	32846	32669	32663	
5360	0	2972	5040	4161	7490	626	0	32845	32741	32711	32835	32715	32858	32711	32692	
5361	0	2957	5028	4172	7540	627	0	32788	32603	32695	32626	32810	32807	32567	32717	
5362	0	2958	4994	4157	7514	628	0	32762	32687	32814	32803	32786	32751	32687	32727	
5363	0	2957	5009	4164	7529	629	0	32823	32843	32575	32775	32671	32713	32557	32726	
5364	0	2942	4978	4207	7485	630	0	32830	32847	32683	32687	32722	32757	32705	32626	
5365	0	2997	4992	4136	7537	631	0	32735	32717	32765	32817	32743	32818	32767	32628	
5366	0	2964	4964	4183	7528	632	0	32770	32675	32577	32827	32815	32743	32789	32743	
5367	0	2989	4976	4160	7513	633	0	32732	32747	32631	32842	32725	32821	32773	32708	
5368	0	2958	4947	4132	7528	634	0	32692	32714	32459	32803	32863	32668	32701	32687	
5369	0	2945	4984	4152	7529	635	0	32785	32662	32741	32706	32751	32611	32797	32759	
5370	0	2967	4975	4142	7556	636	0	32762	32722	32660	32693	32709	32591	32674	32820	
5371	0	2924	4926	4151	7581	637	0	32870	32795	32613	32704	32690	32687	32735	32751	
5372	0	2924	4934	4177	7587	638	0	32861	32788	32694	32743	32757	32711	32607	32735	
5373	0	2893	4948	4148	7536	639	0	32754	32830	32391	32703	32735	32901	32767	32707	
5374	0	2967	4927	4162	7548	640	0	32735	32631	32583	32594	32647	32950	32757	32736	
5375	0	3024	4927	4165	7569	641	0	32708	32787	32566	32813	32785	32863	32623	32771	
5376	0	2962	4956	4196	7609	642	0	32726	32831	32691	32825	32743	32749	32631	32758	
5377	0	2932	4918	4165	7625	643	0	32716	32895	32597	32727	32671	32773	32679	32783	
5378	0	2944	4906	4140	7580	644	0	32749	32691	32438	32723	32773	32801	32815	32767	
5379	0	2905	4885	4168	7584	645	0	32775	32743	32549	32711	32767	32804	32823	32694	
5380	0	2951	4950	4166	7602	646	0	32807	32817	32735	32647	32783	32799	32845	32627	
5381	0	2940	4943	4164	7580	647	0	32743	32759	32679	32847	32749	32773	32795	32627	
5382	0	2917	4918	4185	7562	648	0	32795	32831	32659	32838	32749	32797	32735	32710	
5383	0	2928	4910	4182	7568	649	0	32738	32869	32775	32799	32785	32793	32659	32729	
5384	0	2955	4896	4165	7597	650	0	32732	32743	32873	32807	32687	32799	32510	32807	
5385	0	2949	4913	4157	7602	651	0	32809	32877	32681	32786	32525	32774	32621	32807	
5386	0	2985	4898	4239	7587	652	0	32799	32843	32751	32701	32686	32758	32655	32795	
5387	0	2942	4897	4184	7619	653	0	32790	32739	32735	32756	32711	32801	32763	32751	
5388	0	2950	4905	4189	7602	654	0	32764	32751	32638	32695	32775	32775	32565	32749	
5389	0	2929	4902	4187	7595	655	0	32799	32631	32647	32563	32681	32775	32713	32858	
5390	0	2900	4875	4285	7578	656	0	32844	32646	32663	32800	32827	32775	32587	32724	
5391	0	2936	4853	4202	7641	657	0	32836	32802	32711	32818	33007	32703	32743	32751	
5392	0	2924	4826	4244	7612	658	0	32769	32647	32518	32679	32754	32690	32702	32815	
5393	0	2919	4878	4151	7674	659	0	32839	32679	32686	32775	32611	32767	32715	32810	
5394	0	2910	4834	4177	7616	660	0	32862	32666	32765	32742	32591	32757	32775	32745	
5395	0	2870	4840	4219	7651	661	0	32786	32558	32694	32823	32611	32583	32738	32747	
5396	0	2968	4884	4195	7581	662	0	32749	32589	32667	32683	32513	32547	32775	32813	
5397	0	2915	4819	4181	7593	663	0	32743	32551	32349	32775	32479	32602	32551	32806	
5398	0	2918	4882	4163	7636	664	0	32671	32623	32427	32839	32595	32591	32703	32767	
5399	0	2892	4866	4255	7678	665	0	32672	32565	32483	32635	32623	32587	32607	32775	
5400	0	2926	4883	4220	7672	666	0	32783	32583	32567	32807	32611	32553	32721	32751	
5401	0	2923	4850	4212	7641	667	0	32834	32763	32663	32743	32735	32635	32603	32748	
5402	0	2872	4815	4199	7632	668	0	32791	32803	32551	32734	33039	32743	32726	32763	
5403	0	2888	4840	4240	7669	669	0	32735	32699	32679	32615	33135	32897	32671	32723	
5404	0	2904	4846	4211	7673	670	0	32815	32743	32567	32783	32831	32932	32565	32717	
5405	0	2909	4822	4212	7642	671	0	32796	32871	32747	32693	32547	32829	32525	32757	
5406	0	2910	4818	4198	7708	672	0	32787	32647	32628	32751	32535	32658	32347	32775	
5407	0	2873	4769	4202	7700	673	0	32668	32735	32763	32815	32614	32687	32551	32765	
5408	0	2870	4770	4273	7670	674	0	32655	32708	32735	32765	32788	32540	32943	32683	
5409	0	2887	4797	4261	7709	675	0	32700	32700	32644	32764	32743	32615	32948	32668	
5410	0	2866	4807	4279	7654	676	0	32686	32764	32751	32723	32827	32831	32679	32639	
5411	0	2903	4793	4245	7716	677	0	32725	32759	32685	32765	32765	32854	32799	32809	
5412	0	2868	4810	4261	7668	678	0	32743	32541	32495	32727	32887	32831	32694	32879	
5413	0	2841	4793	4235	7716	679	0	32773	32743	32630	32727	32735	32823	32694	32884	
5414	0	2891	4758	4257	7728	680	0	32801	32815	32679	32756	32807	32599	32574	32834	
5415	0	2897	4763	4244	7670	681	0	32775	32703	32519	32694	32724	32603	32671	32834	
5416	0	2858	4726	4250	7672	682	0	32827	32826	32615	32679	32573	32647	32683	32791	
5417	0	2853	4780	4217	7689	683	0	32797	32799	32601	32815	32687	32796	32775	32791	
5418	0	2866	4743	4230	7740	684	0	32804	32883	32655	32735	33046	32815	32753	32765	
5419	0	2894	4739	4232	7726	685	0	32770	32749	32647	32749	33175	32785	32694	32767	
5420	0	2875	4749	4199	7717	686	0	32732	32687	32507	32743	32757	32862	32694	32730	
5421	0	2863	4748	4255	7697	687	0	32703	32709	32571	32933	32687	32867	32571	32749	
5422	0	2844	4727	4282	7754	688	0	32678	32643	32543	32863	32673	32813	32679	32743	
5423	0	2856	4719	4254	7729	689	0	32756	32669	32773	32859	32613	32850	32551	32855	
5424	0	2847	4702	4256	7742	690	0	32783	32690	32823	32735	32708	32844	32722	32775	
5425	0	2869	4733	4291	7778	691	0	32727	32710	32765	32769	32835	32771	32581	32679	
5426	0	2861	4721	4302	7704	692	0	32706	32807	32607	32830	32788	32738	32730	32707	
5427	0	2816	4722	4256	7744	693	0	32694	32743	32535	32634	32706	32739	32635	32687	
5428	0	2868	4705	4297	7736	694	0	32740	32803	32557	32757	32627	32809	32669	32743	
5429	0	2854	4695	4303	7749	695	0	32751	32738	32719	32822	32739	32817	32716	32823	
5430	0	2818	4711	4249	7740	696	0	32871	32785	32743	32797	32708	32803	32665	32825	
5431	0	2863	4712	4248	7802	697	0	32804	32832	32775	32577	32790	32735	32818	32701	
5432	0	2845	4739	4283	7766	698	0	32657	32818	32732	32703	32710	32723	32836	32695	
5433	0	2844	4709	4303	7730	699	0	32683	32821	32692	32703	32692	32751	32722	32695	
5434	0	2804	4668	4274	7780	700	0	32770	32813	32703	32631	32716	32631	32743	32708	
5435	0	2834	4657	4308	7772	701	0	32737	32671	32583	32709	32707	32703	32805	32740	
5436	0	2821	4689	4275	7792	702	0	32765	32723	32549	32799	32646	32789	32751	32767	
5437	0	2868	4704	4351	7787	703	0	32804	32679	32487	32772	32679	32935	32697	32775	
5438	0	2827	4670	4268	7762	704	0	32790	32551	32519	32770	32615	32830	32711	32804	
5439	0	2784	4638	4279	7785	705	0	32751	32647	32423	32633	32692	32711	32563	32775	
5440	0	2821	4621	4324	7803	706	0	32756	32685	32639	32775	32670	32743	32645	32743	
5441	0	2820	4664	4336	7757	707	0	32762	32614	32513	32685	32627	32615	32607	32757	
5442	0	2851	4675	4300	7760	708	0	32701	32751	32631	32823	32805	32662	32694	32763	
5443	0	2802	4649	4288	7763	709	0	32829	32759	32391	32814	32773	32759	32663	32802	
5444	0	2799	4649	4333	7836	710	0	32841	32687	32439	32743	32721	32742	32489	32713	
5445	0	2782	4643	4301	7805	711	0	32902	32662	32679	32607	32751	32797	32683	32721	
5446	0	2801	4649	4324	7773	712	0	32876	32765	32663	32669	32719	32828	32637	32754	
5447	0	2836	4626	4325	7828	713	0	32786	32701	32723	32735	32605	32795	32692	32821	
5448	0	2757	4602	4336	7795	714	0	32770	32679	32839	32803	32675	32843	32725	32847	
5449	0	2832	4644	4357	7788	715	0	32740	32804	32679	32747	32733	32727	32751	32835	
5450	0	2788	4633	4332	7829	716	0	32772	32723	32646	32773	32711	32775	32719	32805	
5451	0	2835	4631	4311	7798	717	0	32742	32708	32775	32606	32663	32802	32623	32783	
5452	0	2829	4597	4313	7802	718	0	32761	32819	32727	32790	32747	32839	32666	32807	
5453	0	2786	4593	4347	7810	719	0	32767	32829	32708	32775	32764	32811	32503	32757	
5454	0	2856	4577	4323	7815	720	0	32822	32799	32583	32716	32698	32801	32690	32742	
5455	0	2757	4647	4346	7837	721	0	32876	32711	32466	32834	32669	32829	32591	32700	
5456	0	2776	4572	4318	7841	722	0	32790	32787	32643	32876	32676	32806	32698	32806	
5457	0	2725	4591	4382	7848	723	0	32794	32775	32718	32695	32639	32707	32641	32740	
5458	0	2777	4577	4368	7839	724	0	32738	32692	32573	32735	32562	32699	32809	32733	
5459	0	2789	4553	4354	7844	725	0	32751	32629	32679	32796	32647	32687	32847	32647	
5460	0	2759	4588	4304	7844	726	0	32687	32702	32735	32679	32543	32679	32843	32774	
5461	0	2769	4594	4376	7862	727	0	32663	32685	32773	32807	32502	32676	32639	32771	
5462	0	2798	4616	4355	7863	728	0	32666	32764	32495	32859	32334	32647	32697	32759	
5463	0	2786	4608	4321	7844	729	0	32700	32775	32663	32721	32314	32699	32575	32813	
5464	0	2770	4566	4390	7826	730	0	32743	32665	32647	32815	32617	32469	32967	32574	
5465	0	2795	4550	4388	7874	731	0	32775	32677	32711	32732	33069	32483	32990	32599	
5466	0	2757	4550	4338	7838	732	0	32805	32725	32747	32638	32983	32559	32623	32751	
5467	0	2752	4530	4369	7875	733	0	32759	32660	32663	32775	33437	32701	32194	32981	
5468	0	2765	4551	4354	7864	734	0	32701	32711	32507	32802	33555	32846	31901	32975	
5469	0	2738	4534	4323	7890	735	0	32720	32605	32597	32679	33428	32731	32231	32914	
5470	0	2780	4517	4360	7892	736	0	32761	32610	32647	32757	33191	32683	32319	32863	
5471	0	2764	4534	4389	7864	737	0	32731	32711	32699	32845	33019	32647	32431	32748	
5472	0	2767	4502	4402	7870	738	0	32685	32693	32583	32873	32617	32551	32532	32711	
5473	0	2760	4499	4345	7880	739	0	32768	32775	32715	32775	32327	32470	32959	32751	
5474	0	2731	4538	4372	7860	740	0	32745	32699	32726	32804	32282	32452	33108	32711	
5475	0	2762	4522	4382	7876	741	0	32794	32719	32527	32679	32378	32559	33005	32611	
5476	0	2696	4526	4392	7866	742	0	32786	32761	32724	32796	32406	32695	32759	32741	
5477	0	2726	4548	4423	7836	743	0	32805	32725	32640	32830	32743	32812	32869	32695	
5478	0	2733	4527	4378	7901	744	0	32786	32727	32764	32823	32871	32850	32983	32641	
5479	0	2776	4520	4360	7874	745	0	32763	32759	32583	32831	32683	32742	32671	32759	
5480	0	2727	4463	4416	7913	746	0	32815	32833	32553	32749	32637	32638	32758	32685	
5481	0	2713	4488	4388	7892	747	0	32732	32805	32439	32636	32789	32599	32599	32734	
5482	0	2707	4460	4385	7928	748	0	32866	32885	32658	32783	32855	32633	32703	32751	
5483	0	2748	4488	4401	7878	749	0	32876	32795	32646	32687	32694	32717	32647	32727	
5484	0	2691	4465	4368	7946	750	0	32854	32839	32887	32695	32835	32823	32621	32798	
5485	0	2704	4493	4429	7926	751	0	32761	32883	32641	32636	32843	32822	32599	32848	
5486	0	2724	4467	4345	7875	752	0	32721	32845	32673	32740	32692	32852	32507	32802	
5487	0	2745	4460	4375	7925	753	0	32647	32767	32628	32703	32570	32759	32695	32763	
5488	0	2737	4466	4402	7926	754	0	32655	32551	32711	32647	32684	32835	32479	32794	
5489	0	2711	4445	4446	7901	755	0	32714	32629	32679	32804	32767	32875	32599	32773	
5490	0	2658	4435	4432	7924	756	0	32669	32726	32481	32725	32525	32731	32684	32748	
5491	0	2668	4444	4409	7916	757	0	32679	32763	32639	32683	32647	32799	32527	32785	
5492	0	2706	4476	4408	7906	758	0	32738	32607	32583	32591	32647	32775	32666	32807	
5493	0	2702	4452	4448	7953	759	0	32748	32607	32660	32725	32549	32767	32547	32858	
5494	0	2677	4440	4419	7920	760	0	32814	32605	32715	32793	32724	32815	32685	32890	
5495	0	2689	4432	4442	7950	761	0	32753	32647	32581	32641	32742	32821	32559	32815	
5496	0	2718	4437	4413	7962	762	0	32806	32695	32663	32773	32655	32621	32734	32836	
5497	0	2634	4448	4424	7945	763	0	32825	32627	32614	32743	32735	32713	32671	32851	
5498	0	2730	4405	4405	7952	764	0	32818	32727	32751	32820	32791	32879	32606	32794	
5499	0	2670	4396	4419	7943	765	0	32803	32769	32819	32699	32695	32887	32721	32701	
5500	0	2674	4464	4435	7937	766	0	32775	32765	32585	32818	32794	32859	32693	32727	
5501	0	2692	4408	4446	7966	767	0	32743	32671	32531	32764	32791	32843	32775	32708	
5502	0	2663	4421	4392	7992	768	0	32783	32598	32667	32563	32735	32823	32735	32723	
5503	0	2615	4422	4450	7986	769	0	32781	32828	32621	32687	32767	32861	32727	32783	
5504	0	2646	4419	4446	7954	770	0	32788	32786	32807	32706	32775	32791	32747	32775	
5505	0	2660	4418	4471	7929	771	0	32871	32687	32543	32715	32699	32735	32545	32791	
5506	0	2656	4376	4471	8010	772	0	32871	32607	32708	32669	32748	32755	32743	32813	
5507	0	2678	4349	4487	8018	773	0	32807	32573	32635	32810	32803	32764	32611	32758	
5508	0	2643	4404	4460	8007	774	0	32837	32763	32551	32703	32759	32775	32670	32743	
5509	0	2637	4396	4463	7968	775	0	32775	32794	32659	32577	32811	32766	32607	32745	
5510	0	2621	4420	4418	7976	776	0	32788	32804	32786	32794	32687	32799	32671	32807	
5511	0	2658	4435	4468	7982	777	0	32743	32743	32567	32775	32791	32791	32663	32791	
5512	0	2640	4376	4456	8021	778	0	32780	32766	32719	32867	32775	32835	32766	32754	
5513	0	2627	4352	4499	8014	779	0	32753	32854	32703	32877	32639	32748	32783	32813	
5514	0	2634	4360	4511	8060	780	0	32679	32834	32609	32847	32723	32751	32740	32755	
5515	0	2640	4398	4468	7989	781	0	32732	32771	32767	32763	32659	32775	32671	32711	
5516	0	2666	4396	4489	8024	782	0	32795	32746	32580	32775	32700	32775	32678	32723	
5517	0	2655	4366	4467	8037	783	0	32713	32699	32539	32847	32607	32789	32727	32679	
5518	0	2616	4388	4540	8029	784	0	32646	32669	32647	32861	32679	32775	32723	32711	
5519	0	2624	4387	4484	8080	785	0	32671	32775	32655	32802	32671	32895	32734	32676	
5520	0	2634	4380	4489	8071	786	0	32734	32783	32695	32815	32611	32804	32679	32557	
5521	0	2614	4378	4515	8044	787	0	32730	32751	32710	32799	32383	32658	32791	32501	
5522	0	2606	4394	4512	8068	788	0	32731	32603	32799	32671	32515	32719	32742	32623	
5523	0	2650	4408	4532	8096	789	0	32777	32730	32885	32763	32295	32798	32674	32903	
5524	0	2602	4370	4549	8057	790	0	32806	32742	32830	32759	32373	32795	32734	32799	
5525	0	2628	4348	4498	8092	791	0	32791	32761	32555	32788	33197	32823	32692	32743	
5526	0	2611	4314	4511	8068	792	0	32813	32823	32593	32735	33415	33079	32634	32803	
5527	0	2582	4329	4499	8036	793	0	32825	32877	32551	32685	33047	32783	32489	32811	
5528	0	2576	4352	4534	8030	794	0	32842	32743	32570	32813	33634	32764	32637	32805	
5529	0	2597	4330	4505	8048	795	0	32770	32669	32567	32772	33579	32983	32662	32736	
5530	0	2624	4313	4534	8080	796	0	32747	32625	32430	32731	32867	32935	32580	32753	
5531	0	2617	4358	4480	8112	797	0	32727	32742	32610	32847	32707	32771	32711	32919	
5532	0	2625	4376	4549	8016	798	0	32836	32742	32710	32707	32831	32751	32599	32749	
5533	0	2582	4320	4496	8102	799	0	32839	32679	32461	32727	32937	32827	32535	32871	
5534	0	2552	4327	4548	8068	800	0	32812	32674	32583	32735	32557	32663	32373	32985	
5535	0	2632	4347	4563	8038	801	0	32775	32647	32673	32756	32501	32647	32363	33051	
5536	0	2590	4334	4522	8119	802	0	32730	32671	32483	32757	32583	32711	32173	32975	
5537	0	2584	4308	4527	8113	803	0	32749	32639	32583	32871	32569	32623	32454	32839	
5538	0	2573	4324	4548	8089	804	0	32702	32621	32674	32813	31733	32332	33151	32759	
5539	0	2560	4337	4518	8111	805	0	32763	32589	32834	32749	31746	32547	33467	32893	
5540	0	2572	4313	4558	8094	806	0	32728	32738	32582	32831	32033	32797	33742	32791	
5541	0	2556	4329	4530	8128	807	0	32709	32678	32631	32675	31694	32666	33195	32663	
5542	0	2535	4318	4589	8146	808	0	32795	32797	32791	32647	31995	32775	32941	32647	
5543	0	2544	4344	4569	8140	809	0	32750	32731	32687	32561	32634	32583	32495	32813	
5544	0	2584	4286	4559	8090	810	0	32736	32831	32767	32636	33047	32583	32417	32854	
5545	0	2558	4262	4546	8136	811	0	32722	32813	32869	32633	33393	32613	32217	32863	
5546	0	2555	4306	4579	8128	812	0	32703	32829	32855	32511	33955	32604	32247	32871	
5547	0	2587	4318	4547	8147	813	0	32663	32855	32623	32727	33887	32739	32167	32807	
5548	0	2555	4279	4540	8105	814	0	32659	32733	32487	32855	33799	32743	32087	32823	
5549	0	2561	4311	4546	8154	815	0	32718	32647	32527	32721	33183	32705	32183	32837	
5550	0	2564	4272	4544	8102	816	0	32662	32647	32591	32975	32797	32811	32671	32843	
5551	0	2558	4278	4553	8144	817	0	32687	32721	32583	32784	32471	32623	32987	32799	
5552	0	2501	4240	4578	8130	818	0	32731	32655	32531	32775	32335	32563	32935	32726	
5553	0	2551	4287	4584	8132	819	0	32760	32607	32573	32807	32135	32551	33014	32718	
5554	0	2523	4257	4545	8119	820	0	32718	32639	32598	32839	32495	32837	32831	32686	
5555	0	2524	4280	4527	8149	821	0	32856	32669	32723	32685	32685	32879	32851	32751	
5556	0	2531	4277	4509	8208	822	0	32799	32790	32668	32707	32666	32807	32811	32679	
5557	0	2533	4277	4580	8144	823	0	32735	32775	32565	32646	32687	32647	32885	32738	
5558	0	2547	4283	4561	8107	824	0	32749	32619	32767	32496	32693	32686	32563	32701	
5559	0	2535	4277	4550	8153	825	0	32751	32595	32703	32647	32753	32725	32635	32685	
5560	0	2556	4269	4539	8152	826	0	32759	32701	32745	32709	32646	32798	32666	32679	
5561	0	2492	4266	4585	8181	827	0	32732	32690	32455	32844	32685	32735	32743	32671	
5562	0	2556	4272	4588	8146	828	0	32719	32743	32426	32918	32735	32811	32711	32769	
5563	0	2500	4281	4550	8172	829	0	32809	32682	32567	32861	32793	32766	32799	32743	
5564	0	2536	4258	4550	8204	830	0	32840	32679	32659	32835	32728	32807	32775	32749	
5565	0	2544	4283	4502	8164	831	0	32749	32828	32671	32891	32655	32703	32731	32775	
5566	0	2476	4241	4566	8160	832	0	32762	32719	32635	32831	32726	32708	32614	32721	
5567	0	2560	4252	4552	8116	833	0	32679	32829	32565	32871	32763	32813	32543	32693	
5568	0	2508	4280	4608	8144	834	0	32722	32661	32510	32767	32757	32863	32719	32765	
5569	0	2509	4257	4547	8192	835	0	32836	32706	32679	32743	32839	32855	32572	32729	
5570	0	2475	4242	4548	8186	836	0	32799	32751	32663	32710	32751	32887	32695	32757	
5571	0	2494	4218	4596	8194	837	0	32831	32706	32645	32493	32647	32823	32725	32711	
5572	0	2496	4237	4608	8191	838	0	32775	32647	32742	32614	32735	32827	32678	32732	
5573	0	2454	4221	4542	8197	839	0	32765	32727	32572	32537	32754	32797	32636	32759	
5574	0	2493	4244	4606	8170	840	0	32767	32773	32612	32623	32759	32847	32581	32691	
5575	0	2515	4252	4594	8160	841	0	32788	32807	32681	32663	32658	32823	32711	32734	
5576	0	2502	4268	4607	8218	842	0	32876	32761	32589	32655	32771	32815	32634	32749	
5577	0	2489	4237	4548	8233	843	0	32847	32732	32676	32710	32786	32855	32771	32788	
5578	0	2498	4249	4574	8255	844	0	32859	32789	32767	32869	32845	32796	32635	32807	
5579	0	2501	4261	4572	8184	845	0	32831	32887	32767	32892	32737	32771	32735	32771	
5580	0	2486	4234	4560	8227	846	0	32771	32799	32815	32741	32789	32877	32677	32739	
5581	0	2435	4268	4608	8235	847	0	32805	32810	32561	32804	32769	32879	32837	32690	
5582	0	2509	4220	4573	8169	848	0	32759	32685	32765	32863	32751	32855	32858	32625	
5583	0	2493	4249	4534	8210	849	0	32767	32807	32627	32687	32623	32855	32845	32575	
5584	0	2465	4271	4595	8164	850	0	32757	32815	32682	32838	32746	32879	32996	32621	
5585	0	2494	4200	4600	8138	851	0	32775	32791	32691	32855	32663	32807	32765	32855	
5586	0	2485	4246	4548	8224	852	0	32767	32823	32547	32647	32741	32794	32599	32850	
5587	0	2479	4272	4552	8221	853	0	32818	32647	32615	32759	32687	32854	32561	32823	
5588	0	2468	4201	4580	8230	854	0	32858	32635	32623	32686	32815	32903	32751	32769	
5589	0	2487	4234	4586	8218	855	0	32866	32775	32691	32687	32887	33014	32863	32759	
5590	0	2467	4227	4594	8218	856	0	32795	32655	32694	32775	33037	32966	32893	32703	
5591	0	2497	4202	4607	8236	857	0	32719	32647	32677	32775	32657	32823	32583	32802	
5592	0	2491	4184	4602	8205	858	0	32783	32639	32723	32559	32495	32658	32503	32871	
5593	0	2454	4244	4622	8235	859	0	32771	32631	32759	32719	32225	32575	32277	32807	
5594	0	2468	4230	4572	8197	860	0	32735	32733	32493	32811	31903	32576	32461	32719	
5595	0	2470	4204	4622	8196	861	0	32715	32775	32679	32775	31995	32675	32583	32620	
5596	0	2481	4228	4624	8242	862	0	32663	32559	32567	32805	32346	32795	32812	32535	
5597	0	2477	4237	4634	8262	863	0	32701	32735	32637	32855	32309	32861	32839	32515	
5598	0	2444	4258	4578	8236	864	0	32742	32717	32460	32871	32903	32900	32699	32661	
5599	0	2468	4196	4624	8232	865	0	32745	32719	32473	32791	33513	33039	32183	32783	
5600	0	2477	4217	4610	8228	866	0	32726	32787	32487	32841	33703	32815	32540	32831	
5601	0	2511	4243	4608	8252	867	0	32775	32693	32711	32758	33119	32751	32683	32829	
5602	0	2484	4247	4644	8254	868	0	32756	32645	32749	32763	32834	32676	32571	32819	
5603	0	2446	4193	4625	8269	869	0	32710	32835	32643	32798	33212	32823	32443	32909	
5604	0	2453	4213	4608	8260	870	0	32710	32775	32719	32935	33555	32871	32487	33007	
5605	0	2466	4208	4616	8262	871	0	32665	32635	32753	32701	32918	32687	32868	33351	
5606	0	2429	4246	4648	8238	872	0	32773	32626	32647	32791	32601	32614	32975	33350	
5607	0	2451	4260	4586	8260	873	0	32732	32683	32519	32823	32903	32647	33071	33151	
5608	0	2463	4198	4596	8259	874	0	32799	32714	32647	32727	32687	32647	33058	32863	
5609	0	2493	4197	4608	8272	875	0	32786	32735	32525	32850	32487	32557	32903	32703	
5610	0	2505	4234	4589	8264	876	0	32775	32593	32619	32732	32590	32589	32839	32675	
5611	0	2418	4236	4613	8256	877	0	32756	32715	32423	32759	32596	32708	32770	32647	
5612	0	2459	4225	4575	8248	878	0	32742	32785	32631	32585	32545	32903	32827	32671	
5613	0	2500	4192	4635	8300	879	0	32767	32658	32635	32719	32659	32839	32788	32646	
5614	0	2475	4200	4632	8291	880	0	32676	32724	32461	32775	32677	32838	32559	32619	
5615	0	2460	4200	4667	8284	881	0	32722	32687	32417	32745	32705	32871	32759	32731	
5616	0	2444	4216	4594	8275	882	0	32799	32727	32612	32647	32763	32757	32674	32745	
5617	0	2448	4198	4634	8320	883	0	32749	32708	32557	32647	32666	32531	32647	32738	
5618	0	2450	4165	4600	8291	884	0	32732	32713	32665	32743	32767	32519	32621	32654	
5619	0	2492	4221	4659	8304	885	0	32775	32764	32623	32609	32703	32641	32421	32667	
5620	0	2382	4162	4657	8291	886	0	32815	32741	32775	32630	32699	32846	32647	32620	
5621	0	2485	4180	4657	8298	887	0	32710	32698	32739	32607	32679	32887	32572	32676	
5622	0	2466	4234	4575	8269	888	0	32743	32783	32789	32541	32743	32903	32684	32767	
5623	0	2451	4176	4598	8264	889	0	32807	32762	32827	32739	32679	32894	32740	32751	
5624	0	2465	4164	4626	8342	890	0	32735	32743	32599	32671	32722	32773	32509	32739	
5625	0	2433	4180	4602	8304	891	0	32756	32673	32735	32551	32715	32833	32719	32735	
5626	0	2482	4200	4600	8320	892	0	32678	32679	32647	32727	32683	32828	32615	32671	
5627	0	2464	4215	4672	8237	893	0	32732	32721	32661	32679	32723	32847	32739	32647	
5628	0	2448	4162	4624	8290	894	0	32696	32679	32475	32566	32695	32799	32653	32695	
5629	0	2426	4202	4657	8249	895	0	32717	32766	32485	32769	32763	32773	32738	32793	
5630	0	2440	4240	4620	8297	896	0	32720	32751	32763	32595	32815	32783	32775	32773	
5631	0	2420	4159	4655	8280	897	0	32817	32685	32665	32595	32765	32767	32647	32829	
5632	0	2411	4178	4640	8281	898	0	32821	32811	32687	32785	32795	32775	32715	32759	
5633	0	2457	4177	4579	8270	899	0	32821	32855	32530	32796	32661	32751	32604	32823	
5634	0	2482	4194	4644	8315	900	0	32788	32838	32551	32931	32715	32790	32679	32811	
5635	0	2450	4163	4610	8281	901	0	32790	32691	32669	32867	32733	32646	32565	32831	
5636	0	2476	4179	4596	8261	902	0	32749	32647	32702	32887	32775	32783	32670	32855	
5637	0	2478	4217	4610	8292	903	0	32702	32706	32673	32871	32627	32557	32509	32859	
5638	0	2427	4214	4698	8291	904	0	32833	32689	32698	32983	32701	32559	32683	32775	
5639	0	2447	4134	4638	8281	905	0	32805	32683	32537	32911	32691	32775	32695	32799	
5640	0	2457	4184	4605	8272	906	0	32759	32695	32553	32862	32685	32773	32661	32823	
5641	0	2426	4189	4618	8276	907	0	32788	32623	32631	32957	32869	32807	32703	32835	
5642	0	2460	4184	4610	8289	908	0	32788	32647	32663	32973	32786	32799	32750	32787	
5643	0	2437	4164	4590	8293	909	0	32782	32749	32658	32811	32805	32829	32702	32695	
5644	0	2434	4171	4572	8268	910	0	32815	32877	32743	32948	32671	32839	32647	32703	
5645	0	2468	4197	4601	8296	911	0	32807	32823	32735	32957	32839	32763	32679	32739	
5646	0	2426	4205	4632	8313	912	0	32853	32767	32635	32803	32711	32743	32570	32764	
5647	0	2435	4173	4626	8330	913	0	32884	32767	32775	32943	32548	32694	32746	32819	
5648	0	2478	4161	4595	8299	914	0	32850	32849	32727	32854	32775	32695	32642	32692	
5649	0	2490	4179	4616	8337	915	0	32860	32775	32667	32759	32671	32719	32803	32687	
5650	0	2497	4200	4610	8290	916	0	32759	32791	32743	32702	32723	32741	32804	32756	
5651	0	2480	4159	4604	8267	917	0	32728	32734	32537	32719	32770	32564	32702	32775	
5652	0	2444	4206	4659	8266	918	0	32716	32675	32671	32509	32765	32599	32698	32799	
5653	0	2449	4188	4659	8294	919	0	32702	32743	32636	32671	32644	32619	32495	32815	
5654	0	2404	4186	4612	8312	920	0	32678	32759	32637	32677	32713	32701	32679	32715	
5655	0	2438	4149	4584	8289	921	0	32687	32795	32665	32518	32661	32662	32645	32742	
5656	0	2465	4166	4577	8315	922	0	32601	32733	32556	32647	32701	32667	32741	32815	
5657	0	2418	4192	4622	8305	923	0	32610	32733	32532	32615	32726	32626	32775	32793	
5658	0	2435	4223	4598	8316	924	0	32713	32739	32799	32590	32806	32761	32667	32697	
5659	0	2430	4194	4611	8316	925	0	32756	32669	32775	32690	32786	32871	32707	32774	
5660	0	2404	4174	4660	8308	926	0	32742	32791	32647	32703	32655	32903	32635	32737	
5661	0	2415	4211	4640	8334	927	0	32821	32677	32655	32567	32829	32831	32727	32717	
5662	0	2463	4201	4659	8296	928	0	32796	32706	32570	32671	32742	32890	32635	32743	
5663	0	2458	4161	4642	8324	929	0	32735	32799	32547	32735	32703	32831	32797	32775	
5664	0	2436	4152	4624	8312	930	0	32770	32748	32593	32697	32748	32809	32607	32745	
5665	0	2454	4221	4619	8324	931	0	32845	32839	32610	32859	32740	32858	32749	32719	
5666	0	2418	4174	4669	8342	932	0	32815	32879	32633	32820	32791	32903	32594	32647	
5667	0	2395	4240	4660	8306	933	0	32832	32703	32548	32644	32731	32893	32791	32751	
5668	0	2414	4177	4608	8304	934	0	32839	32555	32561	32791	32783	32878	32692	32791	
5669	0	2452	4165	4626	8305	935	0	32808	32687	32662	32767	32775	32783	32761	32764	
5670	0	2441	4186	4627	8339	936	0	32796	32711	32807	32586	32679	32719	32875	32743	
5671	0	2413	4225	4618	8320	937	0	32871	32643	32565	32623	32693	32742	32507	32722	
5672	0	2416	4201	4614	8336	938	0	32840	32802	32655	32575	32685	32799	32703	32757	
5673	0	2468	4185	4626	8256	939	0	32746	32833	32815	32714	32557	32655	32711	32823	
5674	0	2444	4195	4622	8340	940	0	32804	32852	32775	32597	32711	32735	32647	32775	
5675	0	2486	4141	4661	8294	941	0	32755	32738	32631	32615	32679	32804	32543	32855	
5676	0	2452	4131	4630	8309	942	0	32769	32642	32549	32581	32732	32823	32707	32867	
5677	0	2456	4131	4627	8304	943	0	32730	32631	32483	32699	32797	32789	32767	32885	
5678	0	2450	4157	4630	8309	944	0	32719	32677	32585	32598	32674	32763	32723	32743	
5679	0	2456	4168	4617	8301	945	0	32730	32749	32647	32605	32631	32717	32715	32757	
5680	0	2475	4141	4657	8272	946	0	32748	32787	32508	32793	32703	32859	32736	32775	
5681	0	2440	4196	4617	8300	947	0	32751	32687	32565	32885	32655	32823	32671	32708	
5682	0	2467	4200	4573	8308	948	0	32811	32749	32638	32962	32919	32623	32607	32740	
5683	0	2468	4145	4572	8284	949	0	32743	32715	32647	32883	33039	32735	32689	32797	
5684	0	2434	4188	4654	8304	950	0	32716	32733	32667	33038	32725	32786	32671	32771	
5685	0	2452	4174	4631	8320	951	0	32686	32837	32443	33029	32823	32594	32579	32815	
5686	0	2466	4136	4612	8321	952	0	32712	32711	32487	32796	32738	32511	32674	32705	
5687	0	2456	4135	4627	8256	953	0	32686	32715	32535	32927	32597	32669	32477	32655	
5688	0	2418	4128	4622	8307	954	0	32732	32819	32683	32879	32671	32591	32719	32711	
5689	0	2458	4154	4644	8330	955	0	32751	32703	32687	32679	32678	32581	32603	32841	
5690	0	2419	4195	4612	8306	956	0	32825	32722	32847	32719	32661	32535	32726	32811	
5691	0	2436	4207	4577	8262	957	0	32765	32647	32679	32678	32662	32628	32731	32879	
5692	0	2394	4177	4599	8238	958	0	32848	32717	32532	32695	32919	32575	32715	32685	
5693	0	2447	4188	4638	8281	959	0	32819	32714	32671	32575	32759	32595	32743	32691	
5694	0	2425	4170	4580	8292	960	0	32809	32647	32755	32719	32645	32623	32533	32775	
5695	0	2468	4181	4595	8297	961	0	32847	32655	32647	32733	32559	32647	32678	32759	
5696	0	2440	4158	4629	8282	962	0	32761	32710	32822	32631	32495	32572	32687	32738	
5697	0	2432	4185	4608	8290	963	0	32765	32763	32613	32767	32437	32757	32667	32870	
5698	0	2414	4204	4591	8328	964	0	32774	32769	32655	32706	32479	32735	32715	32844	
5699	0	2441	4201	4578	8272	965	0	32775	32684	32813	32660	33004	32843	32605	32829	
5700	0	2440	4167	4571	8272	966	0	32763	32711	32677	32765	33213	32891	32735	32719	
5701	0	2418	4167	4616	8301	967	0	32807	32847	32755	32799	32723	32885	32739	32711	
5702	0	2446	4209	4613	8267	968	0	32754	32797	32852	32807	32516	32831	32705	32695	
5703	0	2416	4164	4571	8268	969	0	32751	32786	32693	32571	32499	32679	32635	32676	
5704	0	2467	4191	4601	8227	970	0	32760	32773	32673	32741	33012	32829	32595	32708	
5705	0	2446	4151	4602	8279	971	0	32743	32807	32855	32726	33287	32855	32583	32628	
5706	0	2436	4169	4608	8305	972	0	32836	32700	32813	32635	32903	32898	32511	32679	
5707	0	2502	4172	4617	8305	973	0	32819	32655	32836	32655	32670	32809	32791	32721	
5708	0	2430	4171	4614	8286	974	0	32755	32695	32647	32713	32827	32757	32727	32703	
5709	0	2409	4178	4562	8283	975	0	32738	32695	32695	32724	32747	32566	32641	32783	
5710	0	2448	4193	4594	8278	976	0	32679	32553	32646	32815	32579	32595	32733	32757	
5711	0	2456	4155	4602	8310	977	0	32605	32561	32647	32671	32705	32767	32642	32735	
5712	0	2439	4203	4577	8281	978	0	32633	32685	32487	32555	32695	32915	32732	32722	
5713	0	2463	4164	4611	8238	979	0	32703	32627	32615	32726	32790	32834	32607	32711	
5714	0	2436	4187	4571	8274	980	0	32751	32671	32535	32759	32711	32711	32685	32811	
5715	0	2462	4164	4560	8280	981	0	32703	32784	32451	32775	32630	32739	32639	32893	
5716	0	2459	4228	4656	8300	982	0	32688	32833	32311	32793	32655	32725	32804	32772	
5717	0	2483	4209	4608	8304	983	0	32775	32794	32271	32802	32679	32733	32709	32775	
5718	0	2463	4192	4665	8269	984	0	32828	32611	32389	32879	32799	32794	32687	32727	
5719	0	2434	4158	4601	8262	985	0	32771	32743	32489	32830	32729	32758	32671	32790	
5720	0	2532	4179	4608	8264	986	0	32750	32716	32671	32763	32723	32599	32751	32827	
5721	0	2432	4189	4636	8291	987	0	32799	32723	32495	32871	32679	32695	32579	32823	
5722	0	2472	4164	4612	8324	988	0	32775	32775	32647	32901	32807	32767	32671	32751	
5723	0	2442	4193	4610	8278	989	0	32742	32775	32503	32739	32783	32851	32559	32743	
5724	0	2463	4181	4603	8246	990	0	32766	32711	32665	32903	32655	32849	32751	32743	
5725	0	2449	4126	4611	8275	991	0	32701	32755	32507	32846	32775	32799	32787	32797	
5726	0	2436	4182	4594	8299	992	0	32802	32813	32529	32893	32754	32823	32788	32799	
5727	0	2456	4188	4630	8305	993	0	32789	32695	32639	32831	32683	32807	32802	32791	
5728	0	2466	4145	4608	8283	994	0	32818	32759	32662	32695	32711	32790	32643	32781	
5729	0	2480	4175	4630	8344	995	0	32800	32615	32631	32711	32669	32751	32703	32783	
5730	0	2456	4186	4610	8332	996	0	32831	32755	32743	32583	32550	32762	32745	32759	
5731	0	2488	4179	4605	8297	997	0	32813	32715	32484	32749	32543	32775	32656	32799	
5732	0	2440	4166	4628	8264	998	0	32770	32742	32611	32706	32535	32775	32679	32843	
5733	0	2501	4131	4615	8308	999	0	32771	32639	32626	32687	32700	32791	32567	32799	
5734	0	2461	4205	4602	8294	1000	0	32779	32775	32711	32671	32793	32753	32735	32764	
5735	0	2459	4182	4622	8270	1001	0	32873	32751	32790	32751	32927	32558	32539	32743	
5736	0	2490	4132	4638	8278	1002	0	32846	32787	32598	32699	32881	32619	32727	32751	
5737	0	2465	4187	4622	8277	1003	0	32828	32686	32735	32626	32796	32655	32663	32717	
5738	0	2506	4161	4592	8307	1004	0	32786	32670	32629	32690	32915	32663	32510	32843	
5739	0	2458	4204	4640	8240	1005	0	32735	32823	32885	32767	32937	32719	32668	32685	
5740	0	2509	4182	4632	8292	1006	0	32656	32711	32721	32695	32822	32663	32675	32665	
5741	0	2458	4176	4638	8292	1007	0	32719	32732	32745	32847	32669	32661	32743	32783	
5742	0	2436	4137	4622	8289	1008	0	32753	32620	32755	32739	32451	32619	32679	32690	
5743	0	2453	4182	4628	8303	1009	0	32766	32621	32711	32574	32674	32703	32843	32679	
5744	0	2512	4197	4607	8249	1010	0	32802	32839	32903	32642	32841	32775	32767	32636	
5745	0	2449	4221	4638	8290	1011	0	32780	32815	32644	32611	32740	32711	32775	32687	
5746	0	2419	4177	4582	8312	1012	0	32822	32851	32622	32467	32681	32729	32752	32775	
5747	0	2455	4185	4673	8289	1013	0	32749	32775	32446	32647	32574	32887	32775	32823	
5748	0	2479	4171	4620	8232	1014	0	32738	32740	32495	32805	32410	32811	32748	33042	
5749	0	2467	4202	4564	8254	1015	0	32774	32899	32687	32711	32127	32631	32591	32955	
5750	0	2472	4212	4568	8253	1016	0	32742	32743	32631	32743	32343	32589	32631	32901	
5751	0	2446	4175	4594	8304	1017	0	32698	32711	32623	32933	32903	32793	32537	32613	
5752	0	2498	4192	4646	8280	1018	0	32678	32535	32667	32895	32367	32957	32311	32799	
5753	0	2392	4216	4607	8308	1019	0	32712	32614	32623	32807	32245	32900	32097	32839	
5754	0	2441	4174	4604	8293	1020	0	32695	32635	32679	32679	32964	32769	32446	32771	
5755	0	2477	4160	4616	8291	1021	0	32775	32775	32757	32844	32687	32589	32799	32687	
5756	0	2459	4195	4555	8280	1022	0	32712	32719	32607	32839	33035	32431	33274	32700	
5757	0	2476	4164	4660	8276	1023	0	32647	32711	32497	32895	33487	32578	33229	32739	
5758	0	2444	4201	4632	8291	1024	0	32785	32713	32423	32781	33415	32789	32839	32734	
5759	0	2436	4177	4612	8323	1025	0	32734	32673	32519	32711	33366	32803	32745	32751	
5760	0	2528	4196	4628	8268	1026	0	32742	32747	32733	32763	32995	32543	32734	32773	
5761	0	2438	4140	4650	8264	1027	0	32770	32844	32684	32667	32623	32557	32605	32756	
5762	0	2497	4204	4598	8275	1028	0	32809	32867	32702	32795	32617	32671	32683	32751	
5763	0	2462	4155	4582	8336	1029	0	32782	32853	32687	32903	32602	32695	32523	32772	
5764	0	2444	4176	4613	8248	1030	0	32862	32852	32509	32815	32695	32685	32641	32770	
5765	0	2471	4161	4630	8259	1031	0	32789	32815	32495	32669	32599	32647	32582	32742	
5766	0	2437	4178	4612	8300	1032	0	32717	32815	32516	32738	32564	32605	32702	32695	
5767	0	2468	4197	4628	8236	1033	0	32746	32629	32575	32751	32707	32587	32663	32691	
5768	0	2468	4194	4625	8284	1034	0	32671	32699	32709	32613	32685	32663	32735	32716	
5769	0	2417	4170	4616	8266	1035	0	32692	32671	32694	32717	32670	32647	32571	32683	
5770	0	2466	4166	4622	8268	1036	0	32706	32751	32614	32735	32767	32847	32677	32773	
5771	0	2503	4208	4584	8294	1037	0	32700	32635	32725	32711	32715	32927	32643	32751	
5772	0	2446	4154	4616	8294	1038	0	32771	32581	32567	32799	32711	32859	32730	32759	
5773	0	2489	4168	4588	8297	1039	0	32800	32702	32485	32775	32709	32839	32743	32811	
5774	0	2452	4181	4618	8308	1040	0	32782	32791	32583	32682	32677	32814	32694	32785	
5775	0	2465	4207	4607	8281	1041	0	32808	32821	32633	32822	32747	32843	32742	32821	
5776	0	2478	4170	4610	8263	1042	0	32798	32775	32759	32869	32791	32869	32554	32887	
5777	0	2449	4139	4620	8312	1043	0	32751	32587	32727	32858	32756	32893	32719	32831	
5778	0	2440	4169	4603	8296	1044	0	32742	32594	32587	32759	32583	32830	32553	32698	
5779	0	2485	4176	4609	8302	1045	0	32810	32691	32636	32759	32695	32721	32775	32682	
5780	0	2470	4162	4595	8284	1046	0	32808	32711	32703	32661	32691	32749	32615	32713	
5781	0	2463	4163	4563	8272	1047	0	32786	32693	32436	32679	32615	32773	32719	32775	
5782	0	2453	4190	4569	8280	1048	0	32786	32703	32642	32714	32805	32713	32671	32773	
5783	0	2443	4133	4592	8312	1049	0	32787	32647	32739	32759	32775	32711	32723	32743	
5784	0	2488	4174	4624	8304	1050	0	32765	32735	32636	32787	32828	32771	32671	32780	
5785	0	2467	4172	4638	8292	1051	0	32816	32839	32647	32679	32809	32719	32719	32734	
5786	0	2475	4146	4619	8237	1052	0	32773	32738	32716	32827	32899	32690	32609	32749	
5787	0	2480	4138	4598	8275	1053	0	32748	32711	32589	32813	32775	32699	32707	32756	
5788	0	2471	4177	4620	8288	1054	0	32771	32685	32548	32679	32730	32767	32709	32783	
5789	0	2446	4179	4680	8282	1055	0	32764	32635	32655	32518	32662	32597	32749	32763	
5790	0	2498	4197	4609	8250	1056	0	32813	32711	32655	32487	32647	32604	32687	32759	
5791	0	2500	4152	4568	8265	1057	0	32816	32715	32671	32308	32671	32788	32503	32719	
5792	0	2458	4158	4617	8272	1058	0	32765	32682	32471	32503	32687	32831	32738	32705	
5793	0	2517	4182	4568	8276	1059	0	32799	32644	32583	32598	32717	32839	32638	32764	
5794	0	2476	4200	4624	8288	1060	0	32839	32711	32631	32619	32693	32871	32683	32739	
5795	0	2466	4176	4614	8317	1061	0	32795	32681	32590	32795	32683	32863	32674	32692	
5796	0	2462	4154	4638	8266	1062	0	32803	32711	32611	33026	32743	32827	32577	32738	
5797	0	2445	4165	4610	8314	1063	0	32789	32815	32675	33047	32743	32827	32710	32735	
5798	0	2487	4247	4656	8255	1064	0	32825	32743	32674	33191	32703	32787	32790	32731	
5799	0	2438	4200	4619	8308	1065	0	32810	32894	32391	33311	32639	32818	32855	32791	
5800	0	2409	4196	4618	8280	1066	0	32790	32841	32579	33175	32729	32799	32638	32788	
5801	0	2480	4174	4572	8282	1067	0	32756	32679	32621	33204	32699	32822	32767	32810	
5802	0	2493	4183	4632	8325	1068	0	32764	32770	32748	33076	32685	32743	32767	32863	
5803	0	2462	4172	4622	8259	1069	0	32682	32835	32606	32839	32723	32543	32675	32854	
5804	0	2450	4187	4581	8286	1070	0	32703	32835	32647	32911	32713	32550	32717	32817	
5805	0	2484	4201	4626	8260	1071	0	32687	32663	32711	32711	32599	32508	32647	32775	
5806	0	2461	4180	4598	8304	1072	0	32751	32751	32711	32466	32654	32655	32723	32754	
5807	0	2472	4160	4659	8283	1073	0	32760	32694	32671	32509	32647	32727	32559	32791	
5808	0	2464	4182	4587	8265	1074	0	32757	32772	32823	32467	32572	32727	32692	32743	
5809	0	2439	4176	4610	8308	1075	0	32726	32623	32863	32434	32447	32795	32564	32783	
5810	0	2470	4178	4627	8313	1076	0	32734	32667	32687	32486	32636	32815	32647	32863	
5811	0	2477	4200	4620	8266	1077	0	32697	32645	32853	32495	32983	32793	32655	32859	
5812	0	2462	4179	4622	8265	1078	0	32741	32577	32775	32603	33019	32775	32599	32874	
5813	0	2432	4154	4575	8265	1079	0	32637	32565	32591	32507	32971	32751	32727	32751	
5814	0	2476	4190	4592	8294	1080	0	32714	32647	32571	32681	32795	32813	32703	32725	
5815	0	2514	4192	4612	8308	1081	0	32743	32719	32531	32607	32591	32739	32695	32683	
5816	0	2473	4181	4624	8282	1082	0	32729	32749	32391	32854	32503	32817	32679	32819	
5817	0	2467	4183	4645	8284	1083	0	32717	32731	32282	32916	32520	32839	32639	32831	
5818	0	2448	4165	4588	8252	1084	0	32639	32775	32477	32705	32740	32823	32623	32749	
5819	0	2534	4197	4612	8241	1085	0	32646	32687	32519	32818	32845	32747	32551	32759	
5820	0	2416	4187	4626	8299	1086	0	32703	32743	32634	32931	32743	32771	32531	32755	
5821	0	2476	4179	4583	8266	1087	0	32749	32831	32705	32795	32791	32733	32671	32747	
5822	0	2483	4205	4628	8263	1088	0	32791	32911	32615	32846	32603	32711	32578	32766	
5823	0	2490	4181	4619	8292	1089	0	32754	32871	32604	32834	32597	32783	32828	32717	
5824	0	2459	4180	4610	8289	1090	0	32815	32835	32758	32668	32599	32735	32655	32647	
5825	0	2452	4216	4588	8316	1091	0	32799	32775	32885	32799	32789	32743	32734	32687	
5826	0	2459	4200	4612	8255	1092	0	32818	32834	32890	32799	32863	32790	32615	32681	
5827	0	2492	4189	4613	8306	1093	0	32730	32819	32861	32791	32761	32845	32763	32733	
5828	0	2466	4222	4619	8301	1094	0	32690	32703	32823	32796	32766	32823	32690	32757	
5829	0	2450	4193	4634	8267	1095	0	32708	32671	32790	32757	32809	32957	32818	32687	
5830	0	2483	4158	4595	8219	1096	0	32710	32583	32877	32895	32903	32875	32743	32766	
5831	0	2449	4178	4624	8332	1097	0	32807	32595	32897	32863	32839	32843	32739	32756	
5832	0	2431	4209	4600	8324	1098	0	32754	32599	32557	32736	32709	32775	32775	32727	
5833	0	2456	4162	4580	8261	1099	0	32735	32743	32671	32877	32663	32791	32763	32767	
5834	0	2435	4189	4575	8258	1100	0	32820	32796	32691	32818	32703	32869	32703	32767	
5835	0	2448	4211	4644	8312	1101	0	32809	32804	32625	32598	32687	32877	32717	32724	
5836	0	2442	4172	4603	8225	1102	0	32784	32773	32579	32647	32847	32855	32658	32723	
5837	0	2435	4192	4616	8267	1103	0	32851	32783	32679	32690	32833	32879	32699	32722	
5838	0	2449	4210	4612	8308	1104	0	32783	32789	32707	32599	32775	32903	32630	32739	
5839	0	2494	4175	4624	8288	1105	0	32852	32759	32525	32815	32687	32895	32674	32693	
5840	0	2408	4200	4648	8326	1106	0	32841	32729	32417	32847	32605	32869	32703	32681	
5841	0	2446	4145	4648	8252	1107	0	32745	32715	32641	32583	32743	32751	32597	32690	
5842	0	2460	4190	4624	8298	1108	0	32735	32811	32679	32724	32698	32773	32607	32763	
5843	0	2485	4173	4636	8264	1109	0	32804	32771	32555	32647	32631	32804	32493	32723	
5844	0	2464	4179	4612	8272	1110	0	32829	32838	32605	32555	32647	32743	32675	32695	
5845	0	2421	4177	4682	8276	1111	0	32791	32715	32607	32705	32743	32731	32663	32843	
5846	0	2470	4230	4620	8296	1112	0	32730	32626	32676	32755	32770	32807	32767	32903	
5847	0	2442	4212	4616	8248	1113	0	32748	32635	32773	32751	32719	32763	32832	32733	
5848	0	2474	4192	4623	8310	1114	0	32861	32810	32602	32747	32641	32807	32783	32770	
5849	0	2458	4211	4631	8293	1115	0	32847	32797	32575	32718	32691	32855	32749	32855	
5850	0	2447	4237	4632	8241	1116	0	32879	32701	32682	32734	32731	32821	32695	32951	
5851	0	2481	4219	4627	8310	1117	0	32810	32757	32671	32675	32726	32869	32759	32902	
5852	0	2467	4193	4651	8236	1118	0	32817	32709	32706	32559	32743	32895	32763	32854	
5853	0	2431	4208	4644	8237	1119	0	32860	32551	32623	32733	32594	32723	32755	32750	
5854	0	2498	4204	4649	8270	1120	0	32816	32617	32700	32851	32525	32732	32663	32751	
5855	0	2456	4178	4626	8272	1121	0	32775	32732	32640	32863	32775	32773	32699	32807	
5856	0	2436	4179	4615	8267	1122	0	32713	32531	32685	32967	32719	32719	32715	32855	
5857	0	2422	4199	4653	8285	1123	0	32765	32590	32575	32859	32775	32695	32727	32775	
5858	0	2426	4187	4644	8248	1124	0	32756	32655	32423	32823	32759	32767	32599	32860	
5859	0	2463	4201	4684	8264	1125	0	32691	32564	32367	32749	32982	32714	32623	32918	
5860	0	2446	4224	4674	8304	1126	0	32630	32626	32275	32659	32863	32605	32356	32861	
5861	0	2448	4182	4675	8297	1127	0	32629	32617	32309	32731	32643	32683	32545	32847	
5862	0	2466	4188	4655	8320	1128	0	32519	32643	32399	32719	32598	32679	32502	32871	
5863	0	2438	4183	4685	8312	1129	0	32610	32761	32439	32727	32685	32733	32621	32799	
5864	0	2532	4178	4655	8288	1130	0	32606	32839	32357	32615	32507	32703	32573	32811	
5865	0	2469	4196	4666	8274	1131	0	32609	32759	32335	32518	32647	32750	32639	32775	
5866	0	2427	4208	4669	8260	1132	0	32641	32767	32349	32647	32823	32854	32647	32761	
5867	0	2468	4233	4640	8241	1133	0	32701	32852	32495	32615	32583	32805	32692	32763	
5868	0	2449	4204	4605	8278	1134	0	32775	32722	32412	32459	32524	32807	32732	32647	
5869	0	2470	4226	4668	8324	1135	0	32767	32843	32452	32644	32427	32860	32741	32621	
5870	0	2448	4183	4702	8304	1136	0	32836	32935	32621	32619	32479	32903	32735	32623	
5871	0	2468	4177	4645	8284	1137	0	32933	33011	32831	32543	32623	32911	32735	32598	
5872	0	2454	4164	4670	8240	1138	0	32911	33015	32820	32749	32935	32902	32577	32602	
5873	0	2440	4194	4644	8298	1139	0	32890	32845	32839	32661	33089	32898	32775	32639	
5874	0	2465	4216	4660	8287	1140	0	32893	32961	32767	32719	33047	32767	32785	32631	
5875	0	2462	4216	4660	8272	1141	0	32932	32959	32765	32815	33018	32797	32879	32609	
5876	0	2468	4170	4685	8272	1142	0	32909	32887	32735	32841	32865	32807	32593	32643	
5877	0	2457	4244	4682	8261	1143	0	32790	32839	32749	32885	32719	32773	32765	32595	
5878	0	2454	4158	4674	8308	1144	0	32775	32843	32847	32973	32755	32818	32577	32717	
5879	0	2459	4248	4688	8233	1145	0	32774	32709	32683	32935	32827	32839	32735	32764	
5880	0	2449	4192	4666	8296	1146	0	32756	32787	32711	32821	32791	32810	32694	32798	
5881	0	2431	4202	4697	8282	1147	0	32751	32862	32675	32703	32703	32804	32479	32798	
5882	0	2477	4188	4666	8302	1148	0	32777	32839	32623	32762	32743	32797	32621	32803	
5883	0	2419	4212	4654	8258	1149	0	32775	32804	32721	32671	32715	32789	32519	32743	
5884	0	2453	4211	4650	8284	1150	0	32773	32735	32829	32727	32811	32791	32791	32743	
5885	0	2462	4218	4700	8256	1151	0	32820	32727	32845	32718	32798	32807	32703	32631	
5886	0	2462	4217	4651	8265	1152	0	32795	32647	32803	32662	32707	32783	32923	32658	
5887	0	2431	4221	4707	8314	1153	0	32820	32644	32809	32831	32717	32877	33015	32596	
5888	0	2469	4222	4718	8260	1154	0	32834	32527	32754	32951	32876	32791	32977	32546	
5889	0	2435	4169	4665	8280	1155	0	32898	32503	32887	32903	32839	32759	33159	32533	
5890	0	2403	4196	4683	8269	1156	0	32911	32375	33087	33059	32813	32742	33175	32475	
5891	0	2456	4212	4708	8297	1157	0	32895	32355	33098	33063	32851	32647	33271	32487	
5892	0	2477	4205	4672	8233	1158	0	32925	32437	32962	32925	32948	32707	33287	32505	
5893	0	2462	4201	4704	8277	1159	0	32924	32489	32978	33019	32887	32694	33127	32724	
5894	0	2454	4216	4704	8256	1160	0	32922	32489	33103	32834	32835	32687	33223	32646	
5895	0	2448	4226	4741	8276	1161	0	32918	32495	33095	32797	32775	32559	33230	32453	
5896	0	2412	4205	4678	8308	1162	0	32774	32567	33006	32903	32743	32519	33039	32550	
5897	0	2466	4178	4698	8294	1163	0	32623	32423	32815	32919	32735	32555	32919	32751	
5898	0	2461	4208	4720	8286	1164	0	32628	32499	32683	32647	32709	32607	32703	32763	
5899	0	2456	4232	4658	8263	1165	0	32615	32543	32631	32581	32701	32711	32575	32853	
5900	0	2424	4209	4720	8261	1166	0	32573	32637	32463	32357	32711	32735	32391	33078	
5901	0	2420	4198	4697	8276	1167	0	32602	32617	32574	32475	32681	32715	32404	33031	
5902	0	2461	4232	4694	8267	1168	0	32629	32691	32583	32671	32617	32679	32166	33041	
5903	0	2419	4216	4703	8297	1169	0	32532	32655	32463	32647	32527	32615	32182	33056	
5904	0	2431	4230	4656	8282	1170	0	32578	32855	32362	32661	32613	32749	32322	33071	
5905	0	2463	4179	4688	8265	1171	0	32607	32823	32381	32839	32537	32567	32263	33190	
5906	0	2462	4216	4648	8251	1172	0	32653	32670	32263	32832	32455	32887	32343	33116	
5907	0	2417	4196	4709	8241	1173	0	32615	32837	32385	32965	32539	32727	32337	33001	
5908	0	2429	4200	4711	8277	1174	0	32622	32851	32471	32967	32534	32694	32199	33230	
5909	0	2464	4236	4676	8277	1175	0	32694	32751	32487	32835	32515	32736	32239	33266	
5910	0	2445	4207	4717	8235	1176	0	32661	32823	32391	32749	32647	32773	32311	33239	
5911	0	2429	4188	4752	8225	1177	0	32576	32821	32381	32859	32628	32759	32404	33159	
5912	0	2410	4199	4703	8272	1178	0	32593	32901	32505	32707	32695	32775	32493	33039	
5913	0	2392	4184	4704	8290	1179	0	32644	32642	32340	32663	32643	32583	32481	32885	
5914	0	2398	4202	4700	8286	1180	0	32696	32751	32430	32501	32541	32826	32541	32913	
5915	0	2447	4228	4702	8257	1181	0	32693	32641	32343	32459	32723	32765	32431	32943	
5916	0	2433	4194	4712	8288	1182	0	32772	32658	32574	32539	32783	32663	32462	32807	
5917	0	2411	4200	4732	8292	1183	0	32703	32679	32722	32431	32743	32811	32615	32487	
5918	0	2386	4210	4694	8262	1184	0	32751	32705	32439	32639	32687	32810	32647	32351	
5919	0	2493	4217	4680	8257	1185	0	32857	32711	32615	32677	32766	32813	32772	32519	
5920	0	2424	4216	4725	8226	1186	0	32883	32717	32681	32711	32837	32718	32586	32519	
5921	0	2417	4211	4682	8258	1187	0	32843	32719	32669	32794	32870	32761	32701	32465	
5922	0	2426	4204	4715	8256	1188	0	32805	32815	32743	32834	32738	32702	32631	32519	
5923	0	2420	4220	4749	8255	1189	0	32709	32700	32628	32838	32655	32631	32812	32591	
5924	0	2468	4229	4751	8253	1190	0	32741	32675	32662	32863	32524	32719	32813	32631	
5925	0	2407	4250	4663	8272	1191	0	32772	32743	32711	32711	32565	32639	32787	32715	
5926	0	2448	4187	4760	8237	1192	0	32815	32871	32802	32846	32698	32707	32885	32803	
5927	0	2410	4189	4693	8258	1193	0	32890	32898	32818	32887	32919	32799	32677	32787	
5928	0	2421	4184	4734	8281	1194	0	32832	32827	32684	32837	32965	32839	32839	32660	
5929	0	2442	4222	4744	8253	1195	0	32739	32795	32538	32892	32941	32823	32629	32797	
5930	0	2431	4172	4728	8248	1196	0	32790	32811	32622	32862	32873	32811	32715	32711	
5931	0	2397	4253	4716	8230	1197	0	32695	32804	32687	32735	32836	32853	32671	32629	
5932	0	2384	4214	4726	8268	1198	0	32767	32726	32718	32843	32773	32837	32742	32726	
5933	0	2448	4221	4680	8248	1199	0	32716	32797	32630	32868	32681	32758	32757	32775	
5934	0	2372	4197	4740	8282	1200	0	32770	32823	32615	32669	32718	32692	32721	32835	
5935	0	2384	4220	4770	8233	1201	0	32800	32821	32669	32723	32587	32679	32702	33103	
5936	0	2405	4164	4727	8246	1202	0	32796	32830	32804	32614	32615	32799	32797	32943	
5937	0	2351	4198	4692	8276	1203	0	32783	32802	32855	32646	32671	32875	32667	32715	
5938	0	2375	4216	4720	8270	1204	0	32791	32643	32573	32583	32903	32881	32749	32805	
5939	0	2389	4223	4691	8268	1205	0	32784	32569	32554	32487	32830	32847	32647	32919	
5940	0	2436	4186	4710	8256	1206	0	32773	32723	32621	32647	32662	32895	32751	32813	
5941	0	2412	4202	4706	8238	1207	0	32794	32711	32723	32639	32613	32852	32687	32738	
5942	0	2405	4219	4727	8224	1208	0	32786	32747	32759	32575	32819	32870	32807	32647	
5943	0	2431	4195	4733	8236	1209	0	32756	32717	32621	32807	32825	32883	32773	32673	
5944	0	2377	4209	4695	8220	1210	0	32704	32667	32628	32695	32927	32943	32767	32687	
5945	0	2358	4194	4746	8289	1211	0	32751	32724	32715	32542	32727	32877	32741	32679	
5946	0	2396	4225	4712	8232	1212	0	32750	32743	32770	32691	32679	32871	32773	32615	
5947	0	2372	4216	4723	8230	1213	0	32796	32774	32511	32687	32711	32869	32831	32663	
5948	0	2414	4188	4776	8278	1214	0	32815	32703	32635	32546	32679	32871	32807	32703	
5949	0	2428	4240	4677	8282	1215	0	32816	32663	32803	32679	32753	32835	32694	32771	
5950	0	2396	4229	4736	8237	1216	0	32836	32773	32814	32767	32765	32799	32603	32835	
5951	0	2423	4184	4723	8273	1217	0	32858	32789	32804	32644	32751	32811	32707	32765	
5952	0	2403	4200	4741	8214	1218	0	32794	32702	32735	32749	32786	32837	32615	32706	
5953	0	2413	4192	4683	8242	1219	0	32765	32647	32638	32695	32663	32903	32754	32745	
5954	0	2424	4186	4742	8220	1220	0	32793	32789	32677	32931	32644	32927	32829	32799	
5955	0	2369	4205	4710	8242	1221	0	32741	32623	32578	32933	32751	32844	32677	32814	
5956	0	2396	4218	4755	8224	1222	0	32752	32545	32326	32832	32662	32689	32637	32723	
5957	0	2406	4205	4780	8252	1223	0	32709	32556	32229	32863	32623	32638	32439	32726	
5958	0	2411	4222	4716	8240	1224	0	32716	32703	32426	32701	32703	32663	32566	32811	
5959	0	2354	4209	4661	8237	1225	0	32695	32799	32615	32869	32713	32675	32455	32763	
5960	0	2407	4216	4736	8244	1226	0	32692	32743	32631	32823	32746	32639	32701	32743	
5961	0	2382	4243	4752	8202	1227	0	32823	32694	32733	32621	32743	32647	32896	32660	
5962	0	2387	4209	4762	8197	1228	0	32800	32727	32834	32786	32769	32610	32855	32727	
5963	0	2400	4203	4785	8257	1229	0	32775	32759	32863	32735	32685	32621	32598	32787	
5964	0	2386	4201	4740	8260	1230	0	32846	32819	32861	32791	32770	32743	32765	32679	
5965	0	2417	4222	4769	8209	1231	0	32834	32869	32646	32775	32815	32775	32804	32662	
5966	0	2384	4232	4730	8217	1232	0	32863	32956	32511	32742	32743	32811	32801	32701	
5967	0	2350	4180	4736	8225	1233	0	32840	32831	32559	32671	32667	32815	32775	32711	
5968	0	2422	4200	4768	8250	1234	0	32775	32867	32611	32671	32813	32919	32707	32775	
5969	0	2411	4170	4750	8231	1235	0	32806	32878	32707	32756	32797	32837	32701	32758	
5970	0	2377	4247	4769	8190	1236	0	32736	32766	32645	32807	32804	32858	32647	32734	
5971	0	2378	4216	4696	8209	1237	0	32775	32783	32763	32691	32685	32844	32742	32803	
5972	0	2406	4211	4753	8228	1238	0	32735	32790	32759	32829	32727	32719	32719	32735	
5973	0	2378	4213	4738	8248	1239	0	32809	32807	32763	32685	32767	32734	32742	32687	
5974	0	2379	4237	4738	8208	1240	0	32757	32748	32855	32799	32775	32643	32698	32732	
5975	0	2403	4235	4749	8220	1241	0	32786	32775	32851	32787	32827	32626	32771	32847	
5976	0	2378	4190	4757	8192	1242	0	32879	32825	32687	32804	32703	32583	32495	32859	
5977	0	2365	4184	4688	8216	1243	0	32795	32669	32549	32724	32601	32572	32631	32819	
5978	0	2367	4212	4725	8184	1244	0	32775	32703	32421	32647	32730	32543	32565	32839	
5979	0	2371	4212	4734	8196	1245	0	32826	32795	32534	32732	32717	32498	32669	32893	
5980	0	2408	4227	4711	8236	1246	0	32817	32771	32647	32597	32763	32543	32615	32915	
5981	0	2386	4202	4764	8241	1247	0	32879	32655	32540	32503	32615	32875	32747	32767	
5982	0	2405	4236	4736	8224	1248	0	32813	32757	32518	32741	32733	32839	32709	32721	
5983	0	2386	4221	4745	8230	1249	0	32727	32711	32495	32677	32790	32815	32799	32727	
5984	0	2348	4188	4733	8213	1250	0	32681	32647	32495	32732	32903	32769	32740	32743	
5985	0	2407	4210	4798	8164	1251	0	32647	32676	32607	32791	32715	32765	32710	32775	
5986	0	2391	4220	4759	8200	1252	0	32664	32819	32639	32775	32607	32787	32660	32687	
5987	0	2392	4175	4726	8273	1253	0	32745	32725	32675	32923	32767	32739	32738	32697	
5988	0	2397	4176	4766	8248	1254	0	32791	32854	32763	32935	32714	32771	32694	32671	
5989	0	2363	4222	4766	8204	1255	0	32787	32703	32533	32783	32736	32807	32710	32762	
5990	0	2397	4184	4725	8236	1256	0	32738	32647	32594	32871	32707	32757	32687	32755	
5991	0	2308	4229	4776	8193	1257	0	32711	32660	32743	32877	32727	32823	32631	32789	
5992	0	2363	4175	4757	8218	1258	0	32730	32725	32671	32887	32759	32903	32466	32759	
5993	0	2378	4189	4740	8221	1259	0	32773	32751	32611	32806	32807	32851	32603	32735	
5994	0	2384	4214	4726	8184	1260	0	32794	32775	32581	32667	32635	32757	32459	32877	
5995	0	2372	4208	4758	8187	1261	0	32827	32797	32598	32662	32605	32822	32626	32807	
5996	0	2375	4196	4721	8212	1262	0	32827	32647	32524	32683	32743	32699	32479	32767	
5997	0	2364	4192	4784	8190	1263	0	32754	32685	32647	32734	32599	32619	32565	32785	
5998	0	2367	4220	4738	8229	1264	0	32748	32665	32707	32635	32653	32537	32436	32868	
5999	0	2353	4204	4724	8221	1265	0	32735	32757	32898	32479	32679	32583	32583	32839	
6000	0	2403	4189	4802	8215	1266	0	32719	32733	32807	32647	32819	32629	32582	32708	
6001	0	2368	4205	4733	8252	1267	0	32700	32727	32738	32519	32899	32701	32831	32711	
6002	0	2343	4194	4767	8200	1268	0	32646	32743	32564	32575	32882	32818	32699	32794	
6003	0	2337	4219	4740	8168	1269	0	32722	32747	32491	32503	32735	32713	32763	32735	
6004	0	2336	4172	4785	8205	1270	0	32642	32601	32483	32647	32491	32747	32755	32721	
6005	0	2318	4206	4775	8178	1271	0	32701	32685	32450	32751	32531	32799	32655	32763	
6006	0	2357	4201	4788	8189	1272	0	32792	32727	32585	32783	32671	32823	32690	32756	
6007	0	2350	4235	4793	8220	1273	0	32748	32759	32571	32956	32722	32826	32620	32706	
6008	0	2369	4200	4787	8226	1274	0	32716	32785	32691	32887	33125	32839	32725	32692	
6009	0	2327	4196	4772	8213	1275	0	32732	32671	32711	33039	32871	32879	32647	32755	
6010	0	2380	4175	4793	8232	1276	0	32775	32740	32575	33122	32775	32811	32861	32763	
6011	0	2294	4194	4772	8225	1277	0	32725	32681	32647	33042	32775	32811	32763	32735	
6012	0	2358	4196	4795	8184	1278	0	32838	32742	32767	33139	32775	32782	32837	32686	
6013	0	2365	4216	4761	8228	1279	0	32796	32843	32632	33053	32731	32711	32775	32647	
6014	0	2339	4187	4765	8201	1280	0	32811	32807	32573	32711	32647	32835	32783	32727	
6015	0	2342	4214	4769	8239	1281	0	32845	32735	32607	32551	32823	32787	32623	32871	
6016	0	2341	4192	4771	8210	1282	0	32762	32735	32749	32450	32717	32732	32783	32884	
6017	0	2373	4188	4785	8176	1283	0	32769	32633	32603	32607	32751	32643	32699	32885	
6018	0	2342	4235	4789	8205	1284	0	32846	32663	32813	32639	32723	32771	32621	32797	
6019	0	2332	4196	4759	8210	1285	0	32887	32823	32695	32719	32766	32761	32663	32799	
6020	0	2386	4211	4776	8253	1286	0	32733	32804	32738	32812	32767	32789	32522	32739	
6021	0	2308	4224	4820	8228	1287	0	32719	32775	32771	32815	32605	32767	32687	32829	
6022	0	2341	4188	4801	8236	1288	0	32684	32758	32550	32775	32635	32775	32567	32822	
6023	0	2372	4222	4742	8228	1289	0	32740	32764	32450	32857	32611	32717	32710	32773	
6024	0	2323	4179	4786	8216	1290	0	32767	32727	32535	32806	32575	32705	32615	32735	
6025	0	2353	4224	4808	8180	1291	0	32796	32855	32738	32811	32555	32699	32783	32764	
6026	0	2350	4194	4801	8210	1292	0	32797	32870	32745	32719	32595	32799	32647	32725	
6027	0	2382	4208	4764	8184	1293	0	32767	32756	32863	32546	32671	32937	32743	32701	
6028	0	2342	4198	4755	8216	1294	0	32791	32727	32663	32611	32773	32887	32575	32711	
6029	0	2366	4208	4795	8236	1295	0	32772	32635	32756	32663	32843	32954	32739	32735	
6030	0	2359	4228	4781	8233	1296	0	32769	32710	32583	32611	32839	32903	32647	32721	
6031	0	2339	4193	4784	8184	1297	0	32807	32764	32639	32749	32868	32983	32717	32615	
6032	0	2327	4217	4774	8211	1298	0	32809	32759	32545	32685	32540	32641	32647	32663	
6033	0	2388	4221	4744	8200	1299	0	32748	32739	32579	32775	32470	32587	32515	33013	
6034	0	2354	4232	4792	8190	1300	0	32725	32711	32590	32895	32601	32491	32620	33063	
6035	0	2309	4206	4815	8222	1301	0	32690	32615	32626	32772	32967	32517	32561	33097	
6036	0	2306	4202	4795	8218	1302	0	32747	32620	32727	32789	33039	32531	32621	33187	
6037	0	2372	4208	4815	8251	1303	0	32751	32631	32763	32690	32902	32807	32575	33474	
6038	0	2360	4232	4797	8236	1304	0	32745	32647	32607	32815	32743	33075	32759	33415	
6039	0	2386	4215	4827	8246	1305	0	32749	32695	32599	32823	32512	32978	33007	33191	
6040	0	2346	4215	4784	8188	1306	0	32775	32746	32500	32662	32489	32903	32745	32477	
6041	0	2321	4192	4788	8231	1307	0	32796	32713	32462	32767	32427	33045	32759	32085	
6042	0	2308	4239	4841	8224	1308	0	32801	32708	32523	32703	32301	32871	32671	31951	
6043	0	2308	4229	4812	8208	1309	0	32785	32775	32607	32819	32567	32799	32701	32211	
6044	0	2380	4220	4819	8227	1310	0	32759	32834	32533	32775	32871	32759	32661	32437	
6045	0	2370	4253	4821	8202	1311	0	32738	32757	32443	32774	32970	32738	32799	32445	
6046	0	2344	4179	4816	8222	1312	0	32682	32713	32607	32637	32887	32775	32595	32457	
6047	0	2328	4206	4808	8242	1313	0	32639	32813	32804	32579	32738	32710	32665	32707	
6048	0	2337	4220	4808	8219	1314	0	32775	32726	32711	32638	32879	32724	32449	32773	
6049	0	2345	4242	4813	8217	1315	0	32774	32703	32813	32695	33039	32793	32647	32626	
6050	0	2370	4209	4786	8228	1316	0	32726	32773	32549	32597	33093	32788	32642	32409	
6051	0	2333	4210	4808	8245	1317	0	32774	32862	32551	32599	32735	32725	32749	32501	
6052	0	2363	4176	4830	8210	1318	0	32740	32823	32639	32619	32714	32869	32645	32639	
6053	0	2306	4202	4837	8252	1319	0	32751	32742	32594	32641	32853	32894	32611	32805	
6054	0	2307	4195	4812	8256	1320	0	32844	32634	32735	32612	32758	32683	32677	32782	
6055	0	2390	4191	4860	8246	1321	0	32814	32759	32726	32673	32660	32611	32695	32690	
6056	0	2319	4178	4803	8227	1322	0	32792	32775	32623	32585	32629	32759	32659	32771	
6057	0	2372	4201	4838	8231	1323	0	32781	32732	32679	32707	32579	32757	32805	32710	
6058	0	2315	4209	4850	8222	1324	0	32795	32709	32759	32634	32545	32775	32591	32679	
6059	0	2330	4185	4844	8258	1325	0	32718	32719	32655	32837	32583	32820	32711	32844	
6060	0	2317	4233	4848	8248	1326	0	32813	32821	32599	32783	32765	32763	32538	32903	
6061	0	2330	4202	4792	8232	1327	0	32824	32839	32677	32775	32807	32799	32659	32847	
6062	0	2302	4198	4831	8196	1328	0	32844	32839	32685	32774	32814	32878	32711	32867	
6063	0	2337	4190	4795	8225	1329	0	32784	32759	32703	32727	32733	32830	32630	32903	
6064	0	2356	4157	4809	8238	1330	0	32837	32657	32644	32769	32687	32791	32690	32924	
6065	0	2330	4225	4829	8252	1331	0	32792	32707	32367	32807	32719	32735	32479	32865	
6066	0	2361	4200	4840	8213	1332	0	32769	32815	32530	32807	32785	32647	32669	32796	
6067	0	2362	4244	4813	8265	1333	0	32771	32821	32405	32809	32758	32615	32731	32845	
6068	0	2344	4174	4861	8221	1334	0	32780	32731	32501	32807	32725	32751	32582	32855	
6069	0	2363	4185	4835	8243	1335	0	32671	32647	32543	32705	32743	32671	32623	32807	
6070	0	2329	4214	4843	8258	1336	0	32753	32635	32535	32858	32711	32823	32543	32775	
6071	0	2349	4218	4811	8224	1337	0	32830	32695	32578	32855	32783	32775	32660	32765	
6072	0	2357	4177	4834	8211	1338	0	32814	32677	32599	32831	32607	32723	32692	32791	
6073	0	2340	4191	4798	8218	1339	0	32751	32783	32615	32860	32610	32805	32709	32775	
6074	0	2341	4184	4765	8253	1340	0	32783	32802	32735	32671	32758	32763	32727	32831	
6075	0	2299	4213	4848	8208	1341	0	32817	32767	32723	32807	32765	32759	32691	32815	
6076	0	2318	4186	4802	8242	1342	0	32765	32755	32605	32775	32765	32799	32735	32775	
6077	0	2341	4212	4856	8233	1343	0	32772	32631	32559	32825	32708	32823	32609	32694	
6078	0	2311	4250	4805	8261	1344	0	32743	32571	32679	32735	32773	32813	32783	32722	
6079	0	2363	4226	4765	8200	1345	0	32735	32683	32695	32799	32751	32820	32623	32711	
6080	0	2327	4164	4772	8233	1346	0	32722	32731	32698	32841	32705	32795	32702	32743	
6081	0	2345	4198	4807	8238	1347	0	32708	32711	32703	32839	32730	32839	32690	32691	
6082	0	2352	4167	4761	8216	1348	0	32708	32687	32422	32804	32675	32851	32759	32709	
6083	0	2340	4196	4813	8228	1349	0	32751	32701	32723	32785	32695	32918	32681	32719	
6084	0	2361	4126	4832	8250	1350	0	32765	32677	32687	32751	32745	32823	32723	32735	
6085	0	2344	4182	4794	8217	1351	0	32720	32647	32703	32723	32791	32869	32647	32743	
6086	0	2357	4229	4817	8225	1352	0	32710	32703	32675	32614	32797	32887	32698	32661	
6087	0	2358	4176	4808	8241	1353	0	32723	32735	32668	32598	32741	32813	32742	32703	
6088	0	2288	4172	4810	8230	1354	0	32724	32733	32655	32714	32683	32739	32731	32839	
6089	0	2329	4167	4827	8243	1355	0	32715	32722	32773	32707	32769	32673	32727	32898	
6090	0	2337	4181	4794	8258	1356	0	32782	32773	32828	32709	32726	32598	32471	32895	
6091	0	2312	4144	4840	8208	1357	0	32799	32735	32831	32719	32683	32599	32586	32927	
6092	0	2372	4210	4794	8246	1358	0	32806	32699	32839	32607	32575	32519	32475	32902	
6093	0	2374	4150	4854	8256	1359	0	32783	32806	32774	32789	32639	32769	32570	32831	
6094	0	2333	4122	4813	8256	1360	0	32796	32791	32719	32745	32699	32794	32588	32698	
6095	0	2343	4198	4837	8247	1361	0	32690	32845	32565	32693	32751	32755	32685	32638	
6096	0	2323	4205	4839	8291	1362	0	32847	32799	32471	32703	32775	32799	32663	32695	
6097	0	2315	4165	4876	8248	1363	0	32844	32727	32458	32587	32726	32711	32795	32679	
6098	0	2335	4158	4809	8227	1364	0	32759	32793	32551	32723	32647	32767	32821	32598	
6099	0	2358	4166	4866	8252	1365	0	32727	32768	32435	32692	32677	32838	32693	32587	
6100	0	2295	4205	4854	8250	1366	0	32713	32791	32399	32773	32735	32700	32723	32714	
6101	0	2342	4142	4834	8251	1367	0	32781	32708	32452	32738	32763	32788	32663	32607	
6102	0	2288	4165	4780	8259	1368	0	32797	32711	32589	32727	32847	32813	32726	32687	
6103	0	2345	4175	4830	8256	1369	0	32735	32639	32527	32815	32769	32807	32575	32743	
6104	0	2340	4165	4831	8240	1370	0	32710	32659	32457	32802	32591	32603	32679	32847	
6105	0	2325	4204	4867	8221	1371	0	32781	32687	32484	32882	32695	32575	32653	33207	
6106	0	2362	4198	4824	8298	1372	0	32728	32735	32537	32771	32687	32883	32573	33271	
6107	0	2312	4168	4852	8244	1373	0	32762	32806	32556	32926	32671	32951	32631	33013	
6108	0	2274	4196	4866	8254	1374	0	32755	32647	32685	32879	32740	32823	32642	32820	
6109	0	2369	4202	4821	8263	1375	0	32756	32713	32791	32821	32621	32743	32724	32765	
6110	0	2315	4206	4825	8246	1376	0	32741	32762	32775	32847	32631	32827	32658	32743	
6111	0	2385	4185	4832	8242	1377	0	32775	32775	32710	32873	32863	32757	32695	32635	
6112	0	2340	4191	4858	8273	1378	0	32843	32715	32762	32695	32947	32818	32547	32738	
6113	0	2316	4178	4772	8242	1379	0	32826	32663	32719	32691	32869	32775	32703	32809	
6114	0	2332	4195	4818	8284	1380	0	32862	32687	32729	32655	32719	32903	32562	32823	
6115	0	2320	4216	4816	8246	1381	0	32818	32711	32755	32749	32818	32799	32679	32747	
6116	0	2352	4208	4811	8293	1382	0	32830	32763	32575	32741	32713	32679	32535	32735	
6117	0	2307	4184	4833	8197	1383	0	32742	32742	32587	32661	32636	32825	32775	32791	
6118	0	2349	4182	4843	8268	1384	0	32703	32738	32660	32678	32637	32793	32773	32807	
6119	0	2322	4205	4792	8247	1385	0	32747	32687	32674	32731	32566	32775	32681	32731	
6120	0	2313	4209	4779	8240	1386	0	32786	32623	32637	32811	32537	32783	32738	32739	
6121	0	2326	4140	4813	8300	1387	0	32767	32635	32644	32847	32633	32811	32519	32775	
6122	0	2277	4169	4776	8267	1388	0	32798	32629	32612	32815	32708	32601	32663	32756	
6123	0	2305	4203	4795	8246	1389	0	32761	32532	32790	32719	32802	32575	32663	32735	
6124	0	2329	4172	4830	8266	1390	0	32743	32723	32485	32647	32794	32747	32829	32759	
6125	0	2320	4181	4792	8244	1391	0	32700	32799	32471	32821	32703	32679	32692	32775	
6126	0	2325	4150	4789	8247	1392	0	32686	32772	32549	32794	32671	32754	32699	32793	
6127	0	2322	4159	4781	8284	1393	0	32739	32791	32531	32647	32757	32775	32718	32775	
6128	0	2327	4190	4799	8217	1394	0	32791	32755	32598	32719	32743	32746	32711	32730	
6129	0	2318	4194	4856	8257	1395	0	32705	32631	32510	32753	32625	32771	32719	32807	
6130	0	2305	4154	4792	8237	1396	0	32737	32836	32490	32722	32741	32799	32711	32775	
6131	0	2325	4192	4793	8260	1397	0	32742	32765	32655	32653	32769	32818	32694	32737	
6132	0	2343	4164	4785	8260	1398	0	32749	32763	32568	32679	32790	32807	32765	32758	
6133	0	2342	4177	4762	8262	1399	0	32734	32771	32585	32775	32831	32835	32663	32731	
6134	0	2352	4197	4781	8260	1400	0	32719	32679	32717	32839	32627	32711	32719	32836	
6135	0	2314	4168	4814	8232	1401	0	32640	32675	32677	32607	32748	32715	32643	32764	
6136	0	2320	4178	4822	8242	1402	0	32756	32775	32637	32659	32671	32599	32724	32799	
6137	0	2325	4112	4826	8258	1403	0	32753	32775	32564	32701	32783	32598	32631	32794	
6138	0	2326	4187	4776	8253	1404	0	32836	32671	32692	32551	32821	32855	32633	32819	
6139	0	2281	4216	4786	8264	1405	0	32854	32675	32722	32543	32757	32793	32743	32711	
6140	0	2320	4182	4813	8229	1406	0	32825	32795	32527	32500	32812	32851	32767	32764	
6141	0	2308	4140	4808	8302	1407	0	32855	32787	32471	32435	32731	32811	32714	32790	
6142	0	2308	4153	4765	8259	1408	0	32829	32706	32503	32563	32716	32807	32719	32765	
6143	0	2294	4196	4781	8230	1409	0	32847	32843	32647	32558	32804	32838	32547	32731	
6144	0	2355	4144	4808	8264	1410	0	32791	32727	32707	32647	32703	32831	32739	32671	
6145	0	2298	4190	4837	8253	1411	0	32784	32726	32718	32722	32815	32638	32559	32631	
6146	0	2289	4148	4768	8233	1412	0	32728	32855	32799	32761	32791	32660	32771	32775	
6147	0	2312	4166	4796	8224	1413	0	32753	32763	32815	32861	32729	32647	32669	32794	
6148	0	2303	4172	4759	8234	1414	0	32740	32719	32871	32903	32749	32611	32727	32691	
6149	0	2376	4153	4798	8272	1415	0	32708	32758	32583	32988	32806	32767	32621	32662	
6150	0	2304	4149	4796	8248	1416	0	32724	32787	32763	33199	32831	32749	32713	32719	
6151	0	2309	4176	4773	8266	1417	0	32738	32807	32790	33204	32623	32791	32612	32739	
6152	0	2307	4132	4796	8272	1418	0	32745	32839	32735	33189	32640	32771	32632	32773	
6153	0	2268	4160	4771	8209	1419	0	32807	32815	32722	33097	32708	32819	32470	32751	
6154	0	2362	4210	4763	8286	1420	0	32728	32775	32611	32921	32772	32867	32644	32767	
6155	0	2320	4132	4764	8229	1421	0	32749	32676	32679	32955	32743	32807	32613	32796	
6156	0	2317	4150	4838	8310	1422	0	32706	32660	32722	32743	32748	32767	32791	32694	
6157	0	2278	4205	4759	8214	1423	0	32707	32515	32733	32863	32691	32685	32723	32715	
6158	0	2340	4137	4816	8227	1424	0	32733	32623	32661	32810	32647	32607	32820	32703	
6159	0	2344	4137	4781	8250	1425	0	32706	32638	32503	32743	32722	32810	32805	32757	
6160	0	2275	4166	4803	8274	1426	0	32730	32707	32557	32677	32783	32735	32703	32775	
6161	0	2321	4174	4822	8242	1427	0	32743	32719	32533	32577	32722	32747	32693	32742	
6162	0	2335	4175	4809	8249	1428	0	32751	32717	32443	32609	32713	32719	32631	32794	
6163	0	2290	4150	4793	8240	1429	0	32767	32686	32534	32534	32757	32834	32763	32825	
6164	0	2292	4177	4764	8227	1430	0	32780	32703	32765	32679	32709	32759	32671	32807	
6165	0	2241	4155	4780	8216	1431	0	32765	32755	32767	32775	32671	32823	32793	32765	
6166	0	2259	4166	4769	8259	1432	0	32722	32689	32647	32642	32773	32855	32773	32788	
6167	0	2310	4163	4771	8253	1433	0	32784	32671	32515	32647	32743	32807	32724	32821	
6168	0	2348	4168	4774	8250	1434	0	32775	32671	32510	32549	32771	32727	32762	32791	
6169	0	2304	4112	4766	8261	1435	0	32831	32721	32503	32564	32730	32711	32634	32714	
6170	0	2324	4156	4740	8272	1436	0	32764	32708	32487	32722	32687	32609	32703	32675	
6171	0	2292	4147	4776	8250	1437	0	32706	32689	32453	32729	32666	32533	32612	32759	
6172	0	2323	4155	4768	8246	1438	0	32692	32815	32475	32749	32700	32529	32639	32826	
6173	0	2312	4164	4814	8258	1439	0	32703	32753	32519	32775	32786	32708	32631	32883	
6174	0	2323	4179	4787	8261	1440	0	32630	32765	32581	32763	32727	32738	32615	32854	
6175	0	2275	4138	4830	8274	1441	0	32644	32759	32676	32749	32739	32789	32667	32819	
