# OpenSignals Text File Format
# {"00:07:80:3B:46:38": {"sensor": ["CUSTOM/0.5/1.0/V", "CUSTOM/0.5/1.0/V", "CUSTOM/0.5/1.0/V", "CUSTOM/0.5/1.0/V", "CUSTOM/0.5/1.0/V", "CUSTOM/0.5/1.0/V", "CUSTOM/0.5/1.0/V", "CUSTOM/0.5/1.0/V"], "device name": "EMGs", "column": ["nSeq", "DI", "RA_L", "RA_R", "OE_L", "OE:R", "IL_L", "IL_R", "MF_L", "MF_R"], "sync interval": 2, "time": "17:22:3.985", "comments": "", "device connection": "BTH00:07:80:3B:46:38", "channels": [1, 2, 3, 4, 5, 6, 7, 8], "date": "2017-6-1", "mode": 0, "digital IO": [0, 1], "firmware version": 772, "device": "biosignalsplux", "position": 0, "sampling rate": 1000, "label": ["RA_L", "RA_R", "OE_L", "OE:R", "IL_L", "IL_R", "MF_L", "MF_R"], "resolution": [16, 16, 16, 16, 16, 16, 16, 16], "special": [{}, {}, {}, {}, {}, {}, {}, {}]}}
# EndOfHeader
0	0	32740	32743	32733	32789	32919	33019	32791	32423	
1	0	32871	32797	32599	32677	32685	33491	32414	32685	
2	0	32858	32754	32743	32839	32771	33239	32338	32829	
3	0	32677	32694	32851	32733	33519	32711	32721	32903	
4	0	32717	32543	32834	32660	33083	32604	32925	33103	
5	0	32715	32803	32645	32555	32708	32788	32805	33595	
6	0	32767	32645	32617	32725	32855	32604	32622	33334	
7	0	32729	32543	32786	32836	32715	32903	32485	32215	
8	0	32782	32723	32775	32775	32969	33209	31591	32885	
9	0	32694	32822	32655	32767	33851	33027	31185	32972	
10	0	32694	32553	32735	32799	33114	33564	31895	33143	
11	0	32633	32628	32646	32789	32593	32219	33543	31239	
12	0	32686	32525	32685	32855	32924	31949	33919	30969	
13	0	32754	32708	32619	32647	33842	32061	34565	31678	
14	0	32797	32727	32747	32781	33143	32327	34041	32903	
15	0	32729	32919	32756	32831	32558	32477	33074	33319	
16	0	32711	32455	32611	32723	32749	32691	32727	32599	
17	0	32741	32543	32692	32623	32315	32707	32662	32463	
18	0	32655	32516	32691	32749	32291	32911	32533	32493	
19	0	32699	32751	32722	32743	32155	32965	32461	32898	
20	0	32751	32537	32765	32524	32615	32814	32614	32929	
21	0	32726	32763	32711	32623	32351	32551	32814	32845	
22	0	32948	32775	32709	32759	32271	32627	32698	32994	
23	0	32866	32775	32726	32631	32711	32911	32631	32969	
24	0	32799	32621	32739	32639	32621	33079	32307	33298	
25	0	32879	32773	32863	32769	32340	32903	32351	32721	
26	0	32876	32657	32809	32829	33107	32935	32130	32979	
27	0	32802	32726	32717	32593	33657	32949	31895	32943	
28	0	32869	32823	32727	32775	33283	33015	32143	32547	
29	0	32844	32577	32733	32815	32911	32711	32065	32705	
30	0	32749	32602	32609	32743	33511	32749	32951	32415	
31	0	32758	32679	32748	32655	33101	32719	33789	32871	
32	0	32855	32596	32633	32807	32077	32847	33607	32719	
33	0	32811	32756	32711	32795	32543	33159	32681	32669	
34	0	32811	32701	32699	32749	32639	33239	32171	32595	
35	0	32781	32663	32538	32586	32759	32697	32303	32702	
36	0	32762	32739	32603	32869	32903	32566	32599	32770	
37	0	32796	32567	32702	32807	33751	32373	32498	32207	
38	0	32722	32599	32941	32667	34153	32067	32661	32903	
39	0	32799	32511	32884	32551	32843	32067	33879	32413	
40	0	32726	32717	32709	32791	31719	32218	34311	32311	
41	0	32834	32735	32703	32909	30153	32927	32561	32459	
42	0	32645	32566	32660	32751	31890	32245	33065	32463	
43	0	32948	32679	32721	32627	32375	32716	33893	31989	
44	0	32833	32687	32610	32811	32979	32695	33494	32452	
45	0	32763	32660	32601	32763	33927	32772	33862	32634	
46	0	32590	32567	32645	32898	32903	33010	33114	32540	
47	0	32661	32732	32463	32706	31825	33521	32351	32343	
48	0	32919	32687	32767	32722	31927	33277	32263	32802	
49	0	32870	32657	32813	32669	32849	32492	32662	33093	
50	0	32758	32593	32955	32675	33453	32511	32647	32790	
51	0	32636	32715	33011	32679	33461	32835	32701	32481	
52	0	32486	32365	32959	32533	33060	32959	32329	32687	
53	0	32612	32509	32890	32685	32340	32959	32359	32342	
54	0	32751	32615	32823	32838	31927	33391	32483	32295	
55	0	32829	32591	32742	32589	32286	33095	32349	32659	
56	0	32882	32748	32695	32660	32530	32775	32554	32866	
57	0	32871	32751	32535	32925	32623	33084	32573	32871	
58	0	32831	32773	32639	32903	33260	32874	32743	32733	
59	0	32871	32674	32567	32962	33255	32951	32299	33267	
60	0	32819	32647	32634	32742	32711	32838	32245	33246	
61	0	32719	32521	32767	32513	33749	32247	31950	33487	
62	0	32791	32745	32743	32695	33975	32165	31830	33278	
63	0	32895	32565	32587	32821	33719	32303	32255	32711	
64	0	32924	32782	32503	32866	33415	32274	33110	32433	
65	0	32881	32663	32573	32819	32636	32791	32998	32570	
66	0	32799	32775	32691	32558	33343	32867	32901	32717	
67	0	32644	32447	32863	32647	33076	32845	33004	32863	
68	0	32652	32495	32698	32722	32999	32659	33054	32559	
69	0	32699	32716	32705	32731	31943	32946	32951	32719	
70	0	32763	32665	32543	32911	31172	32923	33183	32231	
71	0	32845	32739	32573	32916	31551	33031	33431	32484	
72	0	32860	32623	32643	32603	31771	32783	33559	32593	
73	0	32813	32676	32703	32543	32483	32595	33223	32291	
74	0	32758	32685	32653	32730	32611	32527	33031	32691	
75	0	32748	32507	32754	32754	33014	32625	32871	32598	
76	0	32777	32597	32667	32815	33063	32847	32527	32862	
77	0	32796	32743	32716	32743	32263	32831	32615	32951	
78	0	32775	32543	32815	32631	32881	32639	32839	32330	
79	0	32624	32599	32739	32795	32647	32623	32748	32159	
80	0	32772	32773	32797	32794	32850	32562	32679	32173	
81	0	32694	32613	32822	32845	33223	32667	32445	32567	
82	0	32703	32658	32724	32626	32987	32756	32679	32597	
83	0	32695	32799	32663	32765	32879	33106	32311	33062	
84	0	32781	32595	32671	32725	32847	33127	32479	33068	
85	0	32668	32639	32644	32807	33279	32773	32659	33277	
86	0	32784	32659	32693	32783	32070	33237	32481	32636	
87	0	32790	32841	32647	32567	31783	33445	32103	32457	
88	0	32809	32573	32755	32775	33201	32723	31413	32623	
89	0	32713	32679	32724	32735	33399	32755	32015	32566	
90	0	32770	32727	32529	32811	33193	33198	32871	32739	
91	0	32700	32388	32763	32441	34035	32487	32070	33972	
92	0	32750	32559	32749	32755	33250	32321	33807	33831	
93	0	32768	32594	32598	32841	32573	32306	35223	33069	
94	0	32641	32469	32753	32711	32367	32677	34311	32707	
95	0	32567	32461	32727	32615	32378	32831	33645	30639	
96	0	32719	32670	32741	32855	32578	32151	32951	30780	
97	0	32829	32795	32801	32859	32228	32641	32695	32197	
98	0	32775	32714	32933	32628	32487	32891	32431	32743	
99	0	32711	32807	32815	32815	33063	32722	32516	32525	
100	0	32684	32543	32751	32841	33629	31613	32815	31876	
101	0	32831	32739	32549	32843	33736	31909	33035	32711	
102	0	32843	32797	32690	32715	33180	32583	32815	33519	
103	0	32932	32985	32699	32867	32633	32998	32582	33179	
104	0	32764	32679	32759	32879	32815	33339	31986	33103	
105	0	32784	32586	32811	32563	32497	33619	32023	33124	
106	0	32793	32539	32751	32567	32079	33495	32558	32687	
107	0	32663	32643	32617	32607	32759	33175	32385	33219	
108	0	32644	32671	32775	32803	32942	33061	32353	32861	
109	0	32773	32799	32661	32758	32613	33053	32611	32900	
110	0	32663	32545	32743	32526	32875	32604	33413	32791	
111	0	32684	32453	32735	32647	32887	32333	33138	32831	
112	0	32671	32495	32853	32765	32931	31991	32871	32215	
113	0	32794	32767	32763	32847	32031	32846	32975	31767	
114	0	32916	32764	32679	32855	31809	33723	32855	32061	
115	0	32901	32773	32594	32725	32899	33235	33015	32327	
116	0	32695	32557	32699	32615	32807	32902	32847	32902	
117	0	32683	32631	32567	32749	32631	32743	32677	32786	
118	0	32647	32692	32661	32796	32499	32711	32799	32342	
119	0	32743	32532	32740	32835	32263	32647	32818	32507	
120	0	32768	32583	32631	32607	32601	32915	32639	32483	
121	0	32737	32514	32755	32719	32765	32900	32756	33007	
122	0	32689	32575	32775	32731	32623	32567	32743	33015	
123	0	32727	32419	32687	32772	33287	32079	32534	33188	
124	0	32773	32655	32707	32716	33055	32327	32785	33026	
125	0	32681	32573	32741	32566	33255	32655	32423	33943	
126	0	32741	32503	32837	32725	33727	32678	32739	33603	
127	0	32775	32590	32842	32793	33243	32758	32891	32199	
128	0	32767	32644	32707	32832	31623	33599	32351	32135	
129	0	32864	32691	32607	32647	32372	33395	32203	31715	
130	0	32895	32815	32575	32742	33207	32541	32935	31493	
131	0	32911	32735	32607	32787	34023	31870	32847	32908	
132	0	32831	32727	32527	32839	32877	32502	33157	33638	
133	0	32630	32723	32741	32863	33629	32605	32647	33911	
134	0	32823	32697	32701	32967	33483	32482	33325	32603	
135	0	32837	32823	32839	32900	32239	32535	33614	31719	
136	0	32743	32829	32823	32757	32885	33079	33350	31779	
137	0	32727	32445	32812	32707	33647	33003	32903	32647	
138	0	32681	32575	32925	32604	32519	32879	32663	33023	
139	0	32816	32687	32739	32707	30997	32803	32797	32379	
140	0	32799	32435	32791	32787	30901	32647	32676	32391	
141	0	32846	32775	32762	32944	31469	32947	32301	32666	
142	0	32783	32639	32767	32821	32287	32943	32127	32847	
143	0	32683	32470	32660	32673	32497	32871	32386	32596	
144	0	32671	32621	32721	32565	32729	32775	32391	32823	
145	0	32767	32587	32706	32743	32727	32919	32562	32975	
146	0	32727	32583	32765	32723	33065	32911	32759	32998	
147	0	32689	32391	32647	32835	33254	32797	32895	32607	
148	0	32647	32589	32575	32611	32980	32755	32943	32732	
149	0	32662	32629	32709	32585	32829	32772	32967	32783	
150	0	32736	32476	32615	32555	32998	32865	32918	32835	
151	0	32700	32575	32797	32791	32816	32820	32831	32647	
152	0	32743	32551	32739	32727	33042	32711	32631	32839	
153	0	32753	32580	32805	32742	33086	32741	32549	32799	
154	0	32785	32707	32743	32887	32863	32829	32814	32431	
155	0	32775	32645	32597	32677	33111	32619	32543	32479	
156	0	32743	32733	32775	32789	33259	32676	32542	32540	
157	0	32759	32734	32703	32835	33671	32516	32775	32673	
158	0	32805	32707	32731	32885	33415	32534	32773	32647	
159	0	32825	32615	32797	32895	32991	32612	32509	32705	
160	0	32863	32628	32727	32687	31796	33087	32679	32279	
161	0	32795	32755	32623	32677	31463	33489	33027	32289	
162	0	32692	32601	32628	32687	32487	33007	32895	33082	
163	0	32836	32789	32669	32727	32833	32722	32385	33283	
164	0	32785	32707	32665	32742	33047	32429	32322	33095	
165	0	32685	32479	32863	32724	33523	32541	32511	32916	
166	0	32885	32681	32679	32623	33779	32227	33287	32801	
167	0	32869	32913	32607	32797	32260	32943	32887	32129	
168	0	32852	32804	32553	32807	32565	32875	33447	32033	
169	0	32660	32556	32645	32817	33545	32375	33939	32415	
170	0	32536	32439	32799	32593	33719	32469	33365	32623	
171	0	32632	32598	32647	32565	31795	32829	33125	32487	
172	0	32791	32526	32766	32742	31647	33103	32356	32989	
173	0	32753	32579	32667	32775	32220	32903	32247	33038	
174	0	32694	32645	32740	32759	31710	33028	32519	33100	
175	0	32768	32391	32611	32707	31252	32900	32519	32183	
176	0	32844	32647	32766	32609	32957	32601	33215	31959	
177	0	32822	32754	32643	32673	33543	32487	33561	32263	
178	0	32804	32541	32681	32758	32985	32771	32967	32410	
179	0	32745	32676	32591	32799	32831	32743	32313	32782	
180	0	32805	32775	32673	32891	32847	32743	32495	32709	
181	0	32725	32510	32775	32665	33220	32423	32489	33066	
182	0	32758	32662	32723	32870	33285	32575	32500	32965	
183	0	32647	32621	32852	32877	33107	32980	32627	32931	
184	0	32654	32669	32781	32871	33471	32791	32495	33266	
185	0	32615	32557	32941	32709	33045	32910	32566	33277	
186	0	32703	32711	32895	32703	31887	33051	33095	32333	
187	0	32797	32655	32805	32773	32245	33125	32847	32477	
188	0	32775	32755	32767	32628	32551	32900	32757	32535	
189	0	32691	32663	32877	32627	32591	32809	32517	32509	
190	0	32741	32783	32760	32643	32284	33332	31794	32628	
191	0	32888	32890	32551	32727	31277	33527	31055	32919	
192	0	32988	32827	32625	32898	32499	32447	31401	33285	
193	0	32847	32839	32594	32835	33989	31903	31862	32925	
194	0	32710	32348	32783	32685	33983	32327	32855	32511	
195	0	32647	32577	32712	32583	34863	32349	34494	32180	
196	0	32742	32517	32529	32677	34742	32543	35567	32165	
197	0	32754	32421	32601	32764	33911	32939	34381	32711	
198	0	32766	32583	32535	32859	31687	33215	33396	32749	
199	0	32820	32683	32647	32647	30927	33196	32785	32373	
200	0	32802	32910	32743	32787	31497	32599	32739	31861	
201	0	32738	32675	32799	32785	31909	32338	32343	32043	
202	0	32700	32743	33029	32839	32775	32695	32191	32702	
203	0	32669	32589	32887	32763	33639	32373	32889	32647	
204	0	32615	32607	32946	32685	32791	32234	33076	32759	
205	0	32762	32599	32869	32508	32095	32852	32733	32817	
206	0	32822	32571	32719	32733	32220	33107	32670	32629	
207	0	32846	32723	32666	32747	32791	32823	32479	33029	
208	0	32705	32691	32698	32855	32820	32662	32494	32721	
209	0	32740	32551	32669	32647	33031	32501	32735	32679	
210	0	32827	32704	32711	32745	33271	32541	32679	32879	
211	0	32731	32548	32699	32707	33055	32843	32339	33063	
212	0	32788	32567	32599	32847	31996	33213	32343	32831	
213	0	32791	32623	32639	32695	32180	33693	31933	33127	
214	0	32634	32613	32566	32663	33079	33159	32319	32981	
215	0	32745	32635	32813	32815	33101	33027	32455	33403	
216	0	32700	32453	32809	32887	32527	32694	32747	32711	
217	0	32889	32756	32731	32751	32581	32605	33075	32775	
218	0	32863	32831	32663	32555	32937	32585	33275	32151	
219	0	32783	32739	32774	32581	32819	32861	33201	32175	
220	0	32820	32667	32535	32727	32987	32791	33039	32263	
221	0	32773	32772	32435	32849	32671	32599	33455	31643	
222	0	32786	32435	32647	32790	32376	32692	32983	32679	
223	0	32708	32519	32642	32583	32915	32679	32711	33111	
224	0	32741	32431	32775	32701	33148	32399	32911	32425	
225	0	32655	32519	32724	32757	32630	32339	33093	32095	
226	0	32602	32367	32623	32871	32838	32375	33090	32429	
227	0	32625	32583	32714	32719	32207	32915	33177	32229	
228	0	32757	32775	32637	32677	32478	32892	32931	32487	
229	0	32848	32623	32724	32823	33102	32843	32717	32773	
230	0	32729	32711	32671	32813	32789	32770	32663	32811	
231	0	32769	32694	32734	32885	32707	32679	32741	32547	
232	0	32748	32599	32741	32623	32346	32807	32515	32919	
233	0	32748	32595	32743	32495	32561	32567	32293	33254	
234	0	32773	32669	32703	32727	32903	32829	32253	33021	
235	0	32806	32749	32612	32759	32814	33026	32342	33047	
236	0	32894	32836	32795	32859	32859	33023	32419	32978	
237	0	32852	32711	32642	32687	32991	32741	32603	32884	
238	0	32809	32713	32742	32607	33031	32711	32767	32439	
239	0	32826	32551	32631	32812	32877	32742	32822	32451	
240	0	32749	32633	32671	32756	32885	32741	32901	32623	
241	0	32761	32717	32603	32771	32868	32845	32551	33109	
242	0	32772	32535	32767	32823	33023	32551	32615	32955	
243	0	32824	32647	32671	32839	32991	32813	32567	32964	
244	0	32724	32647	32799	32695	33121	32915	32455	33199	
245	0	32796	32647	32671	32660	33191	33087	32813	32721	
246	0	32764	32694	32717	32615	32439	33204	32807	32579	
247	0	32726	32503	32687	32631	32476	32571	32642	32561	
248	0	32749	32703	32682	32771	32475	32775	32711	32503	
249	0	32718	32711	32615	32740	33082	32587	32676	32471	
250	0	32740	32727	32674	32719	32954	32811	33103	32601	
251	0	32724	32495	32630	32603	32423	33063	33341	32509	
252	0	32757	32583	32575	32743	32812	32850	33519	32557	
253	0	32788	32613	32754	32771	32523	32967	32995	32359	
254	0	32826	32594	32647	32865	32647	32734	32613	32455	
255	0	32923	32885	32685	32901	32951	32135	32991	32196	
256	0	32943	32797	32749	32757	32212	32362	32903	32483	
257	0	32791	32846	32619	32614	32437	32773	32355	32533	
258	0	32511	32412	32705	32647	33203	32156	32407	32517	
259	0	32490	32505	32647	32671	32493	32735	32282	32338	
260	0	32646	32537	32799	32775	31908	33439	32410	32148	
261	0	32715	32443	32799	32831	32603	33444	32661	32530	
262	0	32743	32487	32769	32635	33201	33039	33217	32679	
263	0	32630	32667	32879	32580	33434	32471	32503	33187	
264	0	32662	32537	32721	32533	33011	32554	32217	33283	
265	0	32756	32751	32700	32719	32483	33093	32592	33085	
266	0	32943	32933	32675	32847	32623	32828	32783	33039	
267	0	33077	32659	32669	32917	31879	32647	33223	33039	
268	0	32866	32691	32567	32925	33041	32439	33145	33055	
269	0	32736	32692	32791	32807	33499	32461	32805	32978	
270	0	32670	32495	32757	32595	33170	32655	32851	32462	
271	0	32510	32591	32723	32756	32715	32732	33087	32057	
272	0	32566	32575	32815	32738	33413	32327	33487	31750	
273	0	32636	32511	32787	32766	33175	32319	33031	31718	
274	0	32707	32647	32775	32863	31999	32775	32771	32367	
275	0	32804	32610	32647	32843	32279	33215	32694	32867	
276	0	32871	32711	32875	32679	32781	33199	32665	33139	
277	0	32895	32715	32673	32593	33119	33005	32669	32911	
278	0	32846	32579	32710	32588	33115	32835	32431	33222	
279	0	32758	32685	32631	32749	32831	32631	32685	33316	
280	0	32717	32731	32681	32826	32711	32655	32421	33373	
281	0	32893	32684	32659	32903	32322	32759	32386	32551	
282	0	32887	32739	32643	32829	32877	32976	32577	32793	
283	0	32903	32707	32671	32645	33603	32569	32514	33143	
284	0	32758	32462	32487	32575	32903	32748	32681	32815	
285	0	32673	32605	32667	32711	33271	32641	32655	32955	
286	0	32532	32539	32685	32743	33071	32477	33103	32669	
287	0	32573	32743	32591	32646	32071	32852	33518	31791	
288	0	32801	32711	32775	32711	31119	33190	33341	32062	
289	0	32786	32685	32737	32759	31622	33031	33031	32315	
290	0	32849	32751	32909	32787	32687	32599	32700	32399	
291	0	32814	32621	32893	32775	32783	32676	32715	32355	
292	0	32814	32627	32803	32585	32199	33369	32439	32831	
293	0	32710	32607	32831	32659	32155	33431	32263	32673	
294	0	32663	32492	32847	32719	32894	33252	32412	33223	
295	0	32713	32639	32839	32723	33269	32465	32811	32871	
296	0	32751	32519	32701	32621	33245	32278	32767	33117	
297	0	32696	32573	32717	32722	33370	32303	32767	33172	
298	0	32799	32439	32636	32791	33238	32427	32775	32713	
299	0	32852	32647	32831	32871	32711	32625	32971	32105	
300	0	32801	32722	32799	32743	32063	32939	33031	31868	
301	0	32788	32775	32612	32631	32823	32580	32628	31770	
302	0	32757	32543	32599	32753	33159	32503	32083	32007	
303	0	32724	32725	32599	32773	33464	32535	32103	32075	
304	0	32727	32671	32703	32820	33261	33053	31809	32403	
305	0	32694	32537	32797	32625	33469	32775	32406	32594	
306	0	32749	32771	32667	32788	33431	32450	33606	32151	
307	0	32890	32802	32567	32807	32579	32767	33652	32451	
308	0	32900	32691	32578	32883	32599	32951	33874	32717	
309	0	32846	32740	32687	32932	31765	32935	34111	32796	
310	0	32804	32721	32647	32631	31318	32903	33049	33110	
311	0	32733	32799	32727	32643	32253	32807	32303	33381	
312	0	32721	32454	32727	32718	32997	32628	32707	33159	
313	0	32801	32579	32829	32759	33567	32565	32455	33415	
314	0	32820	32767	32663	32754	33327	32407	32461	33247	
315	0	32821	32541	32583	32603	32870	32587	32449	33237	
316	0	32796	32693	32669	32748	32987	32748	32495	32903	
317	0	32706	32669	32679	32767	33507	32724	32401	32983	
318	0	32806	32615	32673	32925	32957	32975	32759	32673	
319	0	32778	32679	32743	32574	33434	33012	32307	33313	
320	0	32689	32598	32775	32701	33597	32743	32374	32996	
321	0	32748	32740	32743	32813	32229	32871	32962	32093	
322	0	32939	32756	32599	32934	31111	33325	33132	32039	
323	0	32887	32789	32742	32740	32119	32973	32982	32479	
324	0	32858	32759	32771	32613	33117	32423	32754	33407	
325	0	32765	32487	32615	32786	32948	32125	32666	32575	
326	0	32744	32661	32737	32780	32735	32454	32319	32823	
327	0	32692	32706	32639	32836	32989	33143	32871	32887	
328	0	32623	32479	32839	32663	33317	33242	33287	32671	
329	0	32647	32524	32739	32499	32641	32964	33350	32406	
330	0	32765	32572	32837	32805	32564	32526	33341	31909	
331	0	32783	32772	32786	32791	33263	32423	33198	32050	
332	0	32855	32671	32567	32877	32613	32663	32734	31927	
333	0	32765	32669	32747	32708	32639	32495	32591	32109	
334	0	32641	32766	32643	32597	32580	32887	32903	32285	
335	0	32802	32403	32620	32685	31706	32991	32742	32861	
336	0	32762	32628	32633	32647	32067	32823	32769	32807	
337	0	32613	32562	32643	32725	32338	32996	32812	32527	
338	0	32576	32423	32761	32695	32669	32669	33031	32334	
339	0	32711	32643	32749	32583	32621	32509	33001	32206	
340	0	32788	32623	32604	32743	32535	32788	32797	32054	
341	0	32749	32645	32730	32775	32757	32925	32623	32603	
342	0	32759	32684	32735	32623	32365	33039	32733	32636	
343	0	32805	32647	32583	32577	32646	32759	32657	33003	
344	0	32827	32805	32690	32829	33108	32583	32549	33101	
345	0	32703	32679	32637	32843	32710	32775	32783	32903	
346	0	32739	32814	32806	32791	33007	32877	32599	32639	
347	0	32758	32612	32661	32730	33755	32635	32847	32788	
348	0	32783	32707	32631	32828	32037	33012	31586	33667	
349	0	32752	32703	32706	32855	32634	32694	31311	34015	
350	0	32786	32613	32734	32893	33219	32587	32567	33065	
351	0	32813	32758	32759	32711	33916	32454	33223	33110	
352	0	32813	32708	32698	32603	33589	32445	33644	33234	
353	0	32773	32867	32647	32709	33199	32391	33394	32583	
354	0	32674	32518	32741	32760	33605	32297	33717	32423	
355	0	32732	32717	32829	32647	33415	32709	33319	32775	
356	0	32702	32555	32730	32773	32037	32935	32644	32330	
357	0	32818	32621	32671	32821	32081	33151	32129	32311	
358	0	32850	32578	32756	32839	32112	33349	32465	32269	
359	0	32787	32621	32836	32553	32509	32773	32899	32420	
360	0	32740	32663	32812	32703	32663	32871	32951	32410	
361	0	32793	32743	32758	32775	32157	33215	32927	32335	
362	0	32849	32587	32639	32519	31741	32998	32633	32646	
363	0	32803	32469	32782	32642	32443	32471	32613	32391	
364	0	32850	32559	32732	32707	32748	32583	32550	32387	
365	0	32759	32485	32667	32621	32997	32691	32588	32507	
366	0	32661	32647	32694	32799	33069	32839	32620	32823	
367	0	32713	32546	32711	32735	32999	32514	32719	32579	
368	0	32733	32615	32628	32863	32899	32711	32845	32567	
369	0	32685	32565	32724	32711	32718	32839	32893	32331	
370	0	32682	32727	32645	32647	32731	32927	32863	32263	
371	0	32671	32418	32788	32799	32783	32931	32854	32559	
372	0	32737	32679	32751	32845	32570	32982	32903	32431	
373	0	32717	32751	32610	32743	32511	32935	32772	32763	
374	0	32743	32900	32755	32807	32789	32765	32927	32946	
375	0	32763	32589	32642	32799	32191	32996	32951	32605	
376	0	32743	32559	32599	32860	33243	32719	32383	32989	
377	0	32908	32823	32527	32619	33822	32831	32121	33047	
378	0	32925	32761	32647	32837	33335	33295	31719	34367	
379	0	32799	32836	32617	32875	33858	32559	31732	33735	
380	0	32815	32563	32677	32758	33451	32594	31943	32963	
381	0	32724	32591	32655	32609	33609	32308	32695	32205	
382	0	32624	32631	32741	32739	32792	31949	32719	32836	
383	0	32743	32447	32599	32789	31903	31677	32843	32615	
384	0	32791	32639	32723	32871	32647	31969	32151	31610	
385	0	32705	32679	32787	32603	33469	32686	33074	31938	
386	0	32623	32647	32682	32673	32391	32695	34479	31845	
387	0	32598	32736	32725	32775	31750	32903	34397	31831	
388	0	32752	32471	32763	32679	32261	32980	33277	32342	
389	0	32803	32495	32775	32519	32687	32876	32763	32943	
390	0	32842	32702	32775	32683	31863	33037	32763	33255	
391	0	32815	32807	32723	32807	31259	33221	32815	33167	
392	0	32799	32823	32694	32615	32335	33029	32794	32871	
393	0	32756	32879	32721	32708	32980	32876	33075	32737	
394	0	32665	32675	32789	32771	33013	32877	33131	32427	
395	0	32732	32742	32647	32834	32892	32693	32775	32311	
396	0	32789	32710	32655	32577	32871	32598	32627	32551	
397	0	32705	32571	32708	32706	33043	32689	32557	32678	
398	0	32690	32607	32647	32800	32763	32822	32727	32431	
399	0	32753	32413	32711	32663	32575	32943	32785	32642	
400	0	32743	32698	32735	32849	32631	33023	32833	32695	
401	0	32743	32645	32676	32775	32631	33003	32809	32681	
402	0	32726	32759	32719	32817	32578	32859	32634	32919	
403	0	32738	32442	32743	32615	32645	32767	32588	32751	
404	0	32722	32711	32735	32743	32903	32765	32557	33159	
405	0	32772	32711	32811	32705	32982	32663	32231	33423	
406	0	32849	32679	32591	32897	32839	32815	32263	33053	
407	0	32803	32789	32687	32775	33013	33006	32125	32662	
408	0	32775	32615	32661	32535	33197	33009	32087	33110	
409	0	32823	32709	32619	32734	33595	32879	31924	33399	
410	0	32839	32495	32725	32671	34271	32351	32191	32679	
411	0	32814	32667	32815	32593	33331	32255	32628	32146	
412	0	32871	32723	32609	32647	32381	32550	33279	31965	
413	0	32841	32799	32639	32788	32287	32359	34365	31955	
414	0	32919	32647	32519	32843	32237	32166	34125	31477	
415	0	32962	32833	32698	32771	31878	32577	33371	32389	
416	0	32677	32679	32628	32629	32804	32237	32975	33206	
417	0	32425	32379	32738	32751	33283	32539	33266	33103	
418	0	32615	32511	32721	32830	33278	32811	33402	32803	
419	0	32759	32579	32631	32774	32535	33651	32748	32839	
420	0	32725	32775	32790	32783	32413	33455	32426	32991	
421	0	32758	32595	32805	32727	32495	33095	32511	33022	
422	0	32710	32595	32647	32671	32829	32823	32843	33193	
423	0	32617	32450	32827	32605	33281	32700	33121	33039	
424	0	32679	32559	32647	32707	32699	32956	32775	32961	
425	0	32710	32381	32739	32748	32159	33020	32799	32647	
426	0	32652	32541	32834	32927	32647	32895	32727	32431	
427	0	32662	32605	32739	32615	32725	32713	32647	32455	
428	0	32671	32535	32701	32711	32734	32647	32527	32667	
429	0	32658	32797	32743	32721	32673	32804	32599	32519	
430	0	32754	32487	32663	32731	32591	32801	32701	32451	
431	0	32787	32673	32775	32583	32589	32829	32743	32126	
432	0	32857	32795	32738	32749	32623	32847	32809	32291	
433	0	32870	32815	32647	32767	32639	32885	32615	32466	
434	0	32769	32787	32724	32806	32375	32997	32617	32743	
435	0	32802	32509	32674	32661	32551	32957	32423	33021	
436	0	32843	32679	32715	32787	33183	32671	32196	33071	
437	0	32913	32903	32660	32885	33743	32443	32989	33133	
438	0	32991	32903	32647	32959	33671	32543	33223	32743	
439	0	32891	32647	32757	32676	33085	32935	32989	31831	
440	0	32775	32647	32803	32735	33095	32861	32485	32375	
441	0	32772	32493	32647	32709	32791	32987	32004	32660	
442	0	32735	32682	32687	32787	33071	32351	32143	32475	
443	0	32652	32399	32806	32653	32743	32199	32180	32166	
444	0	32635	32679	32671	32645	31532	33117	32783	31887	
445	0	32720	32579	32759	32815	31934	33079	33925	32295	
446	0	32749	32681	32715	32895	31605	32391	34382	32391	
447	0	32750	32775	32610	32615	32316	32263	33753	32839	
448	0	32797	32594	32773	32757	31958	32610	33167	32999	
449	0	32799	32677	32706	32710	32466	32703	33101	33049	
450	0	32700	32540	32671	32360	33036	32759	32803	32729	
451	0	32671	32503	32725	32551	33039	32983	32647	32259	
452	0	32681	32655	32775	32675	32869	32773	32541	32315	
453	0	32777	32553	32643	32799	32839	32679	32415	32935	
454	0	32861	32663	32733	32935	33060	32717	32245	33239	
455	0	32854	32799	32611	32738	33086	32703	32141	33343	
456	0	32727	32643	32743	32577	32773	32771	32503	33099	
457	0	32824	32663	32629	32807	32831	32815	32738	32727	
458	0	32753	32829	32701	32855	33124	32823	32695	33065	
459	0	32769	32565	32797	32861	33143	32697	32775	33015	
460	0	32743	32715	32617	32711	32695	32721	32655	32930	
461	0	32844	32767	32749	32929	31981	33141	32244	32745	
462	0	32935	32987	32667	32939	32391	33219	31781	33301	
463	0	32959	32835	32551	33026	32457	33075	31943	32857	
464	0	32884	32865	32607	32903	33572	32367	31991	33083	
465	0	32807	32875	32503	32708	34431	32156	32181	33379	
466	0	32631	32583	32652	32709	35236	32005	33356	33495	
467	0	32647	32550	32572	32738	33799	32508	32756	33051	
468	0	32629	32591	32758	32762	32252	33261	32167	33197	
469	0	32738	32543	32821	32540	32223	33175	33579	32775	
470	0	32694	32274	32711	32631	32605	32641	33959	31687	
471	0	32645	32537	32825	32607	32791	32263	33716	31367	
472	0	32582	32580	32761	32662	32510	32334	33471	31550	
473	0	32669	32435	32775	32692	32279	32759	33183	31831	
474	0	32783	32641	32677	32596	31783	33045	33059	32135	
475	0	32875	32855	32775	32556	31799	33223	32919	32583	
476	0	32759	32466	32684	32703	32465	33063	32818	32505	
477	0	32647	32575	32667	32790	32495	33251	32728	32437	
478	0	32673	32551	32708	32660	32487	33103	32657	32491	
479	0	32710	32740	32633	32762	32295	32786	32831	31973	
480	0	32716	32594	32765	32811	32461	32833	32807	32127	
481	0	32797	32671	32599	32919	32387	32999	32854	32591	
482	0	32825	32887	32755	32973	32495	32837	32804	32855	
483	0	32783	32647	32819	32783	32806	32719	32765	32871	
484	0	32751	32623	32769	32631	32827	32623	32817	32687	
485	0	32762	32775	32722	32787	32579	32831	32491	32695	
486	0	32775	32570	32641	32759	33065	32713	32319	32786	
487	0	32829	32723	32747	32771	33133	32687	32551	32844	
488	0	32843	32820	32695	32669	32591	32743	32375	32903	
489	0	32815	32823	32755	32691	33383	32439	32333	33022	
490	0	32796	32727	32775	32735	33625	32479	32519	33259	
491	0	32773	32660	32691	32822	33071	32857	32519	33017	
492	0	32808	32719	32725	32583	32495	32877	32877	32639	
493	0	32895	32673	32751	32759	32963	32903	32599	32818	
494	0	32911	32833	32607	32823	33191	32671	33117	32647	
495	0	32836	32721	32732	32844	32975	32371	32972	32174	
496	0	32860	32887	32709	32677	32670	32706	33221	32426	
497	0	32840	32631	32526	32775	31842	32766	33397	33093	
498	0	32719	32631	32743	32749	31973	32535	33179	32995	
499	0	32660	32551	32807	32839	32311	32527	32971	32199	
500	0	32596	32315	32743	32709	32767	32263	33303	32310	
501	0	32642	32516	32775	32759	32927	32835	33271	32557	
502	0	32646	32575	32631	32869	32423	33307	33029	32676	
503	0	32619	32631	32719	32823	32567	33099	32969	32471	
504	0	32631	32479	32739	32843	32759	33047	32941	32052	
505	0	32679	32517	32647	32574	32627	33071	32671	32477	
506	0	32671	32620	32731	32702	32835	32899	32775	32455	
507	0	32630	32621	32671	32807	32935	32855	32715	32831	
508	0	32647	32719	32763	32747	32887	32718	32567	32698	
509	0	32709	32791	32765	32519	32987	32741	32493	32941	
510	0	32775	32564	32685	32805	32847	32751	32708	32611	
511	0	32797	32690	32745	32843	32749	32703	32695	32575	
512	0	32791	32731	32687	32819	32722	32903	32718	32295	
513	0	32893	32703	32735	32863	32892	32845	32361	32960	
514	0	32852	32555	32743	32543	33063	32701	32477	32903	
515	0	32797	32613	32671	32756	32700	33072	32615	32835	
516	0	32796	32709	32783	32855	32527	33179	32326	33373	
517	0	32921	32867	32591	32815	32574	33130	32551	33011	
518	0	32966	32775	32631	32583	32863	32895	32525	33531	
519	0	32903	32866	32679	32634	32823	32723	32319	33476	
520	0	32852	32719	32583	32772	33462	32069	32373	33427	
521	0	32823	32559	32684	32773	33323	31879	31911	33101	
522	0	32711	32543	32731	32635	33792	31507	32247	32186	
523	0	32751	32581	32743	32656	33669	31846	33069	31823	
524	0	32761	32566	32615	32783	32975	32459	33396	31711	
525	0	32700	32743	32741	32847	32559	32831	33805	32473	
526	0	32753	32735	32594	32740	31901	33563	34003	32566	
527	0	32837	32405	32743	32692	32548	33412	33633	32579	
528	0	32723	32587	32786	32735	32365	33287	33197	32686	
529	0	32695	32663	32611	32813	32470	32898	32867	32507	
530	0	32766	32775	32715	32685	32391	33093	32845	32055	
531	0	32827	32639	32607	32594	32183	33181	32625	32156	
532	0	32709	32601	32687	32742	32431	32884	32289	32485	
533	0	32747	32767	32647	32725	32338	32917	32310	33039	
534	0	32726	32669	32845	32735	32830	32647	32463	33142	
535	0	32823	32703	32703	32805	32925	32678	32556	32957	
536	0	32849	32647	32756	32759	33094	32615	32511	33031	
537	0	32720	32721	32751	32621	33223	32575	32588	32707	
538	0	32700	32617	32791	32597	33052	32478	32671	32315	
539	0	32793	32541	32742	32715	32829	32698	32803	32327	
540	0	32856	32644	32679	32718	32623	32823	32823	32319	
541	0	32842	32671	32748	32751	32655	32863	32902	32629	
542	0	32692	32797	32711	32831	32927	32873	32886	32721	
543	0	32628	32477	32759	32748	33110	32903	32568	33317	
544	0	32663	32695	32711	32573	33113	32759	32247	33525	
545	0	32687	32647	32829	32718	32772	32782	32645	33213	
546	0	32857	32822	32733	32943	32715	32931	32643	32947	
547	0	32804	32663	32724	32559	32402	32845	32431	33335	
548	0	32894	32637	32748	32679	31908	32770	32615	32803	
549	0	32959	32775	32617	32793	32534	32836	32871	32333	
550	0	32812	32646	32782	32741	33847	32499	33023	31987	
551	0	32838	32695	32826	32719	33747	32621	32705	32094	
552	0	32686	32630	32698	32731	33607	32727	32359	32343	
553	0	32716	32735	32775	32559	33622	32775	33053	32439	
554	0	32759	32525	32695	32708	32855	32669	33679	32421	
555	0	32783	32683	32775	32812	30972	32916	33644	32343	
556	0	32809	32769	32737	32852	31559	32681	33466	32447	
557	0	32866	32879	32769	32694	32980	32590	33015	32642	
558	0	32799	32663	32790	32647	32091	32611	32561	33303	
559	0	32786	32847	32708	32771	31397	32954	32295	33559	
560	0	32799	32775	32819	32787	32157	32862	32303	33511	
561	0	32925	32733	32806	32870	32939	32879	32711	32535	
562	0	32937	32817	32613	32787	33055	32767	32671	31457	
563	0	32925	32693	32703	32647	32646	32543	32607	31643	
564	0	32806	32567	32641	32637	32891	32371	32463	32361	
565	0	32855	32759	32687	32572	33415	32399	32279	32775	
566	0	32985	32839	32607	32639	33030	32583	32599	32958	
567	0	33023	32823	32527	32751	32879	32893	32575	33389	
568	0	33077	32785	32541	32723	33106	32931	32111	33355	
569	0	33047	32767	32588	32789	32973	32860	32437	32807	
570	0	33002	32647	32518	32706	33129	32557	32975	32789	
571	0	32769	32589	32610	32499	33299	32500	33036	33103	
572	0	32927	32583	32519	32500	33125	32869	32805	33175	
573	0	32916	32671	32551	32562	33629	32551	32847	32821	
574	0	32964	32278	32527	32582	33215	32935	32950	32859	
575	0	32992	32407	32450	32415	32001	33575	32613	32462	
576	0	33083	32311	32295	32391	32103	33191	32463	31996	
577	0	32990	32287	32471	32359	33505	32237	32474	32564	
578	0	33047	32247	32423	32450	33856	32565	32250	32775	
579	0	32970	32413	32513	32629	33071	32805	32447	32509	
580	0	32836	32311	32431	32406	32285	32951	32794	32471	
581	0	32967	32482	32379	32381	32469	32709	33791	32327	
582	0	32838	32215	32513	32573	33121	32647	33426	32647	
583	0	32712	32171	32519	32516	32999	32903	32735	32917	
584	0	32598	32128	32543	32631	32510	33020	32407	32820	
585	0	32535	31922	32471	32653	32821	32979	32373	32931	
586	0	32356	31815	32677	32499	32929	32695	32367	32993	
587	0	32328	32013	32659	32419	32677	32551	32503	32743	
588	0	32289	31996	32663	32647	32425	32647	33227	31785	
589	0	32328	32183	32631	32797	32122	32982	33771	31684	
590	0	32383	32383	32549	32887	32107	32967	33825	31567	
591	0	32450	32413	32699	32963	32740	32735	33887	31727	
592	0	32435	32473	32703	33031	32685	32919	33815	31885	
593	0	32396	32339	32831	32868	32237	33039	33527	32279	
594	0	32282	32431	32871	32795	31623	33167	32815	32715	
595	0	32122	32279	32860	33063	32463	32991	32351	33535	
596	0	32084	32391	32943	33107	32477	32947	32407	33332	
597	0	32069	32612	32959	33167	32903	32915	32093	32489	
598	0	32095	32549	33170	33055	33091	33095	31511	32643	
599	0	32052	32555	33245	32827	33855	32615	32949	32291	
600	0	32175	32917	33127	33125	33911	32531	33899	32259	
601	0	32356	33051	33215	33199	32385	33001	33603	31973	
602	0	32273	33293	33421	33199	31783	32913	32420	32437	
603	0	32398	33467	33501	33215	32263	32460	32599	33099	
604	0	32645	33247	33461	32943	32842	32044	32875	32871	
605	0	32847	33359	33247	32986	32687	32133	32817	32527	
606	0	32839	33489	33351	33050	32741	32738	32739	33395	
607	0	32892	33251	33209	32935	31771	33155	33118	32855	
608	0	33010	33497	33189	32955	31799	33031	32828	32167	
609	0	33058	33565	33007	33049	32223	32646	32380	32965	
610	0	33156	33409	32903	32843	32495	32859	32495	33141	
611	0	33044	33469	32867	32791	32297	33079	32493	32700	
612	0	32957	33399	32709	32861	32285	32515	32677	31811	
613	0	32909	33275	32751	32927	32812	32263	32715	32146	
614	0	32830	33063	32615	32891	33053	32579	32569	32658	
615	0	32790	32959	32725	32775	33091	32595	32647	32578	
616	0	32903	32902	32583	32539	33223	32671	32647	32535	
617	0	32997	32916	32445	32709	33159	32845	32514	32847	
618	0	33009	32917	32532	32767	33095	32821	32199	33319	
619	0	32999	32751	32575	32708	33258	32567	32044	33461	
620	0	33042	32799	32533	32615	33177	32759	32085	33383	
621	0	32989	32742	32579	32756	33255	32683	32037	33562	
622	0	32887	32727	32595	32783	33146	32581	32257	33234	
623	0	32940	32625	32439	32875	32971	32703	32285	33177	
624	0	33012	32645	32510	32673	32773	32684	32291	33367	
625	0	32929	32583	32434	32571	32751	32527	32525	32977	
626	0	32914	32631	32519	32691	32767	32563	32820	32707	
627	0	32826	32415	32619	32749	32549	32891	32836	32686	
628	0	32818	32487	32549	32775	32615	32868	32895	32401	
629	0	32889	32475	32687	32659	32755	32927	32751	32797	
630	0	32838	32449	32611	32559	33287	32589	32694	33022	
631	0	32893	32556	32706	32573	33597	32442	32455	33007	
632	0	32823	32458	32759	32642	33263	32479	32479	33093	
633	0	32843	32349	32620	32671	33231	32635	32484	32775	
634	0	32795	32319	32617	32703	32791	32957	32611	32899	
635	0	32868	32517	32551	32655	33063	33047	32847	32903	
636	0	32839	32641	32643	32639	32933	33021	33263	32359	
637	0	32868	32495	32594	32642	31775	33254	33397	32007	
638	0	32679	32362	32615	32487	32516	33204	32805	32828	
639	0	32655	32469	32767	32647	33637	32741	32503	33087	
640	0	32815	32453	32549	32793	33255	32758	32327	32407	
641	0	32703	32477	32711	32659	33238	32767	32327	32715	
642	0	32677	32595	32589	32647	33143	32389	32719	32757	
643	0	32743	32420	32675	32747	34141	31538	32860	32767	
644	0	32629	32481	32617	32663	33246	32121	33127	32703	
645	0	32733	32644	32727	32603	32011	32631	33722	32335	
646	0	32775	32487	32713	32621	31060	33369	34045	32041	
647	0	32798	32678	32693	32673	31550	33237	33399	31567	
648	0	32799	32699	32695	32621	32223	32575	32978	31725	
649	0	32829	32599	32743	32671	32675	32711	32807	32389	
650	0	32818	32671	32695	32815	32263	32791	33073	32357	
651	0	32721	32567	32609	32743	32674	32519	33115	32696	
652	0	32773	32519	32679	32697	32453	32701	33243	32431	
653	0	32764	32653	32683	32623	31994	33250	32919	32403	
654	0	32759	32555	32743	32504	32565	33253	32287	32247	
655	0	32633	32449	32767	32647	33223	33191	32198	32856	
656	0	32701	32423	32826	32638	32413	33159	32463	32751	
657	0	32862	32567	32743	32851	31702	33350	32229	32695	
658	0	32826	32598	32791	32879	32647	32879	32231	32763	
659	0	32846	32551	32799	32724	33255	32583	32607	32945	
660	0	32775	32685	32663	32583	33194	32685	32807	33025	
661	0	32814	32615	32711	32735	32397	32797	32803	33037	
662	0	32694	32709	32583	32799	32567	32639	33031	33003	
663	0	32578	32461	32769	32817	33159	32605	33015	32647	
664	0	32630	32609	32825	32739	32999	32639	32646	32911	
665	0	32740	32623	32581	32612	32717	32833	32711	32643	
666	0	32736	32733	32681	32711	32855	32837	32740	32703	
667	0	32743	32567	32647	32725	32995	32991	32694	32786	
668	0	32827	32735	32674	32803	33127	32830	32951	32375	
669	0	32871	32748	32694	32803	33316	32747	33231	32661	
670	0	32851	32575	32583	32711	33127	32743	33095	32581	
671	0	32813	32661	32694	32565	33067	32597	32965	32116	
672	0	32764	32587	32631	32738	32667	32404	32997	32169	
673	0	32726	32791	32695	32773	32263	32543	32727	32239	
674	0	32740	32738	32615	32875	32471	32548	32486	32247	
675	0	32875	32767	32725	32823	32741	32455	32421	32647	
676	0	32834	32557	32767	32839	32739	32767	32191	32895	
677	0	32775	32535	32845	32711	32187	32945	32437	32967	
678	0	32668	32639	32713	32615	32466	33001	32622	33535	
679	0	32599	32439	32775	32765	32071	33236	32319	33477	
680	0	32723	32647	32772	32831	32609	33351	33037	32971	
681	0	32879	32830	32787	32877	32955	33093	32885	32879	
682	0	32972	32695	32775	32819	33383	32964	31999	32631	
683	0	32679	32692	32688	32671	34381	32091	32272	32955	
684	0	32599	32573	32759	32596	33927	31622	33199	32859	
685	0	32709	32390	32623	32661	33369	32261	33067	32518	
686	0	32884	32719	32738	32797	32809	32646	33459	32183	
687	0	32831	32745	32633	32734	31787	33255	33357	31995	
688	0	32803	32461	32707	32743	31764	33351	33199	32052	
689	0	32784	32623	32653	32743	32447	33083	32743	32294	
690	0	32768	32775	32677	32601	32887	32669	32591	32758	
691	0	32842	32644	32565	32575	32695	32513	32631	32957	
692	0	32790	32663	32679	32775	32751	32717	32679	32783	
693	0	32663	32557	32636	32763	32855	32567	32627	32927	
694	0	32715	32647	32732	32643	32745	32533	32791	32883	
695	0	32764	32629	32551	32727	32625	32805	32891	32823	
696	0	32749	32428	32772	32735	32555	33037	33175	32515	
697	0	32758	32593	32783	32543	32631	33025	33537	32493	
698	0	32713	32647	32719	32493	32919	32718	33431	32506	
699	0	32687	32527	32735	32658	32798	32610	32933	32692	
700	0	32739	32647	32781	32749	33375	32605	32326	32859	
701	0	32797	32669	32933	32787	33812	32479	31871	33013	
702	0	32871	32631	32710	32647	32761	32807	32250	33063	
703	0	32854	32558	32647	32729	32405	33159	32765	33067	
704	0	32748	32714	32791	32798	32854	33001	32335	33039	
705	0	32724	32702	32799	32839	32911	32969	32213	33299	
706	0	32725	32499	32803	32822	31261	32855	32773	32579	
707	0	32700	32487	32706	32725	31351	32659	32695	32595	
708	0	32711	32619	32723	32851	31799	33031	32439	32663	
709	0	32668	32535	32775	32939	32539	32775	32093	32557	
710	0	32647	32694	32786	32815	32965	32930	33127	32045	
711	0	32666	32663	32591	32719	32703	32843	33956	31631	
712	0	32716	32631	32716	32804	33147	32551	33529	31987	
713	0	32708	32695	32759	32799	33127	32241	32797	31777	
714	0	32726	32455	32683	32702	32623	32519	32827	31815	
715	0	32799	32625	32699	32671	32639	32679	33203	32599	
716	0	32831	32711	32667	32595	32466	32818	32775	32940	
717	0	32839	32565	32765	32775	32879	32829	32631	33287	
718	0	32921	32749	32687	32754	33413	32555	32349	33041	
719	0	32858	32943	32711	32871	33110	32470	32102	32439	
720	0	32748	32742	32645	32893	32087	32713	32591	31885	
721	0	32600	32575	32735	32795	32263	33095	32437	32503	
722	0	32687	32708	32663	32609	33039	33127	32565	32895	
723	0	32711	32467	32772	32698	33563	32759	32671	33204	
724	0	32711	32462	32695	32709	33188	32687	32791	32765	
725	0	32740	32549	32807	32751	34183	32686	32711	32983	
726	0	32795	32775	32754	32813	33499	32686	32763	33197	
727	0	32763	32631	32791	32601	32237	33023	32509	32811	
728	0	32768	32759	32599	32614	32343	32487	32819	32259	
729	0	32789	32762	32754	32607	32233	32893	33415	32509	
730	0	32748	32577	32692	32684	32263	32767	33716	32962	
731	0	32820	32655	32715	32725	32115	32579	33279	32839	
732	0	32839	32727	32769	32773	32162	32759	32811	32731	
733	0	32826	32615	32628	32775	32637	32807	32646	32959	
734	0	32800	32753	32735	32604	32969	32841	32629	32915	
735	0	32756	32567	32623	32687	33049	32900	32615	32877	
736	0	32820	32699	32727	32762	32285	32991	32559	32638	
737	0	32825	32559	32692	32775	32399	32947	32487	32797	
738	0	32796	32631	32679	32821	32647	32839	32575	32671	
739	0	32785	32663	32637	32663	33223	32679	32559	32698	
740	0	32778	32485	32767	32583	33723	32551	32701	32404	
741	0	32805	32671	32695	32791	33620	32453	32637	32657	
742	0	32750	32759	32753	32773	33028	32623	32903	32709	
743	0	32831	32604	32687	32719	32423	32901	32903	32607	
744	0	32696	32599	32771	32845	32340	32977	32827	32527	
745	0	32711	32773	32703	32863	32891	32980	32665	32619	
746	0	32855	32711	32614	32775	33311	32802	32543	32590	
747	0	32775	32716	32615	32565	33919	32489	33255	32135	
748	0	32754	32589	32647	32707	33671	32557	32712	32717	
749	0	32612	32620	32631	32789	32931	32636	32647	32933	
750	0	32577	32511	32785	32783	32206	32743	32943	32511	
751	0	32679	32679	32643	32894	32153	32897	33117	32225	
752	0	32900	32603	32739	32717	30887	33075	32931	32436	
753	0	32831	32694	32711	32838	30935	33279	32451	32687	
754	0	32668	32775	32713	32820	31943	33028	32261	32761	
755	0	32727	32479	32793	32751	32420	32794	32163	32885	
756	0	32708	32691	32667	32791	32679	32711	32021	33436	
757	0	32751	32683	32762	32596	33189	32711	32271	33071	
758	0	32751	32745	32805	32591	33638	32761	32727	32703	
759	0	32719	32535	32749	32647	34575	32607	33716	32289	
760	0	32823	32769	32647	32795	33285	32807	34093	32347	
761	0	32897	32830	32589	32823	31833	32663	33141	32783	
762	0	32838	32623	32647	32861	32599	32898	32565	32818	
763	0	32783	32749	32675	32687	33261	32822	33091	32516	
764	0	32868	32765	32727	32530	32999	32463	33023	32031	
765	0	32908	32607	32599	32722	31947	32722	32326	32457	
766	0	32842	32726	32687	32743	31806	33157	32482	32151	
767	0	32705	32527	32751	32775	32959	32565	32693	32357	
768	0	32647	32391	32710	32566	34083	31815	32901	33087	
769	0	32732	32632	32708	32508	33247	32499	32775	33495	
770	0	32772	32642	32617	32707	32875	32959	32687	33146	
771	0	32679	32454	32679	32721	32532	32727	33063	32165	
772	0	32789	32737	32605	32815	32195	32685	32553	32373	
773	0	32839	32789	32604	32918	32459	32788	32347	32655	
774	0	32775	32807	32567	32775	33377	32743	32253	32403	
775	0	32773	32583	32719	32705	33239	32742	32631	32415	
776	0	32836	32763	32743	32685	33099	32783	32703	33361	
777	0	32742	32767	32658	32747	33055	32759	32433	33671	
778	0	32687	32391	32805	32679	33042	32753	32830	33138	
779	0	32626	32583	32759	32773	32970	32935	33107	32647	
780	0	32662	32579	32735	32871	32679	32847	33275	32431	
781	0	32812	32495	32623	32617	32111	32809	33279	31963	
782	0	32681	32695	32764	32509	31989	32818	33347	32199	
783	0	32839	32751	32596	32759	32739	32717	33323	32213	
784	0	32887	32789	32812	32835	33303	32732	33051	32509	
785	0	32845	32771	32685	32855	32674	32999	32955	32647	
786	0	32830	32549	32797	32757	32575	32998	32636	32843	
787	0	32806	32795	32733	32615	33173	32844	32223	33095	
788	0	32806	32775	32775	32530	33759	32730	31763	33229	
789	0	32835	32641	32715	32769	32951	32731	32159	33206	
790	0	32887	32774	32789	32772	31829	32833	32594	32789	
791	0	32849	32806	32683	32763	32527	32663	32679	32303	
792	0	32799	32607	32767	32823	32621	32983	32583	32850	
793	0	32813	32690	32655	32791	32783	32838	32427	32903	
794	0	32889	32703	32683	32629	32443	32625	32819	32279	
795	0	32772	32603	32647	32535	32330	32734	32516	32738	
796	0	32734	32609	32775	32799	32611	32795	32415	33039	
797	0	32733	32534	32621	32797	32263	33117	32727	33171	
798	0	32647	32601	32733	32854	33127	32740	33140	33119	
799	0	32576	32559	32666	32671	32727	32558	33562	32357	
800	0	32607	32462	32638	32599	32263	32769	33807	31660	
801	0	32576	32501	32681	32757	32519	32762	32935	32347	
802	0	32613	32508	32647	32751	32807	32755	32575	32724	
803	0	32801	32737	32711	32962	32997	32576	32133	32921	
804	0	32878	32747	32706	32775	32685	32679	32263	33159	
805	0	32799	32802	32645	32603	32359	33035	32015	32859	
806	0	32647	32631	32748	32731	33167	32407	31950	32186	
807	0	32487	32559	32676	32724	33536	32391	32701	31579	
808	0	32548	32402	32807	32667	33645	32717	33559	31348	
809	0	32673	32391	32760	32751	32953	32954	34495	31729	
810	0	32786	32647	32679	32839	31989	32831	34193	32569	
811	0	32752	32767	32709	32805	32257	32709	33339	32567	
812	0	32790	32692	32791	32663	32993	32655	32647	32902	
813	0	32831	32727	32755	32573	32699	32749	32407	32832	
814	0	32751	32711	32797	32772	32839	32655	32507	32733	
815	0	32838	32730	32715	32787	33019	32599	32556	33083	
816	0	32883	32775	32709	32879	33091	32677	32723	33167	
817	0	32780	32711	32687	32687	32999	32598	32919	33031	
818	0	32800	32631	32691	32769	32647	32891	32903	32324	
819	0	32844	32681	32647	32791	32580	32997	32810	32278	
820	0	32860	32617	32637	32857	32675	33097	32587	32457	
821	0	32858	32805	32759	32677	32917	33015	32359	32547	
822	0	32829	32662	32806	32579	32101	32943	32602	32815	
823	0	32839	32631	32789	32711	31781	32876	32569	32695	
824	0	32826	32555	32775	32692	32551	32681	32599	32967	
825	0	32736	32671	32708	32756	32567	32909	32725	32867	
826	0	32778	32743	32695	32868	32317	32931	32823	32387	
827	0	32749	32535	32519	32675	32689	32820	32663	32851	
828	0	32789	32635	32829	32727	33143	32605	32790	33235	
829	0	32834	32647	32775	32722	33211	32615	32839	33227	
830	0	32815	32535	32743	32695	32843	32687	32763	33028	
831	0	32834	32698	32703	32847	32500	32887	32605	33171	
832	0	32804	32718	32708	32659	32973	32783	32611	33054	
833	0	32793	32447	32703	32551	33067	32577	32783	32515	
834	0	32748	32660	32627	32770	32959	32591	32941	32791	
835	0	32742	32751	32707	32783	32969	32511	32852	32740	
836	0	32706	32515	32723	32847	32841	32663	32529	32319	
837	0	32754	32581	32847	32769	32703	32724	32367	32530	
838	0	32807	32871	32727	32599	32562	32839	32483	32559	
839	0	32799	32665	32738	32797	32571	33053	32215	32751	
840	0	32837	32681	32642	32773	32703	33012	31999	32854	
841	0	32908	32791	32663	32929	32828	33062	31965	33367	
842	0	32807	32803	32613	32887	33623	32833	31654	33405	
843	0	32729	32717	32797	32737	34135	32621	32305	32775	
844	0	32784	32479	32679	32599	33287	32853	33974	32041	
845	0	32606	32533	32631	32755	32359	32647	34205	31822	
846	0	32660	32595	32790	32743	32673	32551	34183	32054	
847	0	32835	32493	32719	32761	32667	32647	34277	32406	
848	0	32807	32642	32738	32967	32662	32889	33127	32471	
849	0	32759	32705	32647	32639	32159	32977	32193	32740	
850	0	32731	32515	32711	32517	32263	32871	32134	32765	
851	0	32632	32643	32646	32647	33111	32701	32575	32846	
852	0	32705	32797	32799	32725	32508	32705	32937	32331	
853	0	32804	32589	32751	32700	31935	32876	33255	32087	
854	0	32822	32663	32743	32613	32693	32822	33011	32391	
855	0	32775	32703	32932	32751	32263	32935	33006	32411	
856	0	32756	32611	32738	32722	32129	32599	33263	32308	
857	0	32683	32713	32700	32813	31926	32855	33147	31975	
858	0	32611	32629	32711	32797	33356	32633	32540	32699	
859	0	32681	32543	32805	32674	34051	32693	32236	32964	
860	0	32775	32621	32811	32769	33997	32491	32383	33027	
861	0	32779	32689	32627	32827	33385	32501	32359	32579	
862	0	32754	32766	32717	32821	33105	32767	32253	32713	
863	0	32793	32567	32612	32892	32655	32739	32756	33131	
864	0	32718	32623	32717	32837	32583	32715	33074	32858	
865	0	32692	32645	32634	32655	32391	32585	32676	32903	
866	0	32815	32770	32637	32603	31601	33185	32589	32583	
867	0	32759	32671	32661	32519	32117	33119	32587	33039	
868	0	32709	32498	32761	32692	31983	32436	32711	32957	
869	0	32831	32667	32684	32783	31791	32525	32679	33341	
870	0	32927	32833	32709	32853	32181	32631	32548	32887	
871	0	32837	32657	32699	32845	32063	33159	32599	32493	
872	0	32824	32807	32591	32575	33316	32741	32354	32411	
873	0	32728	32687	32754	32698	34321	32516	33364	32855	
874	0	32615	32445	32661	32721	34231	32685	33542	32831	
875	0	32647	32627	32759	32743	33662	32671	32574	33013	
876	0	32763	32581	32679	32785	32974	32645	32239	32642	
877	0	32817	32533	32769	32575	32548	32669	32163	32640	
878	0	32841	32620	32714	32707	32511	32621	32363	32539	
879	0	32756	32559	32763	32761	33238	32547	33286	32338	
880	0	32701	32671	32743	32689	32159	32821	33319	32383	
881	0	32743	32467	32721	32629	31875	33148	33035	32399	
882	0	32716	32639	32610	32805	32811	32899	32543	32927	
883	0	32756	32711	32804	32743	33170	32765	32695	32693	
884	0	32850	32580	32644	32911	32703	32789	33175	32684	
885	0	32878	32730	32741	32663	32855	32719	33431	32299	
886	0	32820	32743	32723	32628	33045	32813	32860	32687	
887	0	32713	32812	32839	32806	32895	32855	32439	32999	
888	0	32694	32532	32715	32827	32389	32765	32983	32447	
889	0	32661	32718	32839	32855	32615	32799	32871	32469	
890	0	32734	32759	32685	32640	32509	32809	32751	32455	
891	0	32773	32507	32731	32717	32815	32733	32679	32530	
892	0	32807	32709	32635	32775	32692	32813	32647	32807	
893	0	32877	32941	32597	32838	32359	33103	32484	32865	
894	0	32716	32647	32727	32875	33003	32851	32309	33299	
895	0	32694	32607	32698	32631	33095	32695	32391	32959	
896	0	32751	32668	32733	32605	32977	32775	32503	32695	
897	0	32734	32551	32692	32786	32951	32903	32927	32191	
898	0	32657	32613	32743	32791	33330	32645	33235	32403	
899	0	32764	32805	32668	32903	33045	32215	33399	32549	
900	0	32900	32683	32820	32639	33263	32299	32883	32607	
901	0	32699	32668	32863	32743	33428	32491	32431	32991	
902	0	32726	32481	32709	32767	32867	32815	32541	32917	
903	0	32792	32759	32551	32863	31348	33299	32999	32551	
904	0	32788	32549	32563	32631	31855	33235	33039	32647	
905	0	32775	32587	32797	32771	32865	32757	32927	32685	
906	0	32842	32644	32754	32765	32860	32759	32519	32625	
907	0	32790	32703	32673	32725	32759	32787	32599	32581	
908	0	32710	32739	32724	32575	32868	32862	32596	32494	
909	0	32669	32487	32677	32703	32538	32980	32855	32327	
910	0	32711	32687	32789	32700	32334	32831	32806	32107	
911	0	32730	32647	32797	32763	33455	32263	32617	31911	
912	0	32692	32535	32615	32543	33515	32391	32790	32155	
913	0	32775	32571	32638	32719	32195	32740	32874	32662	
914	0	32793	32663	32671	32719	31823	33039	32731	32871	
915	0	32799	32477	32733	32771	32359	33047	32643	32709	
916	0	32822	32733	32626	32877	32445	32935	32749	32961	
917	0	32759	32679	32759	32599	32500	32985	33014	32839	
918	0	32850	32885	32711	32759	32719	32807	32991	32733	
919	0	32839	32751	32669	32866	32786	32445	32463	32763	
920	0	32717	32681	32682	32858	33272	32247	32412	33063	
921	0	32647	32519	32647	32865	32729	32595	32547	33021	
922	0	32629	32605	32788	32747	32511	32815	32569	33031	
923	0	32716	32638	32771	32607	32615	32862	32639	33350	
924	0	32731	32441	32842	32603	32836	33047	32745	33055	
925	0	32838	32691	32707	32727	32950	33263	33375	31911	
926	0	32714	32727	32758	32767	32724	33233	33023	32215	
927	0	32743	32662	32783	32775	33306	32671	32919	32617	
928	0	32836	32722	32685	32775	33127	32438	32553	32845	
929	0	32927	32914	32705	32606	32951	32609	32493	33053	
930	0	32837	32719	32631	32751	33615	32660	32377	33373	
931	0	32806	32705	32549	32818	34575	32437	32567	33495	
932	0	32852	32855	32671	32850	34164	32751	33068	33079	
933	0	32775	32558	32647	32783	32634	32733	33679	32210	
934	0	32725	32679	32734	32595	32079	32447	32951	32315	
935	0	32571	32519	32639	32743	31775	32903	32683	32681	
936	0	32613	32279	32749	32729	31958	32695	33004	32551	
937	0	32705	32543	32751	32859	31647	32503	32951	32508	
938	0	32798	32647	32689	32695	31699	33081	32553	32319	
939	0	32754	32631	32795	32549	31946	33470	32373	32399	
940	0	32743	32663	32771	32565	32919	32895	32359	32287	
941	0	32740	32623	32757	32724	33387	32557	32667	32250	
942	0	32764	32727	32647	32755	33663	32407	32809	32556	
943	0	32781	32647	32731	32795	33627	32527	32423	32822	
944	0	32729	32582	32687	32583	33543	32725	32879	32775	
945	0	32822	32799	32757	32787	32380	33041	33019	32615	
946	0	32883	32821	32699	32764	31898	33081	32647	32647	
947	0	32797	32647	32607	32826	32437	32751	32519	32679	
948	0	32775	32578	32767	32669	32685	32263	32863	33047	
949	0	32838	32759	32703	32517	32471	32195	32407	33115	
950	0	32839	32589	32743	32818	32167	32797	32695	32519	
951	0	32705	32635	32692	32766	33209	32929	32327	32623	
952	0	32743	32743	32775	32773	32916	32989	32279	32967	
953	0	32720	32567	32715	32789	32782	32903	33018	32471	
954	0	32795	32791	32743	32663	32519	32783	33919	31615	
955	0	32828	32815	32725	32671	32039	32847	33429	32093	
956	0	32825	32567	32735	32791	32679	33117	32855	32507	
957	0	32721	32605	32722	32769	32839	33081	32903	32273	
958	0	32764	32635	32619	32825	32709	32826	32903	32605	
959	0	32773	32717	32766	32673	32665	32691	32727	32894	
960	0	32780	32615	32815	32751	33101	32455	32558	33191	
961	0	32736	32627	32684	32796	33159	32369	32668	33179	
962	0	32663	32643	32721	32783	32903	32549	32825	32474	
963	0	32639	32687	32823	32531	33007	32697	32555	32747	
964	0	32735	32535	32655	32685	33263	32789	32991	33031	
965	0	32801	32727	32615	32815	32871	32945	33054	32918	
966	0	32756	32612	32591	32532	32661	32935	32940	32702	
967	0	32814	32719	32634	32699	32537	32995	33151	32187	
968	0	32790	32615	32663	32786	31863	33079	32993	32237	
969	0	32757	32615	32655	32799	32663	32898	32643	32452	
970	0	32764	32669	32743	32587	33119	32583	32479	32199	
971	0	32839	32631	32695	32754	33187	32518	32355	32167	
972	0	32692	32710	32663	32817	33487	32545	32029	33110	
973	0	32718	32509	32767	32813	33243	32605	32039	33371	
974	0	32790	32703	32692	32695	32839	32687	32347	33323	
975	0	32793	32687	32715	32638	32895	32862	32519	33361	
976	0	32806	32599	32619	32863	32927	32751	32738	33243	
977	0	32775	32635	32751	32807	32601	32711	32371	32855	
978	0	32764	32703	32604	32867	32082	32579	33035	32255	
979	0	32798	32606	32697	32837	32169	32597	33039	32166	
980	0	32735	32731	32655	32679	32732	32875	33155	32826	
981	0	32775	32791	32647	32773	32350	33133	32687	32790	
982	0	32775	32767	32637	32775	32583	33037	32701	32631	
983	0	32743	32431	32763	32710	33701	32803	33025	32711	
984	0	32805	32665	32737	32775	34085	32373	33599	32639	
985	0	32758	32588	32594	32758	33833	32287	33431	32466	
986	0	32644	32644	32723	32796	33285	32206	32799	31983	
987	0	32726	32455	32591	32831	32212	32788	32729	32359	
988	0	32851	32715	32711	32615	31565	33218	33211	32314	
989	0	32869	32710	32737	32740	31478	33143	32805	32444	
990	0	32779	32743	32623	32721	32171	33025	32261	32918	
991	0	32796	32435	32691	32711	32471	32591	32571	32541	
992	0	32820	32662	32598	32539	33135	32391	32971	32655	
993	0	32785	32663	32706	32610	32775	32935	32710	32925	
994	0	32786	32563	32703	32721	33018	32943	32487	32959	
995	0	32769	32492	32674	32813	33089	32479	32620	32935	
996	0	32769	32609	32799	32811	32626	32615	32593	32548	
997	0	32694	32694	32637	32695	32847	32775	32548	32901	
998	0	32703	32627	32666	32671	32564	32775	32637	32931	
999	0	32615	32615	32654	32811	32951	32767	32639	32511	
1000	0	32802	32775	32722	32859	32325	32783	32597	32505	
1001	0	32916	32927	32607	32931	31634	33170	32255	32511	
1002	0	32673	32556	32743	32935	32319	33213	32005	33015	
1003	0	32567	32567	32686	32890	33431	32679	32109	32859	
1004	0	32661	32499	32783	32561	33774	32467	32436	32775	
1005	0	32770	32491	32749	32717	32658	32982	32501	32967	
1006	0	32679	32575	32713	32719	34089	32735	33194	32935	
1007	0	32711	32694	32665	32751	34466	32647	34386	32790	
1008	0	32706	32518	32626	32829	32203	32935	33463	32919	
1009	0	32781	32613	32703	32583	31093	32785	33203	31973	
1010	0	32756	32647	32791	32647	31727	32606	33263	31925	
1011	0	32602	32545	32642	32645	32293	32739	32897	32454	
1012	0	32714	32447	32803	32797	32647	32871	32570	32743	
1013	0	32824	32655	32755	32791	32615	32764	32615	32895	
1014	0	32870	32669	32783	32677	31879	33143	32879	32333	
1015	0	32831	32615	32807	32631	32541	32911	32550	32271	
1016	0	32837	32805	32817	32828	33205	32820	32447	32754	
1017	0	32877	32901	32578	32828	33407	32903	32647	32657	
1018	0	32845	32765	32679	32943	32751	33039	32587	33035	
1019	0	32839	32661	32601	32775	33204	32607	32516	33316	
1020	0	32913	32803	32711	32640	33906	32237	32575	33055	
1021	0	32714	32765	32583	32647	33965	32211	32463	33086	
1022	0	32797	32748	32623	32563	33086	32365	32226	32711	
1023	0	32796	32567	32602	32773	33287	32581	32399	33045	
1024	0	32667	32692	32775	32700	33639	32855	32839	33049	
1025	0	32647	32589	32695	32748	32505	32981	33443	32434	
1026	0	32729	32551	32753	32757	31308	33132	33287	31811	
1027	0	32751	32587	32733	32579	32538	33057	32877	32275	
1028	0	32796	32738	32838	32787	32367	32885	32756	32494	
1029	0	32871	32797	32863	32843	32661	32647	33115	32477	
1030	0	32801	32663	32749	32647	32925	32663	32863	32461	
1031	0	32797	32615	32708	32791	32603	32785	32853	32391	
1032	0	32743	32639	32722	32749	32316	32943	32675	32892	
1033	0	32743	32663	32719	32775	32839	32859	32589	32751	
1034	0	32722	32517	32718	32631	32543	33068	32814	32468	
1035	0	32704	32660	32743	32734	31839	33069	33069	32178	
1036	0	32812	32631	32717	32811	32427	32730	33165	32638	
1037	0	32772	32492	32589	32911	32977	32663	33207	32958	
1038	0	32775	32747	32621	32915	32642	32727	32796	32815	
1039	0	32660	32559	32639	32615	32854	32804	32563	32660	
1040	0	32688	32647	32755	32701	33045	32643	32673	32730	
1041	0	32715	32471	32727	32742	32455	32756	32447	32795	
1042	0	32715	32643	32653	32767	32378	32835	32179	32511	
1043	0	32799	32580	32655	32639	32825	32965	32171	32722	
1044	0	32836	32711	32722	32731	32782	32631	32557	32687	
1045	0	32831	32598	32708	32789	32995	32268	32764	32399	
1046	0	32839	32871	32685	32835	33129	32699	32663	32605	
1047	0	32815	32796	32573	32583	33355	32771	32495	33154	
1048	0	32730	32543	32690	32773	33035	32591	32775	32971	
1049	0	32789	32645	32623	32798	33053	32639	33798	32943	
1050	0	32758	32583	32681	32767	32525	32683	33735	32511	
1051	0	32909	32822	32701	32567	32325	32915	32993	32501	
1052	0	32726	32593	32711	32749	32966	32859	32557	32551	
1053	0	32653	32643	32676	32807	32590	33039	32175	32719	
1054	0	32659	32515	32753	32759	32447	33273	31989	33025	
1055	0	32721	32483	32775	32677	32175	33243	32278	32231	
1056	0	32738	32690	32755	32519	32743	32538	32270	32736	
1057	0	32679	32653	32677	32677	33778	32301	32303	32847	
1058	0	32632	32467	32804	32769	34039	31820	33213	32365	
1059	0	32775	32714	32684	32911	33302	32376	33050	32255	
1060	0	32719	32655	32703	32703	32623	32702	32563	32374	
1061	0	32738	32775	32795	32855	32803	32773	33252	32385	
1062	0	32791	32571	32719	32879	33471	32775	33667	32661	
1063	0	32859	32885	32749	32743	33223	32647	33355	32981	
1064	0	32783	32667	32740	32549	32743	32751	32641	33055	
1065	0	32558	32617	32647	32769	32661	33085	32633	32516	
1066	0	32614	32439	32695	32737	32611	32719	32731	32326	
1067	0	32693	32675	32739	32812	32685	32391	32642	32503	
1068	0	32880	32751	32681	32683	32043	32773	32775	32179	
1069	0	32965	32991	32635	32647	31719	32985	33097	32179	
1070	0	32908	32813	32598	32727	32007	33031	32583	32629	
1071	0	32753	32591	32791	32687	32639	32838	32476	33450	
1072	0	32784	32775	32642	32847	32539	33021	32050	34101	
1073	0	32836	32597	32713	32647	32854	32976	31941	33927	
1074	0	32811	32759	32623	32638	32599	32985	32229	33319	
1075	0	32793	32771	32741	32855	32433	33094	32766	32911	
1076	0	32759	32447	32658	32831	32315	33095	33269	32725	
1077	0	32771	32507	32745	32583	32623	32839	33108	32403	
1078	0	32718	32539	32730	32546	33192	32567	33193	31717	
1079	0	32650	32607	32685	32775	33105	32591	33423	31479	
1080	0	32637	32452	32783	32667	33031	32487	33020	32391	
1081	0	32719	32455	32815	32561	33277	32461	32825	32695	
1082	0	32753	32695	32663	32731	32999	32751	32589	32451	
1083	0	32847	32799	32612	32879	32643	32847	32527	32647	
1084	0	32783	32742	32615	32791	32525	32831	32487	33263	
1085	0	32799	32679	32677	32647	32607	32790	32199	33437	
1086	0	32823	32734	32709	32647	32551	32847	32443	33037	
1087	0	32829	32567	32719	32799	32647	32815	33071	32807	
1088	0	32783	32620	32631	32775	33039	32551	32711	32479	
1089	0	32767	32631	32694	32740	33075	32567	32469	32148	
1090	0	32708	32503	32751	32607	33095	32879	32951	32399	
1091	0	32763	32628	32503	32763	32807	32994	33207	32557	
1092	0	32710	32559	32747	32750	32711	32711	33077	32249	
1093	0	32660	32519	32807	32838	33045	32689	32641	32173	
1094	0	32750	32663	32631	32643	32495	32647	32636	32516	
1095	0	32814	32721	32669	32747	31926	32919	32759	32613	
1096	0	32738	32791	32765	32740	32260	32943	32887	32639	
1097	0	32801	32692	32767	32854	32647	32785	32385	33177	
1098	0	32705	32548	32804	32599	33049	32634	32207	32718	
1099	0	32773	32763	32727	32703	32974	32717	32458	32582	
1100	0	32812	32722	32751	32711	32383	32888	32375	32851	
1101	0	32858	32764	32791	32759	32679	32757	32303	32525	
1102	0	32821	32637	32834	32823	33145	32694	32747	32695	
1103	0	32815	32655	32727	32911	32551	32901	33258	32708	
1104	0	32732	32507	32781	32827	32551	33021	33245	32599	
1105	0	32729	32571	32636	32607	33445	32871	33125	32351	
1106	0	32710	32621	32773	32666	32903	32863	32831	32718	
1107	0	32696	32495	32698	32731	32711	32407	33021	32311	
1108	0	32772	32647	32775	32661	33207	32383	32732	32229	
1109	0	32793	32621	32615	32731	32411	32947	32519	32103	
1110	0	32815	32773	32687	32863	32902	32558	32986	32263	
1111	0	32765	32639	32640	32757	32903	32582	33041	32731	
1112	0	32783	32515	32765	32617	33310	32745	32477	33230	
1113	0	32721	32579	32667	32577	33559	32609	32839	33335	
1114	0	32726	32828	32695	32789	32251	32685	33059	32871	
1115	0	32846	32935	32614	32823	31783	32756	33069	32449	
1116	0	32869	32896	32706	32855	33017	32551	32551	32979	
1117	0	32801	32647	32647	32847	32517	32996	32109	32903	
1118	0	32823	32695	32639	32821	31871	33177	32247	32825	
1119	0	32807	32567	32593	32733	33298	32690	32301	33223	
1120	0	32772	32646	32745	32564	33455	33036	32183	33269	
1121	0	32676	32583	32635	32703	32071	33212	32271	33317	
1122	0	32630	32477	32773	32751	32327	32709	32668	32695	
1123	0	32740	32673	32748	32895	32811	32447	33059	32831	
1124	0	32899	32815	32647	32733	32620	32401	33563	32535	
1125	0	32695	32763	32692	32647	33021	32636	33175	32695	
1126	0	32687	32542	32740	32738	33140	32994	32761	32442	
1127	0	32700	32559	32796	32655	33439	32630	33287	32437	
1128	0	32677	32398	32669	32679	32839	32698	33447	32565	
1129	0	32725	32647	32700	32827	32178	32821	33261	32676	
1130	0	32711	32628	32743	32726	32439	32735	33373	32323	
1131	0	32743	32529	32813	32605	32933	32445	32903	32239	
1132	0	32733	32700	32791	32613	32964	32751	32726	32253	
1133	0	32733	32701	32740	32738	33081	32799	32743	32229	
1134	0	32698	32767	32725	32813	32799	32743	32617	32586	
1135	0	32769	32621	32717	32835	32743	32610	32535	32790	
1136	0	32839	32678	32765	32615	32647	32725	32707	32863	
1137	0	32818	32671	32723	32803	33094	32742	32617	32660	
1138	0	32767	32555	32587	32740	33143	32863	32575	32629	
1139	0	32751	32761	32695	32823	33005	32900	32353	32723	
1140	0	32668	32703	32662	32579	32789	33095	32423	32613	
1141	0	32730	32734	32751	32709	32851	33011	32431	32839	
1142	0	32748	32538	32845	32791	32775	32851	32359	32975	
1143	0	32893	32839	32701	32765	32383	33152	32479	32707	
1144	0	32924	32847	32625	32623	32141	32853	32209	32927	
1145	0	32839	32751	32769	32775	32255	32519	32771	32929	
1146	0	32794	32569	32775	32731	33099	32565	32890	33430	
1147	0	32748	32471	32669	32687	33634	32621	32735	33270	
1148	0	32704	32559	32765	32525	33257	32659	32828	32415	
1149	0	32742	32807	32631	32551	32287	33015	33015	32281	
1150	0	32813	32613	32769	32793	32443	32879	32835	32775	
1151	0	32799	32667	32718	32749	32749	32581	32951	32682	
1152	0	32718	32740	32592	32863	32701	32502	33483	31538	
1153	0	32775	32577	32703	32719	33031	32943	33639	31863	
1154	0	32679	32537	32787	32743	32633	32843	33181	32135	
1155	0	32673	32503	32655	32719	32767	32820	32879	32601	
1156	0	32716	32603	32708	32823	32573	32445	32594	32334	
1157	0	32866	32559	32623	32891	32623	32604	32708	32175	
1158	0	32884	32756	32647	32663	32895	32843	32578	32439	
1159	0	32791	32647	32684	32597	32631	32903	32109	32819	
1160	0	32748	32705	32706	32743	32447	32535	32812	32375	
1161	0	32775	32611	32795	32839	32613	32775	33065	32773	
1162	0	32807	32677	32673	32827	32516	33053	32858	33055	
1163	0	32708	32625	32639	32511	33230	32639	32967	33437	
1164	0	32662	32741	32813	32722	33303	32639	33139	33380	
1165	0	32653	32541	32722	32735	32461	33053	32929	32997	
1166	0	32761	32557	32612	32901	32387	32935	32663	32550	
1167	0	32794	32743	32791	32741	33003	32620	32355	32574	
1168	0	32764	32675	32772	32591	32935	32621	32103	32673	
1169	0	32837	32591	32707	32755	32911	32790	32018	32903	
1170	0	32774	32807	32749	32765	32541	32914	32103	33302	
1171	0	32841	32771	32669	32807	32371	32891	32195	33223	
1172	0	32822	32835	32775	32845	32518	32655	32045	32639	
1173	0	32828	32711	32767	32732	32286	32989	31971	32843	
1174	0	32881	32726	32794	32655	32927	32850	32775	32940	
1175	0	32884	32599	32685	32645	33362	32898	33639	32715	
1176	0	32799	32783	32593	32775	33479	32735	33983	32439	
1177	0	32749	32644	32727	32667	33791	32687	33429	32959	
1178	0	32629	32679	32662	32775	33364	32615	32966	32801	
1179	0	32711	32445	32698	32775	32685	32125	33303	32374	
1180	0	32763	32417	32759	32587	32947	32153	33159	32031	
1181	0	32783	32493	32647	32767	32231	32333	33254	31751	
1182	0	32589	32703	32695	32787	32031	32623	33295	31781	
1183	0	32641	32475	32725	32775	32423	32836	32805	32495	
1184	0	32808	32819	32639	32811	32359	33253	32583	32503	
1185	0	32783	32861	32719	32623	32025	33285	32943	32548	
1186	0	32772	32569	32751	32723	32647	33027	32879	32884	
1187	0	32789	32615	32639	32743	32834	32988	32623	32850	
1188	0	32731	32551	32775	32711	33110	32955	32375	32996	
1189	0	32614	32679	32773	32807	33042	32597	32246	32316	
1190	0	32686	32443	32791	32589	32473	32703	31841	32463	
1191	0	32727	32469	32788	32551	33007	32634	32343	32666	
1192	0	32856	32723	32643	32743	33439	32261	32575	32647	
1193	0	32854	32658	32741	32814	33122	32335	33018	32659	
1194	0	32767	32687	32743	32863	32151	32855	32903	33204	
1195	0	32821	32860	32541	32671	32221	33050	32895	33309	
1196	0	32826	32677	32623	32783	32439	33051	33069	33051	
1197	0	32732	32675	32773	32751	32549	33047	32740	32935	
1198	0	32799	32788	32695	32833	32487	33127	32775	32875	
1199	0	32788	32541	32758	32911	33039	32687	32546	33172	
1200	0	32742	32594	32719	32692	33117	32771	32865	32804	
1201	0	32734	32707	32703	32775	32854	32949	32684	32663	
1202	0	32731	32683	32753	32845	32639	32695	32710	32244	
1203	0	32727	32745	32692	32812	33042	32791	32647	32133	
1204	0	32700	32557	32732	32691	33618	32727	32753	32339	
1205	0	32749	32695	32739	32605	32884	32779	33095	32347	
1206	0	32829	32711	32661	32791	31873	33031	32595	32721	
1207	0	32817	32783	32798	32775	32279	32958	32587	32607	
1208	0	32652	32749	32770	32731	32423	32807	32487	32823	
1209	0	32702	32583	32677	32711	32745	32749	32647	32927	
1210	0	32731	32695	32782	32603	33015	32826	32450	32915	
1211	0	32698	32677	32735	32765	33323	32429	32812	32727	
1212	0	32791	32514	32631	32838	33645	32526	33251	32679	
1213	0	32848	32708	32735	32891	32499	32647	33411	32596	
1214	0	32801	32615	32775	32723	32351	32603	33579	32463	
1215	0	32833	32662	32636	32517	32631	32621	33221	32565	
1216	0	32844	32535	32747	32703	32933	32455	32791	32724	
1217	0	32775	32731	32621	32801	32903	32527	32598	33295	
1218	0	32750	32621	32705	32863	32343	32751	32543	33383	
1219	0	32785	32709	32722	32807	32244	32839	32903	32575	
1220	0	32793	32519	32590	32587	32797	32757	32836	32343	
1221	0	32751	32647	32775	32741	33031	32628	32519	32327	
1222	0	32781	32559	32807	32836	32329	32703	32511	32367	
1223	0	32708	32431	32695	32781	32716	32775	32551	32559	
1224	0	32770	32571	32759	32593	32727	32863	32262	32478	
1225	0	32799	32631	32727	32783	32547	32903	32433	32315	
1226	0	32736	32661	32591	32747	32966	32867	32630	32405	
1227	0	32745	32527	32733	32740	33303	32967	32836	32409	
1228	0	32725	32685	32647	32579	33132	32871	33308	32231	
1229	0	32760	32631	32647	32692	32311	33023	32412	32763	
1230	0	32734	32719	32641	32743	32821	32911	32107	33231	
1231	0	32628	32431	32757	32783	33269	32834	32647	32721	
1232	0	32708	32609	32759	32548	33109	32775	33042	32925	
1233	0	32804	32663	32655	32741	32767	32647	33837	32436	
1234	0	32861	32839	32787	32863	32674	32731	33655	32424	
1235	0	32873	32687	32679	32710	32599	32987	33475	32379	
1236	0	32816	32791	32644	32806	32439	32761	32567	32919	
1237	0	32804	32679	32843	32847	32692	32447	32279	33383	
1238	0	32739	32565	32695	32863	32151	32982	31814	33191	
1239	0	32692	32725	32775	32735	32374	33001	31985	33397	
1240	0	32631	32511	32831	32559	32967	32435	33107	33110	
1241	0	32645	32669	32727	32679	33574	32172	33301	31971	
1242	0	32728	32511	32783	32799	33135	32539	32967	31895	
1243	0	32819	32782	32613	32762	32834	32695	32613	32239	
1244	0	32708	32687	32748	32588	32551	32535	32557	32871	
1245	0	32740	32493	32719	32735	33021	32546	32655	33231	
1246	0	32882	32812	32598	32749	32492	32575	32919	33062	
1247	0	32975	32897	32692	32903	31852	32923	32885	32711	
1248	0	32760	32575	32654	32735	31989	33068	32817	32506	
1249	0	32647	32526	32701	32516	32271	32949	32820	32035	
1250	0	32703	32439	32805	32599	32350	32773	32639	32471	
1251	0	32790	32699	32658	32687	33023	32843	32343	32701	
1252	0	32838	32607	32786	32871	33191	32751	32943	32077	
1253	0	32847	32727	32831	32623	33140	32743	33083	32346	
1254	0	32735	32607	32815	32603	33125	32903	32721	32903	
1255	0	32748	32615	32735	32837	32883	33055	32327	33095	
1256	0	32797	32681	32571	33000	32525	32887	32383	32397	
1257	0	32669	32647	32711	32916	33049	32502	32706	32742	
1258	0	32713	32807	32607	32733	32959	32443	32988	32655	
1259	0	32705	32518	32673	32628	33332	32379	32557	32877	
1260	0	32682	32769	32583	32794	33023	32913	32467	32399	
1261	0	32679	32743	32727	32790	33071	32795	32073	32795	
1262	0	32697	32647	32761	32759	33119	32841	32386	33133	
1263	0	32676	32579	32662	32819	33924	32742	33191	32965	
1264	0	32675	32553	32759	32710	33175	32713	34147	32537	
1265	0	32797	32567	32655	32597	32199	32751	34021	32087	
1266	0	32881	32709	32679	32797	31494	33156	33319	32701	
1267	0	32892	32707	32733	32844	31463	33177	32831	32789	
1268	0	32870	32787	32619	32847	32114	32983	32943	32727	
1269	0	32851	32567	32791	32671	33001	32791	32695	32431	
1270	0	32729	32741	32683	32621	33027	32727	32555	32508	
1271	0	32669	32615	32836	32731	32943	32635	32497	32647	
1272	0	32776	32735	32775	32671	33188	32665	32431	32815	
1273	0	32773	32455	32692	32787	32727	32839	32575	32461	
1274	0	32775	32599	32743	32749	32321	32871	32630	32540	
1275	0	32773	32685	32623	32623	31861	32871	32726	32749	
1276	0	32839	32669	32687	32783	32197	33077	32791	32731	
1277	0	32810	32730	32755	32839	32740	32999	32687	32598	
1278	0	32796	32659	32607	32825	33111	32571	32519	32725	
1279	0	32841	32647	32670	32785	32917	32498	32705	32627	
1280	0	32813	32721	32615	32663	32857	32551	32711	32718	
1281	0	32732	32669	32743	32585	32555	33001	32537	33012	
1282	0	32790	32619	32663	32709	32903	32635	32515	33300	
1283	0	32834	32539	32641	32767	33157	32511	32423	33275	
1284	0	32745	32715	32711	32859	33069	32686	32655	33202	
1285	0	32666	32657	32708	32647	33133	32717	32439	32774	
1286	0	32671	32540	32714	32578	33108	32700	32728	31971	
1287	0	32727	32732	32591	32715	32775	32399	33239	31507	
1288	0	32730	32757	32746	32755	32682	32706	32879	32223	
1289	0	32639	32471	32647	32805	33321	32726	32755	32775	
1290	0	32745	32655	32693	32751	33255	32836	32580	33021	
1291	0	32908	32631	32775	32601	32435	32887	32771	33081	
1292	0	32832	32782	32609	32611	32284	32733	33068	32391	
1293	0	32703	32415	32719	32731	33245	32589	32870	32723	
1294	0	32687	32636	32703	32775	32917	32817	32803	32927	
1295	0	32814	32657	32637	32773	32727	32819	32655	33174	
1296	0	32732	32644	32707	32559	32579	32865	32631	32646	
1297	0	32714	32519	32655	32700	31743	33127	32635	32374	
1298	0	32795	32676	32775	32711	31727	32807	32963	32239	
1299	0	32859	32723	32719	32836	32451	32771	33153	32135	
1300	0	32780	32901	32615	32879	33130	32813	32999	32438	
1301	0	32721	32506	32791	32617	32957	32933	32743	32339	
1302	0	32793	32711	32713	32566	33279	32803	32564	32677	
1303	0	32715	32764	32755	32711	33143	32687	31903	33151	
1304	0	32695	32451	32685	32703	32892	32647	32285	32922	
1305	0	32746	32607	32734	32717	32391	32306	33004	32688	
1306	0	32842	32667	32647	32694	32153	32252	33073	32567	
1307	0	32767	32715	32577	32775	32279	32301	32452	32699	
1308	0	32740	32833	32628	32733	33701	32471	32783	32935	
1309	0	32779	32527	32681	32913	33781	32751	32647	33142	
1310	0	32838	32725	32605	32675	32404	33067	32515	32950	
1311	0	32587	32565	32707	32756	32492	33061	32547	32718	
1312	0	32599	32619	32751	32807	32429	32767	32943	32118	
1313	0	32749	32773	32775	32861	32223	32742	33055	32623	
1314	0	32877	32655	32727	32749	32715	32891	32967	33066	
1315	0	32873	32825	32704	32635	33135	32745	33607	33247	
1316	0	32856	32767	32615	32762	33567	32429	32911	33159	
1317	0	32734	32495	32783	32717	33095	32548	32399	33129	
1318	0	32792	32604	32850	32799	33189	32887	32863	32873	
1319	0	32806	32831	32609	32647	32847	32927	33528	32501	
1320	0	32737	32775	32751	32743	32261	32953	32967	32391	
1321	0	32749	32661	32850	32805	32324	32997	32391	32037	
1322	0	32636	32631	32647	32855	32549	32918	32404	32037	
1323	0	32727	32805	32726	32684	31911	32957	32903	32196	
1324	0	32794	32671	32829	32548	32039	32825	32967	32699	
1325	0	32714	32671	32661	32733	32759	32899	33106	32601	
1326	0	32807	32599	32751	32749	32883	33075	32823	32551	
1327	0	32740	32747	32929	32797	32895	32854	32438	32562	
1328	0	32799	32541	32687	32617	33095	32670	32467	32256	
1329	0	32866	32873	32733	32791	33391	32685	32829	32551	
1330	0	32935	32986	32749	32815	33431	32591	32836	33341	
1331	0	32948	32877	32833	32851	32997	32665	32740	33867	
1332	0	33052	33079	32763	32931	33063	33087	32527	33127	
1333	0	33022	32879	32687	32629	33380	32771	32789	32927	
1334	0	32903	32863	32799	32726	33615	32665	32605	33031	
1335	0	32784	32628	32725	32826	33471	32688	32517	32207	
1336	0	32751	32481	32806	32603	32855	32581	32375	32116	
1337	0	32903	32603	32583	32511	32583	32835	32422	32473	
1338	0	33090	32732	32671	32797	30831	33181	32481	32711	
1339	0	33039	32807	32571	32711	30783	33091	32421	32696	
1340	0	32865	32497	32679	32795	32503	32370	32071	33081	
1341	0	32930	32669	32662	32690	33667	32174	32479	33079	
1342	0	32831	32655	32559	32540	34035	32103	33951	32114	
1343	0	32917	32621	32621	32676	33087	32373	33863	32187	
1344	0	33127	32711	32417	32773	32558	32691	33521	32567	
1345	0	33093	32775	32435	32660	31748	32933	33101	33031	
1346	0	32938	32527	32591	32403	32388	32713	32862	33077	
1347	0	32887	32518	32546	32595	32415	33375	32890	32857	
1348	0	32937	32293	32455	32532	33010	33065	32631	32663	
1349	0	32884	32146	32549	32551	33329	32773	32701	32815	
1350	0	32893	32228	32367	32525	32948	32799	32795	32587	
1351	0	32952	32375	32519	32351	33067	32647	32813	32425	
1352	0	32928	32117	32503	32277	32999	32775	32867	32284	
1353	0	32935	32311	32333	32487	32932	32887	32772	32373	
1354	0	32950	32263	32471	32543	32757	32925	32799	32195	
1355	0	32789	32255	32373	32566	32638	33029	32687	32115	
1356	0	32594	31905	32535	32501	32575	32737	32772	32199	
1357	0	32582	32023	32547	32485	32699	32733	32773	32423	
1358	0	32567	32039	32527	32623	32841	32887	32572	32895	
1359	0	32388	32031	32634	32638	32643	32895	32317	32866	
1360	0	32367	31783	32582	32718	32949	32951	32287	32518	
1361	0	32457	32133	32655	32647	33047	33038	32439	32733	
1362	0	32460	32423	32743	32731	32813	33051	32701	32548	
1363	0	32424	32347	32715	32943	33451	32647	32818	32495	
1364	0	32273	32375	32822	32955	33101	32707	32436	33126	
1365	0	32214	32318	32676	32959	32579	32517	32642	33013	
1366	0	32163	32073	32746	32903	32685	32335	33710	32358	
1367	0	32141	32301	32901	32767	31860	32662	33655	31965	
1368	0	32181	32391	32881	32804	31623	33246	33373	32307	
1369	0	32140	32607	32943	32989	32391	33141	32823	32803	
1370	0	32092	32457	33057	32999	33127	32883	33439	32603	
1371	0	32292	32751	33135	33126	31831	33060	33462	32321	
1372	0	32375	33067	33086	33142	31807	32663	33301	32295	
1373	0	32358	32978	33121	32931	32423	32645	32901	32455	
1374	0	32391	33093	33299	33231	31661	32971	33045	32098	
1375	0	32447	33408	33533	33319	31939	32903	33313	32054	
1376	0	32514	33311	33407	33359	32542	32859	33382	32179	
1377	0	32727	33483	33402	33013	32303	32700	33087	32647	
1378	0	32796	33394	33210	32947	32664	32503	31925	33025	
1379	0	32848	33414	33139	32951	33039	32363	31719	33235	
1380	0	32799	33199	33153	32903	33799	32391	32075	33609	
1381	0	32941	33497	33230	33013	33072	32791	32841	33199	
1382	0	33036	33339	33099	32863	32523	32978	32815	32989	
1383	0	33056	33515	32877	32959	33461	32621	32737	32499	
1384	0	33003	33366	32846	32999	33203	32500	32485	32363	
1385	0	33028	33325	32767	32758	32316	32903	32347	32541	
1386	0	32918	33475	32685	32885	32053	32914	32367	32917	
1387	0	32932	32991	32591	32765	32775	32694	32323	32583	
1388	0	32863	32950	32614	32741	32965	32775	31651	33239	
1389	0	32879	32886	32539	32484	32786	32943	31963	32883	
1390	0	32998	32887	32547	32655	33375	32699	32103	32999	
1391	0	33035	32839	32565	32722	33414	32477	32239	33541	
1392	0	32963	32769	32535	32647	32695	32629	32684	33171	
1393	0	32885	32655	32492	32525	32612	32834	32722	32982	
1394	0	32879	32603	32615	32623	34215	32655	33639	32895	
1395	0	33018	32716	32487	32679	33971	32461	34005	32911	
1396	0	33007	32663	32505	32627	33243	32543	33365	32839	
1397	0	32975	32785	32615	32711	33324	32423	32469	32902	
1398	0	32933	32611	32551	32611	33529	32551	31725	33469	
1399	0	32889	32676	32527	32555	33724	32519	32319	33487	
1400	0	32823	32567	32539	32709	32975	32839	32731	32495	
1401	0	32828	32324	32647	32711	32396	32999	33231	31862	
1402	0	32843	32391	32599	32639	31933	33082	32578	32817	
1403	0	32800	32301	32631	32647	32510	32821	32527	33223	
1404	0	32804	32590	32535	32639	31379	32853	33279	32271	
1405	0	32879	32511	32549	32647	31543	32919	32725	32433	
1406	0	32917	32558	32641	32679	32431	32987	32519	32718	
1407	0	32893	32501	32701	32743	33115	32662	32964	32501	
1408	0	32783	32671	32561	32719	32548	32687	33158	32627	
1409	0	32796	32405	32687	32499	31930	32695	33113	32135	
1410	0	32806	32483	32711	32613	32644	32787	32303	32167	
1411	0	32731	32373	32582	32681	33185	32845	32671	32551	
1412	0	32653	32331	32727	32775	33431	32842	32655	32609	
1413	0	32640	32551	32635	32593	32903	33093	32162	32903	
1414	0	32711	32455	32679	32695	33247	32775	32775	32437	
1415	0	32690	32307	32771	32693	33077	32815	32997	32124	
1416	0	32722	32555	32611	32717	32691	32915	32791	32109	
1417	0	32811	32671	32694	32855	32423	32738	33218	31926	
1418	0	32732	32435	32647	32647	32789	32569	33055	31665	
1419	0	32718	32605	32684	32613	32621	32663	33223	31683	
1420	0	32719	32671	32719	32855	32647	32791	33215	32406	
1421	0	32789	32621	32543	32828	32877	32527	32759	32474	
1422	0	32735	32709	32639	32868	32918	32233	32751	32926	
1423	0	32753	32621	32669	32647	32332	32903	32599	33225	
1424	0	32719	32623	32637	32581	32881	33027	32271	33709	
1425	0	32770	32669	32743	32766	32787	32921	32367	33750	
1426	0	32807	32663	32695	32823	32508	32935	32711	32671	
1427	0	32853	32742	32725	32815	32788	32583	33079	32359	
1428	0	32837	32685	32757	32804	33151	32463	33287	32407	
1429	0	32749	32737	32582	32767	33381	32510	33091	32793	
1430	0	32615	32573	32751	32515	32799	32719	32518	32829	
1431	0	32771	32527	32743	32727	31943	33415	32342	32914	
1432	0	32929	32679	32599	32850	31941	33323	32460	32970	
1433	0	32866	32669	32633	32878	32822	32869	32471	32999	
1434	0	32736	32749	32763	32620	32308	32963	32711	32865	
1435	0	32692	32498	32663	32723	32342	33143	32711	32509	
1436	0	32684	32695	32730	32749	32342	32959	32918	32243	
1437	0	32725	32628	32758	32827	32826	32679	32787	32597	
1438	0	32762	32587	32673	32788	32988	32838	32475	32983	
1439	0	32837	32717	32791	32729	33159	32711	33039	32431	
1440	0	32749	32621	32671	32642	33666	32386	33505	32375	
1441	0	32756	32451	32726	32647	32761	32559	33127	32700	
1442	0	32804	32620	32756	32767	32711	32691	32442	32759	
1443	0	32705	32545	32642	32756	32885	32565	31943	32972	
1444	0	32826	32485	32669	32742	33381	32545	32245	32868	
1445	0	32813	32684	32623	32863	32807	32621	32349	33010	
1446	0	32732	32707	32717	32863	32973	32615	33015	32489	
1447	0	32730	32511	32633	32863	33127	32786	33309	31935	
1448	0	32815	32751	32834	32542	33117	32289	33211	32145	
1449	0	32797	32855	32815	32695	32993	32199	32887	32525	
1450	0	32815	32621	32738	32775	32783	32740	32373	32751	
1451	0	32764	32699	32805	32775	32655	32950	32721	32604	
1452	0	32723	32631	32699	32763	32199	33076	33326	32089	
1453	0	32733	32605	32747	32757	31941	32989	33438	32363	
1454	0	32838	32685	32743	32639	31751	33212	33143	32773	
1455	0	32801	32629	32647	32629	32215	33004	32892	32863	
1456	0	32782	32739	32743	32608	32655	32863	32691	32255	
1457	0	32856	32809	32709	32811	32561	32916	32562	32285	
1458	0	32921	32534	32727	32655	32199	33193	32194	32668	
1459	0	32726	32626	32675	32719	32946	32839	32436	32884	
1460	0	32621	32699	32818	32727	33035	32775	32367	33731	
1461	0	32709	32531	32694	32751	32775	32791	32387	33891	
1462	0	32726	32665	32783	32613	32989	32950	31999	33611	
1463	0	32690	32627	32636	32619	33415	32869	32411	32799	
1464	0	32690	32373	32687	32725	33125	32775	32253	32754	
1465	0	32773	32596	32621	32698	33111	32423	32655	32062	
1466	0	32815	32741	32695	32700	33167	32379	34027	32334	
1467	0	32787	32557	32615	32696	33061	32566	34631	32479	
1468	0	32799	32679	32703	32805	32052	32621	33874	32587	
1469	0	32793	32617	32695	32911	32469	32647	32998	32885	
1470	0	32743	32743	32655	32687	33069	32547	32411	32598	
1471	0	32708	32716	32719	32575	33278	32495	32391	32441	
1472	0	32765	32519	32615	32721	33091	32933	32391	32655	
1473	0	32829	32707	32666	32868	32674	32967	32473	32373	
1474	0	32762	32691	32671	32853	32074	32879	32327	32343	
1475	0	32767	32551	32687	32575	32363	32799	32647	32391	
1476	0	32759	32583	32725	32711	32580	32839	32679	32199	
1477	0	32799	32646	32645	32871	32159	32852	32767	32775	
1478	0	32790	32743	32775	32813	32405	32867	32663	33142	
1479	0	32757	32555	32775	32659	33298	32853	32583	32965	
1480	0	32712	32647	32751	32543	33781	32836	32982	32385	
1481	0	32790	32713	32859	32743	33453	32895	32659	32821	
1482	0	32750	32735	32637	32747	33245	32663	32677	32790	
1483	0	32729	32500	32763	32727	33276	32414	32951	32706	
1484	0	32772	32655	32671	32604	32898	32439	33079	32191	
1485	0	32805	32775	32785	32755	32503	32653	32679	32587	
1486	0	32781	32519	32813	32815	32179	32518	32521	32933	
1487	0	32831	32687	32607	32871	31989	32735	32066	32925	
1488	0	32740	32783	32698	32683	33055	32708	31569	33135	
1489	0	32702	32644	32645	32647	33719	32435	32623	32750	
1490	0	32642	32605	32707	32725	33439	32477	33483	32451	
1491	0	32583	32538	32707	32695	33036	32639	33555	32454	
1492	0	32690	32631	32843	32745	32957	32750	34009	32607	
1493	0	32868	32775	32767	32871	32188	32827	34009	32797	
1494	0	32804	32587	32775	32599	33194	32701	33063	33135	
1495	0	32798	32669	32695	32759	32692	32831	32571	32823	
1496	0	32829	32719	32724	32754	31963	33127	32535	32793	
1497	0	32764	32541	32591	32775	31963	33255	32639	32527	
1498	0	32806	32825	32727	32919	31943	33348	32755	32279	
1499	0	32840	32806	32647	32715	31901	33423	32411	32412	
1500	0	32868	32521	32669	32633	32221	33083	32459	32311	
1501	0	32778	32690	32565	32759	32519	32834	32676	32213	
1502	0	32741	32607	32707	32709	32595	32658	32631	32591	
1503	0	32660	32391	32603	32817	32885	32687	32575	32623	
1504	0	32733	32628	32629	32901	33305	32486	32610	33005	
1505	0	32686	32645	32557	32668	33295	32509	32733	32852	
1506	0	32773	32742	32694	32767	33442	32518	32830	32871	
1507	0	32722	32671	32775	32723	33175	32475	32675	32971	
1508	0	32740	32583	32753	32723	33287	32467	32687	32775	
1509	0	32758	32775	32871	32679	33167	32435	32598	32935	
1510	0	32856	32607	32727	32605	32751	32814	32663	32465	
1511	0	32806	32663	32818	32788	32475	33239	32413	32263	
1512	0	32839	32671	32733	32808	32579	33257	32719	32457	
1513	0	32812	32775	32587	32647	32740	32773	32863	32703	
1514	0	32817	32539	32679	32791	33233	32340	32963	32789	
1515	0	32830	32636	32749	32751	32759	32583	32775	32482	
1516	0	32745	32671	32687	32819	32467	32735	32610	32213	
1517	0	32775	32507	32767	32591	32359	32740	32595	32807	
1518	0	32684	32611	32683	32575	32427	32975	32762	32903	
1519	0	32750	32637	32711	32787	32319	32919	32855	33018	
1520	0	32707	32787	32647	32885	32359	32919	32471	33100	
1521	0	32820	32647	32775	32775	32487	32675	32561	33462	
1522	0	32858	32821	32805	32679	32631	32523	33157	32343	
1523	0	32831	32813	32652	32807	32963	32511	33299	32055	
1524	0	32601	32757	32786	32729	33295	32413	33053	32775	
1525	0	32695	32365	32619	32723	33159	32720	32872	32837	
1526	0	32804	32567	32663	32597	32821	33095	32683	32518	
1527	0	32783	32775	32566	32545	32753	33124	32676	32471	
1528	0	32817	32519	32734	32797	32766	32957	32645	32613	
1529	0	32810	32735	32719	32887	32637	32983	32207	32871	
1530	0	32764	32679	32695	32679	32811	32759	32051	32887	
1531	0	32724	32463	32802	32571	33015	32407	32839	32676	
1532	0	32799	32647	32615	32679	32789	32671	33179	32789	
1533	0	32899	32799	32756	32751	32405	32874	33039	32610	
1534	0	32866	32663	32647	32863	32911	32903	32583	32487	
1535	0	32725	32679	32718	32871	32967	32903	32334	32671	
1536	0	32647	32735	32677	32631	33117	32785	32391	32675	
1537	0	32663	32495	32717	32667	33373	32718	32287	32381	
1538	0	32736	32615	32807	32751	32705	32743	32941	32303	
1539	0	32681	32791	32621	32871	32125	32711	33359	32718	
1540	0	32707	32601	32765	32713	31871	32982	33414	32983	
1541	0	32678	32661	32685	32607	32132	33181	33175	32551	
1542	0	32687	32684	32783	32773	33437	32935	32605	33119	
1543	0	32855	32607	32725	32850	32607	32559	32900	32482	
1544	0	32783	32599	32630	32871	32639	32485	32859	32529	
1545	0	32684	32503	32716	32647	32877	32631	32621	32831	
1546	0	32750	32555	32711	32647	32832	32691	32719	32119	
1547	0	32847	32683	32775	32715	33833	32279	33260	31707	
1548	0	32900	32791	32711	32791	34095	32583	32731	32513	
1549	0	32825	32727	32749	32757	33055	32901	32295	32998	
1550	0	32784	32695	32671	32869	32143	32981	32635	32933	
1551	0	32785	32605	32719	32647	32263	32957	33469	33029	
1552	0	32763	32751	32715	32749	32669	32707	33351	33071	
1553	0	32773	32479	32751	32735	33061	32567	32687	33111	
1554	0	32824	32702	32647	32859	32243	32559	32695	32657	
1555	0	32756	32829	32611	32759	32695	32598	32943	32287	
1556	0	32646	32593	32761	32643	32547	32660	33044	32356	
1557	0	32727	32556	32679	32572	32199	32663	33219	32381	
1558	0	32871	32538	32655	32699	32231	32873	33187	32421	
1559	0	32882	32679	32627	32795	32182	33038	32721	32815	
1560	0	32785	32538	32732	32757	32581	32991	32327	33147	
1561	0	32759	32685	32663	32695	33195	33041	32431	33084	
1562	0	32742	32669	32791	32585	32726	33183	32166	33047	
1563	0	32789	32663	32715	32791	32617	32898	31852	33045	
1564	0	32767	32679	32837	32708	33220	32479	32679	32795	
1565	0	32763	32663	32839	32819	33111	32119	32903	32119	
1566	0	32740	32499	32717	32635	33429	32165	32353	32342	
1567	0	32797	32658	32735	32571	33149	32729	32356	32895	
1568	0	32759	32820	32578	32751	32727	32879	32727	32811	
1569	0	32768	32645	32767	32727	32997	32967	32679	32631	
1570	0	32756	32639	32749	32831	33381	32733	32501	32903	
1571	0	32769	32751	32873	32781	33147	32767	32601	32755	
1572	0	32695	32619	32775	32782	32623	32887	32360	32135	
1573	0	32800	32709	32599	32631	32657	33085	32535	32703	
1574	0	32902	32687	32718	32557	32903	32762	33391	32880	
1575	0	32818	32807	32639	32770	32083	32823	33447	32461	
1576	0	32745	32769	32786	32775	32210	32829	33262	32354	
1577	0	32797	32551	32775	32844	32976	32684	32996	32223	
1578	0	32850	32711	32596	32647	33213	32842	32759	32515	
1579	0	32783	32694	32743	32583	33089	32739	32689	32575	
1580	0	32665	32589	32631	32765	32596	32807	32543	32591	
1581	0	32658	32577	32735	32863	31802	32938	32693	32619	
1582	0	32698	32621	32711	32757	31902	33152	32727	32589	
1583	0	32769	32743	32631	32628	32333	33159	32631	32935	
1584	0	32886	32714	32655	32839	32495	32975	32439	33337	
1585	0	32807	32803	32641	32803	32599	32759	32542	33549	
1586	0	32709	32663	32743	32879	33028	32559	32175	33466	
1587	0	32642	32481	32711	32743	33367	32541	32515	32826	
1588	0	32698	32707	32751	32604	33522	32349	32816	32085	
1589	0	32814	32759	32732	32793	33367	32286	33188	31887	
1590	0	32641	32383	32724	32758	32995	32638	33279	31926	
1591	0	32604	32415	32787	32834	33638	32690	33447	32213	
1592	0	32735	32615	32711	32597	33983	32477	33495	32263	
1593	0	32737	32631	32757	32515	32863	32644	32694	33215	
1594	0	32818	32839	32621	32804	32099	32662	32999	32807	
1595	0	32903	32879	32658	32826	31997	32663	33213	32207	
1596	0	32668	32741	32736	32835	32610	32643	32852	32670	
1597	0	32780	32453	32717	32853	32223	33045	32885	32832	
1598	0	32834	32551	32709	32676	31799	33435	33022	32487	
1599	0	32914	32549	32748	32511	32548	33237	32935	32743	
1600	0	32854	32743	32679	32719	32951	32855	32747	32871	
1601	0	32669	32723	32723	32733	33082	32957	32607	32807	
1602	0	32668	32491	32722	32775	32903	33005	32538	32654	
1603	0	32807	32695	32731	32773	32287	33078	32341	32999	
1604	0	32747	32826	32661	32665	32519	33075	31782	32991	
1605	0	32752	32795	32783	32729	33023	32999	31811	32838	
1606	0	32759	32861	32665	32747	33127	32877	32191	32879	
1607	0	32687	32662	32719	32715	33193	32295	32349	32903	
1608	0	32773	32751	32588	32807	33343	32063	33031	32663	
1609	0	32831	32695	32639	32903	31949	32391	33727	32426	
1610	0	32810	32674	32549	32871	31727	32411	33551	31981	
1611	0	32764	32677	32685	32823	32583	32281	33093	32029	
1612	0	32687	32551	32721	32747	32735	32599	32927	32134	
1613	0	32617	32582	32755	32709	33037	32761	32645	32513	
1614	0	32764	32751	32775	32655	33139	32933	32595	33011	
1615	0	32759	32687	32695	32613	33183	32945	32723	32879	
1616	0	32775	32775	32759	32769	33173	32775	32629	32647	
1617	0	32692	32705	32692	32783	32951	32795	32603	32591	
1618	0	32713	32743	32830	32727	33071	32655	32548	33101	
1619	0	32705	32573	32727	32693	33103	32188	32991	32991	
1620	0	32666	32613	32831	32717	32694	32706	32588	33063	
1621	0	32767	32527	32644	32889	32206	33175	32628	32831	
1622	0	32700	32629	32731	32921	31911	33308	32631	32839	
1623	0	32751	32575	32583	32899	32123	33263	32539	32885	
1624	0	32760	32687	32724	32692	33023	33119	32873	32919	
1625	0	32798	32807	32663	32661	33047	32735	32843	32599	
1626	0	32793	32671	32775	32559	33109	32481	32583	32783	
1627	0	32684	32591	32730	32679	32995	32583	32491	32431	
1628	0	32709	32727	32791	32733	33009	32721	32887	32271	
1629	0	32802	32759	32671	32799	33082	32751	32796	32551	
1630	0	32884	32931	32687	32927	31879	32918	32807	32590	
1631	0	32903	32635	32595	32807	32247	33078	32815	32581	
1632	0	32846	32669	32715	32599	33263	32537	33301	32453	
1633	0	32758	32727	32679	32687	33124	32253	33575	32853	
1634	0	32769	32529	32735	32727	32911	32851	33159	32788	
1635	0	32827	32663	32687	32850	32775	32957	32585	32855	
1636	0	32820	32590	32694	32841	32917	32751	32730	32903	
1637	0	32763	32705	32628	32754	32799	32681	32548	32761	
1638	0	32713	32669	32740	32591	32716	32687	32438	32823	
1639	0	32646	32447	32639	32713	32191	32975	32367	32623	
1640	0	32637	32514	32775	32764	32850	32692	32495	33029	
1641	0	32696	32517	32700	32751	32959	32613	32611	32978	
1642	0	32764	32747	32742	32775	33028	32797	32670	32263	
1643	0	32845	32863	32687	32806	32860	32862	32765	32063	
1644	0	32934	32668	32741	32663	32817	32892	32578	32745	
1645	0	32734	32671	32725	32799	32791	32931	32767	33159	
1646	0	32684	32611	32731	32791	32803	32983	32893	32675	
1647	0	32660	32425	32695	32805	32743	32981	33002	32191	
1648	0	32660	32557	32717	32587	32615	32947	32927	32647	
1649	0	32795	32639	32815	32721	32999	32703	32799	32890	
1650	0	32975	32659	32647	32751	32786	32743	32775	32891	
1651	0	32967	32807	32738	32863	32892	32615	33325	32766	
1652	0	32807	32709	32625	32702	32922	32507	32780	32891	
1653	0	32775	32818	32715	32557	31663	32703	32549	32518	
1654	0	32751	32743	32591	32647	31922	32660	32612	31495	
1655	0	32703	32676	32681	32789	32975	32661	32547	32151	
1656	0	32708	32471	32623	32783	32595	32786	32771	32431	
1657	0	32751	32703	32717	32751	33207	32705	32764	32119	
1658	0	32729	32703	32711	32895	33191	32639	33113	32275	
1659	0	32701	32503	32783	32623	32708	32629	33703	32743	
1660	0	32749	32727	32647	32659	32436	32627	33620	32727	
1661	0	32737	32831	32773	32826	32782	32775	33012	32645	
1662	0	32758	32531	32675	32772	33029	32831	32701	32935	
1663	0	32813	32751	32767	32829	32871	32757	32543	32899	
1664	0	32799	32743	32765	32639	32799	32700	32445	32831	
1665	0	32796	32533	32671	32575	33079	32575	32525	32839	
1666	0	32734	32621	32838	32743	33223	32389	32565	32807	
1667	0	32783	32795	32789	32807	32763	32758	32686	32839	
1668	0	32755	32675	32695	32833	32475	32804	32731	32591	
1669	0	32783	32647	32671	32725	32114	33011	32813	32759	
1670	0	32797	32543	32713	32692	32748	32995	32733	33014	
1671	0	32766	32735	32665	32615	32791	32995	32740	32823	
1672	0	32755	32813	32773	32867	32444	33023	32399	32911	
1673	0	32762	32859	32659	32847	32639	33507	32020	33167	
1674	0	32669	32516	32681	32782	32359	33342	32270	32759	
1675	0	32662	32661	32726	32501	32708	32471	32257	33031	
1676	0	32727	32687	32644	32733	32399	32510	32183	32769	
1677	0	32788	32605	32635	32943	32351	32619	32162	32805	
1678	0	32862	32751	32630	32737	33345	32599	32748	32451	
1679	0	32767	32710	32707	32661	33964	32623	33351	32183	
1680	0	32719	32435	32698	32615	33537	32455	33234	32774	
1681	0	32725	32527	32809	32748	33415	32749	32659	32964	
1682	0	32743	32718	32726	32803	33391	32863	32363	33092	
1683	0	32829	32607	32764	32795	32436	32855	32363	32895	
1684	0	32715	32646	32807	32711	31781	32589	33463	32309	
1685	0	32684	32431	32699	32583	32239	32783	34062	31893	
1686	0	32780	32567	32811	32485	32627	33107	34379	31826	
1687	0	32743	32575	32730	32551	32724	32829	33906	31879	
1688	0	32820	32628	32647	32743	32811	32961	32951	32437	
1689	0	32855	32759	32630	32836	33234	32883	32401	32919	
1690	0	32743	32681	32743	32834	33365	32619	32307	32663	
1691	0	32685	32399	32632	32687	32916	32443	32135	32497	
1692	0	32679	32681	32707	32662	31755	32503	32431	32497	
1693	0	32701	32775	32662	32614	31147	32854	32573	32647	
1694	0	32751	32583	32719	32743	31853	32638	32519	32679	
1695	0	32804	32757	32827	32815	32423	32726	32525	32807	
1696	0	32765	32715	32789	32823	32487	32885	32519	32933	
1697	0	32812	32759	32713	32833	32839	32769	32692	32706	
1698	0	32807	32719	32729	32767	33363	32573	32990	32513	
1699	0	32784	32715	32775	32501	32946	32799	32833	32533	
1700	0	32804	32613	32693	32615	32921	32965	32684	33039	
1701	0	32865	32771	32724	32719	32499	33183	32308	33125	
1702	0	32790	32751	32663	32727	32715	33023	31983	33069	
1703	0	32823	32559	32735	32759	32716	32879	32229	32985	
1704	0	32681	32583	32647	32731	33689	32540	32263	32997	
1705	0	32736	32564	32666	32861	33557	32899	32350	32915	
1706	0	32730	32595	32540	32843	33271	32749	33088	32809	
1707	0	32839	32711	32615	32655	33655	32389	33811	33159	
1708	0	32869	32667	32621	32559	33226	32466	33593	32671	
1709	0	32841	32735	32607	32743	32588	32475	33155	32379	
1710	0	32813	32663	32679	32775	32727	32638	32679	32227	
1711	0	32762	32605	32699	32826	33237	32519	32782	32237	
1712	0	32832	32809	32703	32583	32671	32438	33063	32667	
1713	0	32742	32783	32775	32775	31991	32887	33091	32871	
1714	0	32727	32623	32575	32807	31887	33300	32967	32846	
1715	0	32751	32582	32715	32863	32361	32731	32852	32813	
1716	0	32765	32647	32690	32795	32534	32927	33115	32647	
1717	0	32654	32699	32786	32639	32589	33155	32843	32551	
1718	0	32621	32559	32727	32527	32727	32586	32727	32567	
1719	0	32812	32710	32601	32671	32870	32540	32455	32551	
1720	0	32741	32526	32861	32671	32995	32629	32503	32431	
1721	0	32685	32446	32709	32695	33175	32691	32403	32793	
1722	0	32822	32741	32705	32859	33095	32987	32037	32647	
1723	0	32838	32631	32607	32644	32706	33183	32446	32821	
1724	0	32773	32615	32743	32642	33023	33039	32799	32500	
1725	0	32641	32581	32702	32694	33607	32683	32577	32451	
1726	0	32732	32661	32790	32695	33789	32023	32489	32739	
1727	0	32884	32743	32715	32739	31931	32631	32617	33186	
1728	0	32906	32595	32645	32859	31700	33145	33031	32579	
1729	0	32772	32660	32745	32659	32949	33135	32821	32823	
1730	0	32596	32537	32674	32487	33851	32477	33311	32862	
1731	0	32698	32343	32751	32511	32439	32601	33437	32435	
1732	0	32832	32663	32553	32627	31573	32811	33027	32615	
1733	0	32881	32663	32647	32772	32339	32742	32471	32343	
1734	0	32794	32625	32647	32775	32251	32876	32263	32454	
1735	0	32727	32606	32799	32799	32417	32697	32711	32155	
1736	0	32703	32725	32774	32677	33013	32663	33353	32679	
1737	0	32748	32627	32827	32700	33178	32551	33108	32901	
1738	0	32801	32821	32793	32807	32511	32599	33319	32977	
1739	0	32808	32849	32682	32831	31810	32891	33191	32643	
1740	0	32733	32631	32739	32893	32343	33031	32711	32639	
1741	0	32646	32595	32563	32817	32695	32983	32668	32383	
1742	0	32700	32647	32687	32633	32739	33025	32571	32391	
1743	0	32694	32484	32637	32583	32789	33060	32559	32858	
1744	0	32870	32717	32687	32803	32439	33015	32399	32967	
1745	0	32790	32795	32710	32833	33174	32615	32423	32829	
1746	0	32863	32685	32607	32797	33307	32559	32613	32679	
1747	0	32816	32791	32759	32598	33351	32593	32547	32807	
1748	0	32743	32515	32701	32751	33221	32639	32471	32903	
1749	0	32705	32580	32859	32775	33255	32707	32647	32895	
1750	0	32711	32532	32871	32838	33287	32533	33010	32703	
1751	0	32761	32675	32769	32739	33159	32731	32997	32516	
1752	0	32848	32596	32804	32629	32637	33131	32821	32639	
1753	0	32695	32734	32695	32755	32844	32807	32439	32925	
1754	0	32728	32722	32739	32740	32719	32645	32479	32756	
1755	0	32742	32482	32647	32807	32836	32501	32986	32327	
1756	0	32804	32633	32756	32869	32981	32517	33172	32735	
1757	0	32736	32691	32771	32559	32867	32549	32925	32647	
1758	0	32810	32675	32563	32767	32053	32656	33252	32209	
1759	0	32815	32851	32675	32815	31471	32818	33159	32093	
1760	0	32784	32647	32617	32876	32135	32671	32695	32131	
1761	0	32804	32668	32754	32749	32540	32740	32595	32514	
1762	0	32753	32551	32626	32749	32547	32837	32491	32775	
1763	0	32681	32687	32735	32623	32642	33002	32995	32501	
1764	0	32713	32647	32663	32659	32967	32926	33247	32823	
1765	0	32724	32439	32769	32713	33187	32798	33234	33123	
1766	0	32717	32639	32655	32751	32921	32859	33449	32631	
1767	0	32667	32551	32743	32671	33249	32549	32943	32713	
1768	0	32676	32431	32764	32845	33311	32647	32658	32679	
1769	0	32823	32733	32647	32839	33115	32855	32301	32565	
1770	0	32769	32733	32599	32839	32708	32959	32260	32595	
1771	0	32788	32671	32775	32647	32301	32949	32487	32604	
1772	0	32804	32823	32751	32623	32364	32783	33033	32601	
1773	0	32796	32647	32853	32601	32775	32765	33125	32764	
1774	0	32713	32751	32617	32617	32479	32861	32813	33075	
1775	0	32836	32754	32759	32775	32583	32801	32404	32903	
1776	0	32913	32589	32631	32789	32517	32883	32391	32861	
1777	0	32639	32615	32756	32791	32436	32804	32479	32647	
1778	0	32662	32545	32732	32860	32699	32687	32237	32370	
1779	0	32754	32409	32639	32647	32403	32703	31719	32609	
1780	0	32794	32671	32768	32575	32559	32717	31695	33463	
1781	0	32797	32764	32751	32807	33125	32943	32729	33895	
1782	0	32855	32635	32663	32878	33121	33079	32991	33839	
1783	0	32804	32615	32733	32749	33396	32855	32917	33718	
1784	0	32844	32715	32663	32646	32055	33178	33582	32927	
1785	0	32775	32647	32775	32771	31891	33191	33526	33245	
1786	0	32716	32711	32675	32758	33213	32197	33410	32365	
1787	0	32802	32738	32743	32861	33319	31927	33127	31476	
1788	0	32782	32719	32703	32755	33415	32263	32884	30791	
1789	0	32741	32577	32791	32565	33174	32199	32675	31047	
1790	0	32829	32734	32695	32735	32875	32180	32895	31483	
1791	0	32791	32751	32581	32735	32420	32362	32751	32279	
1792	0	32822	32567	32607	32839	32633	32578	32870	32591	
1793	0	32799	32690	32593	32861	32729	32971	32919	32955	
1794	0	32780	32669	32673	32679	32487	32901	32694	33246	
1795	0	32780	32594	32642	32759	31573	32943	32491	33031	
1796	0	32790	32695	32759	32819	31239	33361	32157	32463	
1797	0	32754	32773	32743	32839	31761	33074	32415	32223	
1798	0	32764	32583	32745	32647	33341	32486	33015	32415	
1799	0	32805	32775	32762	32709	33827	32511	32709	33121	
1800	0	32647	32706	32786	32706	34532	32477	32525	33287	
1801	0	32463	32303	32807	32807	34002	32868	33093	32979	
1802	0	32542	32519	32775	32701	32923	33181	33159	32885	
1803	0	32813	32735	32625	32749	32322	33353	32493	33159	
1804	0	32823	32679	32725	32870	32147	32982	32163	33367	
1805	0	32804	32615	32743	32898	31779	32773	32481	32871	
1806	0	32862	32642	32711	32857	31985	33086	32743	32671	
1807	0	32839	32637	32623	32871	32579	33575	32559	32895	
1808	0	32745	32669	32733	32623	33229	33026	33039	32530	
1809	0	32788	32617	32727	32732	33415	32469	33002	31959	
1810	0	32767	32715	32687	32724	33563	32261	33273	31899	
1811	0	32711	32559	32799	32775	33327	32250	33404	32485	
1812	0	32719	32551	32629	32742	32917	32645	33149	32535	
1813	0	32709	32501	32743	32603	32119	32708	32927	32505	
1814	0	32808	32745	32691	32603	32835	32475	33324	32686	
1815	0	32889	32868	32751	32783	32822	32609	32969	32766	
1816	0	32725	32694	32717	32815	32959	32575	32359	33061	
1817	0	32787	32663	32763	32875	32566	32935	32515	32771	
1818	0	32846	32591	32797	32775	32639	33117	32261	32997	
1819	0	32797	32773	32711	32551	32681	32959	32420	32959	
1820	0	32740	32809	32711	32751	32483	32725	32915	32783	
1821	0	32703	32586	32647	32775	31903	33132	32641	32845	
1822	0	32542	32543	32737	32791	32450	32747	32574	32587	
1823	0	32647	32557	32775	32615	32699	32647	32307	32727	
1824	0	32788	32523	32639	32553	32733	32807	32487	32694	
1825	0	32828	32723	32703	32727	33223	32669	32617	32553	
1826	0	32709	32685	32660	32718	33940	32325	32695	31831	
1827	0	32679	32453	32775	32763	34157	32287	32683	32671	
1828	0	32780	32735	32748	32613	33256	32983	32557	32423	
1829	0	32799	32707	32559	32739	31940	33220	32525	32346	
1830	0	32751	32587	32711	32795	31483	33102	32020	32682	
1831	0	32743	32735	32679	32879	31775	32959	32219	32863	
1832	0	32807	32690	32691	32705	31647	32996	32887	32507	
1833	0	32865	32943	32711	32858	32499	32803	33308	33178	
1834	0	32734	32539	32676	32725	33345	32187	33226	34053	
1835	0	32708	32511	32731	32751	33234	32215	33159	33846	
1836	0	32647	32689	32647	32681	32862	32604	33127	32693	
1837	0	32717	32647	32753	32637	32869	32879	33027	32481	
1838	0	32762	32707	32679	32577	33030	32727	33290	32441	
1839	0	32809	32541	32727	32775	32308	32725	33135	31711	
1840	0	32854	32679	32611	32751	32775	32815	32647	32283	
1841	0	32769	32765	32765	32847	32671	33097	33159	32518	
1842	0	32608	32549	32598	32803	32961	33014	33287	32061	
1843	0	32722	32767	32759	32797	33007	32823	33159	32097	
1844	0	32760	32583	32795	32773	32783	32660	32967	32306	
1845	0	32701	32489	32735	32775	32709	32887	32713	32695	
1846	0	32757	32639	32743	32705	32713	33103	32539	32815	
1847	0	32903	32743	32647	32601	32483	32925	32449	32308	
1848	0	32937	32671	32613	32671	32477	32859	32460	32719	
1849	0	32888	32767	32557	32710	33243	32617	32231	33391	
1850	0	32831	32855	32697	32775	33217	32511	32540	33039	
1851	0	32700	32691	32661	32771	33231	32503	32319	33547	
1852	0	32716	32732	32735	32783	33124	32807	32473	33389	
1853	0	32814	32677	32615	32795	32691	32967	32711	32919	
1854	0	32841	32715	32692	32637	31908	32933	32710	33030	
1855	0	32844	32620	32583	32647	31983	32647	33031	32489	
1856	0	32747	32635	32773	32775	32815	32492	32596	32225	
1857	0	32671	32719	32758	32723	33445	32551	32902	32583	
1858	0	32775	32677	32775	32811	32476	32823	33382	32666	
1859	0	32685	32679	32681	32769	32714	32663	33383	32573	
1860	0	32668	32407	32775	32541	33113	32630	32865	32253	
1861	0	32729	32685	32626	32727	32820	32461	33148	31663	
1862	0	32780	32751	32740	32745	32359	32581	32636	32255	
1863	0	32796	32521	32647	32867	32298	32831	32487	32499	
1864	0	32838	32702	32685	32741	32444	32847	32484	32751	
1865	0	32786	32706	32793	32621	33327	32643	32845	32731	
1866	0	32666	32596	32639	32753	32705	32821	32887	32604	
1867	0	32637	32721	32663	32775	32535	32923	32809	32518	
1868	0	32682	32603	32689	32588	32871	32791	33031	32509	
1869	0	32663	32533	32663	32797	32968	32759	33077	32451	
1870	0	32756	32603	32719	32775	32995	32599	32804	32542	
1871	0	32710	32695	32727	32783	32887	32671	32695	32617	
1872	0	32743	32573	32663	32646	32406	32932	32599	32495	
1873	0	32719	32644	32815	32787	32375	32943	32469	32903	
1874	0	32777	32687	32655	32791	32159	32983	32455	33151	
1875	0	32812	32759	32747	32720	32278	32860	32563	33111	
1876	0	32814	32567	32775	32557	32717	32903	32754	33031	
1877	0	32847	32574	32663	32639	33159	32935	32887	32875	
1878	0	32813	32661	32679	32809	33413	32871	32681	32795	
1879	0	32724	32781	32667	32852	33267	32890	32461	32764	
1880	0	32727	32543	32723	32787	33047	32836	32247	33226	
1881	0	32647	32633	32655	32586	33389	32719	32383	33023	
1882	0	32700	32763	32763	32636	32931	32489	32991	32645	
1883	0	32850	32695	32623	32822	32253	32470	32900	32047	
1884	0	32890	32862	32709	32855	32135	32477	33063	32052	
1885	0	32779	32718	32711	32708	32799	32501	32981	32055	
1886	0	32584	32483	32865	32501	33387	32435	32803	32583	
1887	0	32695	32703	32807	32647	33110	32859	33012	32679	
1888	0	32903	32679	32647	32709	31933	33359	32685	32461	
1889	0	32903	32759	32690	32767	31858	33132	32339	32763	
1890	0	32828	32531	32623	32833	32965	32839	32037	33466	
1891	0	32737	32687	32692	32599	33071	32781	33066	32865	
1892	0	32712	32679	32647	32559	32463	32775	32850	32919	
1893	0	32636	32421	32760	32709	33167	32752	32005	33475	
1894	0	32694	32623	32781	32775	33353	32570	32371	32719	
1895	0	32889	32620	32647	32903	31892	32537	33072	31811	
1896	0	32914	32647	32629	33045	31615	32518	33436	31791	
1897	0	32855	32844	32519	32857	32411	32823	33996	32167	
1898	0	32773	32807	32717	32967	32815	33031	33351	32933	
1899	0	32812	32751	32707	32927	32647	33000	33277	32739	
1900	0	32676	32708	32804	32755	32515	32587	33087	33175	
1901	0	32665	32391	32735	32723	32743	32519	32809	32979	
1902	0	32699	32511	32659	32736	32916	32519	32719	32730	
1903	0	32756	32591	32807	32859	33125	32511	32911	32503	
1904	0	32818	32688	32763	32669	33259	32894	32851	32095	
1905	0	32823	32508	32735	32741	33189	32838	32406	32511	
1906	0	32794	32727	32828	32726	33031	32471	32795	32471	
1907	0	32823	32725	32647	32751	33135	32540	32839	32669	
1908	0	32888	32870	32754	32786	32903	32877	32436	33187	
1909	0	32743	32493	32717	32551	33313	32788	32135	33927	
1910	0	32814	32743	32731	32767	32405	32935	32371	33313	
1911	0	32828	32789	32679	32829	32003	33179	32532	32871	
1912	0	32802	32668	32625	32843	32231	33091	32527	32526	
1913	0	32751	32707	32717	32655	32784	32559	32621	32077	
1914	0	32706	32631	32719	32575	33039	32591	33050	32102	
1915	0	32605	32513	32788	32709	33415	32404	33039	32101	
1916	0	32576	32465	32745	32747	33428	32635	32735	32924	
1917	0	32671	32543	32739	32765	32986	32677	32491	33359	
1918	0	32854	32701	32771	32645	32845	33159	32247	33255	
1919	0	32854	32799	32759	32797	32837	33231	32091	32727	
1920	0	32782	32583	32805	32743	32953	33159	32279	33185	
1921	0	32679	32611	32693	32675	32798	33004	32781	32652	
1922	0	32825	32715	32718	32791	31823	32787	33499	32117	
1923	0	32763	32465	32684	32583	31894	32719	33483	31751	
1924	0	32759	32739	32631	32562	31989	32892	33562	32005	
1925	0	32684	32580	32705	32697	32453	33110	33245	32446	
1926	0	32573	32623	32695	32727	33278	32559	33207	32443	
1927	0	32753	32655	32775	32775	33391	32417	32830	32545	
1928	0	32845	32757	32647	32827	33415	32548	32083	33084	
1929	0	32818	32667	32729	32799	33543	32410	31903	33131	
1930	0	32839	32639	32700	32627	33959	32406	32085	32743	
1931	0	32647	32628	32695	32680	33679	32279	32015	32815	
1932	0	32745	32519	32743	32759	32311	32567	32471	32386	
1933	0	32878	32725	32643	32851	30895	32903	33427	32083	
1934	0	32826	32763	32711	32655	31484	32823	33855	32351	
1935	0	32749	32775	32719	32637	32018	33003	33287	32484	
1936	0	32681	32388	32708	32615	32998	33010	33063	33007	
1937	0	32739	32562	32775	32731	32807	32863	33381	32967	
1938	0	32816	32788	32815	32797	32364	33087	32835	32943	
1939	0	32799	32541	32740	32809	32655	32743	32329	33175	
1940	0	32825	32677	32787	32775	32261	33037	32287	32927	
1941	0	32772	32731	32683	32774	32567	32845	32372	32491	
1942	0	32804	32637	32711	32727	32861	32892	32883	32226	
1943	0	32765	32481	32794	32587	32873	32844	32667	32607	
1944	0	32890	32767	32647	32743	33539	32501	32671	32642	
1945	0	32759	32615	32685	32795	33271	32711	32775	32647	
1946	0	32597	32667	32773	32762	33031	32997	32804	32695	
1947	0	32748	32564	32621	32765	33091	32903	33077	32989	
1948	0	32724	32692	32759	32703	33346	32343	32962	32693	
1949	0	32676	32663	32710	32627	32847	32477	32863	32391	
1950	0	32813	32605	32756	32815	32405	33031	32745	32647	
1951	0	32804	32623	32717	32733	32295	32955	32268	32923	
1952	0	32767	32581	32828	32695	33110	32578	32527	33110	
1953	0	32766	32679	32723	32769	32647	32591	33156	32487	
1954	0	32820	32613	32719	32751	32171	32945	33023	32749	
1955	0	32836	32871	32607	32815	32387	32854	32629	32873	
1956	0	32735	32868	32645	32704	33294	32455	32555	32436	
1957	0	32610	32461	32551	32638	33611	32423	33247	32739	
1958	0	32701	32605	32726	32775	33071	32807	32763	32751	
1959	0	32751	32611	32681	32759	32813	32871	32543	32239	
1960	0	32688	32743	32759	32818	33311	32483	32501	32305	
1961	0	32804	32660	32623	32835	33171	32859	32483	32485	
1962	0	32843	32642	32715	32847	32372	32674	32931	32479	
1963	0	32815	32583	32659	32775	32612	32614	33319	32413	
1964	0	32772	32679	32698	32683	32341	32615	32783	32855	
1965	0	32719	32557	32697	32553	32231	32758	32695	32645	
1966	0	32617	32710	32783	32711	32511	33159	32359	32751	
1967	0	32725	32559	32807	32775	32951	32999	32245	33093	
1968	0	32846	32831	32694	32805	32997	32975	32541	33143	
1969	0	32836	32756	32839	32767	32981	32767	32694	32921	
1970	0	32812	32566	32631	32610	32615	32711	32861	32991	
1971	0	32702	32671	32711	32750	33196	32533	32711	32903	
1972	0	32624	32531	32717	32751	33239	32604	32747	32887	
1973	0	32686	32646	32820	32818	32703	32806	33067	32223	
1974	0	32802	32604	32667	32842	32151	33317	33079	32405	
1975	0	32837	32669	32693	32695	32229	33191	32903	32303	
1976	0	32676	32711	32725	32769	32741	32821	32659	32439	
1977	0	32681	32413	32711	32755	33323	32681	32667	32797	
1978	0	32817	32647	32747	32741	33561	32785	32699	33127	
1979	0	32788	32743	32603	32817	32628	32935	32782	32895	
1980	0	32769	32619	32679	32713	32423	33036	32756	32877	
1981	0	32716	32565	32607	32527	32277	32669	32829	32635	
1982	0	32756	32647	32674	32738	32167	32580	32991	32192	
1983	0	32925	32830	32671	32823	32594	32623	32799	32381	
1984	0	32935	32775	32813	32903	33314	32567	32789	32039	
1985	0	32901	32735	32597	32925	33071	32479	32746	32107	
1986	0	32789	32791	32743	32615	32671	32468	32637	32375	
1987	0	32719	32495	32799	32694	32821	32490	32151	33101	
1988	0	32709	32735	32710	32766	32707	32599	32167	32913	
1989	0	32592	32699	32791	32903	32553	32983	32631	32663	
1990	0	32783	32419	32647	32619	33103	33011	32879	32543	
1991	0	32692	32647	32724	32549	33355	32743	33207	32852	
1992	0	32692	32758	32594	32742	32820	32817	33652	32943	
1993	0	32745	32547	32675	32767	31943	33095	33611	33076	
1994	0	32815	32619	32591	32773	31267	33018	32959	33389	
1995	0	32838	32698	32763	32775	32263	32729	32631	33095	
1996	0	32743	32449	32758	32807	33142	32711	32449	32991	
1997	0	32681	32647	32804	32561	32791	32793	32443	32690	
1998	0	32738	32614	32804	32711	32635	32751	32765	32663	
1999	0	32871	32852	32726	32770	33079	32749	32913	32336	
2000	0	32852	32556	32751	32871	32943	32391	32903	32095	
2001	0	32738	32642	32621	32668	32723	32542	32852	31959	
2002	0	32713	32669	32732	32635	32852	32577	32919	32199	
2003	0	32775	32807	32615	32823	33011	32567	32791	32553	
2004	0	32719	32540	32595	32843	33565	32695	32739	32883	
2005	0	32759	32662	32809	32593	33501	32911	32511	33029	
2006	0	32775	32679	32635	32705	33463	32958	32769	33158	
2007	0	32739	32465	32751	32734	33772	32549	32587	32559	
2008	0	32647	32639	32690	32827	32941	32529	32295	32618	
2009	0	32659	32583	32603	32700	32559	33018	32646	32276	
2010	0	32691	32703	32695	32533	32627	33085	32821	32203	
2011	0	32662	32525	32711	32688	32925	32759	32830	32353	
2012	0	32679	32703	32711	32727	31947	32697	33063	32445	
2013	0	32772	32695	32701	32722	31541	33013	32827	32788	
2014	0	32877	32711	32571	32591	31847	33011	32799	33345	
2015	0	32883	32871	32659	32817	32549	33083	32581	33107	
2016	0	32913	32699	32620	32895	33311	33011	31773	33412	
2017	0	32967	32877	32771	32941	33009	32749	32037	33607	
2018	0	32845	32671	32791	32678	32805	32575	32757	33463	
2019	0	32786	32743	32685	32805	33271	32335	32535	33543	
2020	0	32690	32715	32733	32855	33079	32365	33212	32607	
2021	0	32703	32621	32767	32580	33010	32629	33042	31821	
2022	0	32775	32407	32663	32683	33197	32572	33189	31106	
2023	0	32623	32575	32863	32669	33550	32143	33526	31578	
2024	0	32730	32543	32655	32749	32519	32791	32708	32346	
2025	0	32859	32723	32623	32643	32309	33159	32621	32739	
2026	0	32874	32631	32605	32837	31501	33132	33060	32335	
2027	0	32785	32727	32606	32731	31831	32962	32971	32478	
2028	0	32703	32603	32660	32707	32881	32940	33159	32678	
2029	0	32680	32662	32661	32647	33426	32751	33238	32461	
2030	0	32655	32619	32741	32573	33127	32796	32925	32156	
2031	0	32687	32373	32742	32659	32630	32807	32647	32567	
2032	0	32768	32607	32738	32766	32540	33031	32283	32725	
2033	0	32836	32659	32839	32823	32506	33095	32183	32933	
2034	0	32870	32751	32646	32655	32518	32787	32307	32831	
2035	0	32817	32607	32762	32775	31779	33029	32410	32815	
2036	0	32742	32677	32701	32822	31963	33143	32812	32955	
2037	0	32757	32661	32729	32847	32459	32828	32551	33238	
2038	0	32640	32613	32679	32871	33569	32325	32647	33147	
2039	0	32759	32718	32767	32782	33215	32349	33089	32525	
2040	0	32727	32679	32607	32676	33191	32164	33709	32563	
2041	0	32775	32772	32692	32609	33270	32342	33871	32514	
2042	0	32769	32505	32671	32795	32775	32887	32914	32902	
2043	0	32737	32597	32775	32839	32921	33035	32877	32603	
2044	0	32812	32683	32751	32679	33519	32615	32463	32771	
2045	0	32807	32771	32717	32749	33549	32743	32295	32837	
2046	0	32806	32823	32805	32730	33341	32647	32715	32822	
2047	0	32801	32687	32634	32876	31975	32815	32695	32685	
2048	0	32831	32754	32591	32667	31551	32887	32814	32543	
2049	0	32771	32775	32767	32807	32335	32767	32791	32751	
2050	0	32694	32487	32719	32773	32301	32803	32786	32575	
2051	0	32665	32491	32791	32719	32551	32809	32533	32471	
2052	0	32712	32565	32644	32635	32459	33159	32175	32695	
2053	0	32737	32732	32671	32559	32571	33060	32391	32668	
2054	0	32818	32699	32623	32796	32485	32874	32462	32749	
2055	0	32749	32763	32719	32813	32689	32787	32316	32519	
2056	0	32759	32734	32763	32809	33215	32797	32663	32820	
2057	0	32697	32727	32692	32581	33123	32703	33071	32639	
2058	0	32659	32559	32733	32731	33383	32647	33223	32423	
2059	0	32727	32668	32564	32818	33103	32740	33037	32343	
2060	0	32756	32677	32747	32789	32973	32793	32733	32893	
2061	0	32733	32604	32757	32893	32738	32647	32793	32791	
2062	0	32807	32757	32763	32861	32179	32595	32732	32694	
2063	0	32801	32727	32711	32775	32783	32763	32443	32759	
2064	0	32661	32511	32751	32727	33487	33100	32431	32839	
2065	0	32754	32621	32663	32567	33495	33101	32839	32695	
2066	0	32873	32887	32694	32525	32775	32775	33490	32420	
2067	0	32863	32607	32591	32715	32167	32661	33262	32671	
2068	0	32728	32742	32743	32701	32591	33085	32855	33153	
2069	0	32838	32751	32610	32821	32622	32993	32739	32519	
2070	0	32839	32695	32701	32859	32338	32647	32534	32410	
2071	0	32794	32751	32694	32804	32569	32643	32630	32674	
2072	0	32711	32575	32775	32573	33553	32508	32487	32831	
2073	0	32721	32639	32791	32615	33477	32399	32429	32431	
2074	0	32695	32763	32709	32883	33126	32807	32123	32795	
2075	0	32771	32655	32691	32830	33111	32541	32159	32803	
2076	0	32722	32599	32743	32807	32715	32388	31817	32983	
2077	0	32710	32671	32843	32677	31823	32753	31868	32927	
2078	0	32743	32503	32687	32559	31391	32815	33375	32463	
2079	0	32831	32806	32743	32775	32326	32571	33791	32847	
2080	0	32743	32750	32629	32763	33215	32691	33196	32884	
2081	0	32749	32521	32735	32775	33326	32679	33327	32903	
2082	0	32607	32582	32667	32871	33747	32477	33431	32603	
2083	0	32620	32514	32737	32796	33653	32556	33637	32303	
2084	0	32738	32719	32647	32589	32553	32735	33561	32591	
2085	0	32715	32495	32775	32711	32378	32956	33272	32826	
2086	0	32769	32679	32571	32732	31527	33349	32579	32847	
2087	0	32822	32743	32771	32765	32173	33215	32533	32441	
2088	0	32742	32598	32775	32871	32298	32951	32415	32855	
2089	0	32837	32859	32679	32799	32483	32949	32402	32813	
2090	0	32935	32807	32751	32663	32357	33075	32247	32959	
2091	0	33014	32879	32668	32783	32571	32951	32259	32927	
2092	0	32850	32807	32787	32827	32665	32709	32399	32941	
2093	0	32623	32491	32699	32717	33555	32164	32727	32391	
2094	0	32598	32461	32697	32569	33871	32175	32903	32187	
2095	0	32709	32556	32628	32717	33026	32391	32761	32084	
2096	0	32633	32516	32831	32685	33943	32279	32727	32051	
2097	0	32619	32623	32734	32803	33697	32596	32663	32502	
2098	0	32750	32388	32687	32840	33285	32847	33083	32567	
2099	0	32765	32739	32775	32703	32447	33135	32861	32543	
2100	0	32716	32621	32698	32551	31839	33159	32786	32445	
2101	0	32759	32703	32815	32700	32549	32580	33287	32174	
2102	0	32894	32851	32795	32891	32757	32799	33159	32341	
2103	0	32838	32565	32645	32693	33036	32915	32900	32673	
2104	0	32790	32679	32655	32599	32372	32927	32822	32655	
2105	0	32849	32581	32663	32735	32613	32794	32823	32601	
2106	0	32821	32685	32677	32815	32369	32807	32684	32803	
2107	0	32815	32583	32583	32835	31818	32861	32805	32869	
2108	0	32838	32767	32711	32671	31545	32957	32838	32705	
2109	0	32908	32885	32673	32587	32127	32637	32423	32996	
2110	0	32858	32745	32677	32791	32763	32591	32311	32889	
2111	0	32706	32647	32791	32767	33159	32647	32279	32751	
2112	0	32801	32471	32813	32810	32865	32870	32460	32463	
2113	0	32815	32643	32628	32817	32868	32790	32391	32637	
2114	0	32745	32647	32773	32591	32659	32879	32261	32887	
2115	0	32799	32645	32790	32639	32763	33189	32375	32903	
2116	0	32759	32559	32671	32775	32999	33339	33036	33235	
2117	0	32771	32755	32797	32799	33269	32909	32924	32771	
2118	0	32697	32635	32675	32757	33715	32587	32677	32577	
2119	0	32748	32572	32710	32675	33693	32481	32948	32943	
2120	0	32850	32639	32619	32667	33405	32699	33469	33230	
2121	0	32730	32743	32768	32815	32845	32695	33259	32866	
2122	0	32699	32657	32571	32759	31951	32771	32699	32823	
2123	0	32780	32463	32735	32783	32487	32578	32295	32703	
2124	0	32793	32727	32639	32801	32567	32572	32607	32037	
2125	0	32786	32738	32727	32623	32463	32815	32773	31719	
2126	0	32689	32557	32628	32646	32236	32791	32847	32007	
2127	0	32647	32637	32767	32789	32271	32849	32839	32499	
2128	0	32721	32671	32687	32771	32245	32879	32469	33039	
2129	0	32756	32731	32797	32775	32879	32762	32333	32863	
2130	0	32807	32647	32703	32739	32967	32855	32375	32555	
2131	0	32733	32692	32727	32850	33251	32523	33298	32671	
2132	0	32668	32795	32685	32791	33575	32543	33131	33063	
2133	0	32727	32547	32898	32631	33332	32547	32589	32855	
2134	0	32825	32943	32723	32785	33127	32539	33039	32971	
2135	0	32956	32994	32765	32781	32807	32791	33101	33015	
2136	0	32847	33015	32818	32871	32707	32612	32959	32647	
2137	0	32945	32655	32787	32721	32583	32516	32683	32951	
2138	0	32986	32869	32655	32615	32083	32620	32647	32983	
2139	0	33043	32897	32612	32795	32691	32719	32347	33230	
2140	0	32934	32671	32687	32757	32713	32878	32555	33199	
2141	0	32991	32756	32666	32743	32263	33235	32620	32964	
2142	0	32951	32751	32701	32807	32947	33039	32579	32747	
2143	0	33012	32753	32571	32583	33606	32749	32579	32437	
2144	0	32986	32805	32661	32743	33137	32717	32639	32314	
2145	0	33031	32611	32501	32757	32850	32843	32801	32319	
2146	0	33026	32702	32583	32733	32263	32567	32474	32773	
2147	0	32967	32839	32631	32492	32479	32470	32642	32351	
