# OpenSignals Text File Format
# {"00:07:80:3B:46:38": {"sensor": ["CUSTOM/0.5/1.0/V", "CUSTOM/0.5/1.0/V", "CUSTOM/0.5/1.0/V", "CUSTOM/0.5/1.0/V", "CUSTOM/0.5/1.0/V", "CUSTOM/0.5/1.0/V", "CUSTOM/0.5/1.0/V", "CUSTOM/0.5/1.0/V"], "device name": "EMGs", "column": ["nSeq", "DI", "RA_L", "RA_R", "OE_L", "OE:R", "IL_L", "IL_R", "MF_L", "MF_R"], "sync interval": 2, "time": "17:3:3.373", "comments": "", "device connection": "BTH00:07:80:3B:46:38", "channels": [1, 2, 3, 4, 5, 6, 7, 8], "date": "2017-6-1", "mode": 0, "digital IO": [0, 1], "firmware version": 772, "device": "biosignalsplux", "position": 0, "sampling rate": 1000, "label": ["RA_L", "RA_R", "OE_L", "OE:R", "IL_L", "IL_R", "MF_L", "MF_R"], "resolution": [16, 16, 16, 16, 16, 16, 16, 16], "special": [{}, {}, {}, {}, {}, {}, {}, {}]}}
# EndOfHeader
0	0	32860	32834	32703	32668	32775	32745	32719	32729	
1	0	32978	32705	32705	32699	32841	32772	32813	32487	
2	0	32929	32903	32787	32759	32594	32609	32835	32566	
3	0	32724	32765	32813	32727	32783	32790	32877	32594	
4	0	32828	32507	32790	32695	32807	32775	32757	32727	
5	0	32879	32677	32717	32667	32829	32754	32715	32685	
6	0	32620	32615	32716	32718	32887	32743	32811	32852	
7	0	32511	32471	32766	32719	32787	32782	32743	32821	
8	0	32504	32401	32775	32703	32863	32747	32795	32587	
9	0	32328	32391	32868	32758	32585	32750	32663	32685	
10	0	32212	32711	32837	32831	32822	32796	32701	32623	
11	0	32170	32933	32773	32869	32661	32847	32823	32727	
12	0	32340	33195	32879	32767	32799	32788	32683	32807	
13	0	32481	33234	32895	32796	32679	32835	32738	32621	
14	0	32576	32977	32868	32751	32799	32687	32639	32583	
15	0	32832	32799	32887	32799	32593	32705	32676	32692	
16	0	33017	32567	32791	32623	32731	32739	32721	32647	
17	0	33133	32835	32713	32646	32636	32733	32642	32629	
18	0	33087	32767	32711	32743	32701	32655	32726	32543	
19	0	33223	32761	32667	32799	32695	32775	32599	32669	
20	0	33252	32855	32711	32689	32767	32717	32615	32565	
21	0	32847	32786	32730	32643	32935	32863	32639	32604	
22	0	32653	32711	32739	32685	32647	32683	32749	32603	
23	0	32596	32431	32751	32643	32756	32637	32803	32703	
24	0	32546	32366	32739	32725	32671	32795	32775	32749	
25	0	32653	32575	32831	32707	32801	32742	32751	32679	
26	0	32788	32572	32775	32666	32743	32811	32857	32742	
27	0	32856	32823	32677	32751	32783	32674	32711	32599	
28	0	32945	32919	32772	32799	32605	32738	32767	32677	
29	0	33189	32646	32716	32826	32783	32807	32681	32743	
30	0	33345	32451	32700	32671	32635	32647	32735	32634	
31	0	33117	32190	32655	32804	32758	32887	32655	32645	
32	0	32708	32215	32675	32775	32643	32747	32697	32679	
33	0	32269	32150	32668	32819	32791	32751	32773	32787	
34	0	32190	32205	32662	32695	32685	32663	32799	32763	
35	0	32161	32167	32775	32607	32749	32819	32782	32594	
36	0	32017	32155	32788	32683	32868	32771	32815	32704	
37	0	32265	32253	32720	32643	32703	32791	32673	32833	
38	0	32525	32507	32747	32635	32775	32668	32658	32679	
39	0	32863	32463	32754	32732	32723	32803	32689	32743	
40	0	33551	32615	32699	32635	32875	32823	32718	32574	
41	0	33910	32619	32761	32677	32575	32727	32639	32687	
42	0	33657	32787	32731	32605	32807	32689	32626	32613	
43	0	33359	33415	32679	32619	32703	32751	32647	32711	
44	0	33359	33665	32783	32818	32749	32811	32599	32687	
45	0	33217	33645	32775	32799	32838	32735	32626	32679	
46	0	32679	33361	32819	32861	32559	32743	32711	32740	
47	0	32283	33029	32885	32817	32759	32669	32775	32709	
48	0	31935	33193	32855	32823	32806	32769	32855	32762	
49	0	32041	33207	32855	32919	32628	32743	32793	32740	
50	0	32287	33087	32775	32893	32765	32734	32732	32799	
51	0	32386	33031	32715	32855	32631	32871	32719	32783	
52	0	32469	32527	32709	32775	32771	32743	32708	32725	
53	0	32457	32023	32767	32747	32821	32877	32623	32631	
54	0	32263	32015	32818	32757	32713	32775	32667	32775	
55	0	32171	32187	32844	32735	32775	32834	32647	32575	
56	0	32249	32375	32743	32733	32587	32721	32791	32709	
57	0	32469	32599	32767	32633	32714	32599	32734	32679	
58	0	32935	32801	32827	32729	32845	32733	32818	32631	
59	0	33071	32948	32755	32686	32743	32647	32839	32645	
60	0	33140	32831	32789	32647	32870	32733	32676	32557	
61	0	33108	32893	32730	32694	32595	32614	32676	32619	
62	0	33184	32815	32658	32687	32811	32803	32759	32715	
63	0	33287	32919	32719	32659	32865	32805	32756	32749	
64	0	33197	32903	32749	32737	32639	32831	32743	32647	
65	0	32991	32766	32731	32629	32839	32671	32733	32741	
66	0	32900	32612	32757	32626	32695	32731	32785	32721	
67	0	32773	32607	32805	32591	32756	32773	32715	32671	
68	0	32638	32802	32831	32669	32791	32735	32685	32615	
69	0	32595	32575	32772	32647	32615	32817	32715	32799	
70	0	32604	32519	32731	32695	32807	32623	32871	32763	
71	0	32684	32339	32711	32695	32647	32807	32803	32669	
72	0	32775	32207	32807	32795	32815	32711	32753	32658	
73	0	32783	32518	32773	32825	32727	32605	32589	32623	
74	0	32609	32397	32681	32719	32831	32798	32597	32823	
75	0	32484	32333	32682	32592	32789	32759	32658	32743	
76	0	32384	32133	32675	32551	32797	32823	32719	32679	
77	0	32543	31839	32647	32615	32775	32643	32751	32647	
78	0	32742	32187	32631	32714	32756	32615	32697	32591	
79	0	32788	32287	32703	32762	32775	32709	32679	32655	
80	0	32786	32484	32754	32799	32747	32732	32681	32606	
81	0	32676	32771	32695	32719	32629	32786	32631	32631	
82	0	32620	32743	32751	32741	32775	32646	32725	32530	
83	0	32823	32647	32761	32831	32787	32783	32711	32683	
84	0	32720	32677	32813	32858	32523	32839	32698	32620	
85	0	32561	32668	32854	32702	32723	32731	32743	32709	
86	0	32780	32701	32813	32747	32699	32804	32723	32695	
87	0	32795	32845	32855	32783	32783	32775	32775	32511	
88	0	32844	32731	32791	32756	32873	32647	32683	32603	
89	0	32969	32575	32682	32747	32647	32750	32699	32597	
90	0	32775	32543	32667	32631	32791	32738	32713	32743	
91	0	32525	32586	32725	32639	32697	32607	32758	32759	
92	0	32686	33079	32687	32689	32766	32834	32759	32599	
93	0	32973	33475	32751	32835	32681	32775	32708	32679	
94	0	32989	33645	32843	32935	32727	32673	32765	32596	
95	0	32972	33471	32799	32791	32623	32839	32749	32715	
96	0	33020	33250	32795	32701	32767	32775	32785	32635	
97	0	33038	33013	32742	32743	32791	32807	32726	32735	
98	0	33174	32631	32724	32615	32813	32879	32806	32847	
99	0	33434	32723	32775	32549	32898	32775	32815	32815	
100	0	33486	32638	32837	32598	32763	32754	32819	32765	
101	0	32892	32277	32759	32652	32850	32583	32775	32668	
102	0	32515	32012	32711	32655	32599	32850	32713	32575	
103	0	32519	32055	32702	32563	32739	32751	32673	32663	
104	0	32574	31975	32731	32583	32789	32663	32658	32636	
105	0	32471	32429	32691	32613	32545	32767	32695	32717	
106	0	32538	32471	32799	32687	32767	32575	32739	32580	
107	0	32711	32499	32807	32695	32582	32847	32769	32711	
108	0	32641	32726	32805	32769	32883	32853	32763	32627	
109	0	32572	32626	32727	32682	32765	32679	32659	32711	
110	0	32483	32855	32711	32701	32871	32839	32694	32519	
111	0	32460	33039	32743	32769	32820	32767	32681	32607	
112	0	32516	33031	32748	32869	32854	32765	32603	32612	
113	0	32487	32935	32723	32743	32676	32783	32671	32690	
114	0	32366	32757	32690	32743	32852	32807	32647	32595	
115	0	32460	32925	32693	32688	32647	32877	32676	32690	
116	0	32428	32949	32671	32647	32751	32678	32707	32575	
117	0	32554	32427	32661	32639	32669	32819	32733	32711	
118	0	32644	32359	32700	32731	32796	32757	32742	32639	
119	0	32509	32421	32773	32763	32935	32807	32771	32765	
120	0	32594	32283	32831	32807	32641	32661	32795	32671	
121	0	32825	32612	32875	32807	32767	32772	32717	32735	
122	0	32892	32553	32815	32834	32567	32743	32708	32615	
123	0	32999	32773	32791	32721	32790	32787	32839	32727	
124	0	33085	33015	32759	32675	32555	32655	32823	32748	
125	0	33198	33149	32693	32668	32733	32831	32819	32781	
126	0	33530	33731	32727	32775	32727	32758	32769	32643	
127	0	33700	33685	32807	32975	32775	32759	32660	32711	
128	0	33555	32939	32793	32844	32767	32636	32677	32645	
129	0	33430	32790	32699	32718	32669	32715	32758	32693	
130	0	33309	32767	32647	32703	32783	32727	32787	32685	
131	0	33241	32999	32716	32735	32551	32805	32756	32567	
132	0	33300	33142	32743	32739	32767	32647	32739	32571	
133	0	33164	32675	32743	32683	32798	32757	32787	32487	
134	0	32914	32429	32775	32615	32743	32726	32691	32497	
135	0	32862	32590	32775	32583	32839	32647	32699	32335	
136	0	32647	32717	32773	32567	32543	32615	32702	32518	
137	0	32705	32526	32775	32695	32771	32542	32855	32403	
138	0	32839	32590	32852	32647	32602	32710	32793	32501	
139	0	32558	32379	32843	32559	32754	32727	32764	32422	
140	0	32135	32207	32820	32527	32755	32658	32767	32597	
141	0	32071	32355	32863	32599	32763	32531	32749	32551	
142	0	32336	32443	32903	32677	32787	32709	32671	32566	
143	0	32626	32284	32935	32573	32591	32715	32635	32545	
144	0	32711	32583	32999	32580	32742	32638	32589	32373	
145	0	32725	32605	32995	32611	32823	32743	32551	32589	
146	0	32917	32479	33001	32629	32807	32587	32631	32463	
147	0	32962	32511	32961	32551	32789	32679	32603	32647	
148	0	32872	32471	32951	32543	32679	32809	32603	32694	
149	0	32684	32397	32863	32591	32839	32655	32615	32548	
150	0	32532	32463	32931	32676	32727	32758	32719	32575	
151	0	32379	32364	32867	32687	32766	32605	32696	32533	
152	0	32276	32519	32917	32762	32818	32647	32645	32730	
153	0	32221	32615	32844	32793	32711	32807	32615	32785	
154	0	32192	32459	32894	32823	32959	32949	32559	32925	
155	0	32346	32415	32809	32658	32687	32795	32663	32837	
156	0	32313	32643	32791	32591	32925	32855	32553	32966	
157	0	32575	32646	32685	32588	32775	32807	32642	32847	
158	0	32963	32854	32719	32581	32871	32895	32579	32959	
159	0	33159	32903	32695	32591	32802	32759	32563	32884	
160	0	33148	32671	32639	32615	32899	32855	32611	32935	
161	0	32948	32599	32503	32741	32804	32886	32695	32921	
162	0	32761	32609	32439	32723	32812	32903	32638	33082	
163	0	32558	32455	32387	32927	32932	32949	32698	32935	
164	0	32505	32711	32303	32871	32685	33055	32679	32903	
165	0	32485	32898	32258	32957	32803	33002	32639	33062	
166	0	32268	32911	32190	33197	32723	33105	32637	33157	
167	0	32038	33270	32187	33301	32787	33101	32668	33447	
168	0	31871	33330	32087	33431	32911	33283	32642	33595	
169	0	31913	33279	32059	33562	32647	33377	32685	33551	
170	0	32223	33323	32125	33407	32756	33234	32645	33652	
171	0	32566	33007	32252	33223	32692	33213	32712	33347	
172	0	32801	32577	32388	33030	32749	32841	32798	33185	
173	0	32960	32221	32583	32722	32855	32893	32821	32919	
174	0	33191	32189	32727	32599	32545	32747	32762	32735	
175	0	33082	32254	32979	32559	32689	32666	32818	32567	
176	0	33098	32379	32999	32719	32895	32658	32743	32424	
177	0	33032	32743	32941	32640	32738	32500	32743	32423	
178	0	32854	32771	32980	32547	32818	32571	32797	32236	
179	0	32874	32722	33091	32430	32762	32541	32809	32305	
180	0	32866	32513	33055	32427	32553	32540	32858	32215	
181	0	32895	32663	33111	32485	32738	32486	32822	32287	
182	0	32774	32991	33103	32450	32715	32543	32775	32257	
183	0	32653	33358	33103	32454	32773	32605	32817	32327	
184	0	32828	33050	33135	32367	32828	32626	32759	32389	
185	0	33037	32807	32990	32455	32595	32703	32743	32258	
186	0	32957	32575	33002	32619	32714	32579	32699	32387	
187	0	32839	32349	32923	32613	32691	32500	32795	32501	
188	0	32804	32103	32911	32599	32807	32674	32810	32454	
189	0	32979	32351	33006	32615	32500	32671	32723	32533	
190	0	33299	32173	32957	32611	32707	32607	32756	32477	
191	0	33513	32531	32863	32715	32775	32731	32743	32563	
192	0	33442	32757	32811	32743	32545	32553	32787	32529	
193	0	33192	32574	32861	32669	32759	32727	32807	32619	
194	0	33213	32799	32695	32583	32615	32623	32815	32580	
195	0	33799	33257	32733	32647	32727	32686	32815	32437	
196	0	33821	33461	32831	32831	32775	32695	32807	32607	
197	0	33362	33375	32795	32837	32669	32612	32834	32560	
198	0	33133	33571	32815	32767	32742	32637	32739	32426	
199	0	32901	33323	32797	32749	32738	32605	32759	32599	
200	0	32663	33003	32717	32719	32671	32681	32759	32439	
201	0	32685	32331	32703	32647	32564	32671	32810	32667	
202	0	32578	32215	32605	32583	32686	32647	32739	32613	
203	0	32572	32173	32717	32538	32631	32583	32703	32551	
204	0	32653	31891	32771	32417	32748	32562	32727	32589	
205	0	32807	32159	32795	32439	32821	32716	32795	32538	
206	0	32839	32190	32879	32434	32606	32689	32691	32613	
207	0	32697	32103	32863	32513	32751	32785	32711	32551	
208	0	32628	32263	32775	32467	32876	32707	32724	32719	
209	0	32468	32391	32847	32511	32571	32791	32682	32647	
210	0	32164	32815	32735	32589	32809	32811	32715	32534	
211	0	32065	32713	32796	32533	32718	32762	32719	32647	
212	0	31798	32681	32733	32703	32751	32850	32612	32617	
213	0	31765	32767	32751	32771	32886	32643	32559	32747	
214	0	31919	32655	32791	32758	32607	32804	32615	32708	
215	0	32071	33015	32873	32727	32799	32739	32583	32775	
216	0	32427	33047	32838	32755	32703	32775	32685	32711	
217	0	32703	32813	32849	32703	32817	32807	32683	32621	
218	0	32927	32607	32731	32751	32981	32695	32727	32721	
219	0	32890	32739	32647	32738	32635	32660	32738	32807	
220	0	32775	32707	32755	32754	32837	32767	32715	32611	
221	0	32932	32620	32811	32742	32918	32823	32679	32801	
222	0	33078	32388	32835	32823	32695	32667	32735	32771	
223	0	33236	32177	32826	32829	32866	32751	32754	32631	
224	0	33165	32262	32722	32829	32915	32850	32743	32831	
225	0	33068	32263	32711	32647	32742	32765	32685	32758	
226	0	33037	32553	32750	32695	32735	32698	32691	32631	
227	0	32936	32667	32835	32687	32828	32863	32729	32745	
228	0	32727	32844	32878	32684	32579	32874	32775	32775	
229	0	32759	32943	32796	32671	32707	32839	32706	32827	
230	0	32841	32829	32743	32635	32727	32719	32671	32763	
231	0	32734	33023	32683	32617	32803	32767	32607	32687	
232	0	32594	33060	32707	32591	32923	32823	32769	32719	
233	0	32626	32871	32639	32658	32641	32755	32811	32638	
234	0	32757	32923	32699	32687	32807	32796	32775	32775	
235	0	32841	32959	32621	32788	32775	32620	32719	32713	
236	0	32767	33087	32706	32839	32615	32711	32719	32527	
237	0	32655	32938	32715	32815	32807	32745	32775	32709	
238	0	32655	33135	32741	32646	32585	32775	32655	32443	
239	0	32919	33113	32769	32726	32702	32755	32715	32593	
240	0	33074	32895	32812	32692	32685	32655	32735	32620	
241	0	32922	32763	32807	32687	32775	32823	32743	32771	
242	0	32945	32679	32754	32711	32879	32791	32743	32748	
243	0	33056	32431	32711	32606	32724	32775	32769	32662	
244	0	33037	32237	32711	32615	32827	32663	32756	32684	
245	0	32978	32295	32688	32659	32747	32748	32726	32869	
246	0	32743	32183	32635	32684	32873	32857	32549	32827	
247	0	32661	32276	32658	32615	32591	32747	32535	32695	
248	0	32433	32342	32635	32614	32759	32741	32551	32679	
249	0	32293	32371	32679	32657	32796	32749	32595	32647	
250	0	32245	32431	32567	32667	32599	32747	32731	32774	
251	0	32391	32391	32613	32604	32759	32770	32695	32647	
252	0	32452	32585	32641	32679	32838	32775	32647	32583	
253	0	32399	32786	32733	32751	32579	32807	32663	32751	
254	0	32510	32815	32875	32775	32759	32839	32647	32691	
255	0	32679	32900	32805	32763	32863	32727	32751	32739	
256	0	32841	32967	32796	32830	32569	32615	32735	32583	
257	0	32871	33110	32796	32895	32731	32759	32647	32602	
258	0	32754	33239	32757	32943	32855	32801	32711	32726	
259	0	32661	33053	32797	32885	32767	32647	32759	32729	
260	0	32868	32757	32938	32830	32863	32783	32706	32807	
261	0	32974	32869	32909	32757	32589	32794	32727	32603	
262	0	32813	32834	32775	32655	32719	32788	32637	32570	
263	0	32592	32695	32725	32534	32811	32743	32683	32708	
264	0	32511	32151	32716	32596	32655	32775	32715	32689	
265	0	32933	32317	32601	32607	32803	32759	32677	32814	
266	0	33497	32635	32679	32703	32895	32743	32663	32711	
267	0	33335	32818	32739	32725	32589	32740	32638	32535	
268	0	32995	32703	32751	32623	32775	32789	32671	32673	
269	0	32840	32619	32787	32748	32711	32882	32691	32683	
270	0	32775	32507	32634	32661	32706	32830	32719	32775	
271	0	32988	32199	32629	32641	32839	32707	32797	32755	
272	0	33109	32489	32659	32671	32586	32759	32806	32701	
273	0	33073	32487	32791	32739	32823	32731	32806	32690	
274	0	32969	32342	32773	32655	32727	32721	32802	32575	
275	0	32914	32515	32835	32663	32759	32787	32737	32647	
276	0	32899	32791	32841	32731	32935	32647	32703	32601	
277	0	32799	32986	32863	32631	32647	32666	32631	32684	
278	0	32567	32607	32845	32571	32775	32839	32674	32609	
279	0	32815	32759	32887	32621	32895	32789	32675	32451	
280	0	33068	33175	32808	32567	32719	32747	32583	32686	
281	0	33043	33083	32666	32707	32814	32725	32647	32676	
282	0	32633	32575	32696	32685	32903	32725	32767	32719	
283	0	32455	32634	32742	32679	32615	32595	32739	32749	
284	0	32710	32547	32757	32705	32757	32751	32743	32791	
285	0	32786	32605	32820	32671	32613	32811	32815	32716	
286	0	32820	32903	32775	32613	32806	32783	32713	32827	
287	0	33028	32939	32692	32559	32771	32749	32647	32678	
288	0	32981	32927	32708	32499	32735	32567	32615	32620	
289	0	32644	32775	32647	32514	32903	32791	32622	32636	
290	0	32537	32769	32678	32531	32623	32719	32687	32630	
291	0	32428	32695	32749	32723	32855	32859	32821	32707	
292	0	32262	32391	32817	32769	32630	32763	32753	32655	
293	0	31954	32589	32803	32743	32807	32790	32708	32655	
294	0	32047	32563	32795	32827	32743	32749	32687	32503	
295	0	32322	32461	32819	32804	32731	32728	32673	32671	
296	0	32471	32719	32751	32769	32740	32844	32610	32647	
297	0	32462	32707	32751	32789	32619	32661	32699	32691	
298	0	32537	32415	32758	32799	32691	32773	32839	32723	
299	0	32749	32471	32782	32806	32676	32667	32885	32693	
300	0	32930	32583	32711	32751	32783	32717	32847	32663	
301	0	33055	32471	32641	32741	32773	32782	32842	32570	
302	0	33204	32765	32663	32790	32606	32611	32873	32645	
303	0	33152	32871	32659	32767	32731	32759	32903	32647	
304	0	32815	32623	32626	32754	32898	32807	32775	32647	
305	0	32619	32759	32718	32732	32831	32770	32723	32837	
306	0	32575	32623	32786	32687	32834	32868	32676	32661	
307	0	32503	32564	32757	32633	32751	32852	32617	32775	
308	0	32396	32126	32775	32615	32767	32645	32599	32687	
309	0	32460	32325	32799	32551	32791	32647	32647	32566	
310	0	32607	32567	32823	32623	32731	32759	32647	32641	
311	0	32896	32679	32835	32686	32723	32787	32711	32535	
312	0	33180	32515	32831	32854	32815	32789	32667	32711	
313	0	33266	32706	32855	32799	32638	32867	32725	32673	
314	0	33212	32623	32756	32839	32786	32767	32775	32730	
315	0	33058	32679	32759	32767	32885	32807	32699	32766	
316	0	32967	32633	32765	32727	32655	32737	32679	32637	
317	0	32762	32727	32827	32631	32769	32749	32741	32678	
318	0	32636	32903	32843	32719	32845	32769	32758	32694	
319	0	32580	32799	32819	32685	32647	32807	32783	32647	
320	0	32586	32635	32859	32655	32719	32743	32757	32621	
321	0	32748	32755	32835	32621	32775	32791	32751	32527	
322	0	32891	32731	32795	32706	32821	32671	32607	32643	
323	0	32762	32679	32762	32675	32855	32767	32657	32615	
324	0	32679	33043	32731	32655	32519	32762	32711	32667	
325	0	32809	32837	32711	32708	32695	32720	32738	32723	
326	0	32877	32861	32751	32759	32727	32751	32756	32605	
327	0	32787	32703	32743	32753	32727	32700	32738	32603	
328	0	32662	32887	32751	32790	32747	32604	32795	32541	
329	0	32708	32861	32677	32743	32623	32719	32759	32612	
330	0	32675	32631	32627	32787	32730	32732	32799	32619	
331	0	32632	32698	32531	32615	32837	32785	32775	32708	
332	0	32883	32597	32479	32647	32621	32707	32653	32669	
333	0	32887	32563	32662	32615	32742	32638	32567	32829	
334	0	32702	32583	32724	32619	32826	32767	32640	32734	
335	0	32583	32599	32819	32677	32614	32749	32685	32747	
336	0	32543	32647	32819	32553	32835	32733	32821	32733	
337	0	32597	32773	32855	32647	32679	32866	32817	32809	
338	0	32605	32670	32789	32719	32764	32677	32821	32673	
339	0	32583	32435	32775	32711	32903	32789	32708	32667	
340	0	32577	32495	32804	32716	32658	32775	32766	32601	
341	0	32681	32559	32834	32571	32847	32708	32765	32501	
342	0	32892	32626	32826	32733	32947	32743	32655	32671	
343	0	33083	32609	32831	32715	32615	32804	32669	32697	
344	0	32967	32609	32845	32767	32738	32719	32644	32797	
345	0	32867	32373	32931	32743	32815	32774	32703	32743	
346	0	32946	32340	32967	32805	32808	32751	32663	32786	
347	0	33079	32445	32879	32745	32850	32701	32679	32767	
348	0	33073	32391	32839	32769	32580	32743	32807	32790	
349	0	32844	32620	32805	32735	32759	32590	32755	32690	
350	0	32715	32620	32807	32764	32790	32643	32767	32519	
351	0	32775	32743	32757	32818	32735	32699	32723	32607	
352	0	32823	33014	32705	32786	32839	32843	32703	32564	
353	0	32775	33798	32743	32821	32621	32799	32727	32671	
354	0	32524	34247	32743	32847	32708	32859	32827	32694	
355	0	32598	34263	32687	32844	32717	32694	32887	32755	
356	0	32692	33669	32743	32823	32797	32718	32819	32709	
357	0	32948	33071	32743	32703	32843	32771	32775	32748	
358	0	33174	32749	32775	32606	32629	32732	32721	32747	
359	0	33223	32349	32714	32683	32789	32813	32645	32591	
360	0	33076	31943	32756	32647	32615	32643	32589	32719	
361	0	32887	32223	32701	32725	32773	32805	32759	32743	
362	0	32629	32177	32695	32659	32549	32692	32735	32655	
363	0	32530	32169	32700	32743	32767	32725	32711	32741	
364	0	32487	32119	32729	32836	32667	32658	32623	32691	
365	0	32552	32006	32727	32802	32773	32775	32612	32719	
366	0	32415	31841	32647	32855	32835	32790	32598	32639	
367	0	32463	32133	32606	32818	32659	32837	32593	32555	
368	0	32764	32278	32613	32759	32796	32813	32566	32755	
369	0	33030	32261	32623	32831	32813	32727	32586	32639	
370	0	33287	32634	32635	32773	32511	32799	32751	32720	
371	0	33423	32782	32690	32892	32755	32756	32839	32711	
372	0	32896	32590	32762	32787	32658	32597	32775	32733	
373	0	32348	32493	32765	32735	32759	32759	32783	32677	
374	0	32332	32407	32829	32647	32850	32805	32775	32511	
375	0	32228	32423	32765	32559	32561	32729	32736	32701	
376	0	32458	32439	32775	32542	32795	32763	32754	32543	
377	0	32574	32523	32731	32463	32667	32855	32757	32699	
378	0	32573	32837	32787	32515	32803	32719	32816	32742	
379	0	32591	32890	32791	32587	32803	32620	32827	32621	
380	0	32808	33051	32767	32541	32601	32686	32741	32725	
381	0	33107	33483	32847	32571	32812	32802	32655	32647	
382	0	33511	33978	32874	32799	32935	32799	32605	32843	
383	0	33681	33735	32971	32766	32662	32732	32605	32687	
384	0	33412	33537	32913	32647	32900	32791	32719	32758	
385	0	32947	33094	32799	32591	32647	32701	32769	32643	
386	0	32872	32827	32678	32685	32587	32767	32670	32710	
387	0	32878	33094	32596	32727	32738	32643	32679	32595	
388	0	32838	33375	32645	32786	32756	32655	32740	32643	
389	0	32646	33063	32738	32855	32746	32805	32627	32559	
390	0	32508	32647	32727	32925	32729	32839	32587	32741	
391	0	32325	32180	32737	32893	32703	32850	32527	32663	
392	0	32263	32089	32711	32873	32711	32703	32607	32819	
393	0	32356	31987	32706	32895	32927	32830	32786	32747	
394	0	32294	32115	32767	32855	32621	32727	32775	32638	
395	0	32239	32327	32807	32839	32811	32681	32750	32676	
396	0	32437	32383	32765	32687	32743	32735	32745	32557	
397	0	32641	32285	32748	32626	32771	32781	32818	32692	
398	0	32698	32443	32719	32590	32862	32775	32706	32549	
399	0	32727	32565	32775	32700	32613	32815	32698	32698	
400	0	32791	32465	32743	32590	32798	32690	32696	32703	
401	0	32723	32196	32660	32532	32894	32670	32631	32764	
402	0	32725	32343	32671	32462	32495	32820	32670	32692	
403	0	32807	32506	32684	32485	32765	32719	32775	32699	
404	0	32786	32470	32791	32575	32743	32825	32847	32723	
405	0	32484	32775	32815	32558	32759	32769	32786	32694	
406	0	32197	32647	32885	32533	32775	32711	32767	32647	
407	0	32342	32709	32874	32599	32733	32626	32775	32647	
408	0	32516	32613	32787	32630	32545	32775	32757	32775	
409	0	32634	32719	32725	32623	32807	32871	32817	32743	
410	0	32543	32631	32703	32615	32587	32730	32807	32811	
411	0	32742	32491	32691	32635	32759	32813	32884	32713	
412	0	32990	32919	32735	32694	32817	32535	32806	32572	
413	0	33391	33103	32731	32843	32583	32811	32679	32607	
414	0	33724	33234	32725	32773	32771	32797	32647	32487	
415	0	33739	33065	32733	32919	32861	32677	32737	32626	
416	0	33291	33031	32735	32873	32631	32751	32711	32723	
417	0	32992	33024	32711	32789	32807	32751	32721	32775	
418	0	32893	32699	32764	32749	32786	32767	32707	32727	
419	0	32775	32811	32751	32775	32827	32801	32617	32668	
420	0	32707	32711	32735	32711	32921	32702	32695	32743	
421	0	32592	32429	32727	32710	32597	32796	32647	32583	
422	0	32647	32643	32725	32711	32853	32615	32623	32647	
423	0	32576	32570	32716	32669	32588	32797	32582	32643	
424	0	32764	32438	32647	32661	32804	32807	32666	32638	
425	0	32940	32603	32691	32647	32665	32738	32679	32605	
426	0	32884	32511	32644	32719	32764	32883	32775	32655	
427	0	32844	32379	32735	32661	32799	32732	32799	32655	
428	0	32804	32587	32699	32675	32749	32901	32829	32760	
429	0	32772	32551	32703	32839	32841	32855	32843	32566	
430	0	32532	32446	32691	32730	32647	32709	32699	32679	
431	0	32415	32639	32754	32751	32775	32799	32708	32623	
432	0	32305	32764	32770	32708	32660	32637	32751	32711	
433	0	32400	32687	32755	32791	32775	32804	32797	32533	
434	0	32473	32775	32654	32740	32839	32758	32823	32663	
435	0	32639	32861	32739	32811	32594	32669	32903	32658	
436	0	32769	32668	32758	32756	32837	32767	32791	32756	
437	0	32863	32743	32751	32685	32587	32719	32743	32692	
438	0	33057	32858	32695	32691	32775	32787	32775	32629	
439	0	33054	32612	32773	32751	32894	32756	32775	32613	
440	0	32820	32583	32791	32773	32579	32737	32738	32450	
441	0	32791	32708	32775	32771	32695	32775	32699	32565	
442	0	32607	32663	32799	32796	32837	32811	32644	32615	
443	0	32575	32678	32747	32727	32751	32767	32607	32703	
444	0	32506	32743	32660	32719	32790	32647	32607	32767	
445	0	32594	32947	32623	32754	32730	32873	32667	32775	
446	0	32449	32647	32775	32705	32823	32871	32663	32703	
447	0	32182	32355	32818	32683	32843	32709	32621	32614	
448	0	31872	32390	32832	32631	32585	32739	32635	32745	
449	0	32173	32530	32838	32579	32749	32811	32748	32655	
450	0	32506	32813	32807	32540	32617	32607	32721	32722	
451	0	32769	33221	32807	32569	32802	32771	32763	32674	
452	0	33084	33043	32791	32583	32863	32793	32684	32679	
453	0	33293	33047	32845	32605	32697	32775	32722	32629	
454	0	33664	33131	32919	32747	32843	32743	32799	32543	
455	0	34041	33330	32927	32813	32885	32796	32795	32767	
456	0	34112	33087	32869	32855	32583	32694	32791	32608	
457	0	33664	32867	32815	32838	32836	32765	32735	32579	
458	0	33334	32154	32735	32687	32814	32773	32743	32623	
459	0	32507	32061	32631	32647	32775	32669	32678	32593	
460	0	32082	32167	32717	32791	32900	32786	32755	32662	
461	0	31947	32341	32701	32757	32815	32742	32775	32519	
462	0	31954	32391	32692	32711	32837	32913	32733	32621	
463	0	31847	31983	32769	32609	32588	32813	32733	32565	
464	0	31906	31305	32749	32463	32796	32677	32702	32684	
465	0	32247	31555	32707	32598	32827	32742	32682	32679	
466	0	32703	31983	32647	32655	32551	32757	32727	32711	
467	0	32775	32503	32679	32847	32790	32707	32754	32631	
468	0	33055	32875	32713	32903	32635	32829	32662	32690	
469	0	33031	33101	32646	32841	32758	32684	32703	32594	
470	0	32911	33011	32594	32841	32621	32820	32748	32735	
471	0	33107	33659	32615	32791	32818	32787	32715	32626	
472	0	33129	34561	32711	32711	32885	32693	32703	32722	
473	0	32577	34875	32829	32775	32621	32767	32709	32623	
474	0	32418	34470	32871	32845	32785	32695	32709	32687	
475	0	32652	33159	32826	32639	32695	32711	32645	32647	
476	0	32658	32489	32755	32546	32759	32829	32727	32681	
477	0	32611	32911	32791	32558	32665	32717	32771	32540	
478	0	32879	33207	32967	32721	32743	32700	32757	32723	
479	0	33088	32871	32883	32823	32867	32765	32727	32505	
480	0	33565	32741	32814	32884	32646	32615	32773	32623	
481	0	34053	32225	32815	32693	32807	32745	32813	32465	
482	0	33677	31905	32797	32663	32775	32749	32695	32660	
483	0	33026	31663	32703	32635	32719	32802	32811	32607	
484	0	32724	31351	32695	32606	32783	32705	32890	32719	
485	0	32636	31261	32715	32587	32763	32599	32775	32663	
486	0	32679	31783	32647	32597	32799	32801	32847	32768	
487	0	32509	31935	32687	32687	32642	32788	32829	32691	
488	0	32338	31935	32718	32697	32735	32690	32855	32573	
489	0	32442	32191	32724	32789	32885	32683	32756	32590	
490	0	32742	32431	32769	32783	32628	32797	32679	32548	
491	0	32782	32563	32790	32747	32743	32679	32639	32613	
492	0	32692	32470	32739	32809	32834	32631	32575	32631	
493	0	32691	32709	32725	32687	32487	32795	32525	32719	
494	0	32631	32535	32659	32748	32751	32839	32563	32699	
495	0	32625	32756	32775	32698	32871	32787	32575	32575	
496	0	32626	32547	32799	32724	32671	32771	32609	32711	
497	0	32766	32903	32791	32631	32775	32751	32583	32711	
498	0	32887	33383	32831	32684	32775	32751	32643	32529	
499	0	32667	33295	32869	32732	32852	32731	32635	32715	
500	0	32535	33047	32639	32789	32607	32826	32689	32799	
501	0	32395	32637	32710	32667	32767	32724	32631	32607	
502	0	32460	32805	32697	32679	32900	32605	32619	32675	
503	0	32548	32820	32765	32701	32647	32663	32623	32681	
504	0	32635	32839	32725	32679	32820	32775	32656	32726	
505	0	32705	32644	32775	32795	32916	32775	32674	32670	
506	0	32726	32815	32775	32775	32647	32769	32719	32509	
507	0	32778	32647	32683	32723	32775	32755	32803	32715	
508	0	32914	32790	32679	32783	32647	32746	32871	32687	
509	0	33106	32642	32692	32735	32724	32620	32885	32751	
510	0	33211	32962	32775	32791	32759	32620	32820	32734	
511	0	33076	32985	32799	32719	32631	32775	32775	32711	
512	0	32919	33007	32839	32719	32797	32780	32839	32661	
513	0	32922	32815	32705	32723	32892	32754	32763	32517	
514	0	32973	32903	32698	32743	32623	32759	32773	32607	
515	0	32732	32815	32715	32763	32839	32815	32701	32575	
516	0	32543	32727	32789	32735	32885	32711	32741	32708	
517	0	32550	32437	32839	32694	32614	32629	32809	32711	
518	0	32676	32499	32790	32877	32787	32817	32772	32743	
519	0	32724	32583	32694	32805	32775	32767	32791	32711	
520	0	32834	32775	32637	32797	32575	32729	32783	32646	
521	0	32881	32708	32691	32775	32762	32849	32759	32719	
522	0	32903	32829	32815	32756	32807	32775	32775	32691	
523	0	32827	33019	32797	32719	32575	32727	32703	32573	
524	0	32759	32826	32815	32679	32775	32802	32723	32659	
525	0	32567	32569	32814	32743	32715	32690	32693	32487	
526	0	32391	32742	32813	32809	32722	32643	32660	32647	
527	0	32327	32844	32812	32821	32855	32807	32613	32551	
528	0	32284	32735	32837	32783	32615	32686	32683	32660	
529	0	32402	32855	32847	32775	32735	32767	32737	32687	
530	0	32598	32679	32773	32775	32642	32684	32751	32719	
531	0	32633	32495	32817	32707	32773	32759	32763	32689	
532	0	32708	32727	32810	32597	32893	32759	32804	32775	
533	0	32647	32621	32767	32555	32597	32759	32820	32708	
534	0	32758	32415	32645	32603	32743	32878	32741	32655	
535	0	32688	32423	32675	32639	32828	32631	32692	32677	
536	0	32772	32451	32719	32599	32644	32875	32743	32535	
537	0	32927	32375	32678	32716	32903	32771	32809	32623	
538	0	33004	32583	32628	32613	32642	32769	32727	32568	
539	0	33033	32327	32701	32455	32814	32704	32786	32668	
540	0	32957	32127	32754	32510	32615	32833	32771	32589	
541	0	32823	32025	32705	32633	32717	32787	32877	32679	
542	0	32566	32101	32639	32695	32647	32740	32881	32559	
543	0	32388	32039	32770	32790	32762	32543	32789	32546	
544	0	32356	32451	32811	32735	32756	32711	32796	32540	
545	0	32441	32658	32775	32767	32763	32815	32855	32673	
546	0	32612	32786	32772	32727	32724	32789	32775	32543	
547	0	32863	33175	32740	32850	32751	32604	32737	32635	
548	0	33052	33495	32689	32845	32871	32815	32751	32557	
549	0	33049	33253	32791	32854	32591	32735	32722	32621	
550	0	33215	33301	32711	32799	32846	32711	32687	32535	
551	0	33509	33189	32743	32813	32589	32595	32691	32679	
552	0	33430	32891	32736	32719	32775	32761	32703	32695	
553	0	33081	32561	32763	32711	32743	32844	32679	32751	
554	0	32854	32106	32772	32612	32823	32835	32707	32803	
555	0	32833	32071	32786	32617	32668	32655	32671	32628	
556	0	32859	32259	32737	32631	32825	32839	32639	32663	
557	0	32697	32435	32807	32677	32685	32751	32751	32589	
558	0	32431	32743	32819	32791	32737	32701	32694	32631	
559	0	32118	32847	32793	32788	32647	32637	32629	32775	
560	0	32073	33155	32757	32773	32794	32775	32717	32775	
561	0	32468	33345	32783	32826	32799	32693	32687	32847	
562	0	32722	33347	32617	32879	32695	32687	32719	32775	
563	0	32665	33543	32589	32859	32862	32707	32871	32740	
564	0	32643	33354	32641	32772	32756	32735	32831	32581	
565	0	32751	33287	32677	32711	32868	32767	32798	32683	
566	0	33153	32919	32751	32647	32733	32675	32759	32551	
567	0	33462	32479	32745	32675	32783	32811	32740	32677	
568	0	33407	32438	32711	32793	32581	32707	32703	32647	
569	0	33324	32575	32711	32725	32695	32796	32703	32637	
570	0	33282	32663	32709	32763	32727	32711	32615	32665	
571	0	32967	32839	32679	32822	32747	32815	32720	32603	
572	0	32706	32566	32767	32745	32725	32775	32771	32638	
573	0	32526	32317	32718	32727	32527	32711	32795	32615	
574	0	32377	32355	32703	32709	32746	32797	32692	32711	
575	0	32498	32346	32741	32742	32607	32799	32795	32585	
576	0	32658	32186	32687	32607	32774	32775	32630	32663	
577	0	32736	32205	32733	32539	32869	32703	32639	32551	
578	0	32576	32410	32675	32613	32807	32739	32666	32695	
579	0	32586	32436	32763	32717	32775	32591	32721	32643	
580	0	32602	32730	32759	32866	32691	32759	32807	32837	
581	0	32474	32783	32775	32939	32815	32850	32751	32807	
582	0	32391	32681	32847	32967	32876	32700	32645	32852	
583	0	32326	32941	32732	32847	32843	32793	32676	32711	
584	0	32507	32868	32765	32763	32791	32610	32775	32743	
585	0	32718	32468	32687	32733	32607	32813	32665	32647	
586	0	32903	32425	32710	32692	32783	32794	32647	32679	
587	0	32799	32463	32743	32675	32903	32687	32621	32689	
588	0	32718	32287	32775	32631	32587	32801	32646	32559	
589	0	32852	32625	32823	32585	32775	32612	32701	32621	
590	0	32943	32642	32771	32615	32793	32647	32685	32695	
591	0	32762	32407	32923	32599	32769	32718	32738	32767	
592	0	32775	32500	32914	32573	32807	32725	32843	32687	
593	0	32961	32443	32839	32538	32612	32719	32826	32727	
594	0	33127	32623	32775	32407	32799	32782	32773	32603	
595	0	33373	32950	32809	32526	32860	32617	32855	32735	
596	0	33481	32900	32775	32493	32727	32799	32893	32623	
597	0	33303	32870	32863	32531	32742	32751	32821	32711	
598	0	32818	33183	32775	32564	32572	32663	32669	32535	
599	0	32615	33374	32751	32751	32775	32726	32686	32631	
600	0	32372	33295	32849	32830	32669	32665	32791	32526	
601	0	32244	33388	32806	32907	32806	32827	32767	32675	
602	0	32156	33211	32786	32876	32851	32845	32703	32743	
603	0	32155	32613	32807	32871	32583	32739	32647	32767	
604	0	32140	32239	32799	32863	32767	32804	32577	32745	
605	0	32231	31876	32762	32903	32663	32615	32687	32821	
606	0	32397	31367	32673	32835	32805	32775	32703	32799	
607	0	32594	31651	32621	32807	32865	32754	32593	32762	
608	0	33124	31975	32607	32775	32757	32647	32635	32699	
609	0	33478	32095	32717	32621	32835	32838	32679	32815	
610	0	33321	32423	32674	32644	32619	32677	32745	32735	
611	0	33206	32482	32635	32597	32900	32821	32763	32811	
612	0	33176	32711	32819	32503	32699	32820	32815	32739	
613	0	32835	32493	32807	32532	32773	32737	32735	32771	
614	0	32601	32370	32804	32583	32919	32791	32751	32587	
615	0	32647	32212	32691	32659	32609	32631	32749	32519	
616	0	32724	32446	32684	32687	32747	32773	32807	32765	
617	0	32707	32675	32663	32647	32607	32871	32687	32743	
618	0	32644	32735	32695	32847	32740	32853	32791	32740	
619	0	32635	32937	32683	32841	32647	32647	32647	32588	
620	0	32873	33047	32695	32883	32775	32636	32683	32715	
621	0	32925	33287	32635	32804	32829	32795	32679	32635	
622	0	32871	33429	32647	32754	32787	32767	32647	32646	
623	0	32700	33707	32719	32859	32750	32723	32647	32575	
624	0	32762	33431	32724	32878	32796	32754	32642	32631	
625	0	32761	33301	32724	32767	32859	32767	32795	32599	
626	0	32788	32959	32783	32719	32647	32660	32881	32727	
627	0	32697	32903	32713	32706	32719	32775	32789	32694	
628	0	32526	32663	32685	32612	32759	32617	32687	32685	
629	0	32300	32379	32703	32631	32719	32747	32759	32689	
630	0	32236	32339	32758	32823	32757	32708	32631	32758	
631	0	32452	32563	32749	32826	32717	32809	32714	32737	
632	0	32524	32621	32774	32765	32851	32641	32817	32771	
633	0	32615	32743	32826	32757	32739	32743	32679	32661	
634	0	32738	32733	32743	32703	32827	32775	32743	32695	
635	0	33046	32799	32733	32564	32771	32680	32647	32547	
636	0	33338	32751	32786	32621	32933	32813	32647	32669	
637	0	33396	32441	32787	32583	32703	32735	32662	32659	
638	0	33585	32429	32807	32606	32823	32812	32738	32715	
639	0	33397	32236	32823	32615	32723	32647	32741	32595	
640	0	33061	32437	32775	32741	32811	32822	32742	32679	
641	0	32972	32531	32709	32703	32707	32717	32647	32625	
642	0	32729	32479	32699	32743	32763	32861	32675	32663	
643	0	32733	32579	32711	32687	32639	32701	32665	32635	
644	0	32622	32685	32793	32603	32711	32822	32711	32655	
645	0	32582	32767	32823	32558	32727	32671	32746	32567	
646	0	32352	33045	32742	32647	32759	32732	32804	32661	
647	0	32175	33207	32749	32876	32807	32573	32727	32527	
648	0	32167	33558	32855	32926	32754	32751	32668	32670	
649	0	32107	33229	32890	33003	32810	32775	32647	32587	
650	0	32353	32797	32983	32863	32701	32807	32775	32709	
651	0	32758	32811	32863	32846	32767	32731	32844	32581	
652	0	33039	32677	32745	32900	32853	32623	32767	32657	
653	0	33017	32495	32735	32787	32708	32759	32775	32559	
654	0	33087	32685	32668	32725	32737	32707	32807	32725	
655	0	32932	32445	32767	32613	32685	32791	32773	32724	
656	0	32849	31951	32834	32583	32789	32755	32679	32719	
657	0	32734	32100	32797	32546	32747	32655	32694	32678	
658	0	32865	32407	32790	32613	32748	32775	32717	32687	
659	0	32921	32382	32786	32679	32842	32775	32759	32611	
660	0	32783	32647	32716	32591	32586	32685	32837	32569	
661	0	32697	32621	32762	32668	32747	32753	32775	32698	
662	0	32724	32404	32845	32612	32709	32701	32708	32619	
663	0	32860	32825	32847	32647	32870	32643	32681	32690	
664	0	32788	33031	32751	32767	32828	32790	32687	32559	
665	0	32813	33194	32751	32700	32805	32659	32679	32677	
666	0	32855	33138	32717	32855	32932	32836	32647	32753	
667	0	32790	33013	32683	32789	32643	32807	32645	32833	
668	0	32815	32900	32738	32719	32788	32703	32631	32703	
669	0	32864	32903	32740	32748	32673	32870	32804	32763	
670	0	32894	33317	32751	32732	32717	32859	32781	32743	
671	0	32876	33327	32715	32775	32865	32719	32691	32659	
672	0	32996	32903	32759	32895	32575	32881	32725	32743	
673	0	32903	32884	32732	32935	32769	32647	32729	32567	
674	0	32739	32615	32735	32869	32631	32839	32775	32734	
675	0	32734	32275	32822	32735	32723	32795	32727	32807	
676	0	32797	32435	32694	32674	32627	32815	32805	32663	
677	0	32711	32375	32646	32611	32769	32645	32765	32743	
678	0	32766	32223	32615	32638	32695	32823	32751	32669	
679	0	32663	32449	32647	32717	32750	32687	32757	32666	
680	0	32626	32438	32623	32687	32823	32786	32647	32604	
681	0	32598	32500	32623	32679	32797	32627	32625	32721	
682	0	32587	32643	32679	32755	32895	32770	32623	32647	
683	0	32571	32427	32662	32647	32585	32694	32751	32686	
684	0	32557	32263	32734	32617	32786	32819	32719	32630	
685	0	32557	32662	32791	32751	32772	32831	32679	32751	
686	0	32599	32765	32855	32733	32735	32539	32741	32510	
687	0	32431	32775	32847	32748	32767	32783	32725	32437	
688	0	32268	32591	32875	32783	32594	32615	32738	32663	
689	0	32559	32607	32889	32613	32734	32733	32797	32553	
690	0	32759	32723	32775	32681	32791	32586	32775	32663	
691	0	33053	32722	32703	32791	32603	32642	32811	32724	
692	0	33290	32903	32645	32719	32823	32756	32783	32675	
693	0	33444	32719	32647	32739	32647	32691	32685	32743	
694	0	33343	32551	32638	32727	32746	32767	32655	32669	
695	0	33195	32677	32690	32673	32903	32753	32683	32917	
696	0	33194	32707	32668	32647	32621	32636	32719	32716	
697	0	33026	32684	32773	32583	32775	32743	32758	32661	
698	0	32678	32631	32791	32671	32679	32751	32715	32677	
699	0	32557	32852	32767	32679	32748	32756	32687	32647	
700	0	32475	32671	32711	32580	32853	32733	32703	32751	
701	0	32544	32285	32711	32487	32831	32775	32845	32695	
702	0	32542	32255	32785	32499	32843	32736	32791	32681	
703	0	32507	32081	32733	32590	32759	32727	32801	32658	
704	0	32605	31967	32711	32633	32772	32775	32732	32502	
705	0	32815	32327	32743	32695	32573	32621	32701	32599	
706	0	32859	32242	32679	32711	32759	32727	32647	32567	
707	0	32892	32013	32724	32621	32704	32791	32644	32711	
708	0	32751	32438	32771	32693	32818	32743	32711	32739	
709	0	32637	32805	32775	32759	32815	32751	32685	32630	
710	0	32527	33159	32743	32839	32639	32687	32723	32721	
711	0	32564	33191	32719	32948	32783	32679	32647	32566	
712	0	32570	33415	32798	32901	32799	32794	32571	32676	
713	0	32597	33775	32746	32860	32775	32823	32711	32679	
714	0	32576	33506	32711	32821	32850	32707	32759	32741	
715	0	32625	33735	32847	32803	32685	32859	32759	32727	
716	0	32372	33579	32861	32829	32799	32738	32809	32574	
717	0	32284	33265	32933	32865	32879	32733	32871	32759	
718	0	32679	33397	32863	32911	32609	32821	32703	32749	
719	0	33444	32962	32801	32855	32741	32787	32595	32529	
720	0	33508	32338	32717	32810	32935	32775	32621	32694	
721	0	32931	31943	32703	32699	32668	32690	32716	32635	
722	0	32855	32027	32615	32701	32747	32749	32743	32475	
723	0	33143	32258	32645	32663	32823	32759	32686	32695	
724	0	33370	32255	32751	32559	32602	32739	32583	32703	
725	0	33202	32126	32863	32595	32807	32709	32655	32497	
726	0	32736	31911	32811	32497	32891	32811	32703	32685	
727	0	32497	31903	32717	32455	32580	32807	32754	32719	
728	0	32843	31991	32807	32533	32759	32747	32755	32508	
729	0	33412	31887	32819	32533	32814	32721	32719	32601	
730	0	33061	31767	32705	32483	32735	32759	32813	32597	
731	0	32585	32007	32759	32473	32823	32675	32891	32611	
732	0	32495	31983	32711	32531	32659	32703	32700	32687	
733	0	32358	32157	32631	32735	32723	32743	32727	32623	
734	0	32457	32390	32597	32782	32767	32775	32695	32663	
735	0	32617	32471	32675	32725	32589	32735	32765	32631	
736	0	32721	32845	32799	32695	32751	32647	32660	32756	
737	0	32774	32847	32873	32751	32835	32851	32657	32727	
738	0	32629	32739	32855	32815	32631	32737	32715	32634	
739	0	32711	32923	32819	32807	32823	32659	32709	32711	
740	0	32644	33250	32732	32759	32594	32711	32731	32600	
741	0	32725	33399	32716	32773	32694	32703	32806	32749	
742	0	32711	33255	32697	32639	32771	32751	32757	32635	
743	0	32610	33285	32727	32604	32647	32719	32759	32585	
744	0	32554	33006	32812	32663	32813	32819	32679	32687	
745	0	32493	33285	32815	32703	32917	32675	32583	32615	
746	0	32465	33020	32855	32724	32643	32647	32663	32615	
747	0	32433	33031	32765	32701	32749	32647	32722	32685	
748	0	32349	32597	32685	32708	32807	32799	32671	32643	
749	0	32444	32479	32684	32719	32767	32735	32699	32540	
750	0	32732	32421	32711	32690	32757	32729	32669	32735	
751	0	32853	32587	32739	32647	32791	32699	32693	32687	
752	0	32827	32555	32719	32623	32785	32759	32743	32610	
753	0	32762	32620	32677	32715	32828	32818	32749	32735	
754	0	32709	32831	32595	32659	32790	32851	32709	32685	
755	0	32937	32961	32629	32742	32775	32748	32683	32621	
756	0	33124	33362	32743	32739	32727	32658	32691	32773	
757	0	33309	33415	32775	32678	32679	32687	32729	32687	
758	0	33246	33279	32771	32631	32725	32695	32855	32691	
759	0	33207	33487	32723	32659	32847	32827	32850	32759	
760	0	33268	33415	32717	32703	32623	32859	32830	32631	
761	0	33149	33179	32679	32665	32687	32817	32834	32733	
762	0	32914	33007	32711	32823	32743	32767	32755	32607	
763	0	32861	32701	32685	32721	32751	32623	32791	32508	
764	0	32887	32613	32749	32661	32723	32731	32731	32578	
765	0	32762	32455	32759	32710	32701	32709	32773	32535	
766	0	32674	32362	32875	32599	32715	32562	32834	32423	
767	0	32623	32284	32943	32518	32601	32551	32803	32582	
768	0	32487	32197	32865	32579	32729	32535	32815	32566	
769	0	32436	32175	32804	32627	32807	32603	32729	32311	
770	0	32645	32285	32809	32611	32694	32557	32691	32442	
771	0	32633	32346	32815	32487	32492	32683	32667	32483	
772	0	32639	32291	32759	32527	32731	32638	32660	32531	
773	0	32655	32449	32775	32519	32719	32647	32679	32647	
774	0	32810	32311	32801	32708	32791	32623	32707	32567	
775	0	32927	32431	32903	32740	32802	32683	32666	32425	
776	0	33117	32583	32949	32700	32871	32791	32627	32557	
777	0	33215	32573	32965	32535	32586	32732	32586	32535	
778	0	33062	32451	33047	32535	32787	32585	32569	32663	
779	0	32902	32219	33063	32479	32819	32593	32509	32602	
780	0	32852	32274	33101	32553	32579	32731	32455	32487	
781	0	33076	32446	33069	32687	32775	32678	32495	32711	
782	0	32989	32495	33139	32659	32851	32750	32537	32626	
783	0	32831	32498	33044	32575	32595	32758	32511	32559	
784	0	32733	32377	32999	32559	32863	32694	32475	32739	
785	0	32673	32706	32937	32487	32743	32775	32541	32731	
786	0	32801	32887	32850	32415	32885	32813	32491	32869	
787	0	32773	32993	32927	32455	32943	32709	32500	32807	
788	0	32733	32927	32901	32639	32681	32699	32497	32729	
789	0	32558	32995	32797	32683	32854	32846	32587	32774	
790	0	32431	32729	32614	32799	32861	32871	32601	32671	
791	0	32551	32594	32538	32763	32669	32827	32658	32815	
792	0	32596	32367	32461	32818	32791	32859	32775	32882	
793	0	32467	32335	32377	32849	32811	32857	32828	32775	
794	0	32337	32421	32279	32911	32583	32879	32863	32871	
795	0	32167	32365	32183	32995	32811	32956	32791	32951	
796	0	32210	32471	32091	33053	32859	33069	32783	33007	
797	0	32293	32647	32123	33075	32647	33041	32725	33147	
798	0	32284	32788	32102	33197	32799	32921	32694	33095	
799	0	32218	33159	32079	33377	32939	33065	32783	33455	
800	0	32097	33343	32015	33437	32796	33265	32731	33575	
801	0	31937	33037	32005	33466	32847	33275	32852	33819	
802	0	31939	33044	32151	33335	32761	33171	32774	33638	
803	0	32056	32923	32254	33238	32759	33275	32687	33350	
804	0	32085	32915	32351	33159	32769	33117	32717	33323	
805	0	32128	32671	32557	33012	32740	32845	32711	33103	
806	0	32359	32639	32767	32871	32775	32886	32751	32807	
807	0	32805	32414	32834	32766	32863	32863	32723	32710	
808	0	33177	32423	32943	32702	32655	32807	32681	32575	
809	0	33383	32335	32887	32673	32706	32647	32679	32591	
810	0	33261	32455	32855	32667	32847	32623	32679	32470	
811	0	33309	32466	32951	32631	32587	32615	32727	32223	
812	0	33353	32519	33015	32577	32701	32623	32759	32359	
813	0	33039	32556	32951	32507	32751	32611	32695	32293	
814	0	32820	32447	32971	32411	32871	32663	32631	32391	
815	0	32775	32431	33071	32495	32697	32663	32621	32351	
816	0	32791	32563	33053	32455	32815	32556	32721	32423	
817	0	32966	32526	33035	32490	32871	32399	32855	32324	
818	0	33159	32473	33019	32423	32529	32583	32849	32443	
819	0	33430	32669	33043	32367	32797	32702	32812	32356	
820	0	33460	32941	32983	32463	32628	32639	32745	32313	
821	0	33309	33023	32967	32510	32738	32631	32891	32363	
822	0	33342	32943	32903	32476	32711	32525	32980	32319	
823	0	33453	32935	32959	32439	32663	32629	32937	32367	
824	0	33275	33005	32983	32631	32727	32673	32818	32325	
825	0	32835	32763	32915	32634	32566	32620	32799	32455	
826	0	32564	32909	32927	32739	32733	32695	32887	32473	
827	0	32318	32858	32855	32677	32847	32573	32887	32361	
828	0	32414	32567	32841	32647	32573	32591	32685	32515	
829	0	32487	32587	32775	32711	32703	32585	32727	32543	
830	0	32454	32764	32771	32676	32710	32679	32726	32571	
831	0	32365	32797	32759	32655	32767	32695	32707	32493	
832	0	32576	32726	32743	32747	32855	32659	32775	32675	
833	0	32884	32801	32615	32692	32643	32749	32687	32637	
834	0	32851	32671	32639	32647	32767	32695	32653	32503	
835	0	32722	32527	32647	32691	32743	32659	32703	32694	
836	0	32703	32863	32699	32754	32794	32813	32749	32546	
837	0	32543	33023	32668	32775	32871	32631	32679	32655	
838	0	32630	32835	32710	32805	32567	32647	32694	32663	
839	0	32900	32799	32749	32796	32735	32711	32742	32485	
840	0	32925	32495	32874	32773	32806	32626	32638	32604	
841	0	33177	32459	32887	32733	32595	32787	32617	32658	
842	0	33428	32373	32891	32811	32745	32853	32671	32798	
843	0	33868	32363	32790	32871	32839	32871	32727	32721	
844	0	33906	32263	32784	32866	32642	32791	32698	32679	
845	0	33577	32335	32838	32843	32837	32757	32701	32679	
846	0	33387	32233	32863	32769	32850	32785	32727	32598	
847	0	33559	32690	32773	32742	32655	32647	32715	32743	
848	0	33336	33095	32804	32742	32714	32756	32695	32693	
849	0	32967	33427	32833	32807	32761	32791	32721	32535	
850	0	32526	33267	32854	32855	32755	32791	32655	32711	
851	0	32325	33487	32841	32827	32743	32759	32735	32679	
852	0	32180	33287	32759	32787	32747	32775	32758	32723	
853	0	32154	33279	32727	32627	32789	32823	32731	32647	
854	0	32124	33103	32711	32766	32573	32701	32686	32567	
855	0	31927	32946	32775	32751	32795	32766	32645	32765	
856	0	31885	32423	32727	32677	32899	32829	32646	32706	
857	0	31878	32412	32747	32683	32623	32855	32619	32762	
858	0	31968	32261	32711	32687	32767	32732	32655	32702	
859	0	32177	32353	32587	32706	32803	32773	32613	32644	
860	0	32287	32263	32647	32699	32893	32813	32675	32855	
861	0	32327	32095	32715	32677	32711	32807	32743	32787	
862	0	32455	32107	32775	32655	32579	32691	32825	32823	
863	0	32459	31993	32775	32591	32833	32658	32807	32877	
864	0	32679	32305	32709	32571	32887	32787	32695	32679	
865	0	32949	32479	32743	32508	32615	32799	32734	32587	
866	0	33188	32559	32660	32510	32831	32679	32799	32707	
867	0	33401	32743	32543	32525	32647	32739	32756	32599	
868	0	33274	33071	32615	32631	32775	32636	32807	32711	
869	0	33128	33155	32698	32727	32743	32717	32673	32738	
870	0	33027	33117	32775	32738	32791	32711	32639	32788	
871	0	32943	32879	32795	32775	32805	32719	32719	32750	
872	0	32694	32447	32724	32863	32771	32775	32733	32844	
873	0	32534	32555	32795	32824	32717	32806	32602	32671	
874	0	32390	32479	32834	32821	32820	32775	32620	32726	
875	0	32445	32505	32887	32753	32747	32903	32655	32807	
876	0	32595	32327	32845	32666	32813	32681	32791	32765	
877	0	32671	32399	32783	32775	32567	32855	32743	32783	
878	0	32758	32500	32775	32911	32743	32719	32722	32719	
879	0	32813	32557	32572	32989	32643	32809	32742	32812	
880	0	32903	32899	32541	33055	32743	32631	32803	32698	
881	0	33093	33127	32557	33031	32819	32811	32781	32539	
882	0	33217	32837	32525	32935	32597	32821	32791	32711	
883	0	33407	32995	32694	32809	32855	32773	32789	32615	
884	0	33592	33027	32719	32695	32815	32821	32831	32765	
885	0	33323	33140	32756	32722	32625	32717	32697	32743	
886	0	32786	32931	32748	32613	32787	32757	32679	32612	
887	0	32655	32805	32879	32551	32747	32731	32571	32771	
888	0	32847	32703	32971	32506	32757	32831	32659	32743	
889	0	32679	32855	33031	32487	32839	32621	32743	32707	
890	0	32604	32839	32999	32515	32609	32679	32749	32557	
891	0	32647	32903	32993	32607	32797	32831	32867	32655	
892	0	32708	32501	32893	32679	32879	32761	32815	32532	
893	0	32839	32586	32943	32623	32812	32775	32770	32679	
894	0	32831	32486	32791	32673	32861	32647	32583	32850	
895	0	32613	32245	32671	32699	32631	32679	32623	32758	
896	0	32567	32239	32619	32663	32751	32781	32670	32579	
897	0	32523	32183	32607	32705	32751	32701	32660	32635	
898	0	32556	31991	32633	32675	32575	32758	32689	32541	
899	0	32452	32359	32625	32711	32729	32790	32623	32679	
900	0	32348	32589	32634	32646	32871	32665	32646	32751	
901	0	32190	33097	32771	32630	32671	32647	32743	32591	
902	0	32082	33055	32849	32675	32795	32839	32674	32683	
903	0	31887	33031	32851	32597	32845	32768	32637	32748	
904	0	32220	33083	32765	32638	32681	32717	32662	32615	
905	0	32491	33127	32701	32687	32743	32743	32658	32647	
906	0	32738	33023	32719	32860	32754	32775	32647	32759	
907	0	32781	32839	32703	32879	32751	32802	32709	32773	
908	0	32776	32563	32639	32887	32764	32679	32698	32557	
909	0	33287	32357	32635	32839	32703	32783	32673	32659	
910	0	33579	32325	32583	32847	32615	32687	32771	32719	
911	0	33346	32239	32671	32863	32732	32667	32714	32643	
912	0	32970	32255	32739	32773	32876	32787	32783	32639	
913	0	33165	32211	32735	32668	32535	32767	32790	32679	
914	0	33230	32021	32759	32583	32727	32647	32787	32554	
915	0	33138	32173	32743	32577	32847	32732	32711	32669	
916	0	32946	32263	32775	32646	32726	32735	32709	32620	
917	0	32757	32687	32812	32765	32543	32660	32645	32640	
918	0	32639	32959	32809	32731	32711	32675	32626	32575	
919	0	32605	32967	32789	32676	32903	32757	32599	32703	
920	0	32633	32895	32757	32719	32678	32833	32690	32701	
921	0	32823	33375	32743	32751	32767	32799	32679	32771	
922	0	32840	33189	32825	32751	32769	32807	32743	32698	
923	0	32839	32943	32775	32771	32770	32646	32719	32599	
924	0	32782	32879	32773	32823	32843	32902	32652	32709	
925	0	32672	32775	32711	32849	32751	32742	32713	32565	
926	0	32545	32879	32715	32821	32799	32792	32806	32663	
927	0	32586	32868	32703	32775	32647	32703	32703	32605	
928	0	32549	32930	32739	32817	32807	32625	32647	32775	
929	0	32319	32687	32717	32775	32891	32674	32687	32799	
930	0	32439	32503	32739	32823	32711	32831	32679	32575	
931	0	32535	32231	32775	32791	32854	32887	32615	32727	
932	0	32729	32573	32743	32775	32775	32870	32646	32735	
933	0	32868	32579	32739	32822	32855	32775	32621	32599	
934	0	32885	32581	32735	32839	32621	32775	32639	32683	
935	0	32925	32527	32738	32855	32775	32850	32703	32621	
936	0	32838	32599	32711	32806	32804	32647	32743	32675	
937	0	32967	32747	32743	32847	32551	32823	32807	32563	
938	0	33095	32647	32863	32862	32765	32797	32758	32739	
939	0	33113	32929	32787	32686	32871	32724	32724	32727	
940	0	32944	32783	32809	32759	32655	32748	32727	32639	
941	0	32791	32749	32823	32743	32751	32823	32799	32759	
942	0	32775	32485	32780	32677	32727	32789	32765	32736	
943	0	32706	32605	32742	32623	32743	32702	32743	32583	
944	0	32710	32823	32859	32615	32711	32687	32799	32647	
945	0	32617	32959	32889	32635	32815	32790	32767	32575	
946	0	32632	32707	32823	32611	32799	32765	32729	32711	
947	0	32637	32569	32727	32595	32567	32825	32738	32627	
948	0	32724	32698	32695	32567	32739	32799	32647	32615	
949	0	32589	32695	32713	32668	32846	32847	32644	32671	
950	0	32505	32575	32848	32687	32631	32763	32757	32685	
951	0	32323	32419	32869	32660	32756	32727	32663	32755	
952	0	32277	32332	32807	32703	32775	32811	32662	32641	
953	0	32199	32485	32711	32668	32745	32814	32661	32537	
954	0	32406	32439	32647	32719	32780	32767	32711	32663	
955	0	32651	32838	32703	32802	32837	32811	32740	32711	
956	0	32866	32922	32669	32797	32773	32646	32655	32575	
957	0	33097	33030	32722	32827	32594	32738	32763	32687	
958	0	33472	33069	32775	32879	32749	32799	32811	32660	
959	0	33716	33043	32871	32830	32727	32662	32918	32687	
960	0	33604	32991	32775	32823	32599	32759	32796	32665	
961	0	33268	32719	32791	32775	32791	32627	32722	32761	
962	0	32932	32783	32775	32638	32635	32764	32732	32687	
963	0	32862	32813	32815	32655	32759	32732	32637	32503	
964	0	32868	32597	32827	32643	32871	32699	32711	32671	
965	0	32667	32647	32755	32638	32675	32807	32662	32735	
966	0	32411	32413	32765	32553	32773	32758	32653	32795	
967	0	32330	32455	32767	32655	32839	32703	32749	32711	
968	0	32280	32483	32790	32669	32603	32815	32607	32615	
969	0	32444	32477	32790	32748	32815	32861	32619	32707	
970	0	32510	32646	32803	32767	32803	32740	32711	32566	
971	0	32411	32532	32724	32821	32775	32636	32759	32727	
972	0	32507	32719	32695	32794	32759	32771	32725	32679	
973	0	32784	32817	32727	32727	32606	32653	32711	32821	
974	0	32987	32571	32761	32703	32783	32798	32751	32773	
975	0	32941	32527	32753	32645	32879	32679	32718	32623	
976	0	32796	32297	32681	32567	32611	32775	32583	32707	
977	0	32799	32399	32725	32620	32783	32812	32655	32731	
978	0	32916	32387	32762	32681	32823	32735	32754	32599	
979	0	32914	32703	32783	32647	32612	32683	32791	32687	
980	0	33068	32723	32839	32595	32773	32844	32763	32660	
981	0	33065	32679	32749	32647	32706	32699	32701	32685	
982	0	33047	32681	32751	32627	32783	32643	32578	32659	
983	0	33092	33075	32775	32751	32723	32809	32638	32531	
984	0	32941	33159	32887	32849	32735	32789	32743	32702	
985	0	32903	33087	32791	32759	32754	32871	32679	32599	
986	0	32637	33047	32767	32638	32823	32655	32707	32719	
987	0	32390	32838	32706	32663	32775	32767	32677	32615	
988	0	32269	32531	32742	32743	32825	32677	32575	32683	
989	0	32336	32495	32679	32677	32599	32807	32685	32743	
990	0	32260	32287	32694	32614	32796	32635	32775	32747	
991	0	32324	31947	32769	32491	32723	32790	32767	32631	
992	0	32455	32119	32694	32507	32731	32807	32705	32741	
993	0	32571	32229	32775	32519	32771	32700	32681	32711	
994	0	32556	32347	32829	32694	32669	32797	32892	32598	
995	0	32471	32582	32870	32660	32701	32598	32851	32673	
996	0	32492	32791	32826	32707	32775	32609	32835	32577	
997	0	32658	33023	32813	32751	32733	32815	32709	32507	
998	0	33241	33255	32751	32775	32775	32789	32661	32604	
999	0	33627	33403	32773	32757	32738	32839	32599	32589	
1000	0	33799	33349	32703	32701	32679	32775	32621	32679	
1001	0	33900	32999	32767	32725	32606	32679	32655	32679	
1002	0	34054	32550	32735	32663	32775	32800	32599	32579	
1003	0	33917	32082	32647	32612	32839	32775	32587	32738	
1004	0	33227	32099	32655	32583	32791	32727	32755	32555	
1005	0	32191	32108	32738	32551	32891	32717	32749	32719	
1006	0	31903	32287	32712	32647	32707	32613	32645	32604	
1007	0	31856	32677	32726	32745	32793	32802	32711	32760	
1008	0	32092	32815	32717	32870	32802	32796	32711	32751	
1009	0	32279	32917	32709	32723	32813	32747	32724	32621	
1010	0	32244	32799	32679	32557	32655	32751	32671	32715	
1011	0	32287	33003	32687	32535	32789	32799	32719	32595	
1012	0	32678	33203	32775	32623	32799	32775	32725	32645	
1013	0	33070	33199	32703	32711	32607	32639	32687	32621	
1014	0	33068	32720	32788	32631	32743	32831	32706	32759	
1015	0	32708	32727	32999	32539	32825	32807	32714	32715	
1016	0	32598	32847	33038	32659	32727	32658	32642	32786	
1017	0	32723	32711	32985	32699	32783	32813	32671	32643	
1018	0	32629	33183	32927	32853	32795	32775	32629	32535	
1019	0	32899	33135	32823	32961	32638	32703	32658	32786	
1020	0	33145	32870	32903	32855	32743	32679	32679	32775	
1021	0	33071	32751	32813	32813	32854	32731	32741	32567	
1022	0	32861	32430	32775	32834	32551	32923	32759	32709	
1023	0	32629	32489	32759	32783	32727	32811	32711	32580	
1024	0	32594	32211	32732	32811	32711	32799	32755	32695	
1025	0	32566	32229	32767	32647	32554	32767	32791	32661	
1026	0	32628	32191	32727	32647	32786	32635	32764	32474	
1027	0	32516	32503	32755	32647	32801	32669	32815	32631	
1028	0	32408	32495	32717	32637	32789	32775	32790	32639	
1029	0	32454	32500	32769	32609	32859	32666	32691	32695	
1030	0	32513	32555	32704	32551	32596	32789	32717	32607	
1031	0	32477	32503	32695	32605	32742	32749	32638	32719	
1032	0	32365	32612	32717	32611	32807	32681	32802	32695	
1033	0	32409	32647	32599	32587	32647	32815	32735	32594	
1034	0	32457	32694	32623	32619	32737	32823	32715	32746	
1035	0	32669	32903	32610	32764	32831	32763	32699	32679	
1036	0	32919	32798	32559	32703	32615	32806	32655	32621	
1037	0	33156	32638	32605	32767	32799	32708	32647	32735	
1038	0	33248	32959	32654	32743	32733	32836	32710	32590	
1039	0	33263	32879	32647	32806	32603	32841	32821	32775	
1040	0	33499	32858	32615	32727	32747	32810	32763	32775	
1041	0	33595	32334	32599	32767	32885	32756	32799	32611	
1042	0	33325	32500	32669	32703	32615	32775	32791	32727	
1043	0	33155	32735	32791	32775	32791	32753	32722	32756	
1044	0	33014	32963	32806	32815	32866	32674	32763	32569	
1045	0	32631	32943	32825	32815	32594	32846	32821	32645	
1046	0	32367	32883	32811	32847	32773	32844	32845	32527	
1047	0	32164	32703	32799	32786	32767	32740	32677	32761	
1048	0	32258	32811	32679	32794	32911	32749	32689	32635	
1049	0	32477	32647	32647	32863	32611	32827	32714	32602	
1050	0	32721	32627	32725	32882	32807	32783	32739	32676	
1051	0	32857	32767	32725	33005	32815	32742	32711	32695	
1052	0	32713	32627	32759	32775	32900	32659	32743	32711	
1053	0	32578	32566	32771	32791	32659	32775	32815	32578	
1054	0	32545	32429	32775	32759	32599	32775	32822	32725	
1055	0	32439	32257	32855	32735	32833	32825	32751	32763	
1056	0	32563	32371	32834	32731	32871	32695	32723	32685	
1057	0	32720	32349	32755	32638	32515	32789	32647	32583	
1058	0	32850	32329	32831	32543	32742	32631	32583	32565	
1059	0	32845	32199	32676	32447	32843	32723	32706	32731	
1060	0	32701	32591	32703	32501	32599	32787	32647	32772	
1061	0	32492	32868	32725	32594	32743	32750	32703	32655	
1062	0	32422	32845	32676	32707	32877	32791	32753	32683	
1063	0	32412	32566	32705	32721	32751	32813	32647	32775	
1064	0	32541	32627	32747	32687	32625	32775	32646	32617	
1065	0	32575	32894	32757	32647	32827	32775	32709	32691	
1066	0	32569	32835	32735	32548	32903	32626	32761	32617	
1067	0	32764	32967	32737	32517	32695	32775	32797	32734	
1068	0	33109	33067	32736	32701	32767	32775	32735	32668	
1069	0	32931	33071	32854	32685	32798	32787	32763	32559	
1070	0	32837	32892	32883	32655	32811	32809	32747	32861	
1071	0	32951	32739	32799	32671	32571	32811	32724	32857	
1072	0	32849	33010	32719	32713	32774	32771	32703	32647	
1073	0	32858	32827	32759	32727	32887	32671	32671	32714	
1074	0	32823	32711	32735	32741	32610	32799	32645	32591	
1075	0	32723	32769	32749	32635	32791	32687	32724	32647	
1076	0	32783	32459	32775	32525	32743	32812	32765	32607	
1077	0	32911	32231	32759	32615	32783	32588	32799	32677	
1078	0	33053	32415	32786	32509	32756	32641	32684	32691	
1079	0	32868	32829	32741	32637	32859	32793	32738	32587	
1080	0	32613	32803	32679	32743	32629	32887	32797	32775	
1081	0	32775	32831	32661	32775	32551	32815	32823	32717	
1082	0	32870	32743	32663	32719	32734	32851	32695	32479	
1083	0	32940	32695	32665	32727	32827	32855	32741	32686	
1084	0	32810	32826	32639	32750	32743	32745	32803	32695	
1085	0	32477	32876	32667	32807	32491	32813	32811	32591	
1086	0	32252	33039	32748	32787	32852	32723	32751	32759	
1087	0	32345	32797	32673	32657	32771	32663	32708	32679	
1088	0	32692	32727	32763	32708	32783	32655	32677	32727	
1089	0	32912	32591	32667	32775	32643	32807	32615	32807	
1090	0	33001	32505	32735	32860	32759	32815	32657	32839	
1091	0	33024	32263	32727	32967	32796	32742	32751	32618	
1092	0	32661	32443	32775	32929	32861	32803	32767	32642	
1093	0	32439	32455	32789	32911	32647	32734	32805	32671	
1094	0	32637	32453	32767	32995	32793	32638	32775	32745	
1095	0	32975	32431	32927	32900	32831	32738	32711	32694	
1096	0	32639	32343	32839	32802	32797	32773	32647	32702	
1097	0	32428	32194	32871	32647	32607	32825	32730	32589	
1098	0	32507	32243	32775	32613	32775	32750	32683	32495	
1099	0	33052	32293	32731	32563	32737	32775	32735	32687	
1100	0	33504	32309	32762	32551	32743	32807	32709	32641	
1101	0	32981	32571	32827	32602	32596	32815	32673	32764	
1102	0	32453	32573	32855	32714	32839	32713	32595	32751	
1103	0	32367	32247	32871	32626	32762	32839	32543	32811	
1104	0	32659	32629	32839	32631	32677	32793	32583	32695	
1105	0	33061	32913	32791	32623	32769	32721	32703	32577	
1106	0	33255	33107	32679	32701	32712	32722	32743	32634	
1107	0	33394	33255	32617	32743	32571	32727	32757	32621	
1108	0	33415	33484	32619	32687	32818	32827	32743	32742	
1109	0	33326	33693	32583	32707	32877	32715	32713	32634	
1110	0	33251	33575	32575	32769	32694	32671	32695	32511	
1111	0	32992	33617	32647	32813	32775	32839	32671	32679	
1112	0	32736	33451	32839	32727	32887	32775	32647	32527	
1113	0	32711	33047	32757	32609	32583	32801	32727	32669	
1114	0	32723	32775	32709	32679	32727	32749	32733	32669	
1115	0	32617	32603	32797	32663	32765	32727	32725	32743	
1116	0	32569	32350	32892	32713	32727	32627	32737	32644	
1117	0	32435	32199	32903	32741	32605	32775	32725	32534	
1118	0	32221	32162	32925	32757	32766	32811	32722	32723	
1119	0	32179	32203	32997	32719	32903	32783	32645	32715	
1120	0	32081	32101	32933	32735	32731	32711	32725	32527	
1121	0	32169	32379	32983	32791	32775	32823	32724	32663	
1122	0	32259	32509	32930	32845	32775	32703	32699	32631	
1123	0	32669	32623	32799	32845	32759	32706	32743	32755	
1124	0	32935	32486	32705	32733	32625	32660	32829	32639	
1125	0	33100	32775	32615	32751	32743	32895	32859	32587	
1126	0	33271	32706	32655	32759	32847	32751	32829	32635	
1127	0	33184	32487	32549	32681	32783	32739	32699	32535	
1128	0	33063	32676	32517	32583	32793	32783	32625	32629	
1129	0	32943	32599	32659	32599	32687	32687	32715	32602	
1130	0	32679	32443	32655	32647	32751	32827	32694	32627	
1131	0	32551	32820	32729	32675	32769	32854	32686	32638	
1132	0	32596	32671	32791	32647	32679	32775	32687	32707	
1133	0	32624	32730	32839	32704	32717	32724	32742	32743	
1134	0	32764	32647	32859	32719	32784	32797	32711	32775	
1135	0	32893	32897	32941	32647	32884	32791	32743	32631	
1136	0	32881	32903	32816	32687	32705	32866	32727	32613	
1137	0	32866	32951	32743	32639	32799	32662	32703	32699	
1138	0	32840	32807	32757	32715	32791	32769	32783	32703	
1139	0	32771	32913	32719	32722	32742	32745	32751	32685	
1140	0	32863	32805	32742	32647	32753	32759	32743	32679	
1141	0	32968	32751	32667	32647	32764	32775	32747	32557	
1142	0	32992	32575	32703	32655	32817	32711	32797	32679	
1143	0	33102	32711	32699	32743	32715	32668	32751	32685	
1144	0	33154	32511	32663	32835	32573	32775	32761	32788	
1145	0	32832	32543	32599	32823	32763	32843	32831	32683	
1146	0	32566	32391	32673	32832	32861	32804	32789	32635	
1147	0	32369	32687	32726	32733	32647	32642	32850	32685	
1148	0	32206	32761	32815	32750	32719	32715	32818	32602	
1149	0	32134	32630	32827	32911	32775	32804	32797	32789	
1150	0	32305	32475	32743	32967	32875	32839	32748	32769	
1151	0	32391	32533	32763	32694	32767	32803	32679	32667	
1152	0	32447	32455	32775	32591	32590	32751	32723	32759	
1153	0	32644	32575	32751	32558	32796	32839	32715	32757	
1154	0	32804	32503	32738	32519	32879	32755	32742	32611	
1155	0	32938	32663	32727	32443	32645	32883	32597	32663	
1156	0	33080	32715	32771	32415	32789	32855	32622	32524	
1157	0	33029	32685	32871	32446	32791	32817	32623	32788	
1158	0	32933	32775	32850	32501	32587	32623	32655	32735	
1159	0	32775	32679	32895	32479	32804	32757	32797	32731	
1160	0	32799	32731	32789	32426	32897	32735	32661	32727	
1161	0	32710	32769	32749	32511	32695	32739	32727	32718	
1162	0	32720	32834	32631	32679	32613	32712	32783	32631	
1163	0	32657	32825	32743	32722	32775	32812	32783	32589	
1164	0	32597	32599	32791	32647	32869	32711	32775	32647	
1165	0	32551	32685	32847	32669	32637	32685	32691	32647	
1166	0	32536	32669	32829	32735	32787	32743	32766	32596	
1167	0	32486	32628	32759	32725	32832	32671	32851	32631	
1168	0	32335	32367	32732	32726	32839	32711	32806	32727	
1169	0	32449	32479	32699	32747	32663	32662	32769	32655	
1170	0	32532	32621	32767	32855	32711	32709	32738	32583	
1171	0	32615	32645	32643	32831	32721	32677	32867	32597	
1172	0	32542	32733	32690	32771	32791	32831	32844	32580	
1173	0	32715	32466	32647	32727	32647	32765	32805	32669	
1174	0	32794	32524	32733	32687	32481	32806	32809	32695	
1175	0	32937	32503	32799	32757	32727	32786	32875	32630	
1176	0	33140	32583	32807	32804	32832	32703	32797	32629	
1177	0	33327	32581	32767	32829	32711	32667	32701	32583	
1178	0	33324	32915	32789	32806	32629	32699	32623	32695	
1179	0	33159	33121	32830	32855	32741	32743	32583	32723	
1180	0	33000	33271	32735	32951	32807	32799	32635	32845	
1181	0	32902	33079	32799	32859	32573	32675	32679	32775	
1182	0	32876	33255	32932	32769	32799	32660	32625	32535	
1183	0	32850	33189	32959	32759	32897	32809	32662	32743	
1184	0	32860	33238	32834	32775	32639	32825	32645	32823	
1185	0	32959	32823	32717	32735	32829	32891	32631	32639	
1186	0	33228	32759	32658	32679	32839	32871	32671	32791	
1187	0	33185	32427	32710	32703	32773	32733	32644	32757	
1188	0	32940	32303	32709	32727	32759	32796	32683	32646	
1189	0	32865	32229	32807	32663	32755	32830	32675	32735	
1190	0	32908	32415	32748	32628	32879	32797	32823	32743	
1191	0	32553	32405	32711	32711	32659	32823	32831	32637	
1192	0	32041	32553	32708	32684	32759	32839	32771	32711	
1193	0	31639	32531	32711	32733	32841	32743	32695	32719	
1194	0	31796	32577	32743	32694	32717	32647	32655	32743	
1195	0	32273	32535	32692	32683	32773	32835	32742	32642	
1196	0	32581	32484	32683	32681	32903	32803	32722	32755	
1197	0	33025	32583	32691	32665	32643	32788	32695	32634	
1198	0	33255	32599	32687	32743	32801	32788	32703	32605	
1199	0	33581	32786	32821	32839	32934	32818	32615	32749	
1200	0	33865	32855	32831	32799	32662	32692	32567	32774	
1201	0	33590	33003	32659	32749	32815	32685	32607	32657	
1202	0	33047	32676	32575	32695	32868	32791	32639	32647	
1203	0	32617	32199	32599	32747	32623	32743	32735	32609	
1204	0	32508	32231	32669	32679	32775	32642	32701	32701	
1205	0	32309	32319	32759	32706	32876	32679	32723	32711	
1206	0	32332	32287	32895	32671	32711	32846	32737	32663	
1207	0	32295	32279	32854	32646	32795	32809	32715	32767	
1208	0	32329	32319	32901	32733	32814	32679	32685	32667	
1209	0	32004	32775	32796	32703	32575	32814	32757	32702	
1210	0	31788	33101	32735	32709	32743	32773	32791	32654	
1211	0	31630	33447	32743	32822	32663	32834	32759	32707	
1212	0	32033	34075	32903	32997	32811	32771	32709	32611	
1213	0	32492	34247	32955	33060	32879	32794	32647	32775	
1214	0	32863	34363	32858	33086	32932	32677	32722	32647	
1215	0	33108	34020	32819	32911	32631	32633	32663	32646	
1216	0	33815	33455	32772	32797	32791	32807	32687	32620	
1217	0	34233	32703	32733	32676	32847	32760	32813	32719	
1218	0	34605	32227	32681	32687	32647	32765	32772	32439	
1219	0	34656	31893	32719	32613	32711	32759	32738	32588	
1220	0	34147	31922	32719	32420	32860	32847	32818	32557	
1221	0	33220	31819	32722	32373	32617	32685	32723	32647	
1222	0	32647	31815	32683	32461	32791	32695	32687	32577	
1223	0	32559	32043	32645	32594	32896	32807	32746	32747	
1224	0	32612	32221	32807	32567	32647	32806	32759	32733	
1225	0	32621	32470	32823	32551	32754	32825	32737	32621	
1226	0	32486	32823	32771	32668	32859	32786	32726	32737	
1227	0	32009	32603	32751	32636	32645	32747	32757	32654	
1228	0	31732	32261	32692	32677	32716	32797	32767	32775	
1229	0	31707	32146	32630	32751	32795	32781	32626	32745	
1230	0	31772	32150	32663	32623	32713	32821	32623	32647	
1231	0	31927	32171	32703	32711	32799	32702	32612	32807	
1232	0	32169	32074	32730	32695	32795	32623	32647	32669	
1233	0	32382	32295	32773	32639	32834	32631	32619	32603	
1234	0	32727	32371	32743	32669	32787	32813	32674	32703	
1235	0	33031	32357	32759	32638	32850	32735	32679	32696	
1236	0	33006	32773	32807	32642	32593	32787	32694	32735	
1237	0	33034	33015	32882	32629	32775	32599	32679	32679	
1238	0	32998	32983	32818	32700	32718	32775	32772	32587	
1239	0	32879	33199	32804	32609	32797	32730	32687	32695	
1240	0	32662	33159	32751	32693	32759	32667	32791	32609	
1241	0	32552	32935	32789	32691	32595	32869	32756	32690	
1242	0	32577	32943	32775	32706	32747	32657	32719	32523	
1243	0	32564	32914	32751	32871	32854	32638	32730	32631	
1244	0	32698	32593	32743	32863	32633	32799	32694	32615	
1245	0	32865	32739	32715	32903	32770	32717	32717	32494	
1246	0	32866	32679	32724	32966	32735	32743	32685	32658	
1247	0	32867	32663	32679	32966	32765	32787	32791	32601	
1248	0	33059	32807	32719	32942	32839	32615	32742	32673	
1249	0	33422	32811	32723	32855	32605	32635	32775	32647	
1250	0	33312	32479	32727	32865	32759	32756	32799	32564	
1251	0	33028	32599	32707	32897	32835	32762	32742	32687	
1252	0	32967	32557	32795	32795	32685	32811	32773	32581	
1253	0	33063	32663	32819	32662	32804	32743	32775	32707	
1254	0	32967	32663	32935	32658	32670	32668	32666	32658	
1255	0	32685	32710	32969	32723	32775	32659	32571	32791	
1256	0	32575	32551	32963	32759	32916	32791	32621	32658	
1257	0	32389	32631	32868	32663	32641	32737	32631	32765	
1258	0	32406	32564	32759	32703	32809	32832	32679	32703	
1259	0	32361	32299	32703	32647	32903	32870	32715	32723	
1260	0	32228	32359	32701	32629	32553	32839	32710	32685	
1261	0	32342	32439	32724	32711	32743	32635	32679	32574	
1262	0	32559	32567	32715	32743	32639	32737	32775	32659	
1263	0	32782	32691	32679	32805	32791	32811	32671	32647	
1264	0	32871	32903	32647	32743	32855	32802	32655	32741	
1265	0	33038	33068	32679	32751	32631	32767	32576	32707	
1266	0	33123	32901	32751	32831	32719	32881	32611	32550	
1267	0	32991	33059	32749	32844	32898	32767	32669	32645	
1268	0	32903	32927	32773	32732	32587	32710	32727	32703	
1269	0	32678	32806	32821	32865	32729	32659	32812	32711	
1270	0	32555	32567	32823	32855	32923	32642	32831	32703	
1271	0	32484	32595	32797	32788	32655	32767	32820	32571	
1272	0	32516	32707	32843	32807	32775	32815	32790	32815	
1273	0	32605	32807	32903	32839	32775	32763	32861	32685	
1274	0	32667	32729	32883	32879	32699	32863	32787	32597	
1275	0	32820	32754	32827	32819	32743	32702	32647	32629	
1276	0	33052	32717	32754	32743	32775	32787	32557	32567	
1277	0	33105	32686	32686	32551	32615	32679	32599	32713	
1278	0	33232	32801	32727	32513	32851	32775	32757	32759	
1279	0	33125	32773	32740	32511	32595	32801	32804	32731	
1280	0	33096	32844	32742	32553	32743	32685	32783	32831	
1281	0	33014	32725	32695	32525	32757	32813	32773	32635	
1282	0	32863	32763	32661	32605	32771	32799	32799	32660	
1283	0	32964	32539	32662	32621	32771	32790	32773	32775	
1284	0	33113	32771	32684	32607	32591	32615	32703	32643	
1285	0	33031	32801	32719	32583	32791	32839	32747	32773	
1286	0	32756	32739	32945	32623	32866	32773	32745	32658	
1287	0	32436	32583	32935	32667	32631	32711	32749	32515	
1288	0	32325	32567	32925	32711	32575	32715	32705	32750	
1289	0	32317	32383	32819	32674	32743	32771	32726	32588	
1290	0	32338	32431	32699	32711	32839	32735	32646	32582	
1291	0	32395	32334	32791	32775	32575	32771	32643	32645	
1292	0	32439	32605	32671	32717	32802	32745	32685	32663	
1293	0	32535	32567	32699	32802	32881	32661	32759	32675	
1294	0	32548	32543	32623	32766	32621	32775	32719	32767	
1295	0	32588	32483	32607	32749	32775	32791	32711	32706	
1296	0	32582	32859	32540	32717	32743	32619	32701	32718	
1297	0	32391	32903	32599	32867	32863	32845	32599	32583	
1298	0	32621	32689	32541	32742	32917	32767	32622	32707	
1299	0	32864	32839	32629	32708	32635	32775	32643	32701	
1300	0	33056	32655	32715	32583	32825	32749	32655	32635	
1301	0	33111	32663	32766	32583	32943	32759	32679	32628	
1302	0	33116	32623	32790	32679	32655	32791	32690	32598	
1303	0	33301	32865	32871	32647	32829	32829	32783	32663	
1304	0	33439	32879	32934	32742	32607	32699	32754	32687	
1305	0	33258	32514	32839	32759	32848	32669	32710	32662	
1306	0	32940	32711	32918	32703	32871	32694	32711	32790	
1307	0	32502	32655	32914	32615	32749	32870	32719	32681	
1308	0	32308	32727	32871	32621	32795	32842	32751	32791	
1309	0	32091	32742	32751	32557	32845	32804	32759	32671	
1310	0	32198	32894	32743	32709	32611	32751	32773	32567	
1311	0	32625	32815	32784	32599	32770	32823	32782	32714	
1312	0	32955	32634	32749	32599	32894	32783	32709	32587	
1313	0	33246	32887	32657	32635	32609	32695	32783	32764	
1314	0	33320	33060	32703	32623	32757	32790	32804	32636	
1315	0	33068	32986	32802	32677	32702	32775	32759	32803	
1316	0	32957	32822	32758	32761	32535	32773	32787	32749	
1317	0	33135	32815	32742	32783	32791	32775	32799	32577	
1318	0	32890	32823	32687	32799	32731	32743	32775	32719	
1319	0	32613	32583	32787	32775	32756	32727	32703	32635	
1320	0	32726	32679	32763	32863	32642	32725	32679	32499	
1321	0	33236	32591	32751	32810	32764	32795	32767	32641	
1322	0	33453	32639	32754	32677	32733	32711	32749	32599	
1323	0	33245	32583	32738	32751	32863	32788	32751	32427	
1324	0	32865	32350	32685	32732	32541	32822	32799	32630	
1325	0	32494	32023	32766	32669	32705	32707	32877	32725	
1326	0	32345	31934	32787	32583	32815	32638	32839	32665	
1327	0	32279	32212	32783	32772	32617	32839	32775	32757	
1328	0	32281	32390	32775	32807	32767	32847	32767	32794	
1329	0	32319	32539	32775	32775	32859	32809	32733	32901	
1330	0	32329	32693	32822	32757	32591	32743	32735	32687	
1331	0	32439	32999	32815	32743	32739	32684	32749	32523	
1332	0	32539	32767	32807	32765	32811	32699	32701	32769	
1333	0	32658	32642	32895	32693	32597	32731	32597	32641	
1334	0	32873	32672	32875	32775	32735	32803	32679	32589	
1335	0	32891	32457	32756	32655	32807	32831	32690	32719	
1336	0	32623	32591	32738	32639	32723	32687	32673	32695	
1337	0	32525	32581	32695	32568	32631	32615	32637	32548	
1338	0	32500	32708	32694	32523	32853	32627	32718	32663	
1339	0	32720	32503	32731	32543	32999	32631	32683	32715	
1340	0	32770	32635	32669	32660	32731	32871	32685	32647	
1341	0	32743	32566	32729	32743	32806	32869	32687	32756	
1342	0	32607	32355	32690	32805	32827	32804	32687	32763	
1343	0	32468	32189	32745	32731	32731	32813	32709	32775	
1344	0	32287	32135	32767	32757	32869	32791	32702	32739	
1345	0	32228	32149	32735	32694	32811	32631	32692	32623	
1346	0	32268	32378	32801	32642	32791	32647	32661	32713	
1347	0	32493	32826	32711	32639	32764	32668	32718	32735	
1348	0	32794	33349	32659	32669	32749	32805	32807	32747	
1349	0	33097	33611	32683	32630	32829	32845	32674	32655	
1350	0	33390	33799	32641	32686	32701	32805	32734	32655	
1351	0	33585	33799	32711	32863	32765	32775	32735	32727	
1352	0	33367	33895	32679	32869	32815	32797	32718	32630	
1353	0	32964	33488	32731	32815	32850	32829	32757	32551	
1354	0	32939	33007	32775	32756	32661	32788	32835	32687	
1355	0	32973	32423	32775	32685	32750	32799	32871	32629	
1356	0	32743	32295	32885	32795	32861	32626	32785	32591	
1357	0	32575	32263	32895	32667	32643	32796	32775	32698	
1358	0	32621	32156	32775	32620	32767	32734	32745	32692	
1359	0	32907	32231	32819	32706	32813	32775	32708	32775	
1360	0	32855	32250	32845	32805	32771	32719	32743	32676	
1361	0	32507	32303	32839	32874	32619	32721	32724	32662	
1362	0	32550	32215	32887	32787	32725	32769	32795	32590	
1363	0	32681	32559	32804	32668	32845	32714	32799	32611	
1364	0	32911	32599	32854	32771	32591	32607	32775	32559	
1365	0	33222	32747	32737	32765	32815	32639	32755	32759	
1366	0	33087	32627	32685	32751	32773	32581	32695	32685	
1367	0	32964	32513	32727	32732	32793	32747	32683	32631	
1368	0	32909	32821	32706	32631	32759	32841	32700	32671	
1369	0	32844	32715	32735	32615	32765	32771	32681	32679	
1370	0	32843	32839	32676	32565	32911	32821	32763	32583	
1371	0	32903	32646	32757	32461	32647	32789	32735	32679	
1372	0	32828	32641	32623	32501	32805	32658	32741	32640	
1373	0	32763	32590	32594	32614	32871	32765	32763	32717	
1374	0	32625	32365	32647	32620	32767	32749	32775	32636	
1375	0	32495	32589	32687	32593	32815	32769	32802	32727	
1376	0	32600	32695	32639	32575	32533	32586	32707	32644	
1377	0	32538	32615	32717	32615	32773	32783	32669	32693	
1378	0	32736	32901	32727	32590	32745	32775	32617	32703	
1379	0	32784	32775	32748	32683	32775	32709	32727	32710	
1380	0	32668	32709	32895	32647	32740	32751	32707	32647	
1381	0	32525	32551	32782	32679	32787	32723	32679	32607	
1382	0	32311	32775	32711	32867	32558	32800	32671	32551	
1383	0	31965	32839	32681	32789	32787	32710	32662	32655	
1384	0	32115	33069	32668	32887	32839	32703	32685	32567	
1385	0	32423	32870	32727	32815	32599	32807	32711	32812	
1386	0	32749	32900	32819	32869	32795	32797	32647	32669	
1387	0	32729	32791	32806	32837	32775	32839	32703	32787	
1388	0	32976	32543	32647	32757	32903	32769	32727	32663	
1389	0	33374	32547	32707	32775	32685	32783	32748	32739	
1390	0	33961	32559	32707	32711	32577	32701	32673	32743	
1391	0	34036	32511	32741	32725	32805	32764	32615	32631	
1392	0	33622	32597	32703	32695	32898	32771	32711	32771	
1393	0	33329	32629	32663	32692	32644	32629	32702	32713	
1394	0	33242	32775	32628	32631	32775	32694	32775	32601	
1395	0	33006	32647	32591	32663	32843	32823	32761	32679	
1396	0	32704	32967	32685	32695	32835	32875	32717	32789	
1397	0	32551	32797	32767	32667	32605	32775	32774	32783	
1398	0	32333	32669	32751	32705	32829	32814	32751	32663	
1399	0	32063	32243	32847	32658	32845	32877	32695	32667	
1400	0	32073	32103	32765	32614	32727	32818	32729	32797	
1401	0	32276	32335	32887	32607	32663	32793	32769	32711	
1402	0	32443	32535	32923	32711	32815	32668	32685	32641	
1403	0	32659	32691	32939	32727	32775	32669	32823	32551	
1404	0	32606	32596	32949	32686	32669	32767	32839	32615	
1405	0	32660	32617	32919	32799	32565	32835	32790	32717	
1406	0	32438	32799	32939	32861	32825	32884	32752	32599	
1407	0	32438	32895	32833	32899	32847	32827	32773	32745	
1408	0	32640	33011	32743	32783	32516	32773	32754	32653	
1409	0	32863	32971	32711	32759	32647	32603	32803	32525	
1410	0	32988	33035	32662	32747	32794	32679	32771	32717	
1411	0	33025	32887	32623	32647	32658	32743	32726	32681	
1412	0	32930	32669	32583	32612	32843	32694	32689	32743	
1413	0	32870	32381	32487	32658	32942	32662	32702	32647	
1414	0	32775	32211	32554	32658	32606	32783	32707	32535	
1415	0	32797	32122	32633	32611	32751	32839	32641	32749	
1416	0	32684	32135	32729	32631	32854	32774	32663	32711	
1417	0	32587	32101	32796	32635	32565	32749	32623	32738	
1418	0	32457	32587	32775	32599	32790	32643	32719	32687	
1419	0	32431	32709	32845	32614	32699	32675	32685	32493	
1420	0	32526	32975	32877	32663	32551	32749	32785	32676	
1421	0	32645	33031	32903	32767	32703	32787	32757	32658	
1422	0	32880	33511	32924	32747	32738	32804	32725	32719	
1423	0	32943	33593	32869	32815	32591	32764	32702	32597	
1424	0	32951	33383	32895	32894	32804	32619	32679	32506	
1425	0	32935	33082	32838	32813	32851	32773	32727	32645	
1426	0	32903	33135	32860	32815	32607	32765	32810	32632	
1427	0	32829	32987	32815	32718	32815	32758	32797	32755	
1428	0	32813	32851	32806	32687	32719	32715	32789	32740	
1429	0	32708	32775	32729	32866	32828	32700	32714	32571	
1430	0	32487	32311	32683	32791	32851	32819	32723	32734	
1431	0	32574	32061	32735	32718	32719	32811	32681	32647	
1432	0	32807	31845	32769	32667	32794	32764	32638	32623	
1433	0	32800	31935	32849	32759	32849	32854	32717	32799	
1434	0	32742	32245	32783	32767	32923	32839	32635	32887	
1435	0	32887	32431	32703	32691	32539	32683	32669	32662	
1436	0	32834	32375	32769	32551	32743	32757	32647	32655	
1437	0	32856	32837	32691	32557	32874	32775	32667	32598	
1438	0	33078	32863	32667	32679	32594	32711	32625	32747	
1439	0	33015	32895	32662	32711	32727	32785	32727	32687	
1440	0	32884	32863	32766	32789	32790	32806	32819	32625	
1441	0	32827	33003	32789	32762	32661	32755	32807	32631	
1442	0	32815	32793	32739	32735	32767	32740	32759	32663	
1443	0	32991	32391	32687	32747	32756	32630	32706	32595	
1444	0	32888	32157	32671	32659	32679	32743	32687	32626	
1445	0	32808	32639	32594	32642	32758	32732	32734	32591	
1446	0	32738	32687	32685	32703	32838	32767	32710	32743	
1447	0	32606	32767	32725	32797	32639	32749	32597	32598	
1448	0	32551	32307	32861	32751	32783	32836	32743	32593	
1449	0	32463	32505	32853	32647	32923	32683	32759	32698	
1450	0	32547	32607	32669	32727	32700	32701	32799	32759	
1451	0	32607	32787	32711	32741	32775	32695	32820	32565	
1452	0	32584	32711	32775	32775	32791	32807	32761	32629	
1453	0	32665	32705	32775	32731	32751	32789	32715	32647	
1454	0	32615	32519	32690	32691	32615	32717	32711	32613	
1455	0	32585	32459	32743	32713	32847	32789	32614	32738	
1456	0	32566	32466	32679	32679	32725	32707	32647	32619	
1457	0	32487	32307	32687	32713	32791	32647	32726	32667	
1458	0	32543	32295	32725	32747	32765	32717	32634	32757	
1459	0	32719	32487	32727	32775	32660	32773	32739	32801	
1460	0	32932	32639	32742	32637	32719	32731	32647	32685	
1461	0	33078	32647	32743	32655	32847	32871	32623	32629	
1462	0	32951	32495	32735	32727	32627	32676	32691	32639	
1463	0	32841	32879	32703	32654	32798	32631	32721	32557	
1464	0	32892	33239	32707	32685	32882	32877	32863	32685	
1465	0	32784	33307	32727	32681	32637	32875	32859	32571	
1466	0	32796	33142	32834	32749	32783	32855	32850	32535	
1467	0	32799	33311	32729	32815	32741	32751	32885	32738	
1468	0	32836	33183	32695	32796	32719	32847	32859	32646	
1469	0	32932	33219	32705	32829	32615	32727	32914	32575	
1470	0	33105	33431	32647	32927	32871	32804	32918	32695	
1471	0	33275	33635	32783	32963	32707	32711	32811	32519	
1472	0	33350	33319	32797	32991	32765	32718	32775	32495	
1473	0	32997	33243	32861	32923	32615	32581	32719	32405	
1474	0	32447	32647	32891	32840	32716	32662	32844	32575	
1475	0	32532	32315	32835	32724	32845	32727	32855	32495	
1476	0	32837	32164	32829	32677	32646	32575	32775	32587	
1477	0	32917	32177	32829	32617	32757	32719	32655	32497	
1478	0	32769	32347	32863	32647	32891	32551	32765	32485	
1479	0	32560	32271	32903	32658	32581	32711	32775	32445	
1480	0	32940	32391	32945	32663	32773	32655	32731	32420	
1481	0	33622	32460	32978	32546	32903	32563	32717	32478	
1482	0	34138	32470	33022	32517	32647	32683	32686	32587	
1483	0	33625	32467	33039	32446	32791	32731	32613	32719	
1484	0	33027	32563	33067	32467	32903	32583	32566	32617	
1485	0	32843	32541	32998	32459	32743	32591	32524	32575	
1486	0	32925	32559	32999	32434	32578	32643	32485	32677	
1487	0	32747	32391	33019	32495	32823	32743	32502	32647	
1488	0	32391	32391	32937	32559	32861	32693	32375	32511	
1489	0	32295	32455	32903	32594	32612	32715	32444	32598	
1490	0	32315	32463	32863	32667	32794	32709	32530	32733	
1491	0	32489	32303	32825	32642	32791	32637	32591	32759	
1492	0	32492	32367	32877	32661	32595	32628	32615	32659	
1493	0	32432	32293	32846	32583	32796	32702	32628	32677	
1494	0	32438	32255	32903	32595	32899	32783	32615	32797	
1495	0	32398	32405	32891	32647	32663	32765	32588	32695	
1496	0	32521	32382	32894	32679	32804	32863	32580	32599	
1497	0	32499	32573	32798	32743	32861	32743	32584	32765	
1498	0	32431	32639	32715	32738	32635	32669	32595	32775	
1499	0	32413	32879	32606	32773	32815	32803	32743	32636	
1500	0	32453	32666	32534	32855	32980	32839	32757	32806	
1501	0	32465	32946	32450	32863	32655	32843	32694	32903	
1502	0	32485	32836	32325	32879	32825	32867	32627	33069	
1503	0	32463	33068	32335	32980	32871	32971	32703	32987	
1504	0	32481	33300	32303	33127	32715	33068	32749	33029	
1505	0	32333	33167	32229	33250	32749	33069	32732	33243	
1506	0	32154	33268	32209	33143	32763	32964	32739	33175	
1507	0	32187	33066	32135	33139	32675	33143	32725	33211	
1508	0	32103	32955	32167	33219	32799	33285	32695	33391	
1509	0	32182	32765	32100	33287	32892	33219	32813	33427	
1510	0	32311	33001	32123	33279	32637	33238	32743	33543	
1511	0	32578	32839	32263	33245	32805	33059	32748	33287	
1512	0	32826	32399	32359	33060	32805	32967	32751	33068	
1513	0	33091	32167	32527	32877	32677	32834	32855	33123	
1514	0	33185	32431	32647	32742	32787	32897	32839	32903	
1515	0	33250	32419	32708	32763	32799	32803	32823	32839	
1516	0	33013	32382	32829	32727	32870	32751	32773	32807	
1517	0	32849	32455	32854	32775	32566	32775	32747	32667	
1518	0	32700	32331	32903	32603	32707	32739	32729	32435	
1519	0	32688	32339	32959	32511	32757	32633	32647	32555	
1520	0	32711	32695	33027	32530	32783	32611	32695	32467	
1521	0	32763	32739	33068	32519	32620	32591	32743	32311	
1522	0	32911	32717	33030	32535	32749	32611	32731	32515	
1523	0	33073	32677	32903	32615	32775	32614	32757	32449	
1524	0	33072	32687	33079	32571	32775	32565	32701	32295	
1525	0	33114	32687	33023	32699	32811	32575	32823	32437	
1526	0	33033	32829	33047	32668	32623	32541	32803	32391	
1527	0	32949	32871	33071	32671	32559	32591	32925	32387	
1528	0	33083	32871	33063	32551	32757	32487	32871	32299	
1529	0	33119	32852	33027	32473	32775	32631	32803	32399	
1530	0	32969	32767	32923	32615	32583	32631	32851	32361	
1531	0	32933	32839	32855	32535	32647	32655	32851	32355	
1532	0	33036	32926	32751	32519	32631	32719	32943	32534	
1533	0	33127	32821	32701	32447	32719	32619	32925	32415	
1534	0	33090	32823	32711	32494	32615	32669	32892	32317	
1535	0	33064	32869	32802	32596	32735	32646	32851	32501	
1536	0	33038	33223	32805	32629	32659	32617	32851	32455	
1537	0	32922	33165	32769	32694	32705	32551	32734	32527	
1538	0	32793	32579	32694	32655	32716	32692	32775	32380	
1539	0	32718	32247	32707	32711	32700	32723	32705	32497	
1540	0	32501	32191	32755	32675	32863	32641	32633	32500	
1541	0	32468	32097	32780	32711	32659	32675	32599	32485	
1542	0	32513	32271	32871	32639	32687	32756	32647	32583	
1543	0	32681	32252	32839	32765	32756	32671	32707	32548	
1544	0	32767	32367	32847	32647	32647	32676	32615	32468	
1545	0	32897	32296	32847	32575	32827	32597	32548	32679	
1546	0	32937	32467	32797	32699	32800	32717	32631	32623	
1547	0	32949	32525	32790	32607	32751	32738	32717	32554	
1548	0	32945	32903	32836	32695	32679	32691	32739	32694	
1549	0	33013	32959	32805	32724	32801	32679	32709	32659	
1550	0	32868	32887	32863	32674	32891	32723	32755	32797	
1551	0	32628	33099	32903	32807	32637	32751	32745	32710	
1552	0	32595	33107	32900	32900	32784	32681	32707	32671	
1553	0	32447	32991	32935	32918	32732	32855	32766	32615	
1554	0	32490	32775	32975	32921	32759	32815	32711	32590	
1555	0	32567	33015	32875	32843	32821	32699	32667	32742	
1556	0	32590	32861	32835	32831	32693	32818	32607	32804	
1557	0	32412	32623	32786	32775	32790	32679	32583	32711	
1558	0	32471	32206	32765	32739	32855	32695	32681	32786	
1559	0	32663	32500	32711	32765	32790	32797	32735	32705	
1560	0	32988	32567	32675	32685	32623	32831	32679	32748	
1561	0	33058	32615	32720	32477	32807	32749	32647	32548	
1562	0	32985	32612	32679	32428	32839	32839	32635	32615	
1563	0	33001	32894	32643	32467	32775	32879	32703	32789	
1564	0	33143	32987	32739	32659	32873	32685	32722	32644	
1565	0	33431	33389	32855	32623	32775	32857	32775	32739	
1566	0	33574	33355	32806	32653	32883	32726	32691	32601	
1567	0	33240	33063	32804	32771	32647	32743	32695	32730	
1568	0	32845	33073	32839	32757	32775	32753	32773	32703	
1569	0	32448	32729	32769	32669	32854	32647	32786	32807	
1570	0	32317	32587	32751	32717	32633	32639	32647	32687	
1571	0	32333	32327	32647	32807	32811	32661	32727	32590	
1572	0	32340	31891	32695	32852	32721	32710	32659	32655	
1573	0	32424	32079	32773	32687	32757	32879	32630	32705	
1574	0	32341	31915	32723	32734	32562	32919	32655	32577	
1575	0	32200	32091	32693	32683	32692	32759	32660	32582	
1576	0	32276	32093	32683	32711	32839	32676	32714	32550	
1577	0	32359	32553	32613	32695	32619	32843	32679	32719	
1578	0	32377	33055	32660	32716	32749	32694	32725	32679	
1579	0	32409	33300	32685	32751	32743	32695	32791	32585	
1580	0	32628	33331	32787	32823	32770	32815	32727	32647	
1581	0	32885	33316	32775	32807	32839	32773	32719	32671	
1582	0	33338	33179	32806	32794	32685	32751	32785	32759	
1583	0	33721	32971	32843	32828	32731	32815	32747	32799	
1584	0	34119	33235	32788	32810	32765	32773	32749	32582	
1585	0	33967	32818	32837	32775	32851	32644	32589	32703	
1586	0	33558	32643	32799	32710	32610	32773	32621	32631	
1587	0	33151	32358	32767	32541	32814	32787	32677	32747	
1588	0	32910	32237	32706	32631	32708	32749	32647	32703	
1589	0	32807	32258	32659	32609	32767	32754	32695	32790	
1590	0	32347	32099	32787	32695	32796	32740	32775	32676	
1591	0	32020	32254	32807	32699	32599	32676	32694	32567	
1592	0	31987	32147	32811	32709	32603	32663	32684	32676	
1593	0	31989	32255	32811	32691	32823	32830	32710	32694	
1594	0	31913	32111	32745	32707	32885	32802	32737	32607	
1595	0	31908	32391	32687	32687	32767	32743	32699	32668	
1596	0	32081	32564	32605	32799	32887	32813	32754	32612	
1597	0	32321	32605	32655	32725	32578	32839	32699	32815	
1598	0	32634	32885	32707	32687	32733	32859	32695	32791	
1599	0	32796	32843	32727	32571	32743	32769	32767	32698	
1600	0	32991	32673	32647	32407	32585	32765	32743	32703	
1601	0	32918	32915	32751	32557	32785	32813	32759	32727	
1602	0	32974	32991	32743	32673	32835	32597	32837	32774	
1603	0	33093	32919	32757	32607	32818	32763	32805	32663	
1604	0	33313	32941	32759	32665	32887	32693	32701	32716	
1605	0	33415	32790	32752	32711	32682	32742	32617	32730	
1606	0	33326	32807	32703	32795	32721	32775	32745	32533	
1607	0	33191	32757	32699	32819	32879	32628	32767	32611	
1608	0	33471	32740	32710	32823	32587	32747	32663	32534	
1609	0	33579	32743	32699	32775	32741	32735	32583	32620	
1610	0	33023	32683	32703	32815	32826	32827	32703	32695	
1611	0	32679	32751	32775	32775	32644	32775	32703	32669	
1612	0	32316	32565	32743	32783	32757	32789	32705	32815	
1613	0	32339	32677	32641	32817	32747	32797	32673	32677	
1614	0	32395	32367	32590	32677	32882	32663	32601	32595	
1615	0	32507	32451	32631	32629	32615	32698	32615	32759	
1616	0	32447	32327	32727	32745	32771	32839	32703	32658	
1617	0	32461	32107	32723	32797	32666	32775	32695	32783	
1618	0	32506	32415	32708	32867	32775	32839	32727	32775	
1619	0	32634	32421	32727	32791	32803	32701	32730	32713	
1620	0	32826	32599	32758	32783	32635	32571	32663	32702	
1621	0	32720	33022	32823	32845	32775	32748	32727	32595	
1622	0	32559	33060	32818	32718	32855	32775	32679	32641	
1623	0	32545	33401	32884	32749	32687	32725	32839	32565	
1624	0	32599	33509	32918	32647	32565	32731	32791	32740	
1625	0	32675	33519	32887	32647	32745	32689	32743	32711	
1626	0	32687	33841	32891	32719	32822	32793	32738	32564	
1627	0	32754	33611	32791	32791	32639	32815	32743	32765	
1628	0	32966	33343	32774	32719	32813	32797	32722	32630	
1629	0	32980	32711	32786	32823	32829	32734	32647	32565	
1630	0	33313	32525	32747	32783	32803	32647	32629	32758	
1631	0	33575	32380	32719	32735	32775	32866	32564	32695	
1632	0	33167	32003	32749	32759	32893	32797	32647	32573	
1633	0	32489	31655	32734	32775	32621	32715	32671	32630	
1634	0	32068	31741	32686	32655	32767	32791	32759	32471	
1635	0	32015	31915	32690	32647	32828	32836	32827	32659	
1636	0	32230	32126	32722	32687	32631	32691	32828	32647	
1637	0	32494	32263	32859	32746	32797	32684	32745	32511	
1638	0	32532	32383	32815	32782	32899	32791	32751	32679	
1639	0	32702	32391	32765	32727	32637	32806	32743	32743	
1640	0	32946	32339	32694	32711	32799	32835	32767	32711	
1641	0	33303	32599	32687	32620	32839	32751	32685	32719	
1642	0	33149	32717	32724	32708	32610	32709	32615	32655	
1643	0	32865	32583	32775	32759	32767	32847	32640	32725	
1644	0	32863	32939	32711	32757	32743	32767	32699	32582	
1645	0	32775	32911	32775	32767	32639	32745	32663	32686	
1646	0	32621	33143	32819	32750	32743	32771	32826	32687	
1647	0	32551	33234	32748	32702	32811	32759	32875	32486	
1648	0	32563	33330	32863	32711	32567	32685	32847	32635	
1649	0	32605	33099	32727	32590	32687	32647	32726	32635	
1650	0	32673	32720	32799	32708	32683	32731	32693	32759	
1651	0	32709	32615	32655	32551	32723	32727	32679	32692	
1652	0	33047	32591	32683	32566	32767	32748	32685	32599	
1653	0	33005	32668	32678	32631	32605	32666	32697	32647	
1654	0	32874	32767	32695	32647	32669	32755	32615	32535	
1655	0	32820	32702	32783	32647	32709	32795	32637	32636	
1656	0	32806	32707	32739	32783	32818	32671	32719	32559	
1657	0	32862	32662	32690	32703	32867	32794	32795	32729	
1658	0	32772	32685	32679	32707	32727	32799	32871	32673	
1659	0	32575	32742	32748	32807	32747	32643	32879	32524	
1660	0	32480	32809	32781	32903	32770	32635	32767	32612	
1661	0	32367	32631	32783	32911	32727	32679	32807	32686	
1662	0	32485	32715	32786	32855	32695	32751	32711	32738	
1663	0	32510	32519	32713	32847	32870	32757	32745	32713	
1664	0	32607	32391	32754	32797	32635	32553	32791	32783	
1665	0	32664	32695	32771	32855	32747	32693	32644	32706	
1666	0	32921	32943	32730	32799	32713	32855	32620	32775	
1667	0	33312	32748	32647	32775	32759	32871	32663	32781	
1668	0	33445	32671	32603	32719	32819	32807	32663	32637	
1669	0	33380	32711	32639	32643	32609	32714	32639	32719	
1670	0	33313	32903	32737	32669	32741	32879	32677	32659	
1671	0	33114	32747	32743	32667	32663	32727	32679	32668	
1672	0	33012	32519	32722	32647	32759	32791	32694	32613	
1673	0	32909	32571	32767	32631	32850	32823	32684	32763	
1674	0	32743	32471	32773	32671	32723	32711	32638	32783	
1675	0	32547	32534	32699	32836	32839	32747	32595	32862	
1676	0	32372	32671	32828	32819	32919	32769	32719	32775	
1677	0	32456	32546	32857	32657	32829	32803	32727	32745	
1678	0	32527	32436	32775	32631	32849	32742	32735	32705	
1679	0	32631	32711	32765	32662	32935	32643	32775	32564	
1680	0	32809	32643	32803	32604	32821	32847	32751	32671	
1681	0	32769	32503	32827	32714	32922	32775	32635	32565	
1682	0	32641	32715	32797	32795	32629	32850	32647	32667	
1683	0	32655	32571	32747	32727	32789	32775	32707	32559	
1684	0	32671	32447	32639	32773	32830	32671	32617	32691	
1685	0	32660	32663	32631	32899	32743	32783	32647	32681	
1686	0	32667	32605	32619	32859	32756	32775	32634	32551	
1687	0	32718	32599	32701	32687	32799	32731	32661	32709	
1688	0	32827	32477	32749	32751	32553	32791	32763	32677	
1689	0	32895	32560	32685	32685	32727	32646	32691	32687	
1690	0	32941	32621	32685	32734	32531	32695	32711	32717	
1691	0	32925	32817	32740	32705	32751	32711	32791	32607	
1692	0	32896	32863	32823	32719	32851	32763	32798	32715	
1693	0	32733	32908	32847	32727	32577	32837	32775	32493	
1694	0	32590	33159	32745	32775	32705	32655	32887	32577	
1695	0	32378	33082	32727	32721	32691	32694	32943	32602	
1696	0	32366	32866	32847	32879	32743	32735	32828	32603	
1697	0	32254	32807	32743	32852	32807	32751	32775	32635	
1698	0	32169	32655	32791	32820	32559	32855	32727	32679	
1699	0	32100	32327	32739	32739	32790	32679	32763	32703	
1700	0	32114	32303	32655	32791	32625	32751	32756	32703	
1701	0	32281	32295	32727	32775	32754	32698	32727	32671	
1702	0	32818	32098	32748	32821	32891	32811	32687	32613	
1703	0	33305	32327	32694	32756	32647	32694	32631	32714	
1704	0	33265	32413	32687	32511	32775	32814	32623	32731	
1705	0	33172	32503	32773	32317	32623	32793	32671	32775	
1706	0	33319	33003	32743	32242	32767	32763	32679	32590	
1707	0	33653	33027	32783	32414	32865	32663	32679	32669	
1708	0	34086	33025	32703	32579	32643	32797	32732	32645	
1709	0	33964	33517	32705	32615	32822	32819	32631	32703	
1710	0	33592	33575	32635	32659	32716	32839	32647	32575	
1711	0	33701	33695	32607	32734	32799	32679	32647	32686	
1712	0	34015	33319	32773	32626	32807	32663	32681	32695	
1713	0	33677	32987	32819	32775	32742	32727	32711	32543	
1714	0	33058	32627	32873	32941	32771	32786	32767	32671	
1715	0	32663	32191	32941	32937	32837	32791	32738	32479	
1716	0	32278	32103	32843	32727	32635	32799	32738	32659	
1717	0	31968	32071	32817	32687	32743	32710	32837	32679	
1718	0	31652	31803	32679	32661	32871	32607	32775	32610	
1719	0	31513	31631	32615	32513	32570	32727	32789	32646	
1720	0	31434	31583	32617	32453	32742	32786	32815	32534	
1721	0	31967	31955	32679	32477	32869	32790	32839	32684	
1722	0	32293	32183	32801	32511	32587	32756	32738	32793	
1723	0	32421	32027	32823	32582	32789	32679	32647	32679	
1724	0	32495	32687	32877	32639	32775	32679	32685	32751	
1725	0	32782	33183	32887	32847	32773	32819	32749	32647	
1726	0	33012	33343	32927	33037	32823	32775	32647	32713	
1727	0	33516	33892	32854	33090	32612	32911	32595	32709	
1728	0	33281	33862	32863	33065	32847	32738	32693	32845	
1729	0	32839	33763	32827	32877	32852	32662	32821	32711	
1730	0	32377	33335	32786	32901	32677	32817	32751	32671	
1731	0	32260	33343	32799	32881	32859	32749	32685	32751	
1732	0	32276	32964	32788	32807	32948	32794	32640	32637	
1733	0	32375	32557	32738	32757	32685	32795	32700	32527	
1734	0	32517	32455	32791	32671	32807	32653	32647	32702	
1735	0	32685	32279	32743	32549	32820	32631	32628	32687	
1736	0	32754	32303	32807	32602	32901	32722	32683	32559	
1737	0	32814	32179	32786	32519	32647	32737	32751	32738	
1738	0	32815	32391	32751	32463	32563	32705	32685	32732	
1739	0	32807	32329	32845	32510	32732	32662	32669	32578	
1740	0	32810	32066	32775	32483	32647	32787	32647	32687	
1741	0	32831	32215	32748	32483	32549	32797	32627	32743	
1742	0	32861	32301	32669	32483	32775	32719	32587	32580	
1743	0	32750	32381	32588	32535	32887	32665	32557	32759	
1744	0	32705	32315	32647	32535	32583	32877	32623	32729	
1745	0	32633	32631	32693	32690	32759	32861	32593	32831	
1746	0	32642	32813	32628	32711	32681	32903	32596	32787	
1747	0	32694	32766	32603	32757	32793	32719	32743	32833	
1748	0	32793	33026	32628	32763	32871	32791	32773	32738	
1749	0	32900	33215	32625	32831	32620	32743	32839	32739	
1750	0	32903	33271	32679	32773	32810	32719	32759	32695	
1751	0	32925	32999	32739	32876	32647	32607	32763	32615	
1752	0	32908	32775	32730	32883	32733	32735	32879	32663	
1753	0	32893	32791	32786	32838	32758	32775	32903	32525	
1754	0	32902	32763	32743	32715	32621	32711	32831	32623	
1755	0	32949	32516	32819	32675	32749	32666	32868	32647	
1756	0	32911	32631	32755	32769	32871	32637	32790	32694	
1757	0	32827	32579	32783	32813	32615	32799	32739	32719	
1758	0	32793	32431	32783	32685	32823	32817	32767	32487	
1759	0	32790	32659	32769	32687	32839	32735	32914	32566	
1760	0	32743	32691	32745	32695	32557	32721	32806	32679	
1761	0	32681	32535	32743	32733	32743	32711	32759	32673	
1762	0	32713	32719	32762	32670	32863	32887	32727	32605	
1763	0	32716	32679	32731	32658	32591	32839	32631	32675	
1764	0	32724	32815	32703	32599	32767	32751	32695	32643	
1765	0	32671	32743	32745	32612	32937	32771	32668	32878	
1766	0	32647	32727	32772	32612	32797	32807	32663	32705	
1767	0	32708	32759	32747	32608	32819	32759	32741	32605	
1768	0	32769	32635	32685	32636	32775	32643	32717	32716	
1769	0	32724	32623	32613	32745	32828	32669	32641	32679	
1770	0	32710	32549	32655	32655	32567	32774	32579	32767	
1771	0	32782	32663	32724	32699	32773	32793	32612	32671	
1772	0	33102	32675	32722	32711	32843	32759	32735	32567	
1773	0	33113	32711	32684	32807	32679	32647	32805	32715	
1774	0	32829	32743	32695	32871	32775	32807	32740	32679	
1775	0	32741	32863	32749	32858	32883	32788	32671	32717	
1776	0	32748	32775	32767	32853	32629	32655	32677	32661	
1777	0	32699	32698	32767	32790	32775	32757	32815	32730	
1778	0	32684	32765	32844	32743	32855	32731	32807	32695	
1779	0	32758	32807	32755	32841	32617	32797	32773	32595	
1780	0	32773	32566	32759	32871	32839	32850	32775	32804	
1781	0	32775	32639	32727	32788	32891	32679	32755	32767	
1782	0	32823	32719	32767	32731	32639	32807	32833	32786	
1783	0	32894	32863	32707	32747	32743	32855	32863	32675	
1784	0	32861	32989	32719	32730	32727	32759	32798	32662	
1785	0	32756	32935	32709	32589	32588	32791	32805	32775	
1786	0	32714	32839	32783	32647	32764	32807	32703	32783	
1787	0	32626	32675	32733	32711	32758	32815	32722	32605	
1788	0	32631	32447	32687	32715	32862	32767	32761	32751	
1789	0	32679	32353	32743	32620	32687	32810	32773	32683	
1790	0	32711	32491	32823	32669	32775	32853	32731	32751	
1791	0	32716	32317	32727	32611	32727	32783	32698	32653	
1792	0	32736	32388	32703	32605	32815	32647	32663	32695	
1793	0	32764	32278	32756	32507	32587	32803	32583	32554	
1794	0	32844	32671	32754	32445	32775	32759	32631	32706	
1795	0	32849	32670	32681	32629	32837	32789	32647	32708	
1796	0	32718	32706	32725	32838	32551	32717	32681	32775	
1797	0	32695	32601	32775	32895	32743	32679	32735	32647	
1798	0	32642	32799	32869	32916	32831	32882	32775	32527	
1799	0	32612	32507	32831	32839	32697	32794	32813	32647	
1800	0	32559	32479	32854	32770	32807	32621	32733	32679	
1801	0	32571	32303	32801	32799	32791	32647	32771	32551	
1802	0	32665	32558	32773	32679	32775	32823	32775	32659	
1803	0	32868	32558	32739	32694	32731	32703	32685	32549	
1804	0	32846	32399	32677	32771	32727	32716	32742	32703	
1805	0	32922	32756	32655	32845	32619	32716	32847	32593	
1806	0	32902	32897	32687	32825	32758	32658	32811	32639	
1807	0	32845	32903	32619	32815	32859	32775	32838	32707	
1808	0	32872	33175	32683	32695	32588	32715	32839	32579	
1809	0	32756	33229	32681	32789	32775	32707	32706	32695	
1810	0	32677	33309	32751	32831	32869	32761	32685	32623	
1811	0	32481	32863	32852	32807	32770	32851	32721	32827	
1812	0	32343	32925	32865	32743	32763	32858	32738	32751	
1813	0	32346	32877	32863	32667	32839	32807	32715	32811	
1814	0	32514	32739	32877	32687	32865	32727	32703	32667	
1815	0	32927	32343	32833	32543	32619	32782	32669	32715	
1816	0	33478	32503	32731	32543	32743	32826	32669	32751	
1817	0	33831	32615	32807	32583	32751	32799	32733	32597	
1818	0	33883	32634	32817	32559	32919	32847	32663	32863	
1819	0	33793	32611	32833	32565	32731	32775	32687	32654	
1820	0	33566	32443	32839	32659	32847	32831	32749	32615	
1821	0	33140	32613	32799	32711	32809	32739	32595	32733	
1822	0	32681	32540	32845	32715	32762	32589	32679	32675	
1823	0	32297	32401	32844	32771	32543	32595	32731	32575	
1824	0	32101	32339	32839	32735	32738	32791	32773	32615	
1825	0	31950	32599	32927	32607	32826	32839	32793	32701	
1826	0	31935	32642	32895	32767	32599	32762	32719	32759	
1827	0	32002	32771	32847	32891	32817	32743	32743	32711	
1828	0	32056	32661	32771	32822	32879	32743	32695	32484	
1829	0	32443	32679	32775	32527	32589	32683	32706	32615	
1830	0	32885	32765	32679	32633	32742	32647	32759	32583	
1831	0	33210	32883	32691	32763	32771	32677	32735	32639	
1832	0	33223	32695	32703	32821	32635	32735	32553	32644	
1833	0	33135	32621	32647	32887	32713	32679	32658	32683	
1834	0	32884	32491	32635	32903	32805	32870	32684	32699	
1835	0	32786	32711	32679	32839	32749	32647	32739	32711	
1836	0	32731	32830	32636	32795	32807	32820	32787	32689	
1837	0	32807	32695	32620	32683	32531	32767	32679	32775	
1838	0	32710	32677	32683	32658	32759	32823	32659	32790	
1839	0	32590	32524	32701	32691	32759	32659	32751	32802	
1840	0	32353	32466	32815	32727	32762	32821	32708	32679	
1841	0	32186	32487	32855	32670	32807	32775	32679	32599	
1842	0	32015	32427	32875	32647	32637	32847	32739	32695	
1843	0	32118	32495	32869	32659	32725	32775	32647	32671	
1844	0	32245	32583	32925	32789	32877	32731	32661	32677	
1845	0	32464	32655	32895	32773	32757	32797	32823	32674	
1846	0	32687	32713	32903	32791	32847	32747	32748	32727	
1847	0	32871	32635	32867	32739	32677	32791	32767	32700	
1848	0	32901	32687	32831	32623	32839	32713	32708	32581	
1849	0	33356	32775	32658	32695	32882	32806	32719	32675	
1850	0	33366	32599	32582	32707	32792	32706	32786	32647	
1851	0	33171	32775	32655	32695	32813	32738	32759	32725	
1852	0	32866	32983	32783	32637	32647	32769	32731	32647	
1853	0	32853	33115	32711	32647	32775	32733	32754	32769	
1854	0	33375	33131	32687	32641	32828	32686	32751	32755	
1855	0	33669	33077	32743	32623	32561	32751	32727	32783	
1856	0	33616	33145	32808	32743	32799	32723	32639	32628	
1857	0	33138	32898	32772	32639	32773	32644	32631	32487	
1858	0	33035	33097	32773	32611	32574	32795	32621	32719	
1859	0	33168	33095	32690	32589	32731	32719	32785	32740	
1860	0	33004	33127	32743	32647	32771	32639	32694	32775	
1861	0	32674	32835	32794	32595	32771	32807	32683	32709	
1862	0	32364	32511	32815	32751	32855	32759	32756	32734	
1863	0	32207	32135	32837	32811	32583	32718	32637	32641	
1864	0	32179	31975	32859	32759	32763	32703	32642	32765	
1865	0	32135	31971	32861	32759	32815	32666	32590	32594	
1866	0	32172	31855	32821	32622	32603	32820	32645	32543	
1867	0	32252	31925	32822	32667	32743	32815	32693	32759	
1868	0	32364	32041	32787	32805	32922	32757	32738	32713	
1869	0	32366	32308	32775	32825	32759	32825	32695	32823	
1870	0	32519	32511	32735	32786	32876	32655	32767	32783	
1871	0	32668	32871	32700	32871	32595	32801	32711	32803	
1872	0	32826	33086	32701	32895	32763	32669	32743	32750	
1873	0	33021	33229	32723	32823	32683	32823	32831	32799	
1874	0	33132	33143	32732	32813	32791	32647	32839	32762	
1875	0	32999	33223	32791	32802	32783	32799	32827	32709	
1876	0	32877	32919	32725	32763	32574	32717	32775	32755	
1877	0	32877	32627	32733	32699	32730	32833	32767	32775	
1878	0	32807	32647	32703	32637	32775	32647	32775	32659	
1879	0	32771	32615	32718	32535	32773	32775	32679	32567	
1880	0	32787	32635	32694	32573	32843	32711	32754	32595	
1881	0	32615	32638	32786	32635	32726	32639	32785	32719	
1882	0	32657	32627	32813	32658	32922	32805	32788	32677	
1883	0	32612	32537	32727	32801	32601	32719	32626	32679	
1884	0	32628	32625	32711	32813	32871	32757	32725	32439	
1885	0	32588	32677	32707	32815	32583	32663	32735	32639	
1886	0	32566	32799	32787	32764	32727	32839	32685	32539	
1887	0	32677	32739	32732	32756	32735	32669	32735	32730	
1888	0	32857	32853	32761	32675	32791	32775	32727	32743	
1889	0	32930	32807	32771	32683	32885	32666	32646	32659	
1890	0	33022	32799	32767	32661	32636	32803	32695	32530	
1891	0	32966	32735	32701	32762	32861	32749	32683	32708	
1892	0	33067	32871	32751	32711	32629	32732	32775	32587	
1893	0	33140	32855	32703	32703	32783	32793	32663	32679	
1894	0	33157	32663	32685	32679	32708	32795	32695	32607	
1895	0	32967	32715	32647	32743	32727	32751	32677	32722	
1896	0	32943	32663	32701	32735	32877	32767	32759	32697	
1897	0	32863	32503	32711	32695	32647	32716	32671	32710	
1898	0	32748	32694	32689	32713	32823	32870	32703	32737	
1899	0	32738	32679	32707	32775	32671	32741	32814	32671	
1900	0	32652	32383	32839	32775	32737	32783	32694	32571	
1901	0	32695	32695	32923	32769	32891	32641	32638	32495	
1902	0	32706	32735	32804	32810	32631	32727	32679	32685	
1903	0	32646	32742	32775	32794	32775	32729	32775	32559	
1904	0	32781	32977	32775	32665	32607	32583	32809	32623	
1905	0	32814	32951	32734	32687	32713	32763	32795	32503	
1906	0	32863	32939	32769	32703	32697	32764	32743	32583	
1907	0	32825	32789	32695	32731	32767	32781	32724	32525	
1908	0	32709	32761	32767	32819	32714	32863	32756	32735	
1909	0	32621	32631	32775	32771	32671	32663	32815	32683	
1910	0	32519	32669	32863	32773	32560	32631	32799	32647	
1911	0	32502	32655	32843	32868	32790	32732	32694	32719	
1912	0	32600	32445	32877	32839	32861	32821	32701	32589	
1913	0	32676	32671	32887	32818	32679	32770	32658	32788	
1914	0	32674	32527	32838	32663	32858	32759	32735	32749	
1915	0	32783	32414	32801	32693	32893	32731	32731	32797	
1916	0	32711	32429	32829	32593	32589	32687	32642	32701	
1917	0	32581	32621	32811	32562	32709	32694	32647	32551	
1918	0	32499	32597	32813	32590	32705	32798	32763	32676	
1919	0	32468	32751	32772	32623	32763	32761	32673	32671	
1920	0	32491	32700	32647	32695	32663	32646	32639	32757	
1921	0	32449	32711	32619	32707	32740	32799	32695	32658	
1922	0	32551	32871	32669	32603	32791	32771	32671	32677	
1923	0	32711	32887	32724	32731	32551	32709	32685	32499	
1924	0	33006	32951	32637	32605	32773	32783	32679	32647	
1925	0	33322	32963	32615	32500	32715	32769	32683	32535	
1926	0	33399	32979	32645	32695	32750	32663	32847	32687	
1927	0	33230	32963	32735	32668	32852	32751	32819	32663	
1928	0	32854	33079	32685	32685	32577	32871	32759	32709	
1929	0	32473	33117	32707	32767	32785	32775	32765	32662	
1930	0	32375	32647	32775	32831	32892	32741	32659	32558	
1931	0	32488	32547	32887	32751	32791	32769	32711	32628	
1932	0	32500	32594	32893	32722	32854	32630	32667	32562	
1933	0	32628	32159	32969	32671	32647	32846	32679	32647	
1934	0	32861	31922	32851	32663	32813	32811	32729	32685	
1935	0	33245	31911	32790	32851	32903	32754	32700	32700	
1936	0	33626	31759	32819	32675	32610	32775	32647	32711	
1937	0	33900	32055	32647	32746	32851	32647	32639	32773	
1938	0	33815	32412	32692	32692	32641	32815	32723	32691	
1939	0	33265	32519	32679	32788	32759	32773	32735	32801	
1940	0	32863	32918	32693	32861	32787	32791	32767	32669	
1941	0	32612	33045	32667	32919	32799	32679	32708	32635	
1942	0	32631	32775	32627	32879	32911	32715	32677	32711	
1943	0	32455	32658	32663	32796	32799	32803	32815	32770	
1944	0	32404	32755	32647	32725	32868	32813	32751	32719	
1945	0	32421	32983	32589	32717	32563	32771	32723	32843	
1946	0	32413	33063	32657	32862	32799	32811	32647	32730	
1947	0	32367	32703	32754	32817	32570	32811	32735	32721	
1948	0	32276	32742	32870	32753	32803	32791	32771	32647	
1949	0	32255	32487	32859	32747	32565	32638	32690	32622	
1950	0	32391	32487	32844	32445	32750	32725	32633	32647	
1951	0	32644	32519	32791	32577	32605	32647	32645	32686	
1952	0	32524	32605	32745	32787	32775	32839	32715	32551	
1953	0	32461	32403	32727	32775	32755	32701	32699	32628	
1954	0	32455	32263	32742	32719	32771	32626	32725	32500	
1955	0	32718	32455	32711	32647	32855	32695	32743	32647	
1956	0	32773	32383	32823	32647	32671	32773	32717	32615	
1957	0	32869	32119	32815	32573	32806	32725	32759	32746	
1958	0	33126	32353	32807	32595	32811	32767	32730	32691	
1959	0	33082	32637	32727	32726	32631	32791	32694	32571	
1960	0	32929	32787	32611	32685	32737	32631	32841	32679	
1961	0	33004	33287	32647	32755	32875	32743	32851	32634	
1962	0	33047	33644	32663	32851	32591	32799	32756	32707	
1963	0	32919	33735	32669	32740	32775	32850	32791	32613	
1964	0	32870	33725	32715	32751	32763	32703	32711	32711	
1965	0	32868	33791	32763	32743	32845	32685	32599	32735	
1966	0	32564	33846	32759	32949	32903	32839	32684	32795	
1967	0	32505	33754	32807	32859	32553	32817	32663	32755	
1968	0	32560	33307	32855	32767	32759	32757	32663	32743	
1969	0	32728	32759	32811	32759	32803	32701	32707	32739	
1970	0	32697	32223	32815	32807	32786	32829	32691	32727	
1971	0	32457	31940	32759	32666	32843	32791	32773	32685	
1972	0	32167	31908	32733	32666	32805	32671	32791	32750	
1973	0	31983	31815	32751	32543	32807	32614	32815	32629	
1974	0	31999	31687	32722	32547	32738	32725	32857	32740	
1975	0	32293	31763	32766	32583	32639	32698	32775	32543	
1976	0	32517	31775	32791	32759	32807	32747	32701	32637	
1977	0	32620	31855	32892	32846	32783	32633	32647	32591	
1978	0	32909	32107	32855	32727	32614	32587	32759	32639	
1979	0	33353	32330	32837	32619	32834	32693	32834	32603	
1980	0	33982	32431	32851	32647	32815	32735	32861	32434	
1981	0	33829	32647	32791	32763	32557	32727	32813	32535	
1982	0	33287	32755	32773	32790	32699	32775	32813	32611	
1983	0	32827	32614	32839	32821	32799	32637	32727	32749	
1984	0	32673	32619	32858	32692	32565	32783	32663	32671	
1985	0	32719	32551	32783	32693	32719	32809	32606	32771	
1986	0	32705	32413	32701	32725	32858	32749	32620	32775	
1987	0	32814	32743	32783	32711	32591	32827	32727	32599	
1988	0	32784	32783	32699	32687	32726	32679	32681	32647	
1989	0	32725	32589	32727	32599	32679	32834	32679	32628	
1990	0	32675	32895	32655	32539	32767	32815	32735	32727	
1991	0	32796	33031	32644	32407	32775	32775	32695	32647	
1992	0	32887	33067	32773	32559	32711	32738	32721	32722	
1993	0	33073	33509	32703	32519	32570	32583	32749	32687	
1994	0	33131	33471	32798	32679	32772	32805	32763	32758	
1995	0	33052	33367	32738	32689	32801	32831	32751	32709	
1996	0	33063	33087	32706	32725	32589	32703	32807	32838	
1997	0	33045	33007	32763	32879	32759	32805	32799	32734	
1998	0	32942	32767	32788	32791	32759	32631	32711	32555	
1999	0	32755	32535	32749	32839	32582	32809	32742	32566	
2000	0	32647	32613	32695	32875	32813	32851	32727	32555	
2001	0	32524	32576	32719	32813	32797	32775	32686	32647	
2002	0	32483	32518	32725	32869	32583	32775	32623	32670	
2003	0	32507	32734	32703	32677	32743	32647	32637	32746	
2004	0	32457	32619	32723	32685	32903	32627	32607	32598	
2005	0	32441	32375	32723	32674	32635	32731	32695	32642	
2006	0	32412	32527	32695	32877	32775	32710	32751	32671	
2007	0	32519	32533	32696	32855	32829	32705	32767	32625	
2008	0	32609	32428	32740	32813	32739	32775	32751	32543	
2009	0	32847	32647	32743	32726	32831	32615	32735	32609	
2010	0	32868	32591	32742	32693	32799	32738	32759	32559	
2011	0	32717	32571	32804	32683	32583	32818	32707	32765	
2012	0	32653	32599	32859	32727	32815	32790	32643	32668	
2013	0	32679	32657	32819	32687	32887	32829	32715	32588	
2014	0	32751	32541	32837	32668	32835	32679	32703	32647	
2015	0	32786	32751	32859	32723	32851	32845	32685	32591	
2016	0	32714	32775	32935	32775	32763	32849	32775	32715	
2017	0	32689	32587	32899	32751	32711	32738	32668	32660	
2018	0	32367	32659	32870	32737	32692	32807	32691	32790	
2019	0	32303	32326	32875	32646	32695	32715	32685	32725	
2020	0	32255	32332	32670	32591	32507	32559	32715	32452	
2021	0	32070	32385	32551	32631	32655	32756	32850	32647	
2022	0	31940	32431	32615	32683	32709	32703	32803	32577	
2023	0	32159	32495	32715	32671	32679	32763	32860	32620	
2024	0	32563	32796	32787	32759	32815	32629	32807	32535	
2025	0	33078	32951	32807	32799	32583	32795	32823	32707	
2026	0	33469	32986	32847	32837	32743	32861	32727	32725	
2027	0	33593	33388	32979	32826	32875	32806	32764	32731	
2028	0	33940	33442	33031	32775	32634	32701	32747	32637	
2029	0	34179	33093	32987	32775	32735	32647	32687	32669	
2030	0	34162	32988	32999	32721	32614	32811	32634	32675	
2031	0	34123	32705	32948	32611	32815	32691	32615	32824	
2032	0	33703	32500	32823	32527	32895	32790	32701	32743	
2033	0	33181	32507	32785	32587	32610	32674	32759	32671	
2034	0	32761	32551	32658	32567	32743	32679	32807	32797	
2035	0	32432	32347	32687	32628	32731	32793	32775	32661	
2036	0	32391	32622	32730	32667	32775	32703	32689	32799	
2037	0	32145	32691	32807	32675	32871	32783	32634	32727	
2038	0	31951	32477	32769	32681	32605	32807	32647	32549	
2039	0	32067	32683	32811	32798	32737	32589	32691	32693	
2040	0	32231	32895	32765	32686	32861	32735	32647	32708	
2041	0	32461	32589	32710	32641	32647	32694	32647	32609	
2042	0	32610	32759	32643	32695	32838	32830	32647	32731	
2043	0	32687	32615	32703	32679	32863	32715	32605	32711	
2044	0	32705	32463	32589	32724	32751	32835	32686	32831	
2045	0	32801	32647	32623	32815	32813	32612	32723	32787	
2046	0	32826	32603	32668	32871	32679	32807	32716	32543	
2047	0	32702	32357	32623	32765	32839	32829	32683	32647	
2048	0	32626	32391	32647	32699	32911	32763	32738	32671	
2049	0	32669	32359	32671	32742	32611	32802	32762	32770	
2050	0	32634	32427	32611	32903	32757	32847	32646	32709	
2051	0	32647	32483	32668	32911	32875	32735	32605	32647	
2052	0	32638	32663	32647	32821	32559	32791	32775	32743	
2053	0	32457	32707	32775	32775	32775	32741	32787	32577	
2054	0	32406	32583	32738	32717	32839	32684	32715	32670	
2055	0	32342	32855	32740	32631	32573	32775	32785	32711	
2056	0	32308	32927	32711	32775	32751	32775	32759	32556	
2057	0	32315	33175	32679	32723	32860	32746	32742	32743	
2058	0	32466	32969	32743	32703	32658	32669	32743	32721	
2059	0	32687	33103	32751	32859	32733	32839	32727	32711	
2060	0	32935	32941	32759	32794	32871	32703	32669	32641	
2061	0	33076	32562	32847	32772	32735	32739	32611	32485	
2062	0	33156	32119	32863	32679	32807	32855	32615	32677	
2063	0	33531	32197	32956	32715	32740	32783	32705	32719	
2064	0	34134	32400	33020	32691	32794	32642	32693	32583	
2065	0	34212	32577	32836	32679	32623	32557	32603	32645	
2066	0	33769	32647	32911	32727	32863	32775	32637	32785	
2067	0	33252	32663	32997	32647	32954	32843	32673	32695	
2068	0	32869	32518	32869	32569	32645	32825	32647	32587	
2069	0	32510	32342	32863	32437	32799	32767	32589	32711	
2070	0	32125	32747	32876	32687	32814	32685	32749	32615	
2071	0	31833	33205	32852	32807	32747	32791	32756	32791	
2072	0	31637	33143	32844	32903	32775	32774	32762	32619	
2073	0	31589	32875	32759	32775	32749	32785	32764	32792	
2074	0	32108	32823	32671	32551	32589	32749	32713	32719	
2075	0	32537	32711	32623	32669	32775	32791	32671	32549	
2076	0	32487	32591	32631	32679	32814	32637	32695	32577	
2077	0	32583	32895	32599	32663	32551	32602	32697	32571	
2078	0	32827	33127	32626	32631	32723	32799	32647	32659	
2079	0	32819	32923	32655	32500	32751	32717	32775	32617	
2080	0	32976	32455	32771	32495	32516	32663	32807	32665	
2081	0	33054	32511	32863	32495	32692	32791	32859	32751	
2082	0	32916	32511	32817	32559	32859	32682	32775	32581	
2083	0	32692	32499	32829	32711	32580	32723	32758	32602	
2084	0	32718	32367	32823	32647	32789	32770	32698	32679	
2085	0	32839	32371	32727	32679	32867	32733	32715	32638	
2086	0	32886	32355	32636	32727	32639	32727	32719	32734	
2087	0	32937	32431	32719	32796	32769	32761	32731	32679	
2088	0	33111	32511	32797	32835	32820	32625	32679	32495	
2089	0	33065	32807	32772	32835	32663	32691	32703	32647	
2090	0	32827	32871	32717	32775	32605	32807	32665	32711	
2091	0	32838	32785	32687	32615	32822	32750	32695	32839	
2092	0	32814	32501	32669	32647	32943	32773	32690	32711	
2093	0	32812	32151	32751	32685	32711	32797	32706	32749	
2094	0	32834	32079	32799	32647	32775	32839	32762	32599	
2095	0	33008	32356	32709	32765	32723	32821	32759	32646	
2096	0	32994	32291	32695	32903	32863	32839	32786	32735	
2097	0	32940	32355	32679	32797	32582	32711	32878	32783	
2098	0	32812	32500	32727	32671	32794	32831	32791	32763	
2099	0	32716	32863	32717	32607	32866	32851	32741	32578	
2100	0	32642	33230	32677	32700	32635	32799	32579	32719	
2101	0	32643	33383	32788	32855	32751	32683	32579	32775	
2102	0	32549	33439	32799	32845	32891	32755	32586	32639	
2103	0	32492	33254	32687	32755	32547	32726	32694	32624	
2104	0	32443	33007	32707	32678	32807	32609	32903	32575	
2105	0	32595	33094	32771	32711	32691	32759	32903	32691	
2106	0	32631	33005	32775	32695	32773	32758	32719	32571	
2107	0	32686	32771	32846	32647	32893	32841	32701	32695	
2108	0	32710	32391	32815	32665	32625	32836	32605	32745	
2109	0	32710	32425	32727	32675	32795	32727	32621	32831	
2110	0	32725	32407	32726	32645	32943	32727	32583	32741	
2111	0	32786	32487	32728	32620	32717	32871	32531	32620	
2112	0	32934	32507	32727	32623	32815	32855	32647	32829	
2113	0	32923	32871	32775	32711	32841	32855	32740	32679	
2114	0	32912	32790	32749	32715	32717	32727	32807	32594	
2115	0	32863	32807	32871	32902	32547	32815	32797	32769	
2116	0	32877	32578	32889	32815	32826	32669	32717	32687	
2117	0	32826	32659	32813	32867	32827	32639	32715	32607	
2118	0	32757	32586	32788	32813	32511	32807	32625	32572	
2119	0	32714	32599	32739	32767	32717	32787	32739	32553	
2120	0	32604	32571	32697	32658	32731	32693	32751	32601	
2121	0	32559	32631	32787	32541	32775	32679	32735	32519	
2122	0	32597	32623	32804	32444	32892	32759	32813	32678	
2123	0	32788	32830	32759	32583	32575	32694	32841	32639	
2124	0	32812	32834	32787	32655	32763	32750	32789	32602	
2125	0	32804	32822	32823	32638	32727	32748	32775	32518	
2126	0	32951	32575	32762	32640	32767	32622	32815	32717	
2127	0	33311	32551	32765	32738	32854	32791	32693	32519	
2128	0	33254	32551	32845	32717	32596	32669	32787	32708	
2129	0	33062	32615	32748	32719	32738	32741	32659	32647	
2130	0	32876	32646	32671	32831	32762	32745	32611	32751	
2131	0	32804	32631	32615	32759	32754	32623	32719	32647	
2132	0	32684	32612	32474	32815	32839	32751	32695	32715	
2133	0	32585	32879	32615	32899	32582	32718	32727	32703	
2134	0	32425	32951	32755	32811	32743	32870	32725	32790	
2135	0	32436	32877	32749	32751	32770	32630	32626	32803	
2136	0	32443	33043	32791	32737	32588	32805	32661	32771	
2137	0	32359	32957	32871	32540	32775	32835	32697	32691	
2138	0	32308	32686	32877	32485	32647	32740	32723	32742	
2139	0	32359	32603	32837	32543	32767	32751	32607	32743	
2140	0	32501	32285	32918	32493	32751	32687	32747	32698	
2141	0	32603	32207	32918	32527	32581	32805	32767	32687	
2142	0	32916	32167	32915	32574	32749	32741	32722	32587	
2143	0	33227	32391	32895	32606	32802	32727	32683	32620	
2144	0	33479	32511	32838	32561	32595	32811	32665	32543	
2145	0	33583	32361	32839	32647	32743	32639	32711	32771	
2146	0	33823	32687	32751	32638	32679	32647	32631	32758	
2147	0	33609	32954	32783	32679	32791	32837	32730	32835	
