# OpenSignals Text File Format
# {"00:07:80:64:6D:DA": {"sensor": ["CUSTOM/0.5/1.0/V", "CUSTOM/0.5/1.0/V", "CUSTOM/0.5/1.0/V", "CUSTOM/0.5/1.0/V"], "device name": "Plataforma", "column": ["nSeq", "DI", "CH1", "CH2", "CH3", "CH4"], "sync interval": 2, "time": "10:56:13.966", "comments": "", "device connection": "BTH00:07:80:64:6D:DA", "channels": [1, 2, 3, 4], "date": "2017-6-2", "mode": 0, "digital IO": [0, 1], "firmware version": 772, "device": "biosignalsplux", "position": 0, "sampling rate": 1000, "label": ["CH1", "CH2", "CH3", "CH4"], "resolution": [16, 16, 16, 16], "special": [{}, {}, {}, {}]}, "00:07:80:3B:46:38": {"sensor": ["CUSTOM/0.5/1.0/V", "CUSTOM/0.5/1.0/V", "CUSTOM/0.5/1.0/V", "CUSTOM/0.5/1.0/V", "CUSTOM/0.5/1.0/V", "CUSTOM/0.5/1.0/V", "CUSTOM/0.5/1.0/V", "CUSTOM/0.5/1.0/V"], "device name": "EMGs", "column": ["nSeq", "DI", "RA_L", "RA_R", "OE_L", "OE:R", "IL_L", "IL_R", "MF_L", "MF_R"], "sync interval": 2, "time": "10:56:13.966", "comments": "", "device connection": "BTH00:07:80:3B:46:38", "channels": [1, 2, 3, 4, 5, 6, 7, 8], "date": "2017-6-2", "mode": 0, "digital IO": [0, 1], "firmware version": 772, "device": "biosignalsplux", "position": 1, "sampling rate": 1000, "label": ["RA_L", "RA_R", "OE_L", "OE:R", "IL_L", "IL_R", "MF_L", "MF_R"], "resolution": [16, 16, 16, 16, 16, 16, 16, 16], "special": [{}, {}, {}, {}, {}, {}, {}, {}]}}
# EndOfHeader
2840	0	3284	5211	3658	6144	0	0	32786	32615	32901	32795	32711	32863	32735	32799	
2841	0	3259	5253	3706	6169	1	0	32795	32646	33111	32773	32700	32750	32718	32726	
2842	0	3300	5252	3693	6199	2	0	32903	32757	33148	32773	32652	32739	32620	32801	
2843	0	3282	5254	3677	6157	3	0	32804	32663	33019	32775	32749	32703	32681	32821	
2844	0	3270	5219	3718	6202	4	0	32860	32557	32845	32749	32724	32847	32738	32833	
2845	0	3253	5230	3664	6182	5	0	32844	32731	32733	32693	32758	32855	32595	32699	
2846	0	3292	5178	3656	6132	6	0	32816	32699	32639	32759	32765	32759	32813	32683	
2847	0	3288	5208	3666	6169	7	0	32772	33038	32647	32767	32789	32759	32739	32671	
2848	0	3264	5252	3654	6181	8	0	32775	32887	32799	32699	32819	32668	32820	32731	
2849	0	3218	5225	3626	6188	9	0	32797	32943	32786	32807	32738	32804	32748	32711	
2850	0	3245	5249	3653	6128	10	0	32773	32910	32797	32813	32691	32677	32647	32738	
2851	0	3266	5222	3616	6163	11	0	32800	32793	32935	32967	32727	32855	32673	32735	
2852	0	3243	5201	3664	6164	12	0	32886	32935	33125	33255	32794	32725	32739	32711	
2853	0	3298	5260	3659	6183	13	0	32935	32663	33227	33122	32747	32871	32644	32791	
2854	0	3261	5211	3657	6156	14	0	32863	32923	33143	32855	32797	32775	32717	32775	
2855	0	3266	5177	3659	6149	15	0	32827	32867	33069	32775	32739	32855	32783	32741	
2856	0	3309	5226	3711	6131	16	0	32745	32979	33043	32695	32775	32759	32711	32759	
2857	0	3290	5174	3652	6151	17	0	32709	33191	32877	32573	32771	32887	32765	32820	
2858	0	3258	5238	3670	6095	18	0	32758	33399	32690	32583	32807	32916	32807	32814	
2859	0	3301	5233	3620	6133	19	0	32681	33223	32639	32637	32767	32751	32669	32775	
2860	0	3275	5212	3658	6148	20	0	32708	33011	32467	32607	32738	32775	32679	32855	
2861	0	3316	5255	3600	6139	21	0	32541	32759	32327	32711	32770	32775	32607	32807	
2862	0	3289	5252	3716	6148	22	0	32525	32463	32391	32659	32711	32743	32756	32867	
2863	0	3266	5265	3656	6181	23	0	32635	32222	32367	32767	32577	32815	32811	32818	
2864	0	3259	5260	3610	6123	24	0	32767	31799	32403	32749	32541	32663	32746	32738	
2865	0	3262	5236	3630	6109	25	0	32782	31775	32445	32723	32496	32743	32795	32782	
2866	0	3291	5202	3652	6146	26	0	32829	31804	32623	32647	32583	32743	32807	32791	
2867	0	3233	5228	3651	6146	27	0	32839	32516	32719	32582	32724	32799	32647	32765	
2868	0	3320	5264	3619	6124	28	0	32800	32975	32798	32470	32720	32807	32763	32791	
2869	0	3286	5254	3660	6134	29	0	32807	33199	32799	32470	32742	32810	32694	32775	
2870	0	3300	5216	3641	6128	30	0	32858	33095	33231	32483	32727	32875	32689	32805	
2871	0	3278	5246	3650	6122	31	0	32785	33038	33351	32551	32731	32775	32831	32791	
2872	0	3264	5234	3634	6126	32	0	32662	32902	32938	32687	32732	32819	32608	32733	
2873	0	3313	5270	3644	6139	33	0	32541	32879	32631	32911	32772	32726	32671	32623	
2874	0	3261	5232	3628	6114	34	0	32604	32701	32371	32879	32718	32799	32803	32703	
2875	0	3301	5241	3645	6116	35	0	32668	32803	32237	33037	32738	32767	32574	32791	
2876	0	3300	5194	3617	6087	36	0	32713	32862	32355	33053	32795	32763	32658	32747	
2877	0	3270	5229	3620	6119	37	0	32775	32926	32349	32942	32775	32879	32699	32703	
2878	0	3299	5202	3585	6116	38	0	32879	32851	32475	32939	32751	32739	32615	32775	
2879	0	3293	5252	3635	6146	39	0	33062	32971	32815	33007	32661	32805	32578	32843	
2880	0	3297	5240	3614	6121	40	0	33057	32995	33009	33103	32703	32787	32663	32738	
2881	0	3275	5249	3669	6166	41	0	32988	32935	32927	33142	32683	32755	32743	32698	
2882	0	3302	5190	3652	6117	42	0	32923	32892	32991	33127	32639	32798	32762	32791	
2883	0	3288	5240	3617	6155	43	0	32793	32725	32705	33053	32635	32783	32631	32804	
2884	0	3286	5241	3638	6115	44	0	32620	32849	32386	33082	32647	32845	32753	32791	
2885	0	3314	5237	3598	6083	45	0	32525	33043	32215	32998	32636	32859	32685	32775	
2886	0	3270	5213	3624	6105	46	0	32516	32721	32322	32855	32655	32733	32837	32767	
2887	0	3272	5249	3625	6110	47	0	32602	32975	32385	32827	32512	32757	32799	32709	
2888	0	3337	5220	3622	6079	48	0	32704	32655	32706	32670	32569	32742	32679	32743	
2889	0	3240	5221	3617	6120	49	0	32835	32979	33021	32653	32583	32839	32818	32767	
2890	0	3274	5246	3606	6141	50	0	32761	32743	32983	32605	32624	32735	32838	32727	
2891	0	3305	5225	3627	6112	51	0	32772	33011	32897	32607	32603	32791	32723	32733	
2892	0	3288	5236	3593	6120	52	0	32861	32669	32999	32813	32713	32739	32751	32807	
2893	0	3288	5257	3602	6096	53	0	32845	32772	33031	32733	32727	32790	32713	32730	
2894	0	3323	5210	3624	6092	54	0	32858	32455	33125	32581	32761	32871	32787	32685	
2895	0	3271	5213	3614	6132	55	0	32781	32658	32927	32539	32701	32751	32711	32710	
2896	0	3300	5232	3618	6129	56	0	32795	32633	32831	32471	32692	32877	32607	32775	
2897	0	3292	5214	3596	6154	57	0	32804	32788	32750	32492	32679	32743	32754	32821	
2898	0	3295	5210	3605	6125	58	0	32682	32647	32567	32366	32663	32858	32733	32827	
2899	0	3315	5234	3601	6121	59	0	32689	32543	32507	32353	32782	32714	32685	32755	
2900	0	3277	5179	3593	6143	60	0	32772	32619	32401	32443	32759	32839	32687	32723	
2901	0	3284	5238	3589	6095	61	0	32799	32543	32566	32617	32790	32742	32796	32719	
2902	0	3308	5187	3636	6100	62	0	32759	32332	32676	32635	32747	32762	32638	32687	
2903	0	3273	5224	3612	6119	63	0	32745	32343	32671	32479	32663	32818	32711	32727	
2904	0	3278	5185	3590	6137	64	0	32757	32302	32637	32575	32679	32700	32644	32775	
2905	0	3293	5224	3586	6092	65	0	32663	32767	32567	32765	32775	32773	32775	32797	
2906	0	3294	5224	3613	6130	66	0	32716	32947	32739	32738	32775	32733	32668	32845	
2907	0	3262	5193	3604	6118	67	0	32724	33059	32749	32843	32707	32742	32687	32774	
2908	0	3277	5201	3597	6119	68	0	32772	32855	32662	33029	32643	32708	32647	32818	
2909	0	3270	5214	3618	6121	69	0	32724	33077	32647	33055	32647	32749	32615	32827	
2910	0	3287	5238	3586	6102	70	0	32647	32899	32647	33021	32711	32711	32901	32723	
2911	0	3284	5192	3585	6086	71	0	32775	32947	32710	33007	32711	32801	32713	32734	
2912	0	3276	5220	3607	6108	72	0	32888	32669	32739	33044	32723	32844	32732	32834	
2913	0	3315	5202	3683	6098	73	0	32871	32805	32705	32975	32686	32741	32817	32860	
2914	0	3318	5221	3587	6114	74	0	32793	32707	32647	32877	32791	32814	32694	32733	
2915	0	3269	5195	3618	6054	75	0	32710	32851	32763	32875	32738	32740	32686	32735	
2916	0	3293	5223	3614	6141	76	0	32765	32857	32883	32717	32854	32751	32711	32791	
2917	0	3294	5234	3586	6124	77	0	32690	32955	33028	32595	32831	32661	32647	32810	
2918	0	3291	5221	3602	6128	78	0	32786	32811	33055	32587	32853	32698	32773	32775	
2919	0	3298	5193	3588	6148	79	0	32733	32948	33110	32806	32814	32721	32669	32706	
2920	0	3310	5184	3592	6114	80	0	32742	32850	33003	32751	32823	32751	32695	32711	
2921	0	3276	5216	3602	6130	81	0	32668	32771	32754	32705	32789	32781	32805	32775	
2922	0	3313	5224	3563	6124	82	0	32732	32821	32783	32757	32733	32859	32647	32731	
2923	0	3291	5253	3618	6122	83	0	32838	32722	32722	32693	32707	32861	32691	32705	
2924	0	3294	5267	3580	6110	84	0	32930	32789	32663	32549	32718	32893	32670	32847	
2925	0	3291	5225	3573	6132	85	0	32870	32690	32746	32477	32730	32723	32783	32722	
2926	0	3309	5233	3606	6151	86	0	32834	32740	32789	32507	32773	32786	32751	32740	
2927	0	3296	5210	3640	6105	87	0	32937	32372	32763	32519	32671	32839	32553	32819	
2928	0	3306	5189	3581	6090	88	0	32972	32589	32663	32791	32687	32815	32663	32839	
2929	0	3309	5220	3600	6115	89	0	32884	32519	32594	32943	32640	32923	32667	32823	
2930	0	3287	5237	3599	6163	90	0	32802	32623	32495	32881	32724	32791	32599	32855	
2931	0	3283	5186	3596	6117	91	0	32782	32732	32455	32847	32833	32786	32807	32789	
2932	0	3317	5170	3587	6116	92	0	32570	32743	32295	32775	32647	32759	32719	32727	
2933	0	3312	5206	3601	6142	93	0	32578	32843	32261	32838	32637	32806	32756	32743	
2934	0	3282	5193	3593	6162	94	0	32531	32671	32357	32850	32583	32727	32743	32735	
2935	0	3311	5174	3573	6193	95	0	32566	32763	32686	32798	32644	32775	32623	32749	
2936	0	3287	5214	3582	6132	96	0	32594	32687	32966	32839	32703	32767	32703	32751	
2937	0	3284	5219	3608	6128	97	0	32716	32863	33227	32911	32764	32786	32717	32817	
2938	0	3304	5156	3551	6161	98	0	32788	32819	33215	32965	32647	32734	32739	32879	
2939	0	3308	5193	3555	6144	99	0	32791	32695	33065	32686	32755	32761	32567	32775	
2940	0	3264	5214	3570	6176	100	0	32718	32785	32923	32553	32745	32742	32738	32815	
2941	0	3309	5170	3590	6140	101	0	32799	32773	32839	32534	32805	32603	32729	32759	
2942	0	3283	5218	3602	6146	102	0	32850	32895	32463	32621	32703	32769	32839	32727	
2943	0	3287	5190	3577	6180	103	0	32820	32934	32291	32615	32698	32621	32841	32751	
2944	0	3285	5201	3570	6184	104	0	32711	32995	32127	32634	32615	32723	32699	32711	
2945	0	3330	5187	3613	6181	105	0	32620	32799	32087	32529	32503	32743	32799	32787	
2946	0	3282	5178	3623	6162	106	0	32575	32962	32076	32674	32468	32833	32718	32783	
2947	0	3284	5226	3563	6200	107	0	32647	32671	32233	32890	32605	32846	32479	32956	
2948	0	3338	5164	3596	6198	108	0	32644	32837	32434	32927	32621	32911	32695	32790	
2949	0	3277	5174	3586	6203	109	0	32685	32551	32484	32950	32623	32877	32666	32728	
2950	0	3300	5219	3549	6168	110	0	32730	32757	32711	32931	32682	32743	32691	32743	
2951	0	3346	5154	3566	6132	111	0	32764	32519	32823	32887	32743	32815	32765	32647	
2952	0	3299	5170	3610	6204	112	0	32767	32823	32925	32882	32791	32775	32749	32707	
2953	0	3367	5176	3623	6224	113	0	32756	32621	32892	32933	32746	32823	32626	32767	
2954	0	3302	5186	3590	6163	114	0	32757	32887	32998	32819	32686	32786	32717	32661	
2955	0	3303	5207	3547	6192	115	0	32726	32535	33049	32767	32743	32791	32687	32695	
2956	0	3322	5188	3599	6172	116	0	32841	32775	33082	32671	32601	32813	32695	32742	
2957	0	3333	5179	3577	6162	117	0	32953	32689	33342	32535	32588	32735	32765	32687	
2958	0	3320	5202	3556	6200	118	0	33049	32803	33551	32479	32582	32713	32695	32636	
2959	0	3346	5225	3587	6141	119	0	33077	32575	33551	32503	32514	32751	32839	32578	
2960	0	3335	5156	3584	6144	120	0	33035	32972	33415	32613	32525	32775	32827	32631	
2961	0	3317	5130	3617	6211	121	0	32866	32543	32955	32620	32519	32739	32669	32701	
2962	0	3295	5194	3555	6179	122	0	32807	32569	32669	32477	32543	32804	32729	32773	
2963	0	3334	5202	3604	6178	123	0	32716	32442	32467	32579	32671	32727	32647	32877	
2964	0	3329	5194	3562	6183	124	0	32608	32887	32231	32759	32850	32719	32783	32883	
2965	0	3357	5164	3577	6188	125	0	32653	32673	32098	32753	32734	32804	32731	32927	
2966	0	3361	5190	3574	6190	126	0	32715	32887	32111	32797	32687	32679	32500	33001	
2967	0	3313	5173	3596	6186	127	0	32722	32519	32499	32669	32727	32814	32698	32948	
2968	0	3303	5187	3532	6164	128	0	32646	32751	32679	32661	32806	32783	32682	32832	
2969	0	3321	5146	3584	6189	129	0	32583	32727	32884	32932	32727	32687	32796	32902	
2970	0	3353	5160	3567	6178	130	0	32647	32941	32999	33007	32722	32726	32698	32862	
2971	0	3281	5214	3590	6200	131	0	32655	32891	32871	33098	32751	32735	32820	32749	
2972	0	3339	5159	3579	6238	132	0	32626	33039	32767	33087	32669	32807	32826	32743	
2973	0	3329	5145	3598	6154	133	0	32436	32877	32710	33060	32815	32839	32647	32807	
2974	0	3300	5154	3600	6214	134	0	32551	32807	32479	32791	32723	32739	32805	32759	
2975	0	3346	5168	3596	6212	135	0	32753	32516	32433	32692	32543	32868	32685	32748	
2976	0	3334	5167	3548	6196	136	0	32887	32721	32423	32647	32404	32775	32677	32829	
2977	0	3296	5170	3578	6219	137	0	32897	32475	32411	32773	32691	32871	32503	32837	
2978	0	3328	5167	3597	6180	138	0	32940	32583	32402	32717	32692	32775	32711	32748	
2979	0	3297	5179	3560	6219	139	0	32892	32578	32370	32795	32797	32791	32863	32575	
2980	0	3294	5167	3567	6196	140	0	32824	32583	32449	32862	32794	32722	32790	32702	
2981	0	3307	5119	3556	6132	141	0	32917	32821	32595	32775	32662	32763	32809	32717	
2982	0	3299	5202	3572	6238	142	0	32886	32855	32661	32631	32589	32735	32839	32603	
2983	0	3314	5159	3547	6210	143	0	32836	32993	32628	32582	32661	32763	32679	32711	
2984	0	3336	5174	3588	6224	144	0	32854	32867	32889	32647	32655	32743	32582	32786	
2985	0	3292	5134	3596	6226	145	0	32966	32863	33052	32635	32702	32852	32762	32813	
2986	0	3284	5164	3597	6200	146	0	32902	32631	33148	32703	32705	32773	32803	32766	
2987	0	3328	5181	3599	6230	147	0	32931	32767	33159	32903	32709	32717	32759	32775	
2988	0	3349	5185	3529	6170	148	0	32965	32607	33185	32983	32785	32804	32775	32865	
2989	0	3315	5176	3592	6227	149	0	32895	32751	33077	33062	32759	32844	32679	32775	
2990	0	3312	5150	3573	6179	150	0	32787	32797	33042	33173	32759	32695	32719	32732	
2991	0	3300	5149	3593	6242	151	0	32783	32799	33043	33189	32685	32767	32755	32775	
2992	0	3305	5119	3588	6239	152	0	32847	32669	32775	33133	32601	32729	32695	32636	
2993	0	3308	5139	3550	6198	153	0	32686	32874	32577	32925	32807	32775	32703	32813	
2994	0	3309	5162	3603	6181	154	0	32508	32865	32647	32903	32831	32797	32765	32834	
2995	0	3332	5163	3565	6202	155	0	32505	33061	32684	32943	32735	32721	32751	32837	
2996	0	3322	5164	3577	6206	156	0	32566	32754	32679	32757	32735	32697	32775	32719	
2997	0	3303	5168	3570	6179	157	0	32540	32756	32615	32525	32764	32631	32765	32775	
2998	0	3283	5178	3587	6216	158	0	32580	32611	32605	32450	32850	32671	32647	32825	
2999	0	3322	5147	3570	6223	159	0	32576	32732	32583	32239	32757	32681	32551	32775	
3000	0	3329	5160	3533	6240	160	0	32623	32551	32763	32200	32743	32676	32751	32743	
3001	0	3312	5144	3544	6239	161	0	32754	32743	32878	32162	32641	32679	32679	32723	
3002	0	3314	5188	3570	6193	162	0	32824	32567	32884	32285	32559	32829	32633	32783	
3003	0	3316	5186	3564	6212	163	0	32902	32725	32935	32378	32591	32759	32766	32843	
3004	0	3318	5155	3533	6246	164	0	32807	32493	32813	32663	32599	32671	32671	32745	
3005	0	3368	5193	3577	6222	165	0	32898	32640	32807	32885	32595	32767	32795	32679	
3006	0	3318	5160	3578	6230	166	0	32879	32475	32747	32791	32666	32844	32821	32647	
3007	0	3300	5163	3540	6213	167	0	32832	32719	32549	32783	32613	32703	32831	32715	
3008	0	3330	5171	3562	6220	168	0	32790	32556	32403	32775	32755	32791	32751	32667	
3009	0	3281	5165	3558	6192	169	0	32753	32839	32407	32903	32763	32839	32708	32675	
3010	0	3300	5140	3555	6227	170	0	32772	32655	32367	32877	32786	32709	32794	32709	
3011	0	3310	5160	3584	6232	171	0	32829	32903	32677	32967	32711	32791	32725	32695	
3012	0	3318	5153	3542	6224	172	0	32877	32743	32775	32951	32727	32723	32599	32775	
3013	0	3321	5132	3570	6255	173	0	32788	32731	32903	32806	32724	32871	32775	32870	
3014	0	3336	5127	3537	6253	174	0	32751	32806	32711	32808	32679	32789	32743	32763	
3015	0	3317	5137	3585	6264	175	0	32799	32671	32833	32809	32662	32855	32675	32731	
3016	0	3329	5126	3533	6232	176	0	32793	32837	32775	32933	32627	32818	32771	32773	
3017	0	3298	5147	3502	6212	177	0	32743	32677	32583	32887	32657	32679	32771	32694	
3018	0	3317	5135	3596	6221	178	0	32627	32829	32562	32877	32613	32759	32655	32758	
3019	0	3321	5141	3530	6268	179	0	32647	32598	32493	32965	32439	32731	32807	32796	
3020	0	3324	5164	3549	6213	180	0	32698	32863	32535	32886	32509	32847	32647	32825	
3021	0	3297	5218	3580	6226	181	0	32802	32679	32557	32775	32709	32803	32643	32903	
3022	0	3308	5162	3616	6273	182	0	32878	32873	32658	32879	32739	32775	32727	32743	
3023	0	3356	5148	3590	6234	183	0	32900	32690	32695	32701	32710	32807	32743	32775	
3024	0	3310	5123	3562	6236	184	0	32928	32841	32743	32410	32735	32743	32639	32803	
3025	0	3281	5165	3539	6275	185	0	32859	32893	32745	32471	32742	32719	32571	32759	
3026	0	3320	5116	3539	6266	186	0	32841	32883	32771	32518	32647	32748	32803	32831	
3027	0	3344	5116	3556	6252	187	0	32819	32981	32816	32502	32748	32805	32823	32717	
3028	0	3320	5082	3575	6262	188	0	32915	32711	32807	32645	32825	32695	32662	32829	
3029	0	3337	5156	3509	6239	189	0	32851	32783	32919	32643	32735	32790	32743	32706	
3030	0	3300	5117	3568	6256	190	0	32764	32647	33141	32817	32702	32711	32703	32743	
3031	0	3311	5175	3547	6234	191	0	32781	32647	33210	32911	32775	32749	32629	32765	
3032	0	3318	5135	3501	6252	192	0	32773	32662	33077	33065	32719	32767	32710	32715	
3033	0	3300	5134	3518	6272	193	0	32807	32677	32847	32999	32679	32775	32677	32847	
3034	0	3361	5142	3532	6273	194	0	32631	32775	32799	32903	32595	32866	32540	32797	
3035	0	3336	5121	3549	6300	195	0	32599	32804	32647	32883	32553	32770	32726	32839	
3036	0	3290	5128	3537	6284	196	0	32666	32769	32425	32743	32610	32807	32807	32832	
3037	0	3341	5114	3532	6302	197	0	32725	32958	32471	32727	32705	32845	32774	32791	
3038	0	3348	5130	3547	6305	198	0	32646	32943	32534	32850	32698	32786	32735	32773	
3039	0	3306	5113	3584	6303	199	0	32658	32795	32548	32729	32581	32747	32703	32725	
3040	0	3300	5080	3506	6313	200	0	32676	32891	32462	32861	32681	32791	32638	32772	
3041	0	3344	5195	3601	6265	201	0	32671	32597	32247	32839	32743	32690	32615	32803	
3042	0	3344	5175	3572	6288	202	0	32715	32741	32372	32895	32567	32787	32723	32727	
3043	0	3352	5080	3514	6330	203	0	32738	32511	32407	32742	32510	32843	32762	32719	
3044	0	3338	5100	3510	6322	204	0	32764	32743	32599	32595	32679	32844	32643	32717	
3045	0	3330	5108	3577	6286	205	0	32761	32687	32897	32551	32721	32834	32795	32719	
3046	0	3337	5088	3545	6304	206	0	32723	32741	33015	32485	32687	32783	32669	32804	
3047	0	3302	5116	3573	6318	207	0	32665	32742	32898	32455	32711	32775	32535	32791	
3048	0	3356	5094	3584	6264	208	0	32598	32893	32715	32527	32715	32751	32727	32743	
3049	0	3298	5083	3537	6316	209	0	32603	32983	32551	32775	32767	32690	32690	32738	
3050	0	3328	5088	3565	6320	210	0	32611	33119	32806	32861	32791	32748	32609	32727	
3051	0	3364	5108	3522	6304	211	0	32681	33143	32870	32967	32749	32705	32723	32791	
3052	0	3346	5089	3534	6316	212	0	32815	33027	32743	33006	32711	32822	32647	32862	
3053	0	3364	5071	3510	6326	213	0	32727	32510	32705	32949	32647	32767	32685	32871	
3054	0	3314	5120	3524	6324	214	0	32812	32423	32607	32715	32669	32831	32570	32764	
3055	0	3334	5112	3544	6321	215	0	32850	32327	32775	32591	32732	32795	32660	32706	
3056	0	3296	5112	3516	6355	216	0	32929	32567	32721	32639	32730	32813	32609	32794	
3057	0	3347	5123	3532	6317	217	0	32939	32647	32823	32730	32737	32867	32687	32769	
3058	0	3367	5114	3510	6334	218	0	32877	32949	33027	32925	32751	32743	32711	32678	
3059	0	3305	5057	3499	6359	219	0	32884	32993	32863	33076	32717	32797	32695	32679	
3060	0	3332	5061	3497	6345	220	0	32793	32823	32877	33044	32723	32789	32743	32743	
3061	0	3327	5089	3544	6374	221	0	32727	33011	32700	32919	32807	32711	32679	32742	
3062	0	3357	5136	3534	6292	222	0	32635	32671	32331	32823	32743	32647	32799	32605	
3063	0	3333	5065	3542	6353	223	0	32765	32716	32397	32871	32775	32745	32814	32548	
3064	0	3336	5073	3589	6349	224	0	32638	32683	32429	32583	32670	32803	32832	32762	
3065	0	3352	5134	3530	6361	225	0	32583	32956	32751	32383	32524	32848	32682	32838	
3066	0	3358	5060	3573	6368	226	0	32654	33295	32939	32343	32503	32655	32770	32903	
3067	0	3316	5077	3478	6330	227	0	32703	33087	32867	32311	32562	32733	32719	32847	
3068	0	3316	5040	3528	6372	228	0	32716	32980	32841	32407	32559	32799	32677	32885	
3069	0	3368	5066	3548	6365	229	0	32742	32895	32820	32603	32595	32703	32740	32862	
3070	0	3325	5122	3533	6386	230	0	32682	32587	32695	32751	32623	32813	32761	32863	
3071	0	3353	5082	3556	6361	231	0	32823	32193	32855	32783	32647	32832	32747	32843	
3072	0	3337	5059	3536	6341	232	0	32903	31941	32903	32769	32811	32751	32775	32967	
3073	0	3374	5074	3573	6333	233	0	32987	32019	32963	32855	32745	32775	32659	32879	
3074	0	3390	5077	3576	6396	234	0	33030	32399	32916	32811	32711	32807	32756	32850	
3075	0	3373	5061	3510	6352	235	0	32852	32611	32839	32662	32631	32785	32613	32875	
3076	0	3337	5061	3548	6371	236	0	32766	32891	32658	32590	32663	32801	32599	32887	
3077	0	3366	5052	3512	6365	237	0	32738	32662	32557	32679	32551	32838	32583	32727	
3078	0	3315	5090	3534	6393	238	0	32639	32943	32463	32681	32615	32799	32701	32637	
3079	0	3353	5061	3536	6378	239	0	32636	32835	32543	32820	32668	32749	32677	32647	
3080	0	3334	5082	3527	6411	240	0	32708	33030	32455	32911	32679	32793	32751	32682	
3081	0	3339	5082	3558	6376	241	0	32700	32859	32767	32903	32795	32706	32719	32540	
3082	0	3366	5100	3549	6398	242	0	32761	33055	33099	33131	32815	32771	32703	32631	
3083	0	3348	5053	3569	6404	243	0	32839	32675	33133	33054	32770	32819	32844	32731	
3084	0	3378	5084	3506	6420	244	0	32911	32775	33211	32839	32699	32683	32759	32674	
3085	0	3340	5044	3527	6418	245	0	32924	32327	33159	32719	32723	32719	32727	32617	
3086	0	3333	5057	3532	6421	246	0	32845	32559	33117	32685	32665	32839	32820	32701	
3087	0	3361	5074	3584	6412	247	0	32765	32599	32788	32683	32647	32737	32720	32727	
3088	0	3327	5068	3567	6387	248	0	32674	32727	32381	32831	32759	32786	32711	32835	
3089	0	3362	5084	3526	6403	249	0	32607	32903	32347	32839	32775	32759	32755	32719	
3090	0	3350	5028	3520	6430	250	0	32647	32783	32323	32799	32826	32773	32681	32693	
3091	0	3265	5035	3527	6406	251	0	32565	32918	32327	32734	32679	32811	32727	32759	
3092	0	3322	5026	3579	6356	252	0	32613	32743	32310	32815	32510	32725	32757	32669	
3093	0	3337	5087	3500	6426	253	0	32669	32935	32431	32831	32438	32791	32615	32715	
3094	0	3361	5041	3512	6412	254	0	32805	32830	32605	32823	32505	32759	32749	32775	
3095	0	3346	5098	3545	6406	255	0	32809	33007	32887	32882	32543	32807	32615	32807	
3096	0	3334	5052	3526	6405	256	0	32876	32806	32959	32746	32423	32857	32742	32709	
3097	0	3319	5065	3570	6388	257	0	32900	32858	32735	32701	32557	32829	32801	32771	
3098	0	3324	5020	3548	6419	258	0	32855	32667	32719	32662	32643	32812	32579	32855	
3099	0	3308	5046	3556	6408	259	0	32751	32875	32807	32429	32791	32876	32725	32741	
3100	0	3342	5069	3523	6390	260	0	32706	32725	32735	32429	32795	32707	32812	32756	
3101	0	3337	5062	3538	6419	261	0	32679	32865	32647	32683	32787	32666	32693	32727	
3102	0	3321	5016	3583	6390	262	0	32644	32719	32455	32767	32753	32767	32771	32771	
3103	0	3314	5036	3533	6453	263	0	32677	32703	32391	32982	32773	32674	32702	32817	
3104	0	3351	5032	3529	6427	264	0	32841	32775	32379	32963	32676	32854	32659	32831	
3105	0	3308	5039	3560	6444	265	0	32802	32761	32347	32775	32683	32863	32805	32849	
3106	0	3296	5040	3530	6402	266	0	32723	32815	32409	32770	32679	32687	32699	32887	
3107	0	3333	5067	3484	6470	267	0	32600	32813	32455	32636	32563	32795	32735	32933	
3108	0	3305	5040	3531	6358	268	0	32584	32879	32500	32543	32593	32799	32803	32873	
3109	0	3308	5027	3561	6416	269	0	32647	32775	32743	32588	32655	32741	32610	32879	
3110	0	3342	5020	3530	6425	270	0	32736	32723	32647	32699	32839	32762	32747	32759	
3111	0	3300	5042	3573	6407	271	0	32874	32445	32759	32647	32806	32763	32707	32756	
3112	0	3276	5030	3498	6435	272	0	32910	32675	32751	32471	32783	32743	32609	32814	
3113	0	3293	5047	3559	6421	273	0	32899	32604	32898	32594	32743	32855	32703	32690	
3114	0	3300	5044	3528	6396	274	0	32841	32695	33077	32590	32759	32703	32738	32719	
3115	0	3335	5016	3506	6419	275	0	32867	32887	33122	32829	32749	32823	32773	32655	
3116	0	3348	5048	3531	6408	276	0	32861	32751	33130	32969	32599	32710	32564	32698	
3117	0	3279	5017	3549	6417	277	0	32796	32951	32990	32871	32534	32701	32719	32773	
3118	0	3285	4992	3575	6400	278	0	32767	32855	33003	32871	32551	32811	32762	32871	
3119	0	3295	5016	3524	6400	279	0	32729	32765	32839	33087	32745	32783	32647	32825	
3120	0	3307	5010	3498	6411	280	0	32724	32751	32763	32975	32743	32827	32745	32711	
3121	0	3336	5055	3549	6441	281	0	32844	32858	32865	33017	32663	32733	32698	32711	
3122	0	3321	5021	3511	6422	282	0	32844	32799	33099	32879	32663	32834	32576	32804	
3123	0	3303	5027	3542	6438	283	0	32855	32597	33087	32887	32764	32745	32711	32799	
3124	0	3320	5044	3523	6413	284	0	32768	32903	32896	32663	32707	32771	32751	32834	
3125	0	3271	5038	3523	6429	285	0	32695	32679	32647	32658	32658	32725	32677	32799	
3126	0	3345	5042	3524	6428	286	0	32647	32949	32647	32687	32647	32721	32809	32785	
3127	0	3309	5049	3534	6422	287	0	32621	32594	32459	32708	32539	32834	32845	32767	
3128	0	3296	5051	3530	6400	288	0	32637	32851	32515	32811	32565	32718	32722	32647	
3129	0	3306	5022	3560	6455	289	0	32624	32775	32711	32903	32588	32863	32749	32703	
3130	0	3320	5009	3576	6432	290	0	32569	32871	32815	32881	32636	32833	32647	32751	
3131	0	3311	5002	3557	6434	291	0	32600	32886	32719	32919	32771	32769	32615	32723	
3132	0	3264	5010	3537	6408	292	0	32643	32571	32525	32859	32759	32836	32702	32791	
3133	0	3302	5004	3532	6419	293	0	32706	32734	32470	32839	32717	32754	32700	32733	
3134	0	3258	5005	3480	6436	294	0	32674	32617	32421	32789	32725	32753	32593	32735	
3135	0	3328	5039	3530	6430	295	0	32742	32853	32430	32695	32733	32854	32723	32845	
3136	0	3286	4984	3508	6471	296	0	32732	32656	32303	32699	32718	32733	32661	32805	
3137	0	3292	5040	3578	6433	297	0	32750	33019	32489	32667	32789	32823	32675	32855	
3138	0	3244	5020	3569	6472	298	0	32865	32879	32547	32511	32719	32741	32748	32827	
3139	0	3274	5026	3538	6425	299	0	32778	32603	32595	32431	32525	32869	32751	32826	
3140	0	3267	5012	3522	6404	300	0	32781	32615	32535	32271	32609	32784	32687	32798	
3141	0	3240	5008	3495	6435	301	0	32775	32382	32463	32391	32751	32895	32590	32811	
3142	0	3220	5028	3493	6393	302	0	32873	32459	32605	32530	32668	32737	32623	32903	
3143	0	3272	5004	3512	6441	303	0	32886	32548	32630	32679	32681	32759	32691	32801	
3144	0	3306	5039	3514	6408	304	0	33038	32647	32807	32745	32903	32679	32731	32687	
3145	0	3248	5044	3489	6413	305	0	33045	32701	32900	32845	32899	32692	32940	32591	
3146	0	3271	5043	3536	6426	306	0	32942	32919	32991	32803	32647	32679	32812	32612	
3147	0	3281	5018	3526	6443	307	0	32940	33003	33093	32852	32623	32660	32647	32706	
3148	0	3226	5040	3505	6414	308	0	32820	32833	33133	32967	32695	32762	32669	32613	
3149	0	3256	5016	3506	6407	309	0	32903	32996	32925	32879	32798	32674	32699	32745	
3150	0	3323	5018	3547	6450	310	0	32887	32729	32748	32919	32725	32771	32677	32865	
3151	0	3315	5002	3526	6456	311	0	32870	32813	32781	32991	32751	32803	32819	32763	
3152	0	3265	5001	3548	6432	312	0	32913	32620	32756	32986	32737	32771	32647	32749	
3153	0	3280	5006	3517	6432	313	0	32791	32591	32915	32823	32668	32892	32708	32735	
3154	0	3256	5012	3545	6452	314	0	32713	32690	33113	32791	32726	32903	32703	32853	
3155	0	3289	5046	3517	6417	315	0	32527	32817	32802	32721	32795	32827	32641	32783	
3156	0	3253	5004	3549	6428	316	0	32404	32763	32747	32693	32726	32749	32681	32803	
3157	0	3268	5014	3497	6424	317	0	32455	32857	32739	32716	32751	32827	32751	32802	
3158	0	3254	4974	3539	6450	318	0	32541	32701	32580	32804	32747	32766	32635	32685	
3159	0	3273	4992	3509	6457	319	0	32586	32931	32444	32993	32669	32884	32745	32783	
3160	0	3295	4982	3543	6460	320	0	32576	32673	32461	32967	32623	32935	32725	32939	
3161	0	3263	4964	3524	6442	321	0	32623	32951	32516	32879	32694	32689	32647	32855	
3162	0	3251	4997	3519	6438	322	0	32719	32638	32429	32951	32647	32769	32698	32799	
3163	0	3265	4970	3502	6492	323	0	32732	32919	32242	32951	32671	32858	32750	32767	
3164	0	3220	5009	3530	6444	324	0	32622	32732	32309	33011	32750	32799	32868	32749	
3165	0	3242	4988	3551	6442	325	0	32615	32775	32377	33001	32786	32756	32695	32711	
3166	0	3235	4928	3486	6451	326	0	32708	32813	32529	32895	32759	32748	32879	32679	
3167	0	3258	4962	3564	6473	327	0	32677	32839	32621	32757	32711	32705	32785	32693	
3168	0	3227	4982	3496	6458	328	0	32653	32918	32686	32773	32804	32747	32829	32725	
3169	0	3254	5016	3582	6429	329	0	32740	32708	32583	32553	32719	32690	32831	32611	
3170	0	3224	5011	3549	6468	330	0	32775	32612	32775	32343	32637	32791	32847	32677	
3171	0	3240	4980	3524	6485	331	0	32868	32643	32795	32047	32626	32743	32671	32751	
3172	0	3223	5016	3563	6449	332	0	32845	32722	32974	32135	32703	32705	32725	32786	
3173	0	3262	4996	3531	6494	333	0	32850	32695	33075	32281	32717	32775	32591	32799	
3174	0	3224	5038	3539	6501	334	0	32900	32822	33067	32499	32695	32738	32622	32786	
3175	0	3225	4989	3562	6451	335	0	32991	32791	33135	32685	32623	32867	32709	32820	
3176	0	3255	4998	3573	6472	336	0	32946	32903	33053	32819	32679	32882	32668	32737	
3177	0	3201	4953	3532	6421	337	0	32879	32775	32893	32865	32832	32822	32753	32795	
3178	0	3245	4981	3516	6478	338	0	32821	32645	32844	32863	32839	32887	32775	32855	
3179	0	3224	4996	3541	6436	339	0	32848	32806	32655	32853	32658	32743	32679	32812	
3180	0	3242	5008	3600	6452	340	0	32859	32679	32631	32979	32551	32823	32677	32807	
3181	0	3241	4952	3582	6450	341	0	32840	32850	32571	32841	32615	32810	32775	32698	
3182	0	3260	4958	3546	6492	342	0	32865	32385	32762	32669	32587	32756	32791	32631	
3183	0	3249	4968	3570	6476	343	0	32855	32599	32821	32615	32690	32850	32884	32759	
3184	0	3242	4987	3536	6452	344	0	32829	32484	32749	32609	32735	32732	32861	32788	
3185	0	3247	4965	3566	6473	345	0	32793	32839	32867	32695	32647	32731	32711	32747	
3186	0	3243	4967	3563	6457	346	0	32742	32647	32903	32844	32615	32793	32755	32799	
3187	0	3228	5003	3570	6502	347	0	32756	32902	32875	32903	32706	32703	32764	32811	
3188	0	3261	4960	3517	6488	348	0	32701	32692	32923	32902	32722	32791	32639	32743	
3189	0	3245	4977	3570	6482	349	0	32684	32847	33012	32895	32676	32732	32677	32806	
3190	0	3274	4964	3557	6450	350	0	32732	32661	32983	32843	32635	32770	32591	32767	
3191	0	3249	4984	3540	6467	351	0	32809	32775	32699	32898	32677	32807	32695	32695	
3192	0	3217	5000	3550	6476	352	0	32769	32647	32574	32879	32695	32782	32687	32743	
3193	0	3194	4972	3553	6466	353	0	32715	32775	32511	32799	32723	32813	32594	32743	
3194	0	3217	4962	3576	6490	354	0	32680	32613	32327	32628	32679	32715	32708	32813	
3195	0	3232	4994	3548	6463	355	0	32690	32843	32310	32667	32631	32799	32756	32795	
3196	0	3234	4988	3583	6470	356	0	32785	32603	32423	32633	32511	32711	32754	32763	
3197	0	3225	4985	3558	6478	357	0	32754	32814	32431	32613	32469	32743	32585	32810	
3198	0	3214	4965	3540	6509	358	0	32716	32605	32476	32565	32515	32783	32660	32791	
3199	0	3268	4992	3573	6466	359	0	32660	32911	32615	32711	32591	32775	32711	32807	
3200	0	3234	5002	3514	6502	360	0	32799	32668	32807	32769	32746	32714	32583	32858	
3201	0	3216	5001	3563	6484	361	0	32899	32807	32786	32890	32756	32775	32599	32791	
3202	0	3268	4983	3590	6511	362	0	32823	32517	32647	32899	32670	32813	32535	32879	
3203	0	3271	4984	3544	6480	363	0	32720	32767	32527	32919	32658	32846	32642	32875	
3204	0	3188	4968	3531	6456	364	0	32529	32647	32183	32815	32703	32701	32695	32775	
3205	0	3222	4989	3547	6485	365	0	32597	32903	32156	32819	32677	32803	32631	32709	
3206	0	3228	4990	3576	6477	366	0	32557	32665	32357	32859	32807	32761	32809	32871	
3207	0	3222	5020	3596	6500	367	0	32573	32949	32723	32851	32743	32823	32815	32763	
3208	0	3189	5028	3552	6474	368	0	32657	32803	33181	32548	32715	32826	32727	32722	
3209	0	3224	4974	3564	6497	369	0	32706	32863	33308	32647	32727	32677	32793	32743	
3210	0	3255	4973	3602	6478	370	0	32806	32759	33471	32718	32661	32739	32762	32693	
3211	0	3248	4980	3595	6473	371	0	32893	32895	33285	32945	32711	32722	32715	32758	
3212	0	3223	4985	3611	6468	372	0	32908	32638	33007	32919	32711	32711	32807	32647	
3213	0	3210	5016	3557	6482	373	0	32925	32902	32895	32935	32735	32807	32763	32626	
3214	0	3220	4948	3538	6490	374	0	32774	32637	32738	32910	32755	32787	32775	32727	
3215	0	3221	4968	3595	6531	375	0	32773	32823	32589	32893	32821	32783	32734	32709	
3216	0	3220	5000	3615	6445	376	0	32760	32591	32614	32874	32773	32823	32795	32702	
3217	0	3239	4961	3598	6504	377	0	32718	32927	32607	32791	32770	32725	32745	32767	
3218	0	3209	5046	3573	6499	378	0	32761	32688	32485	32719	32815	32851	32647	32812	
3219	0	3221	4994	3591	6500	379	0	32742	32862	32621	32717	32767	32903	32676	32831	
3220	0	3217	4976	3558	6493	380	0	32823	32775	32547	32695	32691	32831	32615	32855	
3221	0	3245	4949	3580	6513	381	0	32911	32879	32644	32632	32623	32795	32681	32847	
3222	0	3202	4996	3620	6508	382	0	32955	32845	32671	32515	32646	32839	32738	32751	
3223	0	3236	4995	3606	6478	383	0	32892	32631	32643	32447	32723	32735	32741	32709	
3224	0	3244	5018	3548	6469	384	0	32876	32607	32799	32399	32641	32755	32639	32674	
3225	0	3246	4998	3538	6455	385	0	32806	32606	32581	32359	32609	32764	32663	32756	
3226	0	3269	5012	3573	6507	386	0	32837	32463	32455	32529	32547	32855	32683	32839	
3227	0	3223	4979	3619	6493	387	0	32721	32574	32385	32799	32487	32727	32589	32881	
3228	0	3228	4992	3580	6487	388	0	32538	32387	32278	32860	32478	32815	32735	32795	
3229	0	3189	4986	3584	6471	389	0	32596	32387	32540	32810	32595	32847	32706	32791	
3230	0	3250	4981	3575	6460	390	0	32583	32247	32759	32815	32557	32727	32855	32818	
3231	0	3216	4996	3572	6489	391	0	32540	32451	32855	32927	32551	32723	32797	32767	
3232	0	3236	4973	3611	6498	392	0	32515	32831	33089	33079	32535	32791	32677	32775	
3233	0	3192	4971	3574	6562	393	0	32655	33023	33123	33167	32556	32831	32738	32734	
3234	0	3178	4936	3605	6499	394	0	32858	33363	33196	33129	32595	32785	32647	32751	
3235	0	3260	4979	3553	6495	395	0	32954	33543	33009	33159	32697	32845	32689	32735	
3236	0	3209	4966	3608	6474	396	0	32847	33250	32943	33074	32709	32828	32647	32713	
3237	0	3220	4981	3578	6481	397	0	32756	33245	32489	33023	32669	32834	32671	32775	
3238	0	3255	4968	3593	6484	398	0	32791	32982	32279	32639	32775	32821	32621	32838	
3239	0	3223	4952	3559	6425	399	0	32809	32775	32389	32367	32809	32838	32731	32879	
3240	0	3215	5028	3576	6453	400	0	32764	32708	32447	32348	32791	32731	32807	32764	
3241	0	3238	4968	3563	6472	401	0	32640	32727	32519	32422	32845	32659	32663	32709	
3242	0	3207	4990	3592	6493	402	0	32674	32723	32507	32535	32839	32815	32758	32762	
3243	0	3217	5002	3639	6508	403	0	32723	32548	32455	32871	32799	32727	32690	32787	
3244	0	3179	4952	3626	6475	404	0	32773	32743	32611	32879	32727	32680	32791	32731	
3245	0	3202	4960	3619	6478	405	0	32844	32727	32740	32859	32823	32807	32690	32763	
3246	0	3226	5045	3637	6464	406	0	32830	32759	32719	32967	32737	32817	32767	32755	
3247	0	3188	5010	3582	6456	407	0	32877	32839	32848	33191	32677	32895	32699	32697	
3248	0	3234	5027	3599	6476	408	0	32855	32543	32979	33039	32647	32859	32699	32697	
3249	0	3216	4987	3588	6482	409	0	32994	32615	33143	32871	32673	32775	32763	32801	
3250	0	3229	4988	3620	6474	410	0	33031	32383	33127	32766	32643	32729	32669	32861	
3251	0	3183	5027	3597	6470	411	0	32997	32427	33017	32567	32662	32775	32731	32789	
3252	0	3247	4963	3649	6513	412	0	32789	32564	32995	32339	32751	32757	32735	32719	
3253	0	3178	4996	3608	6516	413	0	32676	32647	32903	32323	32765	32775	32575	32811	
3254	0	3221	5007	3571	6504	414	0	32670	32799	32815	32373	32748	32847	32703	32789	
3255	0	3230	4998	3546	6447	415	0	32788	32767	32671	32627	32739	32682	32666	32727	
3256	0	3227	4958	3618	6456	416	0	32696	32955	32735	32865	32683	32827	32775	32795	
3257	0	3202	4990	3592	6495	417	0	32729	32699	32605	32773	32731	32807	32707	32733	
3258	0	3214	4969	3576	6492	418	0	32793	32914	32647	32732	32671	32759	32647	32789	
3259	0	3220	4962	3572	6493	419	0	32725	32686	32755	32621	32684	32807	32695	32847	
3260	0	3224	4978	3602	6499	420	0	32799	32806	32687	32711	32751	32803	32663	32861	
3261	0	3204	5020	3586	6515	421	0	32689	32879	32604	32639	32759	32708	32703	32756	
3262	0	3158	4968	3576	6485	422	0	32687	32534	32333	32796	32759	32711	32647	32631	
3263	0	3188	4980	3584	6476	423	0	32634	32775	32126	32671	32726	32733	32839	32687	
3264	0	3196	5010	3603	6510	424	0	32611	32723	32163	32797	32757	32685	32742	32663	
3265	0	3177	4988	3576	6456	425	0	32575	33063	32257	32791	32819	32813	32831	32635	
3266	0	3188	4982	3638	6504	426	0	32594	33113	32437	32903	32679	32803	32697	32671	
3267	0	3213	4966	3579	6466	427	0	32586	32830	32551	32767	32716	32827	32722	32705	
3268	0	3227	5002	3574	6470	428	0	32589	32692	32839	32807	32695	32786	32629	32839	
3269	0	3180	4981	3591	6488	429	0	32696	32563	32911	32826	32679	32742	32751	32874	
3270	0	3233	4976	3642	6482	430	0	32814	32524	33019	32835	32677	32815	32722	32899	
3271	0	3184	4990	3638	6469	431	0	32884	32658	33099	32763	32619	32786	32663	32943	
3272	0	3154	4974	3611	6455	432	0	32871	32659	33055	32693	32702	32803	32747	32797	
3273	0	3252	4978	3593	6517	433	0	32780	32831	32923	32711	32687	32707	32771	32749	
3274	0	3208	4985	3575	6492	434	0	32818	32923	32733	32863	32693	32823	32689	32787	
3275	0	3179	5021	3645	6541	435	0	32786	32991	32695	32751	32683	32819	32735	32767	
3276	0	3181	4989	3600	6532	436	0	32847	32887	32555	32775	32685	32745	32748	32837	
3277	0	3201	5015	3586	6552	437	0	32844	32918	32493	32807	32747	32757	32663	32759	
3278	0	3216	4986	3643	6500	438	0	32713	32727	32653	32852	32762	32871	32754	32824	
3279	0	3192	5022	3613	6498	439	0	32675	32828	32732	32811	32701	32742	32711	32763	
3280	0	3173	5015	3550	6513	440	0	32742	32661	32711	32681	32567	32759	32674	32683	
3281	0	3186	5014	3628	6507	441	0	32794	32820	32709	32775	32671	32767	32727	32767	
3282	0	3218	4958	3594	6496	442	0	32799	32839	32773	32852	32719	32787	32621	32839	
3283	0	3197	4980	3569	6508	443	0	32892	32527	32724	32766	32721	32791	32743	32823	
3284	0	3169	4939	3617	6492	444	0	32971	32671	32890	32695	32761	32773	32631	32647	
3285	0	3158	4990	3614	6524	445	0	32943	32479	33043	32733	32799	32805	32823	32628	
3286	0	3211	4969	3602	6526	446	0	32733	32823	32937	32695	32793	32827	32852	32676	
3287	0	3171	5018	3644	6516	447	0	32673	32735	33015	32647	32673	32839	32620	32683	
3288	0	3212	4952	3632	6518	448	0	32667	32911	32783	32759	32637	32743	32775	32729	
3289	0	3162	4948	3619	6536	449	0	32687	32738	32667	32847	32639	32785	32645	32775	
3290	0	3171	4996	3604	6532	450	0	32630	32875	32511	32903	32677	32709	32621	32717	
3291	0	3206	5011	3603	6478	451	0	32716	32559	32559	32839	32809	32775	32734	32757	
3292	0	3122	4946	3603	6488	452	0	32628	32754	32591	32727	32759	32671	32733	32740	
3293	0	3143	4984	3606	6525	453	0	32631	32467	32643	32811	32700	32775	32705	32775	
3294	0	3176	5012	3608	6505	454	0	32666	32723	32531	32788	32671	32823	32740	32802	
3295	0	3136	4977	3628	6515	455	0	32775	32767	32687	32613	32646	32799	32647	32855	
3296	0	3158	4998	3608	6505	456	0	32844	32669	32903	32647	32498	32715	32709	32915	
3297	0	3177	4988	3621	6525	457	0	32879	32827	32923	32645	32511	32807	32756	32690	
3298	0	3190	5020	3597	6517	458	0	32900	32646	32871	32517	32671	32791	32839	32764	
3299	0	3194	4975	3652	6501	459	0	32881	32757	32933	32439	32605	32687	32695	32811	
3300	0	3186	5009	3654	6513	460	0	32925	32583	32892	32569	32587	32725	32887	32707	
3301	0	3149	4990	3649	6464	461	0	32742	32711	32636	32720	32689	32861	32757	32757	
3302	0	3218	4972	3630	6521	462	0	32791	32658	32530	32821	32631	32715	32626	32761	
3303	0	3170	4985	3662	6456	463	0	32780	32964	32583	32729	32731	32791	32829	32707	
3304	0	3168	4962	3668	6489	464	0	32793	32847	32615	32773	32706	32804	32735	32741	
3305	0	3187	5005	3609	6508	465	0	32751	33095	32543	32775	32734	32771	32767	32740	
3306	0	3136	4960	3618	6504	466	0	32796	32991	32742	32687	32583	32813	32707	32807	
3307	0	3225	5004	3575	6512	467	0	32887	32935	32917	32785	32627	32843	32758	32743	
3308	0	3170	4952	3617	6505	468	0	32961	33001	33437	32621	32688	32663	32879	32669	
3309	0	3169	4949	3640	6522	469	0	32824	32739	33447	32530	32782	32709	32675	32721	
3310	0	3156	4974	3618	6556	470	0	32700	32543	33153	32675	32773	32659	32775	32717	
3311	0	3148	4976	3608	6509	471	0	32644	32499	32884	32703	32754	32722	32810	32745	
3312	0	3093	4993	3640	6523	472	0	32553	32375	32815	32822	32721	32676	32672	32807	
3313	0	3187	4984	3634	6525	473	0	32538	32711	32590	32945	32717	32700	32735	32762	
3314	0	3155	4969	3638	6526	474	0	32576	32669	32303	33029	32703	32839	32671	32813	
3315	0	3155	4963	3671	6498	475	0	32590	32819	32007	33215	32775	32890	32574	32807	
3316	0	3156	4970	3704	6494	476	0	32489	32691	31981	33095	32784	32877	32641	32911	
3317	0	3175	4968	3633	6512	477	0	32563	32647	31935	33030	32732	32943	32562	32903	
3318	0	3140	4961	3657	6499	478	0	32604	32434	31983	32923	32655	32791	32606	32891	
3319	0	3160	4989	3639	6493	479	0	32662	32534	32041	32845	32588	32775	32631	32903	
3320	0	3145	4984	3647	6508	480	0	32733	32575	32103	32903	32719	32815	32551	32931	
3321	0	3140	4979	3660	6468	481	0	32784	32818	32309	32767	32573	32738	32679	32781	
3322	0	3118	4979	3625	6520	482	0	32716	32605	32503	32759	32578	32703	32690	32813	
3323	0	3154	4940	3629	6532	483	0	32681	32838	32647	32895	32551	32775	32574	32735	
3324	0	3167	4964	3627	6480	484	0	32742	32685	32775	32775	32594	32807	32643	32724	
3325	0	3168	5008	3670	6514	485	0	32807	32939	33025	32767	32628	32831	32615	32795	
3326	0	3143	4989	3638	6518	486	0	32831	33119	32903	32851	32757	32757	32759	32731	
3327	0	3133	5020	3630	6501	487	0	32900	33171	32879	32765	32786	32789	32807	32701	
3328	0	3173	4967	3627	6516	488	0	32921	32845	33101	32669	32756	32715	32759	32692	
3329	0	3160	4926	3661	6500	489	0	32970	32887	33295	32438	32740	32671	32756	32669	
3330	0	3128	5003	3645	6477	490	0	32877	32903	33367	32483	32751	32663	32721	32671	
3331	0	3108	4996	3652	6484	491	0	32874	33095	33359	32495	32702	32775	32775	32727	
3332	0	3160	4969	3670	6474	492	0	32964	32895	33159	32485	32719	32751	32587	32795	
3333	0	3125	4944	3640	6484	493	0	32886	32775	32966	32739	32723	32822	32599	32802	
3334	0	3140	4961	3691	6490	494	0	32833	32623	32833	32852	32759	32865	32702	32858	
3335	0	3121	5001	3652	6530	495	0	32804	32449	32747	32899	32798	32871	32660	32775	
3336	0	3163	4987	3656	6500	496	0	32791	32476	32709	32725	32722	32859	32749	32687	
3337	0	3154	4971	3643	6511	497	0	32728	32467	32461	32719	32623	32743	32830	32714	
3338	0	3123	4964	3716	6526	498	0	32660	32819	32215	32796	32639	32745	32839	32623	
3339	0	3155	4977	3702	6508	499	0	32700	32837	32347	32847	32727	32833	32719	32643	
3340	0	3168	4952	3690	6570	500	0	32696	32755	32391	32788	32707	32903	32798	32621	
3341	0	3122	4948	3684	6525	501	0	32758	32821	32383	32941	32663	32797	32802	32655	
3342	0	3151	4960	3685	6544	502	0	32762	32671	32258	32823	32736	32748	32687	32799	
3343	0	3139	4971	3668	6478	503	0	32799	32830	32439	32850	32691	32723	32757	32759	
3344	0	3136	4963	3646	6496	504	0	32759	32739	32647	32903	32703	32813	32645	32775	
3345	0	3147	4963	3685	6534	505	0	32751	32885	32786	32895	32722	32783	32743	32794	
3346	0	3113	4936	3648	6529	506	0	32727	32685	33072	32823	32577	32774	32745	32757	
3347	0	3120	4963	3666	6499	507	0	32760	32591	33351	32735	32501	32807	32673	32726	
3348	0	3115	4959	3679	6527	508	0	32796	32786	33335	32554	32615	32836	32751	32855	
3349	0	3130	4919	3667	6468	509	0	32815	32541	33221	32500	32661	32895	32707	32799	
3350	0	3080	4967	3673	6476	510	0	32774	33007	33015	32742	32647	32749	32685	32855	
3351	0	3120	4935	3663	6494	511	0	32891	32782	33029	32611	32630	32783	32642	32847	
3352	0	3132	4953	3677	6510	512	0	32801	33001	32799	32422	32655	32695	32756	32770	
3353	0	3106	4965	3688	6516	513	0	32856	32983	32565	32493	32775	32743	32687	32775	
3354	0	3129	4929	3721	6497	514	0	32838	32873	32436	32455	32759	32735	32859	32754	
3355	0	3095	4978	3706	6533	515	0	32731	32747	32513	32509	32751	32733	32786	32758	
3356	0	3089	4995	3702	6508	516	0	32765	32570	32661	32389	32676	32821	32658	32727	
3357	0	3130	4973	3683	6492	517	0	32665	32479	32791	32583	32620	32689	32690	32807	
3358	0	3140	4949	3679	6547	518	0	32806	32447	32903	32695	32603	32771	32631	32831	
3359	0	3144	4966	3667	6536	519	0	32796	32402	32782	32711	32663	32749	32869	32743	
3360	0	3113	4989	3670	6542	520	0	32897	32199	32715	32804	32775	32789	32775	32775	
3361	0	3130	4981	3660	6505	521	0	32784	32663	32471	32759	32805	32775	32667	32658	
3362	0	3069	4954	3754	6524	522	0	32713	32684	32239	32757	32796	32637	32775	32623	
3363	0	3105	4964	3734	6528	523	0	32695	33159	32177	32892	32775	32827	32735	32790	
3364	0	3108	4974	3657	6490	524	0	32677	33123	32407	32831	32711	32724	32591	32765	
3365	0	3114	4952	3670	6520	525	0	32630	33011	32481	32839	32711	32887	32731	32823	
3366	0	3132	4964	3716	6519	526	0	32638	33046	32546	32927	32729	32775	32578	32927	
3367	0	3140	4963	3684	6500	527	0	32745	32847	32539	32997	32694	32821	32538	32903	
3368	0	3086	4943	3692	6468	528	0	32855	32914	32703	32944	32775	32766	32685	32900	
3369	0	3120	4947	3726	6546	529	0	32772	32705	32710	32934	32551	32803	32674	32885	
3370	0	3101	4944	3698	6508	530	0	32817	32935	32646	32883	32561	32855	32670	32807	
3371	0	3107	4958	3706	6512	531	0	32740	32850	32671	32983	32647	32861	32759	32867	
3372	0	3106	4958	3704	6504	532	0	32740	32844	32727	32927	32613	32854	32619	32811	
3373	0	3116	4989	3680	6529	533	0	32687	32895	32775	32799	32775	32863	32733	32791	
3374	0	3115	4941	3690	6571	534	0	32783	32621	32775	32698	32783	32751	32871	32685	
3375	0	3143	4973	3694	6500	535	0	32736	32787	32887	32711	32749	32767	32859	32700	
3376	0	3123	4956	3717	6534	536	0	32580	32579	32859	32805	32732	32683	32730	32623	
3377	0	3087	4944	3660	6485	537	0	32607	32895	32852	32818	32743	32703	32693	32692	
3378	0	3113	4931	3683	6515	538	0	32631	32924	32871	32863	32743	32743	32711	32765	
3379	0	3135	4912	3698	6516	539	0	32669	32939	32895	32793	32693	32843	32793	32791	
3380	0	3121	4953	3728	6528	540	0	32670	32789	32931	32715	32677	32903	32831	32719	
3381	0	3100	5014	3683	6546	541	0	32738	32647	32935	32735	32709	32787	32695	32673	
3382	0	3141	4908	3684	6525	542	0	32775	32571	33063	32669	32775	32855	32855	32759	
3383	0	3119	4964	3721	6517	543	0	32916	32677	32979	32564	32739	32879	32703	32857	
3384	0	3106	4958	3716	6496	544	0	32909	32748	32995	32701	32690	32703	32759	32869	
3385	0	3110	4962	3705	6478	545	0	32856	32863	32835	32867	32647	32747	32730	32802	
3386	0	3099	4978	3660	6544	546	0	32858	32887	32709	32967	32717	32711	32634	32743	
3387	0	3113	4938	3719	6523	547	0	32911	32759	32703	32937	32715	32762	32681	32727	
3388	0	3097	5008	3716	6538	548	0	32903	32851	32613	32955	32679	32743	32719	32703	
3389	0	3088	4927	3699	6504	549	0	32798	32707	32407	32978	32756	32621	32756	32655	
3390	0	3096	4935	3694	6516	550	0	32667	33012	32543	32825	32762	32786	32693	32727	
3391	0	3119	4911	3728	6489	551	0	32613	32773	32443	32660	32737	32765	32570	32813	
3392	0	3099	4959	3671	6496	552	0	32748	32855	32466	32547	32620	32847	32718	32763	
3393	0	3070	4962	3714	6532	553	0	32719	32742	32461	32662	32532	32785	32775	32845	
3394	0	3073	4943	3707	6506	554	0	32832	32806	32598	32683	32566	32805	32634	32823	
3395	0	3117	4948	3708	6556	555	0	32751	32739	32541	32663	32675	32809	32727	32775	
3396	0	3105	4970	3727	6483	556	0	32793	32759	32669	32644	32783	32742	32726	32754	
3397	0	3100	4965	3712	6523	557	0	32849	32518	32783	32647	32829	32695	32789	32729	
3398	0	3147	4920	3690	6564	558	0	32821	32703	32967	32679	32789	32755	32670	32759	
3399	0	3105	4963	3740	6514	559	0	32711	32492	32923	32791	32771	32771	32724	32844	
3400	0	3064	4981	3695	6502	560	0	32765	32759	33065	32762	32711	32738	32759	32749	
3401	0	3128	4998	3664	6505	561	0	32781	32773	32811	32749	32701	32831	32647	32705	
3402	0	3049	4920	3736	6516	562	0	32681	32799	32771	32700	32647	32711	32738	32671	
3403	0	3137	4981	3741	6543	563	0	32604	32891	32828	32631	32671	32868	32691	32735	
3404	0	3092	4936	3718	6501	564	0	32647	32699	32725	32647	32629	32783	32685	32839	
3405	0	3108	4976	3747	6502	565	0	32685	33095	32685	32763	32583	32762	32770	32829	
3406	0	3116	4968	3740	6518	566	0	32676	32938	32607	32675	32535	32743	32663	32725	
3407	0	3089	4945	3748	6524	567	0	32633	32973	32492	32694	32493	32781	32830	32669	
3408	0	3072	4982	3712	6499	568	0	32667	32647	32535	32751	32482	32804	32743	32739	
3409	0	3104	4936	3691	6498	569	0	32743	32893	32509	32813	32501	32803	32631	32775	
3410	0	3082	4964	3764	6502	570	0	32788	32813	32487	32774	32692	32932	32795	32749	
3411	0	3100	4970	3751	6512	571	0	32833	32495	32391	32647	32669	32828	32767	32694	
3412	0	3121	4961	3695	6554	572	0	32784	32173	32647	32487	32708	32868	32611	32852	
3413	0	3064	4952	3723	6500	573	0	32840	31771	32843	32548	32701	32738	32677	32887	
3414	0	3083	4929	3725	6514	574	0	32828	32407	33113	32695	32765	32759	32663	32753	
3415	0	3092	4972	3735	6523	575	0	32715	32679	33079	32755	32787	32719	32481	32809	
3416	0	3054	4930	3752	6492	576	0	32760	32959	33085	32871	32813	32759	32629	32783	
3417	0	3084	4919	3696	6509	577	0	32807	32646	33042	32947	32738	32806	32615	32749	
3418	0	3101	4944	3739	6531	578	0	32852	32871	33101	33067	32797	32723	32793	32717	
3419	0	3112	4945	3736	6519	579	0	32844	32767	33003	33119	32775	32721	32695	32719	
3420	0	3082	4936	3709	6520	580	0	32825	33017	32775	32951	32703	32719	32581	32727	
3421	0	3101	4954	3777	6530	581	0	32850	32766	32614	32695	32655	32807	32727	32733	
3422	0	3084	4996	3743	6544	582	0	32758	32855	32487	32593	32756	32810	32598	32769	
3423	0	3094	4961	3765	6449	583	0	32753	32683	32263	32775	32811	32775	32767	32775	
3424	0	3082	4920	3773	6455	584	0	32684	32892	32283	32951	32847	32839	32775	32727	
3425	0	3054	4920	3725	6487	585	0	32745	32707	32237	32957	32804	32839	32789	32775	
3426	0	3106	4944	3775	6520	586	0	32716	32869	32339	32923	32733	32866	32795	32679	
3427	0	3078	4936	3770	6499	587	0	32711	32831	32346	32903	32700	32807	32690	32794	
3428	0	3094	4985	3709	6514	588	0	32667	32836	32213	32892	32740	32805	32701	32775	
3429	0	3080	4996	3747	6525	589	0	32669	32868	32421	32939	32690	32885	32691	32939	
3430	0	3109	4965	3764	6507	590	0	32759	32639	32479	33031	32723	32753	32751	32838	
3431	0	3096	4934	3762	6480	591	0	32708	32844	32702	32943	32721	32813	32647	32707	
3432	0	3084	4965	3707	6496	592	0	32665	32774	32903	32764	32743	32775	32743	32823	
3433	0	3081	4965	3753	6521	593	0	32775	32739	33003	32683	32681	32783	32716	32741	
3434	0	3056	4976	3720	6492	594	0	32877	32540	33099	32676	32751	32795	32727	32726	
3435	0	3085	4923	3768	6465	595	0	32826	32599	33268	32391	32727	32707	32759	32847	
3436	0	3047	4921	3780	6468	596	0	32871	32605	33159	32237	32647	32703	32739	32773	
3437	0	3033	4920	3730	6507	597	0	32838	32679	33103	32221	32722	32682	32641	32729	
3438	0	3044	4939	3786	6480	598	0	32833	32655	32964	32299	32711	32719	32782	32871	
3439	0	3097	4959	3736	6529	599	0	32724	32687	32796	32388	32700	32706	32708	32818	
3440	0	3090	4990	3774	6498	600	0	32647	32901	32575	32733	32703	32699	32646	32800	
3441	0	3083	4964	3735	6520	601	0	32826	32705	32729	32719	32747	32775	32799	32796	
3442	0	3078	4908	3739	6492	602	0	32803	32750	32647	32711	32732	32804	32679	32775	
3443	0	3088	4944	3764	6499	603	0	32796	32511	32487	32647	32701	32825	32711	32743	
3444	0	3100	4928	3766	6526	604	0	32703	32775	32391	32756	32706	32815	32797	32718	
3445	0	3082	4900	3720	6506	605	0	32671	32599	32324	32695	32710	32775	32727	32678	
3446	0	3059	4970	3753	6491	606	0	32717	32706	32213	32695	32687	32734	32751	32685	
3447	0	3084	4922	3762	6510	607	0	32700	32687	32547	32980	32738	32697	32711	32595	
3448	0	3073	4952	3752	6477	608	0	32676	32935	32783	33110	32743	32702	32834	32676	
3449	0	3032	4964	3770	6499	609	0	32698	32836	32826	33234	32689	32748	32811	32773	
3450	0	3084	4972	3743	6469	610	0	32822	33079	32871	33159	32700	32806	32631	32711	
3451	0	3050	4957	3752	6504	611	0	32954	32743	32925	33018	32711	32805	32743	32727	
3452	0	3066	4979	3735	6476	612	0	32757	32903	32956	32775	32645	32855	32767	32877	
3453	0	3067	4955	3760	6530	613	0	32781	32555	33087	32687	32633	32879	32647	32861	
3454	0	3059	4953	3680	6545	614	0	32798	32722	33206	32743	32663	32892	32813	32851	
3455	0	3057	4940	3725	6486	615	0	32713	32615	32982	32831	32643	32869	32754	32860	
3456	0	3063	4940	3784	6512	616	0	32809	32755	33133	32885	32638	32711	32591	32831	
3457	0	3040	4994	3727	6496	617	0	32906	32773	33159	32903	32699	32738	32693	32767	
3458	0	3077	4931	3722	6513	618	0	32877	32775	33081	32934	32793	32699	32611	32799	
3459	0	3104	4984	3735	6496	619	0	32853	33012	32871	32745	32871	32763	32683	32875	
3460	0	3058	4910	3799	6466	620	0	32795	32929	32791	32609	32932	32775	32855	32765	
3461	0	3055	4970	3765	6492	621	0	32678	32859	32637	32535	32857	32658	32711	32739	
3462	0	3060	4964	3735	6489	622	0	32711	32782	32311	32599	32900	32730	32822	32743	
3463	0	3049	4944	3719	6501	623	0	32783	32773	32323	32647	32851	32673	32965	32661	
3464	0	3050	4914	3763	6516	624	0	32743	32543	32263	32628	32845	32815	32811	32726	
3465	0	3048	4908	3796	6502	625	0	32754	32799	32199	32674	32799	32862	32847	32822	
3466	0	3072	4954	3760	6539	626	0	32706	32583	31959	32647	32628	32725	32731	32731	
3467	0	3037	4961	3786	6467	627	0	32765	32661	32125	32761	32591	32866	32667	32823	
3468	0	3061	4925	3770	6491	628	0	32710	32489	32199	32747	32563	32775	32622	32919	
3469	0	3033	4956	3753	6536	629	0	32684	32647	32339	32661	32573	32785	32517	32902	
3470	0	3071	4930	3829	6493	630	0	32724	32610	32479	32619	32644	32751	32663	32747	
3471	0	3083	4951	3766	6498	631	0	32801	32788	32552	32615	32676	32747	32567	32775	
3472	0	3061	4897	3750	6469	632	0	32828	32863	32783	32667	32532	32681	32637	32751	
3473	0	3027	4932	3840	6514	633	0	32850	32865	32962	32583	32510	32723	32685	32719	
3474	0	3071	4939	3807	6544	634	0	32736	32601	32982	32519	32461	32813	32695	32670	
3475	0	3042	4992	3790	6514	635	0	32673	32893	33283	32775	32493	32647	32647	32753	
3476	0	3079	4936	3778	6514	636	0	32604	32861	33300	33109	32539	32810	32607	32775	
3477	0	3075	4916	3739	6461	637	0	32596	32871	33041	33281	32511	32809	32789	32815	
3478	0	3065	4912	3797	6444	638	0	32621	32767	32975	32877	32483	32763	32661	32775	
3479	0	3038	4914	3819	6478	639	0	32626	32867	32821	32733	32533	32732	32838	32747	
3480	0	3036	4906	3770	6478	640	0	32687	32881	32735	32711	32551	32810	32829	32761	
3481	0	3078	4976	3816	6502	641	0	32719	32891	32789	32795	32775	32703	32660	32709	
3482	0	3049	4948	3795	6502	642	0	32783	32580	32615	32742	32715	32809	32745	32799	
3483	0	3067	4965	3790	6472	643	0	32834	32757	32525	32662	32711	32762	32709	32871	
3484	0	3068	4972	3814	6466	644	0	32775	32627	32495	32787	32727	32794	32623	32769	
3485	0	3074	4924	3808	6514	645	0	32785	32855	32641	32855	32734	32847	32775	32738	
3486	0	3066	4934	3834	6475	646	0	32775	32677	32693	32918	32711	32727	32644	32822	
3487	0	3017	4931	3814	6483	647	0	32815	32669	32647	32999	32669	32821	32668	32831	
3488	0	3026	4956	3769	6480	648	0	32877	32407	32831	32911	32663	32879	32795	32771	
3489	0	3065	4948	3825	6460	649	0	32832	32555	32833	32901	32719	32772	32695	32729	
3490	0	3055	4989	3811	6514	650	0	32863	32331	32647	32923	32775	32783	32819	32739	
3491	0	3057	4952	3848	6456	651	0	32852	32621	32635	32789	32799	32743	32671	32699	
3492	0	3010	4985	3823	6493	652	0	32783	32595	32627	32763	32759	32798	32771	32753	
3493	0	3008	4916	3805	6477	653	0	32748	32887	32503	32807	32699	32883	32685	32743	
3494	0	3037	4980	3736	6493	654	0	32791	32943	32641	32873	32775	32747	32647	32743	
3495	0	3069	4978	3811	6469	655	0	32786	33229	32615	32783	32833	32815	32711	32769	
3496	0	3039	4974	3820	6534	656	0	32775	32967	32662	32727	32743	32838	32581	32786	
3497	0	3051	4953	3797	6494	657	0	32783	32929	32767	32627	32580	32847	32775	32837	
3498	0	3074	4965	3807	6434	658	0	32850	32511	32819	32580	32573	32850	32681	32735	
3499	0	3012	4962	3799	6490	659	0	32974	32679	33046	32642	32524	32729	32677	32745	
3500	0	3057	4991	3854	6459	660	0	33034	32391	33110	32517	32519	32771	32807	32743	
3501	0	3089	4970	3780	6478	661	0	32964	32623	33069	32591	32587	32755	32664	32679	
3502	0	3072	4988	3830	6459	662	0	32828	32711	32987	32821	32591	32670	32699	32714	
3503	0	3047	4962	3805	6444	663	0	32687	32969	32903	32919	32535	32769	32647	32804	
3504	0	3036	4973	3824	6470	664	0	32641	32807	32751	32756	32557	32834	32695	32878	
3505	0	3037	4926	3814	6457	665	0	32736	32855	32675	32698	32575	32679	32695	32935	
3506	0	3080	4965	3865	6442	666	0	32692	32591	32747	32799	32589	32750	32631	32798	
3507	0	3062	4964	3850	6444	667	0	32600	32741	32511	32759	32611	32759	32807	32749	
3508	0	3046	4940	3813	6473	668	0	32598	32940	32525	32631	32762	32797	32867	32625	
3509	0	3005	4961	3837	6465	669	0	32734	32791	32647	32687	32799	32743	32769	32641	
3510	0	3064	4968	3828	6481	670	0	32655	33111	32578	32719	32796	32713	32747	32725	
3511	0	3045	4977	3816	6479	671	0	32558	33047	32553	32645	32814	32751	32751	32799	
3512	0	3040	4961	3819	6477	672	0	32607	32805	32487	32413	32827	32751	32627	32735	
3513	0	3082	5006	3811	6500	673	0	32679	32725	32647	32157	32773	32826	32689	32711	
3514	0	3048	4966	3759	6495	674	0	32706	32325	32827	32159	32791	32829	32670	32715	
3515	0	3067	4984	3800	6462	675	0	32820	32135	33038	32343	32690	32809	32700	32867	
3516	0	3042	4962	3793	6478	676	0	32721	32004	33159	32463	32819	32869	32639	32863	
3517	0	3087	4931	3834	6510	677	0	32654	32145	32923	32603	32709	32846	32731	32895	
3518	0	3023	4969	3796	6480	678	0	32688	32477	32999	32707	32684	32884	32663	32821	
3519	0	3048	4958	3796	6445	679	0	32771	32415	33004	32843	32707	32740	32727	32775	
3520	0	3018	4922	3852	6460	680	0	32832	32855	32967	32893	32715	32681	32775	32723	
3521	0	3059	4986	3820	6472	681	0	32831	33005	33031	32948	32719	32759	32851	32818	
3522	0	3008	4976	3808	6472	682	0	32918	33047	32675	32891	32583	32786	32673	32835	
3523	0	3048	4928	3811	6513	683	0	33047	33095	32473	32885	32455	32781	32679	32786	
3524	0	3042	5000	3817	6480	684	0	32903	32903	32284	32836	32483	32675	32583	32741	
3525	0	3057	4945	3830	6476	685	0	32868	32851	32314	32969	32519	32711	32815	32695	
3526	0	3074	4928	3847	6501	686	0	32694	32995	32213	33015	32583	32791	32695	32669	
3527	0	3030	4915	3824	6498	687	0	32738	32963	32090	32877	32549	32734	32667	32809	
3528	0	2992	4960	3837	6499	688	0	32801	33247	32226	32891	32551	32815	32765	32775	
3529	0	3020	4976	3810	6472	689	0	32773	33031	32372	32990	32561	32837	32701	32739	
3530	0	3063	4960	3826	6457	690	0	32732	32911	32420	33023	32575	32771	32773	32799	
3531	0	3039	4964	3822	6498	691	0	32620	32843	32513	33015	32575	32775	32647	32891	
3532	0	3056	4966	3767	6453	692	0	32613	32538	32457	32991	32633	32886	32743	32795	
3533	0	2990	5014	3815	6479	693	0	32633	32569	32407	32884	32639	32695	32754	32783	
3534	0	3013	4980	3820	6464	694	0	32819	32383	32694	32929	32679	32735	32766	32823	
3535	0	3074	4925	3778	6502	695	0	32768	32715	32838	32839	32726	32750	32749	32775	
3536	0	3061	4925	3844	6488	696	0	32623	32555	33023	32775	32654	32783	32619	32751	
3537	0	2980	5000	3776	6458	697	0	32631	32497	32879	32639	32611	32791	32733	32696	
3538	0	3067	5001	3794	6464	698	0	32764	32254	32841	32695	32503	32822	32722	32741	
3539	0	3022	4943	3816	6472	699	0	32903	32593	32811	32695	32532	32767	32681	32758	
3540	0	3062	4988	3794	6480	700	0	32985	32447	32795	32629	32659	32775	32771	32647	
3541	0	3067	4968	3845	6482	701	0	32939	32857	32679	32711	32698	32837	32661	32681	
3542	0	3043	5016	3850	6470	702	0	32922	32887	32820	32708	32725	32749	32775	32763	
3543	0	3021	4948	3788	6456	703	0	33013	33274	32833	32570	32749	32799	32742	32639	
3544	0	3070	4976	3852	6482	704	0	32838	32971	32775	32509	32670	32845	32798	32549	
3545	0	3033	4960	3807	6492	705	0	32735	32924	33062	32524	32711	32669	32837	32647	
3546	0	3018	4948	3826	6473	706	0	32588	32447	32975	32593	32802	32803	32692	32765	
3547	0	3026	4966	3876	6425	707	0	32549	32451	32991	32813	32667	32814	32655	32898	
3548	0	2992	4939	3842	6472	708	0	32572	32343	32993	32807	32662	32740	32684	32855	
3549	0	3016	4988	3822	6470	709	0	32679	32759	32895	32763	32767	32645	32728	32807	
3550	0	3021	4985	3866	6484	710	0	32808	32804	32799	32764	32738	32759	32740	32785	
3551	0	3017	4952	3838	6520	711	0	32937	32919	32733	32811	32725	32797	32809	32743	
3552	0	3037	4994	3826	6498	712	0	32949	33135	32662	32797	32685	32709	32629	32835	
3553	0	3047	4924	3773	6475	713	0	32889	32859	32546	32855	32675	32775	32642	32854	
3554	0	3016	4971	3828	6456	714	0	32721	32997	32703	32829	32556	32807	32691	32775	
3555	0	3036	4988	3805	6472	715	0	32671	32742	32561	32735	32692	32695	32714	32655	
3556	0	3039	5000	3844	6476	716	0	32724	32891	32527	32614	32714	32775	32703	32789	
3557	0	3023	4984	3793	6486	717	0	32682	32687	32726	32495	32740	32775	32835	32759	
3558	0	3041	5012	3812	6486	718	0	32562	32935	32511	32477	32736	32711	32775	32807	
3559	0	3040	4951	3776	6478	719	0	32525	32727	32509	32548	32775	32751	32703	32763	
3560	0	3053	4938	3859	6438	720	0	32556	32903	32589	32635	32700	32725	32743	32775	
3561	0	3026	4967	3862	6470	721	0	32601	32803	32835	32767	32707	32879	32667	32767	
3562	0	3032	5010	3818	6484	722	0	32725	32803	32964	32852	32719	32929	32727	32785	
3563	0	3009	4982	3834	6438	723	0	32696	32743	32702	32903	32797	32831	32759	32811	
3564	0	3044	4970	3824	6500	724	0	32786	32647	32787	32870	32771	32877	32646	32765	
3565	0	3004	4985	3790	6477	725	0	32764	32879	32871	32959	32796	32775	32807	32721	
3566	0	3043	4995	3792	6495	726	0	32827	32633	32775	32927	32707	32719	32875	32695	
3567	0	3061	4962	3846	6480	727	0	32775	32635	32625	33015	32611	32841	32662	32732	
3568	0	2989	4932	3804	6464	728	0	32799	32391	32658	32931	32587	32786	32886	32707	
3569	0	2990	4992	3841	6485	729	0	32719	32743	32557	32982	32543	32831	32755	32679	
3570	0	3048	4966	3830	6457	730	0	32604	32647	32466	32819	32559	32685	32691	32643	
3571	0	3042	4968	3776	6433	731	0	32671	32895	32613	32687	32543	32818	32612	32809	
3572	0	2991	4926	3809	6487	732	0	32790	32660	32749	32519	32639	32775	32748	32775	
3573	0	3017	4956	3813	6473	733	0	32758	32641	32868	32471	32739	32791	32742	32771	
3574	0	3013	4931	3847	6441	734	0	32775	32715	32951	32727	32615	32775	32775	32895	
3575	0	3014	4988	3778	6436	735	0	32843	32971	32903	32855	32573	32863	32679	32951	
3576	0	3056	4982	3817	6500	736	0	32925	32677	32895	32967	32629	32683	32855	32735	
3577	0	2980	4944	3816	6443	737	0	32921	32854	32861	33142	32679	32703	32647	32663	
3578	0	3019	4996	3835	6482	738	0	32921	32659	32687	33283	32725	32731	32751	32607	
3579	0	2998	5005	3801	6505	739	0	32844	32987	32671	33311	32787	32799	32833	32679	
3580	0	3040	4992	3853	6441	740	0	32775	32724	32589	33103	32671	32862	32825	32715	
3581	0	3014	4980	3861	6469	741	0	32781	32695	32578	32817	32675	32801	32660	32835	
3582	0	2979	4944	3803	6442	742	0	32769	32581	32634	32536	32687	32711	32645	32844	
3583	0	3000	4901	3834	6439	743	0	32747	32675	32711	32539	32719	32711	32501	32813	
3584	0	3014	4952	3844	6456	744	0	32732	32551	32813	32548	32677	32783	32683	32855	
3585	0	3008	4940	3805	6461	745	0	32795	32751	32903	32423	32677	32719	32679	32799	
3586	0	3009	4964	3832	6452	746	0	32817	32637	32903	32235	32723	32799	32771	32805	
3587	0	3027	4968	3842	6440	747	0	32841	32607	32791	32226	32710	32834	32693	32723	
3588	0	3019	5000	3779	6434	748	0	32784	32679	32723	32457	32753	32775	32756	32658	
3589	0	3024	4978	3861	6486	749	0	32785	32511	32663	32731	32607	32727	32711	32775	
3590	0	3015	4973	3825	6482	750	0	32679	32727	32492	32838	32495	32769	32839	32919	
3591	0	2977	4971	3852	6481	751	0	32681	32734	32594	32937	32549	32743	32771	32695	
3592	0	3012	4996	3840	6490	752	0	32752	32818	32655	32903	32591	32839	32839	32687	
3593	0	3054	4931	3795	6491	753	0	32785	32879	32765	32855	32684	32785	32647	32807	
3594	0	2987	4981	3791	6467	754	0	32767	32710	32743	32762	32724	32771	32751	32858	
3595	0	3007	4954	3855	6450	755	0	32719	32971	32726	32734	32815	32759	32703	32860	
3596	0	2980	4999	3832	6472	756	0	32762	32887	32819	32667	32815	32768	32743	32745	
3597	0	3036	5001	3847	6475	757	0	32753	33102	32879	32601	32636	32827	32607	32749	
3598	0	2997	4970	3864	6421	758	0	32769	33175	33110	32453	32685	32765	32743	32692	
3599	0	2967	4982	3868	6448	759	0	32762	32959	33094	32519	32774	32799	32679	32743	
3600	0	3004	4968	3844	6457	760	0	32758	33041	33255	32570	32743	32818	32647	32807	
3601	0	2963	4987	3862	6466	761	0	32775	32831	33073	32722	32677	32719	32687	32734	
3602	0	2998	4965	3796	6460	762	0	32751	32567	32810	32804	32685	32743	32667	32715	
3603	0	3009	4976	3885	6416	763	0	32839	32038	32879	32819	32769	32829	32823	32807	
3604	0	3012	4984	3769	6452	764	0	32748	32335	32979	32843	32670	32773	32623	32919	
3605	0	3032	4948	3888	6505	765	0	32696	32167	33086	32807	32671	32801	32742	32843	
3606	0	3001	4981	3856	6461	766	0	32665	32342	32767	32795	32559	32866	32660	32767	
3607	0	2943	4962	3826	6471	767	0	32754	32391	32514	32813	32611	32819	32686	32797	
3608	0	2972	4979	3838	6447	768	0	32763	32549	32367	32846	32799	32855	32655	32869	
3609	0	2972	4963	3842	6437	769	0	32825	32836	32039	32887	32853	32828	32691	32947	
3610	0	3013	4906	3881	6471	770	0	32804	32735	31852	32973	32822	32871	32775	32839	
3611	0	2969	4983	3869	6497	771	0	32734	33031	31875	33046	32775	32863	32707	32717	
3612	0	2994	4964	3843	6434	772	0	32706	32901	31831	32951	32741	32697	32839	32679	
3613	0	3025	4924	3845	6462	773	0	32653	33099	32059	33104	32706	32679	32751	32731	
3614	0	2977	4932	3829	6471	774	0	32619	33175	32135	33177	32727	32700	32644	32789	
3615	0	3014	4939	3827	6434	775	0	32574	32900	32313	33287	32750	32742	32773	32815	
3616	0	3010	4977	3808	6442	776	0	32591	32995	32421	33279	32804	32721	32709	32772	
3617	0	2980	4978	3854	6436	777	0	32659	32795	32818	32995	32765	32807	32750	32733	
3618	0	2979	4950	3869	6442	778	0	32743	32933	33031	32661	32757	32847	32767	32775	
3619	0	2950	4934	3864	6481	779	0	32762	32646	33079	32413	32743	32725	32635	32767	
3620	0	3028	4943	3856	6436	780	0	32866	32743	32943	32196	32758	32791	32735	32711	
3621	0	2971	4965	3813	6487	781	0	33046	32369	33039	32215	32775	32691	32683	32689	
3622	0	3001	4992	3848	6449	782	0	33106	32484	33095	32189	32767	32669	32783	32711	
3623	0	3043	4963	3867	6488	783	0	33009	32361	33387	32207	32799	32719	32829	32693	
3624	0	3006	5006	3830	6450	784	0	32791	32670	33525	32454	32810	32772	32741	32717	
3625	0	2940	4982	3890	6424	785	0	32676	32710	33355	32641	32745	32733	32736	32789	
3626	0	3034	4937	3852	6429	786	0	32525	33066	33239	32726	32687	32834	32623	32740	
3627	0	2958	4956	3856	6456	787	0	32608	32947	32975	32895	32655	32725	32871	32647	
3628	0	2981	5000	3888	6428	788	0	32656	32967	32859	32900	32733	32737	32805	32803	
3629	0	3024	4943	3866	6398	789	0	32743	32959	32447	32877	32764	32833	32631	32632	
3630	0	3044	4968	3897	6430	790	0	32831	32845	32423	32722	32751	32719	32770	32773	
3631	0	2991	4955	3802	6424	791	0	33011	32903	32327	32692	32663	32839	32751	32775	
3632	0	2984	4998	3885	6433	792	0	33019	32787	32231	32894	32549	32795	32647	32817	
3633	0	3011	4968	3888	6461	793	0	32814	32900	31949	32847	32535	32899	32647	32820	
3634	0	2998	5002	3882	6405	794	0	32804	32699	32075	32841	32389	32959	32643	32955	
3635	0	2988	4997	3879	6460	795	0	32893	32710	32299	32822	32534	32919	32603	32855	
3636	0	2960	4962	3865	6436	796	0	32742	32951	32551	32931	32576	32798	32635	32867	
3637	0	2985	4981	3834	6406	797	0	32733	32902	32685	32867	32467	32836	32484	32942	
3638	0	2969	4966	3826	6434	798	0	32685	32998	32685	32991	32442	32854	32517	32841	
3639	0	2993	4992	3883	6486	799	0	32623	32689	32999	32855	32535	32775	32455	32935	
3640	0	3032	4996	3876	6440	800	0	32757	32807	33031	32767	32619	32916	32601	32852	
3641	0	3036	4995	3839	6438	801	0	32656	32455	32755	32621	32511	32903	32617	32914	
3642	0	2995	4974	3860	6438	802	0	32380	32589	32787	32358	32598	32749	32461	32895	
3643	0	2988	4988	3840	6498	803	0	32170	32455	32703	32355	32663	32835	32633	32874	
3644	0	3058	5007	3849	6400	804	0	32307	32785	32478	32534	32647	32743	32591	32879	
3645	0	2974	4999	3870	6405	805	0	32324	32633	32453	32687	32575	32819	32573	32869	
3646	0	2991	5000	3839	6423	806	0	32220	32775	32399	32815	32549	32783	32637	32883	
3647	0	2972	4974	3880	6440	807	0	32279	32785	32389	32857	32595	32830	32607	32795	
3648	0	3008	4968	3868	6448	808	0	32480	32567	32563	32815	32695	32771	32609	32775	
3649	0	2949	4967	3876	6472	809	0	32605	32640	32479	32625	32687	32797	32660	32646	
3650	0	2981	4937	3862	6450	810	0	32709	32509	32503	32479	32590	32813	32612	32635	
3651	0	3006	4982	3883	6436	811	0	32748	32558	32647	32407	32532	32691	32620	32668	
3652	0	2972	5019	3856	6438	812	0	32751	32391	32590	32430	32571	32791	32681	32727	
3653	0	2948	4972	3857	6413	813	0	32766	32515	32758	32599	32559	32868	32575	32630	
3654	0	2963	4963	3840	6349	814	0	32800	32519	32829	32613	32591	32775	32684	32699	
3655	0	3031	5009	3879	6426	815	0	32827	32645	32791	32647	32575	32851	32683	32631	
3656	0	2977	5030	3891	6404	816	0	32839	32901	32858	32687	32619	32735	32747	32613	
3657	0	3001	4943	3858	6411	817	0	32868	32647	32953	32676	32695	32740	32732	32551	
3658	0	3002	4998	3859	6430	818	0	32850	32935	32924	32647	32694	32671	32741	32519	
3659	0	2976	4983	3867	6396	819	0	32877	32511	33027	32767	32681	32759	32758	32517	
3660	0	2938	4968	3854	6420	820	0	33003	32642	33047	32835	32658	32743	32643	32722	
3661	0	2965	4980	3891	6458	821	0	32986	32517	32871	32863	32726	32727	32783	32791	
3662	0	2963	4995	3902	6428	822	0	32924	32735	32788	32722	32615	32839	32706	32771	
3663	0	2962	4964	3910	6430	823	0	32892	32887	32771	32764	32599	32915	32879	32749	
3664	0	2969	4970	3929	6428	824	0	32764	33047	32871	32839	32630	32699	32903	32703	
3665	0	2975	5011	3852	6430	825	0	32708	33271	33013	32881	32756	32673	33194	32647	
3666	0	2976	4973	3859	6377	826	0	32662	32935	32855	32903	32843	32747	33125	32703	
3667	0	2986	5004	3896	6400	827	0	32660	33047	32887	32978	32915	32740	33091	32703	
3668	0	2958	5013	3872	6416	828	0	32772	32709	32912	33079	32925	32715	33061	32711	
3669	0	2926	4996	3856	6378	829	0	32991	32617	33101	33199	32871	32695	33079	32679	
3670	0	2941	4989	3872	6434	830	0	33217	32303	33147	33107	32948	32599	33101	32667	
3671	0	2948	4981	3853	6423	831	0	33372	32487	33133	33035	32939	32676	32987	32559	
3672	0	3004	5016	3857	6424	832	0	33512	32515	33089	33069	32877	32547	33220	32612	
3673	0	2979	4963	3866	6408	833	0	33460	33014	33122	33004	33055	32597	33369	32619	
3674	0	2974	4988	3886	6417	834	0	33433	32873	32999	32887	32938	32615	33223	32594	
3675	0	2986	4962	3868	6388	835	0	33372	33191	32863	32663	32743	32519	33180	32655	
3676	0	3007	4965	3812	6415	836	0	33164	33037	32743	32469	32725	32629	32935	32687	
3677	0	2970	4995	3852	6375	837	0	32961	33220	32596	32451	32711	32590	32703	32725	
3678	0	2931	4972	3867	6428	838	0	33003	32647	32373	32479	32709	32711	32708	32822	
3679	0	2981	4982	3912	6435	839	0	33010	32271	32573	32420	32639	32781	32612	32862	
3680	0	3002	4992	3888	6422	840	0	32896	31796	32663	32517	32655	32659	32711	32829	
3681	0	3006	4991	3892	6389	841	0	32889	32257	32599	32599	32737	32743	32647	32851	
3682	0	2960	5007	3869	6402	842	0	32851	32383	32769	32662	32809	32711	32519	32887	
3683	0	2996	4976	3858	6413	843	0	32806	32789	32698	33002	32791	32887	32619	32801	
3684	0	2962	5000	3920	6381	844	0	32667	32863	32663	32882	32685	32967	32599	32799	
3685	0	2996	4939	3868	6438	845	0	32631	33174	32725	32899	32647	32758	32546	32871	
3686	0	2992	5003	3851	6408	846	0	32526	32964	32491	33081	32647	32833	32503	32950	
3687	0	2980	5025	3849	6405	847	0	32485	33126	32473	33207	32556	32927	32479	32903	
3688	0	2969	5018	3893	6416	848	0	32421	33159	32463	33191	32459	32901	32503	32863	
3689	0	2948	4990	3892	6414	849	0	32464	32807	32525	33195	32359	32879	32551	32839	
3690	0	3006	4983	3896	6400	850	0	32601	33063	32549	33103	32462	32850	32573	32867	
3691	0	2947	4989	3876	6418	851	0	32594	32997	32507	33106	32495	32807	32623	32831	
3692	0	2945	5005	3842	6411	852	0	32556	33026	32523	32951	32626	32775	32676	32797	
3693	0	2962	4976	3902	6400	853	0	32553	32855	32735	32885	32571	32847	32647	32745	
3694	0	2941	4995	3880	6424	854	0	32485	33135	32647	32729	32487	32855	32671	32699	
3695	0	2990	5002	3899	6439	855	0	32560	32838	32671	32671	32460	32791	32549	32852	
3696	0	2990	5008	3869	6432	856	0	32549	32919	32789	32736	32535	32860	32685	32807	
3697	0	2950	4982	3874	6420	857	0	32559	32763	32564	32729	32613	32677	32607	32767	
3698	0	2980	4947	3872	6424	858	0	32628	32783	32635	32567	32551	32807	32661	32809	
3699	0	2946	4968	3903	6418	859	0	32617	32620	32551	32455	32463	32839	32711	32842	
3700	0	3023	4958	3888	6465	860	0	32597	32449	32647	32338	32540	32773	32675	32919	
3701	0	2969	4982	3854	6421	861	0	32704	32473	32925	32243	32495	32879	32711	32786	
3702	0	2992	4990	3877	6427	862	0	32841	32353	33461	32293	32579	32804	32575	32725	
3703	0	2976	5010	3892	6378	863	0	32834	32691	33460	32271	32643	32757	32715	32817	
3704	0	2982	4960	3888	6394	864	0	32863	32381	33268	32391	32644	32810	32687	32783	
3705	0	2980	4996	3916	6416	865	0	32816	32507	33179	32551	32549	32751	32725	32729	
3706	0	2964	4968	3908	6407	866	0	32807	32134	32836	32667	32581	32738	32706	32685	
3707	0	3011	4995	3874	6424	867	0	32833	32186	32531	32675	32583	32759	32722	32881	
3708	0	2972	4995	3894	6422	868	0	32935	32279	32447	32750	32594	32751	32668	32782	
3709	0	2946	5024	3923	6410	869	0	32874	32631	32079	32855	32607	32795	32563	32723	
3710	0	2967	4984	3932	6415	870	0	32748	32751	31887	32937	32698	32817	32775	32815	
3711	0	2990	5029	3921	6396	871	0	32695	32895	32057	33171	32711	32732	32796	32690	
3712	0	2948	4998	3882	6422	872	0	32663	32956	32083	33157	32619	32839	32717	32726	
3713	0	2962	5021	3830	6370	873	0	32501	33052	32044	33107	32670	32834	32743	32807	
3714	0	2946	5005	3927	6432	874	0	32587	32995	32199	33039	32684	32804	32629	32838	
3715	0	2966	4998	3961	6398	875	0	32480	32727	32221	32964	32621	32791	32695	32742	
3716	0	2939	4996	3905	6429	876	0	32515	32930	32607	32801	32639	32855	32682	32705	
3717	0	2958	5000	3939	6432	877	0	32641	32699	32903	32635	32645	32775	32669	32805	
3718	0	2956	4993	3906	6458	878	0	32722	32911	33071	32835	32633	32831	32639	32819	
3719	0	3005	4992	3909	6428	879	0	32861	32911	33276	32831	32603	32871	32785	32803	
3720	0	3003	4951	3900	6450	880	0	33009	33003	33245	32775	32546	32747	32722	32756	
3721	0	2975	5041	3932	6432	881	0	32940	32965	33179	32791	32583	32647	32887	32737	
3722	0	2986	4981	3932	6425	882	0	32820	32710	32855	32910	32557	32749	32813	32679	
3723	0	2983	5017	3911	6371	883	0	32684	32875	32903	32977	32628	32805	32717	32726	
3724	0	2956	4937	3913	6425	884	0	32739	32720	32837	32955	32564	32721	32775	32647	
3725	0	2990	5008	3931	6411	885	0	32663	32807	32799	32830	32566	32738	32647	32647	
3726	0	2992	5014	3912	6435	886	0	32540	32860	32571	32845	32519	32787	32756	32719	
3727	0	2947	4973	3913	6444	887	0	32540	32711	32283	32823	32559	32771	32647	32805	
3728	0	2967	5016	3893	6400	888	0	32666	32887	32289	32703	32595	32871	32661	32813	
3729	0	2933	4970	3915	6394	889	0	32764	32574	32269	32611	32659	32687	32646	32807	
3730	0	2948	4981	3882	6454	890	0	32807	32775	32295	32639	32699	32771	32581	32835	
3731	0	2987	5000	3924	6414	891	0	32884	32725	32339	32692	32570	32820	32647	32836	
3732	0	2981	5018	3894	6435	892	0	32950	32553	32597	32687	32699	32791	32634	32847	
3733	0	2989	4969	3937	6406	893	0	32959	32767	32699	32647	32743	32739	32674	32788	
3734	0	2943	5008	3906	6419	894	0	32939	32584	32959	32613	32694	32755	32565	32852	
3735	0	2949	4988	3891	6420	895	0	32969	32751	33259	32647	32615	32773	32796	32847	
3736	0	2946	4965	3925	6438	896	0	33021	32757	33319	32699	32590	32719	32733	32767	
3737	0	2965	5012	3940	6460	897	0	32961	32842	33435	32711	32647	32789	32787	32805	
3738	0	2973	5001	3898	6421	898	0	32893	32798	33149	32612	32719	32815	32719	32773	
3739	0	3006	5006	3913	6422	899	0	32855	32579	32775	32615	32667	32695	32813	32789	
3740	0	2975	5021	3900	6422	900	0	32663	32727	32639	32583	32767	32834	32809	32775	
3741	0	2951	4973	3948	6409	901	0	32632	32786	32415	32519	32774	32828	32675	32717	
3742	0	2997	5022	3973	6376	902	0	32610	32673	32463	32668	32716	32761	32775	32703	
3743	0	2974	5026	3896	6414	903	0	32592	32647	32513	32543	32679	32790	32671	32742	
3744	0	2980	4983	3882	6425	904	0	32569	32367	32598	32439	32773	32775	32759	32775	
3745	0	2997	5027	3929	6415	905	0	32658	32755	32658	32541	32631	32747	32639	32847	
3746	0	2992	5026	3912	6400	906	0	32621	32927	32758	32603	32687	32799	32735	32773	
3747	0	2933	5045	3928	6414	907	0	32605	32515	33077	32550	32713	32846	32671	32739	
3748	0	2923	5004	3930	6418	908	0	32748	32711	33150	32583	32762	32757	32717	32791	
3749	0	2907	4996	3930	6448	909	0	32800	32706	33111	32573	32796	32818	32553	32775	
3750	0	2969	5017	3950	6425	910	0	32839	32621	32977	32679	32790	32765	32647	32879	
3751	0	2948	4994	3941	6392	911	0	32826	33014	32711	32866	32767	32775	32725	32816	
3752	0	2961	5035	3872	6454	912	0	32809	32890	32487	32931	32756	32795	32607	32738	
3753	0	2964	4976	3877	6429	913	0	32775	33059	32343	32845	32783	32809	32646	32723	
3754	0	2967	5004	3888	6416	914	0	32830	32859	32193	32935	32839	32690	32647	32698	
3755	0	2950	5014	3870	6394	915	0	32829	33031	32295	32895	32843	32818	32695	32773	
3756	0	2979	5046	3968	6409	916	0	32766	32805	32455	32859	32722	32721	32834	32839	
3757	0	2956	5013	3942	6446	917	0	32718	32783	32511	32887	32745	32711	32693	32695	
3758	0	2945	5018	3929	6391	918	0	32767	32749	32721	32879	32706	32711	32743	32695	
3759	0	2948	5060	3946	6372	919	0	32720	32623	32663	32847	32623	32756	32743	32708	
3760	0	2948	5046	3896	6412	920	0	32740	32791	32647	32811	32658	32773	32831	32711	
3761	0	2953	5013	3940	6401	921	0	32794	32629	32918	32805	32668	32771	32844	32807	
3762	0	2920	5027	3893	6405	922	0	32850	32805	32983	32830	32711	32788	32675	32771	
3763	0	2942	5028	3913	6395	923	0	32804	32614	32870	32886	32629	32837	32799	32871	
3764	0	2954	4988	3938	6429	924	0	32790	32813	32911	32871	32719	32809	32741	32927	
3765	0	2974	5046	3928	6392	925	0	32812	32859	32903	32719	32737	32775	32759	32866	
3766	0	2984	5028	3909	6437	926	0	32820	32549	33057	32789	32719	32802	32629	32743	
3767	0	2952	5004	3887	6440	927	0	32836	32815	32931	32823	32673	32903	32722	32727	
3768	0	2950	5014	3906	6414	928	0	32806	32716	32731	32573	32695	32815	32711	32743	
3769	0	2946	4983	3940	6414	929	0	32751	32819	32686	32351	32633	32835	32742	32804	
3770	0	2901	5025	3894	6400	930	0	32742	32583	32723	32385	32727	32756	32727	32790	
3771	0	2985	5023	3859	6424	931	0	32687	32591	32679	32222	32733	32751	32591	32813	
3772	0	2944	5015	3960	6376	932	0	32687	32511	32855	32199	32694	32711	32682	32799	
3773	0	2974	5020	3907	6372	933	0	32758	32567	32813	32343	32695	32671	32647	32698	
3774	0	2973	5044	3904	6413	934	0	32614	32621	32890	32527	32692	32711	32703	32667	
3775	0	2988	4991	3938	6418	935	0	32439	32623	32783	32758	32671	32745	32663	32695	
3776	0	2952	5000	3898	6440	936	0	32548	32852	32679	32903	32711	32755	32687	32739	
3777	0	2937	5030	3892	6369	937	0	32515	32903	32517	32854	32666	32767	32647	32727	
3778	0	2963	5013	3949	6400	938	0	32718	32639	32327	32866	32601	32823	32761	32807	
3779	0	2959	5010	3906	6407	939	0	32820	32701	32725	32791	32525	32865	32775	32827	
3780	0	2920	5016	3882	6358	940	0	32972	32791	32667	32785	32519	32749	32775	32662	
3781	0	2922	4992	3892	6455	941	0	32974	32535	32515	32915	32519	32835	32759	32724	
3782	0	2916	5033	3900	6395	942	0	33018	32659	32519	33047	32517	32861	32709	32751	
3783	0	2950	5065	3952	6404	943	0	33159	32635	32348	32999	32597	32767	32758	32787	
3784	0	2984	4971	3909	6429	944	0	33038	32533	32323	32993	32735	32775	32619	32830	
3785	0	2995	5004	3940	6363	945	0	32652	32927	32057	32939	32669	32756	32699	32771	
3786	0	2963	5018	3892	6377	946	0	32514	32941	32277	32966	32722	32751	32735	32831	
3787	0	2940	5002	3933	6408	947	0	32521	33261	32333	32975	32700	32726	32683	32812	
3788	0	2963	5005	3952	6396	948	0	32636	33159	32429	32989	32734	32769	32758	32858	
3789	0	2985	5010	3965	6429	949	0	32626	32871	32531	32933	32711	32746	32660	32931	
3790	0	2938	5004	3889	6406	950	0	32591	32949	32515	32887	32758	32769	32827	32835	
3791	0	3011	4992	3920	6404	951	0	32667	32639	32715	32903	32807	32829	32767	32863	
3792	0	2959	5012	3941	6358	952	0	32647	32886	33027	32884	32646	32807	32727	32846	
3793	0	2929	4990	3886	6384	953	0	32732	32615	32999	32982	32750	32695	32815	32734	
3794	0	2962	4970	3941	6392	954	0	32911	32935	33023	32981	32825	32823	32743	32691	
3795	0	2933	5023	3936	6426	955	0	32796	33006	32863	32903	32809	32839	32775	32659	
3796	0	2916	5013	3880	6385	956	0	32757	32759	32911	32731	32775	32711	32698	32647	
3797	0	2935	5040	3947	6421	957	0	32765	32999	32895	32622	32801	32783	32799	32631	
3798	0	2939	4972	3937	6439	958	0	32781	32879	32964	32559	32823	32772	32743	32671	
3799	0	2949	4979	3989	6401	959	0	32888	33111	33263	32591	32791	32775	32791	32703	
3800	0	2947	4974	3957	6356	960	0	32918	33026	33213	32569	32725	32815	32689	32745	
3801	0	2925	5049	3908	6432	961	0	32999	32754	33231	32727	32775	32869	32643	32775	
3802	0	2934	5006	3948	6392	962	0	32966	32479	33183	32595	32749	32727	32677	32766	
3803	0	2962	4979	3892	6385	963	0	32945	32119	33031	32532	32746	32823	32591	32747	
3804	0	2921	4997	3919	6417	964	0	32745	31983	32823	32426	32686	32775	32700	32733	
3805	0	2920	5026	3884	6367	965	0	32617	31483	32631	32507	32749	32647	32719	32658	
3806	0	2916	4972	3932	6392	966	0	32647	32013	32479	32583	32729	32742	32635	32692	
3807	0	2934	5015	3973	6411	967	0	32673	32487	32601	32642	32847	32727	32753	32751	
3808	0	2952	5036	3961	6396	968	0	32677	32423	32640	32619	32707	32711	32677	32839	
3809	0	2948	4995	3872	6390	969	0	32676	32391	32471	32647	32695	32783	32743	32791	
3810	0	2934	5022	3913	6371	970	0	32688	32479	32276	32607	32735	32727	32575	32883	
3811	0	2940	5008	3913	6383	971	0	32670	32962	32169	32762	32677	32766	32647	32969	
3812	0	2897	5035	3908	6418	972	0	32765	33206	32543	32791	32751	32829	32535	32875	
3813	0	2946	4974	3937	6415	973	0	32741	33103	32677	32924	32791	32873	32647	32827	
3814	0	2950	5071	3930	6372	974	0	32778	33179	32958	33073	32685	32871	32593	32759	
3815	0	2932	5026	3936	6405	975	0	32863	33091	33199	32973	32645	32738	32751	32701	
3816	0	2936	5006	3955	6381	976	0	32731	32757	33383	32866	32736	32727	32611	32702	
3817	0	2917	5027	3946	6400	977	0	32784	32703	33221	32727	32782	32751	32726	32695	
3818	0	2929	4990	3941	6404	978	0	32942	32947	33038	32615	32711	32766	32711	32727	
3819	0	2932	4967	3939	6441	979	0	32932	33039	32671	32739	32642	32633	32919	32727	
3820	0	2955	5019	3892	6435	980	0	32863	32820	32699	32719	32595	32710	32859	32619	
3821	0	2935	4999	3946	6380	981	0	32749	33043	32638	32735	32683	32782	32807	32647	
3822	0	2917	5027	3933	6432	982	0	32732	32759	32439	32687	32716	32709	32791	32739	
3823	0	2929	4994	3965	6388	983	0	32617	32725	32444	32726	32719	32831	32678	32719	
3824	0	2884	5045	3906	6395	984	0	32599	32407	32239	32658	32687	32901	32717	32705	
3825	0	2968	5023	3938	6406	985	0	32740	32553	32103	32706	32679	32783	32607	32801	
3826	0	2946	4984	3937	6382	986	0	32798	32775	32143	32763	32775	32795	32677	32823	
3827	0	2915	5011	3928	6372	987	0	32775	32517	32057	32784	32791	32771	32647	32869	
3828	0	2972	4992	3955	6372	988	0	32721	32790	32019	32729	32638	32887	32655	32839	
3829	0	2909	5019	3928	6371	989	0	32700	32663	31961	32827	32583	32706	32621	32775	
3830	0	2964	5011	3929	6419	990	0	32683	32773	32183	32789	32548	32815	32644	32829	
3831	0	2941	5032	3954	6432	991	0	32692	32854	32492	32743	32484	32773	32577	32799	
3832	0	2934	5008	3912	6390	992	0	32818	32929	32631	32899	32513	32800	32647	32803	
3833	0	2928	5005	3975	6430	993	0	32882	32967	32843	32900	32575	32759	32621	32749	
3834	0	2916	5002	3940	6434	994	0	32827	32988	33087	32943	32567	32823	32775	32799	
3835	0	2890	5028	3930	6373	995	0	32855	32974	33215	32927	32527	32699	32881	32799	
3836	0	2936	5022	3937	6422	996	0	32884	32903	33383	32573	32487	32769	32775	32757	
3837	0	2918	4970	3939	6452	997	0	32917	32607	33439	32327	32599	32803	32839	32775	
3838	0	2883	4974	3915	6409	998	0	32879	32575	33306	32303	32682	32767	32679	32807	
3839	0	2941	5003	3930	6378	999	0	32847	32421	33250	32418	32613	32837	32711	32806	
3840	0	2939	4978	3987	6406	1000	0	32811	32591	33126	32447	32589	32891	32647	32692	
3841	0	2936	5010	3946	6435	1001	0	32753	32593	33167	32503	32515	32775	32634	32723	
3842	0	2879	4989	3956	6421	1002	0	32727	32775	33030	32531	32523	32763	32731	32743	
3843	0	2972	4982	3968	6367	1003	0	32690	32609	32805	32551	32567	32863	32551	32786	
3844	0	2972	5034	3972	6401	1004	0	32620	32823	32695	32774	32576	32706	32702	32738	
3845	0	2944	4994	3971	6416	1005	0	32457	32971	32318	32788	32604	32743	32727	32726	
3846	0	2940	5004	3960	6416	1006	0	32473	32989	32181	32949	32558	32807	32797	32740	
3847	0	2906	4990	3931	6440	1007	0	32590	32999	32365	32982	32578	32687	32717	32818	
3848	0	2901	4996	3964	6377	1008	0	32642	32583	32355	32923	32581	32628	32818	32631	
3849	0	2973	4976	3956	6391	1009	0	32614	32861	32460	32943	32612	32685	32855	32703	
3850	0	2899	4982	3925	6396	1010	0	32564	32643	32647	32903	32573	32715	32743	32679	
3851	0	2925	5018	3942	6392	1011	0	32644	32892	32623	32895	32591	32681	32798	32751	
3852	0	2956	4982	3941	6390	1012	0	32647	33055	32701	32967	32567	32859	32727	32793	
3853	0	2932	4990	3972	6408	1013	0	32715	32899	32561	32983	32687	32894	32805	32815	
3854	0	2935	4982	3912	6398	1014	0	32837	32989	32540	32807	32696	32911	32763	32811	
3855	0	2999	4992	3963	6401	1015	0	32886	32799	32386	32877	32734	32843	32591	32901	
3856	0	2876	5012	3984	6433	1016	0	33025	32711	32517	32901	32747	32847	32700	32804	
3857	0	2962	5028	4014	6442	1017	0	33076	32749	32711	32903	32775	32862	32695	32813	
3858	0	2987	5048	3984	6400	1018	0	33115	32503	32802	32875	32824	32759	32647	32765	
3859	0	2911	4994	3918	6400	1019	0	32983	32255	32813	32807	32537	32900	32746	32823	
3860	0	2948	4984	3970	6419	1020	0	32853	32383	32941	32787	32659	32773	32711	32797	
3861	0	2951	4970	3940	6405	1021	0	32666	32523	32791	32791	32691	32775	32612	32796	
3862	0	2912	5024	3956	6422	1022	0	32614	32750	32843	32855	32607	32843	32761	32739	
3863	0	2928	5001	3964	6408	1023	0	32647	32797	32770	32827	32639	32707	32559	32724	
3864	0	2940	4980	3958	6450	1024	0	32647	32771	32807	32789	32635	32845	32756	32683	
3865	0	2923	4996	3977	6399	1025	0	32686	32943	32860	32795	32615	32805	32694	32707	
3866	0	2923	4998	3936	6406	1026	0	32761	32815	32859	32895	32570	32726	32659	32687	
3867	0	2949	4954	4003	6432	1027	0	32742	33134	32983	32987	32607	32815	32474	32717	
3868	0	2925	4985	3989	6444	1028	0	32762	32919	32897	32901	32610	32759	32623	32957	
3869	0	2937	4978	3922	6409	1029	0	32851	32993	32763	32859	32623	32775	32661	32945	
3870	0	2880	5022	3942	6358	1030	0	32937	32765	32941	32903	32575	32775	32844	32823	
3871	0	2942	5000	3969	6362	1031	0	32896	32742	32879	32765	32627	32830	32751	32735	
3872	0	2915	4942	3938	6427	1032	0	32860	32708	32843	32563	32580	32748	32775	32743	
3873	0	2947	4940	3955	6400	1033	0	32842	32467	32727	32469	32578	32703	32726	32726	
3874	0	2920	4996	3986	6386	1034	0	32805	32703	32698	32475	32561	32723	32695	32735	
3875	0	2956	4996	3978	6396	1035	0	32812	32623	32707	32463	32615	32735	32754	32759	
3876	0	2933	5013	3967	6393	1036	0	32658	32825	32556	32525	32631	32831	32638	32785	
3877	0	2931	4960	3976	6414	1037	0	32605	32751	32311	32691	32597	32694	32743	32663	
3878	0	2919	5000	3963	6435	1038	0	32641	32919	32365	32663	32718	32637	32663	32626	
3879	0	2922	4957	3923	6412	1039	0	32473	33167	32365	32725	32815	32740	32775	32658	
3880	0	2936	4942	3941	6428	1040	0	32382	33019	32596	32878	32729	32803	32703	32743	
3881	0	2926	4984	3916	6393	1041	0	32473	33183	32608	32710	32733	32709	32715	32767	
3882	0	2937	4955	3947	6424	1042	0	32518	32951	32487	32487	32599	32862	32711	32687	
3883	0	2890	5030	3924	6377	1043	0	32580	32746	32715	32458	32555	32802	32727	32721	
3884	0	2926	4993	3978	6388	1044	0	32602	32409	32941	32479	32586	32853	32747	32743	
3885	0	2947	5016	3982	6420	1045	0	32854	32333	33011	32595	32645	32857	32647	32715	
3886	0	2932	4981	3928	6415	1046	0	33083	32127	33026	32663	32699	32763	32639	32803	
3887	0	2926	4990	3941	6436	1047	0	33228	32135	33007	32723	32687	32850	32634	32823	
3888	0	2911	5023	3937	6418	1048	0	33215	32293	32765	32966	32723	32859	32711	32877	
3889	0	2948	4956	3932	6432	1049	0	33076	32659	32783	32956	32711	32772	32687	32757	
3890	0	2899	4966	3942	6414	1050	0	32791	32527	32709	32860	32591	32825	32743	32819	
3891	0	2924	4965	4004	6355	1051	0	32692	32725	32509	32799	32519	32751	32751	32829	
3892	0	2872	4972	3965	6416	1052	0	32593	32631	32535	32727	32607	32810	32735	32749	
3893	0	2902	4974	3981	6449	1053	0	32630	32868	32553	32685	32559	32763	32823	32807	
3894	0	2896	4970	4000	6376	1054	0	32735	32967	32647	32711	32506	32679	32699	32879	
3895	0	2908	5026	3952	6390	1055	0	32780	33047	33031	32751	32403	32791	32791	32847	
3896	0	2900	4970	3952	6438	1056	0	32811	32822	33133	32811	32493	32758	32769	32775	
3897	0	2879	4992	3932	6401	1057	0	32785	32975	33147	32911	32657	32711	32755	32775	
3898	0	2929	4935	3989	6400	1058	0	32775	32861	32882	33093	32529	32795	32723	32819	
3899	0	2911	4946	3982	6378	1059	0	32767	33095	32641	32961	32526	32823	32621	32806	
3900	0	2891	5008	3940	6400	1060	0	32806	32871	32667	32871	32527	32711	32625	32740	
3901	0	2933	4909	3997	6430	1061	0	32805	32901	32539	32647	32509	32790	32687	32687	
3902	0	2903	4969	3988	6404	1062	0	32706	32951	32480	32189	32583	32758	32575	32805	
3903	0	2956	4936	3938	6382	1063	0	32685	32769	32347	32113	32495	32887	32583	32838	
3904	0	2939	4956	3965	6400	1064	0	32722	32794	32503	32183	32525	32827	32525	32775	
3905	0	2960	4921	3988	6412	1065	0	32773	32713	32525	32351	32555	32695	32769	32727	
3906	0	2936	4922	3985	6440	1066	0	32716	32743	32503	32679	32756	32759	32868	32647	
3907	0	2910	4980	3957	6413	1067	0	32835	32671	32599	32829	32887	32712	32767	32627	
3908	0	2916	4966	3977	6392	1068	0	32834	32935	32715	32903	32762	32879	32839	32767	
3909	0	2944	4941	3984	6423	1069	0	32769	32743	32677	33057	32671	32743	32775	32754	
3910	0	2932	4968	3941	6442	1070	0	32712	32947	32550	32914	32683	32839	32615	32807	
3911	0	2897	4984	3985	6430	1071	0	32634	32679	32647	32941	32733	32799	32725	32794	
3912	0	2932	4992	3974	6434	1072	0	32519	32775	32583	32903	32663	32787	32613	32763	
3913	0	2925	4969	3989	6417	1073	0	32586	32677	32631	32959	32647	32839	32647	32743	
3914	0	2890	4976	3911	6392	1074	0	32658	32789	32589	33091	32694	32647	32693	32773	
3915	0	2924	4960	3955	6431	1075	0	32723	32603	32630	33007	32810	32758	32633	32647	
3916	0	2936	4949	3962	6416	1076	0	32775	32887	32542	32919	32759	32765	32815	32667	
3917	0	2939	4905	3960	6376	1077	0	32852	32668	32719	32871	32799	32786	32867	32719	
3918	0	2916	4936	3984	6448	1078	0	32903	32734	32861	32931	32743	32759	32730	32775	
3919	0	2856	4958	4005	6466	1079	0	32881	32477	32935	32917	32679	32733	32788	32699	
3920	0	2916	4934	3992	6440	1080	0	32871	32711	33132	32901	32639	32743	32767	32759	
3921	0	2901	4895	3963	6406	1081	0	32877	32599	33407	32813	32551	32827	32756	32751	
3922	0	2938	4925	4022	6425	1082	0	32998	32721	33355	32583	32580	32789	32742	32729	
3923	0	2908	4937	3996	6422	1083	0	32943	32683	33194	32429	32598	32773	32661	32647	
3924	0	2878	4947	3995	6442	1084	0	32929	33001	33122	32484	32582	32775	32725	32741	
3925	0	2852	4914	4000	6475	1085	0	32849	32827	32893	32422	32612	32765	32687	32727	
3926	0	2908	4962	4045	6436	1086	0	32687	32959	32797	32391	32541	32771	32719	32743	
3927	0	2914	4932	4006	6437	1087	0	32614	32741	32698	32471	32727	32725	32807	32771	
3928	0	2898	4915	4032	6435	1088	0	32633	32863	32477	32575	32663	32804	32737	32833	
3929	0	2856	4951	4013	6432	1089	0	32647	32437	32359	32679	32641	32813	32775	32811	
3930	0	2958	4883	3952	6438	1090	0	32725	32487	32205	32735	32674	32759	32689	32797	
3931	0	2920	4898	3994	6439	1091	0	32751	32221	32186	32861	32733	32789	32876	32841	
3932	0	2916	4955	3990	6431	1092	0	32796	32534	32453	32875	32646	32723	32682	32893	
3933	0	2907	4938	3976	6469	1093	0	32705	32419	32431	32855	32571	32695	32742	32787	
3934	0	2892	4900	4011	6454	1094	0	32655	32743	32464	32871	32564	32742	32637	32783	
3935	0	2881	4935	4000	6433	1095	0	32689	32983	32758	32803	32674	32733	32679	32941	
3936	0	2896	4907	4000	6460	1096	0	32658	33086	32675	32854	32707	32783	32643	32830	
3937	0	2872	4927	3993	6419	1097	0	32603	33117	32619	32903	32718	32839	32671	32807	
3938	0	2846	4954	3994	6474	1098	0	32732	32707	32633	32734	32699	32717	32745	32812	
3939	0	2879	4932	4048	6449	1099	0	32728	32834	32504	32199	32699	32791	32782	32669	
3940	0	2935	4945	4059	6458	1100	0	32741	32354	32609	32039	32701	32647	32667	32711	
3941	0	2905	4920	4016	6481	1101	0	32767	32446	32586	32161	32684	32758	32726	32767	
3942	0	2888	4904	4050	6464	1102	0	32754	32213	32758	32493	32759	32679	32643	32766	
3943	0	2913	4882	4020	6422	1103	0	32692	32615	32916	32791	32806	32782	32808	32791	
3944	0	2864	4903	4019	6472	1104	0	32787	32959	32925	32995	32743	32846	32771	32855	
3945	0	2925	4917	4014	6468	1105	0	32919	32822	32975	33015	32790	32743	32623	32819	
3946	0	2840	4922	3991	6466	1106	0	32943	33067	32962	33061	32798	32791	32658	32739	
3947	0	2884	4910	4002	6420	1107	0	32804	32958	32980	32978	32804	32822	32711	32714	
3948	0	2886	4913	4010	6452	1108	0	32775	33251	33047	32858	32863	32791	32807	32756	
3949	0	2852	4936	4004	6436	1109	0	32715	32879	32967	32836	32795	32807	32850	32743	
3950	0	2885	4902	4016	6484	1110	0	32829	32598	32903	32868	32647	32797	32695	32796	
3951	0	2912	4908	4023	6493	1111	0	32871	32213	32982	32759	32557	32823	32797	32773	
3952	0	2890	4925	4075	6446	1112	0	33010	32503	33011	32771	32551	32837	32767	32823	
3953	0	2858	4877	4043	6463	1113	0	32980	32639	33039	32939	32578	32795	32635	32859	
3954	0	2851	4913	4030	6461	1114	0	32803	32898	33023	32987	32660	32863	32727	32927	
3955	0	2918	4870	4036	6491	1115	0	32752	32791	32863	33039	32703	32697	32642	32868	
3956	0	2863	4894	4033	6464	1116	0	32734	32943	32637	33047	32739	32801	32839	32817	
3957	0	2921	4874	4025	6460	1117	0	32743	32903	32646	33071	32666	32868	32825	32767	
3958	0	2910	4881	4061	6468	1118	0	32777	32591	32610	32991	32666	32725	32775	32687	
3959	0	2875	4921	4073	6443	1119	0	32826	32771	32786	32998	32573	32726	32767	32647	
3960	0	2820	4878	4056	6475	1120	0	32999	32615	32903	32929	32647	32807	32727	32661	
3961	0	2894	4911	4076	6447	1121	0	33104	32733	32743	32867	32716	32717	32871	32681	
3962	0	2888	4853	4040	6508	1122	0	32935	32783	32583	32773	32707	32871	32756	32715	
3963	0	2916	4892	4079	6510	1123	0	32765	32951	32347	32614	32587	32782	32802	32734	
3964	0	2818	4901	4075	6492	1124	0	32647	33149	32342	32677	32647	32639	32807	32755	
3965	0	2910	4890	4128	6451	1125	0	32721	33235	32381	32715	32713	32756	32719	32807	
3966	0	2884	4892	4064	6445	1126	0	32695	33260	32357	32703	32807	32762	32721	32735	
3967	0	2864	4836	4034	6504	1127	0	32687	32739	32082	32671	32775	32716	32647	32751	
3968	0	2900	4899	4052	6466	1128	0	32660	32727	32275	32595	32766	32804	32734	32862	
3969	0	2892	4863	4069	6474	1129	0	32639	32461	32391	32551	32767	32767	32707	32725	
3970	0	2905	4893	4076	6476	1130	0	32586	32515	32391	32499	32743	32786	32663	32742	
3971	0	2893	4873	4090	6465	1131	0	32617	32391	32559	32473	32773	32815	32797	32809	
3972	0	2886	4880	4081	6416	1132	0	32681	32483	32755	32364	32767	32718	32715	32839	
3973	0	2896	4925	4064	6499	1133	0	32796	32679	32753	32249	32745	32759	32751	32712	
3974	0	2897	4850	4039	6468	1134	0	32758	32511	32879	32246	32713	32719	32763	32698	
3975	0	2898	4844	4059	6469	1135	0	32856	32669	32935	32373	32679	32695	32679	32727	
3976	0	2908	4848	4105	6495	1136	0	32820	32439	33071	32567	32705	32723	32681	32751	
3977	0	2835	4926	4049	6470	1137	0	32919	32591	33285	32783	32739	32815	32722	32663	
3978	0	2849	4898	4065	6428	1138	0	32951	32711	33307	33059	32707	32667	32827	32717	
3979	0	2895	4859	4052	6466	1139	0	32857	32775	33282	33207	32743	32836	32749	32823	
3980	0	2887	4864	4063	6459	1140	0	32859	32925	33087	33287	32639	32786	32647	32759	
3981	0	2913	4898	4104	6470	1141	0	32738	32733	32829	33239	32763	32795	32727	32738	
3982	0	2887	4874	4089	6489	1142	0	32680	33015	32712	33186	32807	32820	32659	32723	
3983	0	2882	4870	4064	6456	1143	0	32718	32871	32563	33042	32807	32767	32731	32655	
3984	0	2899	4832	4070	6459	1144	0	32687	33010	32359	32999	32727	32821	32738	32679	
3985	0	2891	4894	4131	6451	1145	0	32708	33143	32479	33013	32698	32863	32554	32755	
3986	0	2855	4870	4065	6473	1146	0	32764	33197	32519	32943	32615	32927	32549	32783	
3987	0	2872	4858	4064	6488	1147	0	32805	33047	32591	32789	32709	32775	32701	32793	
3988	0	2914	4881	4076	6430	1148	0	32786	33076	32679	32743	32733	32803	32717	32871	
3989	0	2878	4833	4064	6482	1149	0	32757	32722	32629	32743	32714	32810	32551	32790	
3990	0	2832	4855	4078	6478	1150	0	32646	32791	32688	32687	32724	32797	32775	32830	
3991	0	2875	4829	4081	6470	1151	0	32620	32539	32638	32567	32652	32743	32804	32825	
3992	0	2854	4895	4111	6482	1152	0	32662	32439	32615	32431	32771	32694	32719	32760	
3993	0	2878	4847	4085	6424	1153	0	32806	32374	32567	32415	32735	32687	32804	32769	
3994	0	2880	4859	4058	6458	1154	0	32775	32551	32725	32455	32639	32630	32759	32681	
3995	0	2898	4828	4073	6415	1155	0	32664	32541	32693	32647	32684	32734	32699	32666	
3996	0	2830	4860	4084	6488	1156	0	32608	32926	32575	32679	32639	32738	32711	32764	
3997	0	2852	4847	4047	6466	1157	0	32729	32622	32669	32662	32614	32743	32575	32815	
3998	0	2839	4859	4140	6489	1158	0	32767	32891	32717	32738	32660	32836	32703	32803	
3999	0	2873	4812	4087	6485	1159	0	32740	32671	32669	32757	32610	32899	32663	32788	
4000	0	2837	4817	4076	6464	1160	0	32689	32787	32669	32745	32570	32734	32583	32809	
4001	0	2874	4828	4119	6500	1161	0	32610	32581	32722	32770	32621	32898	32715	32719	
4002	0	2844	4877	4094	6468	1162	0	32714	32775	32755	32767	32738	32831	32717	32729	
4003	0	2846	4869	4092	6492	1163	0	32796	32559	32871	32771	32759	32892	32702	32747	
4004	0	2855	4834	4080	6473	1164	0	32804	32812	33047	32833	32647	32817	32719	32684	
4005	0	2910	4888	4088	6436	1165	0	32827	32629	32975	32685	32645	32843	32671	32735	
4006	0	2853	4846	4113	6439	1166	0	32783	32834	32858	32660	32711	32797	32665	32743	
4007	0	2859	4820	4114	6496	1167	0	32775	32614	32861	32646	32660	32743	32775	32738	
4008	0	2837	4854	4160	6442	1168	0	32791	32789	32850	32645	32691	32789	32647	32741	
4009	0	2906	4854	4130	6497	1169	0	32767	32738	32749	32710	32676	32707	32635	32703	
4010	0	2872	4885	4080	6470	1170	0	32790	32851	32695	32671	32679	32756	32655	32775	
4011	0	2888	4853	4096	6471	1171	0	32770	32877	32607	32835	32719	32775	32599	32751	
4012	0	2848	4866	4138	6478	1172	0	32805	32799	32561	32691	32658	32719	32775	32837	
4013	0	2806	4839	4104	6461	1173	0	32829	32918	32798	32751	32656	32757	32725	32853	
4014	0	2871	4813	4110	6460	1174	0	32827	32647	33014	32700	32703	32803	32796	32767	
4015	0	2893	4832	4154	6480	1175	0	32751	32751	32889	32743	32687	32729	32747	32791	
4016	0	2846	4836	4077	6537	1176	0	32693	32631	33051	32647	32695	32775	32740	32746	
4017	0	2791	4834	4114	6466	1177	0	32634	32826	32799	32671	32791	32806	32796	32719	
4018	0	2831	4800	4100	6518	1178	0	32612	32719	32443	32687	32773	32676	32734	32715	
4019	0	2808	4834	4142	6437	1179	0	32609	32836	32425	32647	32767	32789	32647	32773	
4020	0	2896	4833	4092	6467	1180	0	32628	32738	32342	32727	32629	32737	32813	32742	
4021	0	2857	4805	4105	6488	1181	0	32603	32873	32279	32727	32587	32771	32743	32759	
4022	0	2870	4860	4156	6490	1182	0	32630	32726	32203	32701	32572	32826	32633	32839	
4023	0	2851	4840	4133	6451	1183	0	32675	32729	32258	32679	32508	32835	32721	32824	
4024	0	2865	4833	4105	6461	1184	0	32673	32726	32171	32686	32606	32821	32775	32831	
4025	0	2854	4829	4082	6497	1185	0	32701	32707	32166	32747	32617	32729	32717	32813	
4026	0	2808	4840	4098	6464	1186	0	32738	32775	32357	32643	32599	32797	32783	32785	
4027	0	2837	4837	4088	6473	1187	0	32758	32579	32342	32767	32623	32811	32647	32743	
4028	0	2889	4823	4132	6481	1188	0	32732	32775	32291	32791	32645	32667	32695	32725	
4029	0	2854	4828	4102	6468	1189	0	32700	32583	32461	32889	32621	32695	32754	32695	
4030	0	2842	4854	4170	6500	1190	0	32734	32759	32602	32741	32582	32773	32609	32743	
4031	0	2869	4827	4066	6484	1191	0	32839	32787	32725	32819	32607	32677	32698	32743	
4032	0	2846	4870	4112	6457	1192	0	32879	32716	32995	32839	32743	32788	32683	32681	
4033	0	2806	4837	4102	6488	1193	0	32959	32811	33132	32764	32711	32767	32775	32767	
4034	0	2860	4793	4102	6496	1194	0	32969	32719	33119	32798	32821	32751	32801	32751	
4035	0	2879	4808	4094	6494	1195	0	32873	32803	33299	32772	32733	32763	32731	32772	
4036	0	2871	4820	4104	6493	1196	0	32860	32583	33247	32647	32666	32732	32725	32835	
4037	0	2844	4849	4129	6508	1197	0	32778	32903	33091	32717	32655	32807	32631	33005	
4038	0	2838	4783	4094	6464	1198	0	32700	32788	33173	32811	32669	32902	32533	32863	
4039	0	2864	4777	4098	6494	1199	0	32786	32935	33061	32775	32663	32711	32835	32855	
4040	0	2848	4771	4110	6471	1200	0	32775	32773	32967	32759	32745	32820	32766	32715	
4041	0	2918	4822	4146	6440	1201	0	32827	32900	32945	32619	32679	32719	32663	32709	
4042	0	2843	4857	4140	6469	1202	0	32825	32593	32895	32559	32701	32717	32647	32715	
4043	0	2851	4805	4082	6500	1203	0	32783	32771	32759	32527	32719	32748	32591	32773	
4044	0	2853	4779	4138	6510	1204	0	32791	32848	32757	32629	32742	32767	32613	32835	
4045	0	2822	4798	4111	6445	1205	0	32819	32804	32751	32683	32647	32859	32707	32829	
4046	0	2824	4800	4169	6513	1206	0	32806	32895	32855	32690	32753	32959	32621	32843	
4047	0	2860	4784	4128	6470	1207	0	32866	32617	32987	32709	32722	32767	32717	32910	
4048	0	2839	4811	4122	6430	1208	0	32894	32783	33109	32766	32677	32853	32711	32761	
4049	0	2879	4825	4125	6484	1209	0	32880	32623	33079	32807	32699	32851	32799	32775	
4050	0	2792	4809	4095	6518	1210	0	32884	32807	32918	32871	32749	32757	32873	32775	
4051	0	2850	4792	4129	6473	1211	0	32900	32851	32604	32890	32803	32799	32791	32759	
4052	0	2819	4766	4148	6487	1212	0	32823	32605	32595	32893	32799	32817	32796	32671	
4053	0	2878	4804	4106	6460	1213	0	32751	32859	32471	33023	32791	32867	32655	32625	
4054	0	2848	4854	4180	6480	1214	0	32673	32588	32429	33037	32818	32647	32775	32715	
4055	0	2878	4815	4122	6464	1215	0	32703	32789	32554	32923	32827	32797	32743	32655	
4056	0	2817	4805	4160	6530	1216	0	32653	32684	32477	32961	32788	32730	32699	32775	
4057	0	2851	4771	4144	6454	1217	0	32600	32826	32223	33047	32599	32804	32679	32775	
4058	0	2852	4805	4128	6472	1218	0	32548	32621	32291	32971	32679	32829	32612	32726	
4059	0	2819	4777	4140	6438	1219	0	32628	32719	32378	32679	32508	32781	32677	32711	
4060	0	2830	4814	4140	6505	1220	0	32719	32687	32551	32527	32551	32839	32692	32820	
4061	0	2821	4827	4111	6500	1221	0	32818	32695	32751	32493	32469	32827	32509	32855	
4062	0	2820	4785	4152	6451	1222	0	32799	32783	32802	32463	32471	32876	32685	32804	
4063	0	2817	4844	4097	6472	1223	0	32919	32558	32799	32599	32473	32903	32722	32679	
4064	0	2828	4775	4141	6499	1224	0	32885	32791	32647	32639	32526	32751	32740	32707	
4065	0	2850	4792	4133	6464	1225	0	32786	32693	32514	32830	32617	32791	32719	32700	
4066	0	2844	4819	4186	6433	1226	0	32720	32832	32567	33095	32622	32775	32839	32722	
4067	0	2815	4781	4121	6468	1227	0	32646	32921	32410	33255	32667	32765	32795	32727	
4068	0	2852	4807	4144	6435	1228	0	32436	32717	32233	33235	32799	32812	32850	32719	
4069	0	2838	4800	4100	6447	1229	0	32333	32950	32285	33139	32775	32775	32751	32763	
4070	0	2778	4828	4131	6457	1230	0	32250	33024	32248	33082	32775	32839	32769	32813	
4071	0	2824	4796	4148	6452	1231	0	32304	32935	32247	33069	32713	32713	32739	32839	
4072	0	2812	4816	4208	6477	1232	0	32458	33095	32466	32915	32775	32771	32775	32819	
4073	0	2842	4806	4140	6447	1233	0	32640	32820	32807	32695	32697	32801	32709	32823	
4074	0	2788	4801	4113	6472	1234	0	32767	32887	32903	32594	32679	32735	32721	32725	
4075	0	2882	4836	4107	6421	1235	0	32887	32854	33013	32508	32692	32580	32663	32711	
4076	0	2846	4835	4183	6498	1236	0	32927	32515	32959	32570	32580	32731	32759	32681	
4077	0	2843	4804	4152	6507	1237	0	33010	32711	32876	32615	32579	32692	32742	32667	
4078	0	2860	4816	4151	6492	1238	0	33041	32466	32837	32766	32647	32681	32727	32615	
4079	0	2856	4785	4150	6468	1239	0	32967	32717	32965	32829	32684	32807	32807	32635	
4080	0	2841	4835	4113	6458	1240	0	32938	32527	33006	32709	32663	32762	32687	32647	
4081	0	2830	4832	4103	6480	1241	0	32946	32791	33008	32678	32695	32839	32885	32698	
4082	0	2854	4832	4133	6437	1242	0	32957	32487	32859	32702	32693	32879	32727	32764	
4083	0	2829	4806	4132	6438	1243	0	32975	32677	32917	32662	32655	32769	32735	32804	
4084	0	2854	4835	4092	6434	1244	0	32896	32479	32972	32627	32655	32821	32695	32821	
4085	0	2823	4826	4169	6440	1245	0	32836	32687	32925	32647	32791	32803	32615	32838	
4086	0	2849	4818	4108	6427	1246	0	32865	32565	33159	32621	32773	32794	32703	32827	
4087	0	2872	4798	4155	6475	1247	0	32831	32642	33230	32595	32742	32843	32643	32818	
4088	0	2879	4827	4142	6474	1248	0	32806	32587	33205	32786	32743	32815	32703	32903	
4089	0	2857	4810	4115	6478	1249	0	32807	32836	33159	32747	32727	32791	32758	32803	
4090	0	2785	4771	4119	6464	1250	0	32775	32683	32994	32861	32715	32799	32615	32814	
4091	0	2852	4786	4097	6498	1251	0	32822	32820	32773	32900	32719	32695	32771	32815	
4092	0	2860	4822	4163	6471	1252	0	32777	32709	32703	32719	32726	32743	32763	32863	
4093	0	2865	4810	4143	6461	1253	0	32753	32815	32575	32525	32731	32706	32660	32846	
4094	0	2859	4818	4170	6424	1254	0	32714	32941	32319	32575	32695	32725	32692	32885	
4095	0	2856	4819	4149	6470	1255	0	32711	32668	32351	32583	32705	32743	32573	32886	
4096	0	2868	4799	4125	6493	1256	0	32652	32903	32519	32762	32705	32724	32762	32785	
4097	0	2820	4848	4132	6444	1257	0	32705	32757	32595	32850	32687	32681	32738	32802	
4098	0	2796	4826	4183	6440	1258	0	32850	32812	32711	32695	32676	32811	32839	32789	
4099	0	2799	4847	4146	6435	1259	0	32719	32674	32807	32656	32711	32775	32727	32804	
4100	0	2873	4808	4170	6486	1260	0	32697	32794	32695	32683	32752	32826	32655	32754	
4101	0	2872	4785	4142	6493	1261	0	32678	32699	32548	32755	32742	32839	32759	32671	
4102	0	2841	4835	4128	6429	1262	0	32764	32823	32405	32839	32826	32691	32716	32679	
4103	0	2845	4816	4188	6457	1263	0	32747	32849	32327	32894	32807	32819	32711	32702	
4104	0	2854	4810	4144	6435	1264	0	32756	32966	32435	33010	32863	32847	32797	32727	
4105	0	2866	4816	4144	6430	1265	0	32746	33039	32471	33043	32782	32751	32711	32783	
4106	0	2869	4812	4128	6448	1266	0	32740	32658	32455	33055	32775	32791	32819	32811	
4107	0	2845	4840	4094	6445	1267	0	32738	32979	32475	32991	32818	32855	32661	32837	
4108	0	2863	4849	4136	6451	1268	0	32778	32595	32455	32876	32732	32703	32815	32746	
4109	0	2837	4857	4147	6441	1269	0	32844	32604	32735	32687	32721	32727	32695	32685	
4110	0	2866	4846	4180	6465	1270	0	32851	32421	32727	32499	32769	32765	32749	32727	
4111	0	2834	4868	4133	6462	1271	0	32876	32413	32599	32518	32747	32886	32591	32775	
4112	0	2857	4849	4133	6431	1272	0	32802	32509	32545	32589	32677	32807	32679	32839	
4113	0	2864	4828	4154	6445	1273	0	32587	32607	32372	32667	32679	32838	32581	32919	
4114	0	2843	4839	4136	6436	1274	0	32503	32869	32282	32847	32681	32754	32598	32837	
4115	0	2834	4834	4152	6425	1275	0	32536	32671	32347	32882	32692	32759	32694	32755	
4116	0	2833	4843	4183	6405	1276	0	32528	32863	32375	32943	32671	32823	32703	32819	
4117	0	2816	4867	4066	6438	1277	0	32634	32819	32509	32999	32603	32873	32647	32858	
4118	0	2861	4803	4136	6436	1278	0	32714	32883	32538	32997	32557	32700	32823	32759	
4119	0	2845	4833	4173	6436	1279	0	32918	32977	32881	32915	32599	32732	32693	32663	
4120	0	2806	4803	4195	6430	1280	0	32903	32699	33195	32871	32562	32751	32687	32703	
4121	0	2828	4831	4178	6452	1281	0	32908	32879	33324	32803	32629	32719	32685	32687	
4122	0	2813	4859	4163	6476	1282	0	32948	32623	33334	32845	32663	32739	32679	32647	
4123	0	2815	4850	4141	6418	1283	0	32913	32847	33367	32813	32694	32799	32751	32711	
4124	0	2791	4866	4146	6414	1284	0	32782	32663	33254	32855	32803	32727	32783	32729	
4125	0	2812	4843	4134	6430	1285	0	32786	32911	32975	32805	32830	32762	32765	32743	
4126	0	2863	4792	4187	6437	1286	0	32719	32743	32834	32807	32847	32725	32767	32821	
4127	0	2832	4860	4201	6420	1287	0	32711	32915	32735	32892	32847	32786	32731	32699	
4128	0	2834	4856	4168	6440	1288	0	32656	32743	32583	32866	32773	32783	32820	32692	
4129	0	2904	4853	4172	6439	1289	0	32697	32886	32623	32981	32724	32698	32818	32735	
4130	0	2827	4835	4183	6472	1290	0	32696	32775	32820	32999	32727	32754	32631	32708	
4131	0	2825	4842	4180	6483	1291	0	32692	32893	32769	32785	32767	32753	32717	32711	
4132	0	2828	4883	4173	6404	1292	0	32687	32801	32775	32719	32773	32727	32701	32658	
4133	0	2865	4845	4169	6416	1293	0	32668	32858	32763	32645	32722	32819	32775	32804	
4134	0	2820	4884	4185	6491	1294	0	32676	32820	32647	32578	32751	32922	32637	32790	
4135	0	2832	4799	4164	6436	1295	0	32685	32547	32631	32551	32743	32804	32683	32761	
4136	0	2843	4800	4149	6446	1296	0	32780	32741	32483	32701	32645	32831	32574	32806	
4137	0	2842	4851	4166	6475	1297	0	32832	32551	32519	32711	32790	32805	32659	32865	
4138	0	2859	4882	4190	6423	1298	0	32743	32743	32443	32535	32742	32759	32755	32767	
4139	0	2873	4860	4156	6434	1299	0	32810	32605	32439	32609	32711	32815	32709	32757	
4140	0	2873	4826	4128	6388	1300	0	32822	32755	32527	32527	32723	32845	32764	32743	
4141	0	2847	4845	4196	6393	1301	0	32873	32695	32538	32662	32735	32747	32643	32739	
4142	0	2833	4850	4167	6467	1302	0	32874	32723	32754	32738	32711	32812	32735	32669	
4143	0	2819	4824	4174	6413	1303	0	32844	32611	32893	32698	32709	32839	32775	32775	
4144	0	2842	4850	4176	6457	1304	0	32887	32731	33015	32615	32695	32660	32727	32775	
4145	0	2792	4838	4165	6492	1305	0	32903	32767	32980	32647	32685	32731	32763	32735	
4146	0	2818	4824	4201	6441	1306	0	32901	32785	33071	32662	32671	32767	32794	32687	
4147	0	2778	4819	4206	6424	1307	0	32852	32798	32959	32662	32788	32749	32669	32711	
4148	0	2818	4842	4206	6419	1308	0	32903	32727	32900	32669	32775	32756	32839	32715	
4149	0	2776	4863	4187	6467	1309	0	32940	32819	32851	32805	32761	32740	32685	32687	
4150	0	2798	4854	4209	6459	1310	0	32821	32671	32775	32869	32727	32820	32732	32698	
4151	0	2823	4853	4204	6494	1311	0	32748	32989	32519	32853	32819	32765	32647	32831	
4152	0	2832	4861	4164	6452	1312	0	32588	32727	32463	32876	32759	32691	32719	32834	
4153	0	2747	4847	4199	6417	1313	0	32599	32893	32404	32927	32727	32798	32539	32836	
4154	0	2814	4884	4161	6424	1314	0	32617	32663	32431	32927	32751	32871	32646	32871	
4155	0	2854	4867	4182	6410	1315	0	32576	32869	32804	32914	32717	32759	32647	32979	
4156	0	2798	4846	4211	6437	1316	0	32614	32629	33123	32949	32661	32805	32593	32895	
4157	0	2796	4843	4195	6436	1317	0	32783	32793	33325	32847	32577	32732	32773	32814	
4158	0	2821	4809	4122	6424	1318	0	32857	32591	33447	32692	32605	32718	32705	32783	
4159	0	2849	4826	4201	6426	1319	0	32887	32745	33521	32759	32543	32661	32673	32733	
4160	0	2858	4826	4192	6428	1320	0	32849	32547	33332	32775	32583	32797	32829	32666	
4161	0	2811	4849	4159	6427	1321	0	32893	32751	33101	32837	32547	32727	32695	32714	
4162	0	2793	4836	4194	6400	1322	0	32812	32791	32887	32783	32575	32711	32767	32775	
4163	0	2833	4858	4191	6448	1323	0	32743	32753	32547	32830	32654	32707	32828	32755	
4164	0	2846	4867	4192	6482	1324	0	32644	32902	32163	32967	32677	32788	32710	32734	
4165	0	2854	4830	4199	6410	1325	0	32584	32636	31941	32831	32767	32735	32735	32743	
4166	0	2831	4867	4202	6454	1326	0	32582	32850	31727	32784	32765	32775	32589	32767	
4167	0	2802	4890	4196	6404	1327	0	32524	32924	31810	32787	32720	32782	32685	32759	
4168	0	2821	4853	4172	6408	1328	0	32550	32831	31720	32817	32727	32791	32731	32819	
4169	0	2842	4880	4213	6412	1329	0	32556	32923	31993	32767	32698	32836	32820	32801	
4170	0	2804	4874	4218	6406	1330	0	32519	32683	32146	32711	32719	32887	32839	32759	
4171	0	2824	4876	4220	6440	1331	0	32520	32717	32115	32764	32635	32730	32647	32818	
4172	0	2805	4880	4171	6416	1332	0	32540	32501	32391	32811	32668	32767	32727	32811	
4173	0	2860	4905	4229	6436	1333	0	32655	32847	32787	32731	32669	32742	32643	32822	
4174	0	2796	4874	4166	6420	1334	0	32759	32583	32919	32675	32594	32803	32663	32803	
4175	0	2818	4885	4174	6437	1335	0	32857	32775	33027	32374	32647	32791	32595	32765	
4176	0	2824	4890	4192	6406	1336	0	33030	32534	33027	32314	32663	32711	32639	32787	
4177	0	2838	4866	4192	6404	1337	0	33060	32749	33014	32239	32642	32751	32633	32795	
4178	0	2836	4862	4231	6462	1338	0	32953	32679	32883	32407	32674	32747	32639	32743	
4179	0	2819	4867	4248	6372	1339	0	32943	32842	32707	32659	32663	32837	32749	32797	
4180	0	2882	4871	4228	6401	1340	0	32890	32714	33023	32924	32663	32785	32573	32804	
4181	0	2811	4918	4195	6365	1341	0	32791	32799	32975	33018	32686	32787	32751	32733	
4182	0	2846	4896	4191	6410	1342	0	32736	32799	32655	33215	32719	32851	32715	32743	
4183	0	2808	4893	4193	6394	1343	0	32703	32599	32617	33309	32767	32767	32827	32764	
4184	0	2820	4886	4216	6402	1344	0	32717	32995	32733	33260	32755	32738	32805	32692	
4185	0	2800	4874	4236	6403	1345	0	32722	32703	32995	32925	32647	32783	32863	32693	
4186	0	2850	4950	4189	6370	1346	0	32759	32811	33043	32855	32531	32812	32695	32735	
4187	0	2843	4955	4184	6405	1347	0	32820	32815	33159	32751	32503	32743	32727	32749	
4188	0	2850	4868	4262	6372	1348	0	32876	32807	33118	32755	32555	32852	32735	32743	
4189	0	2821	4834	4249	6382	1349	0	32796	32789	32967	32775	32613	32765	32700	32811	
4190	0	2780	4877	4171	6366	1350	0	32785	32871	32991	32821	32772	32799	32759	32853	
4191	0	2850	4907	4228	6325	1351	0	32725	32767	32867	32845	32791	32804	32663	32799	
4192	0	2808	4861	4187	6356	1352	0	32751	32775	32831	32647	32724	32714	32771	32775	
4193	0	2800	4935	4244	6368	1353	0	32711	32866	32571	32679	32679	32809	32793	32751	
4194	0	2800	4900	4208	6392	1354	0	32710	32602	32453	32591	32647	32725	32727	32717	
4195	0	2763	4864	4209	6340	1355	0	32669	32898	32318	32453	32647	32677	32770	32690	
4196	0	2769	4919	4236	6382	1356	0	32734	32831	32582	32559	32727	32815	32711	32707	
4197	0	2815	4922	4234	6339	1357	0	32767	32748	32971	32759	32715	32692	32693	32683	
4198	0	2812	4901	4248	6301	1358	0	32911	32684	33373	32796	32745	32745	32751	32653	
4199	0	2790	4916	4245	6355	1359	0	32980	32702	33396	32709	32775	32638	32679	32743	
4200	0	2785	4904	4256	6332	1360	0	32919	32335	33221	32743	32747	32695	32806	32669	
4201	0	2773	4896	4196	6344	1361	0	32854	32546	32715	32887	32743	32807	32590	32661	
4202	0	2833	4898	4209	6393	1362	0	32710	32458	32487	32854	32725	32850	32775	32731	
4203	0	2752	4921	4242	6357	1363	0	32677	32715	32242	32809	32743	32783	32671	32764	
4204	0	2796	4944	4258	6361	1364	0	32662	32787	32095	32759	32694	32864	32679	32859	
4205	0	2793	4931	4227	6368	1365	0	32623	32815	32092	32751	32735	32937	32714	32819	
4206	0	2787	4862	4228	6338	1366	0	32668	32919	32133	32871	32722	32758	32743	32766	
4207	0	2816	4900	4227	6349	1367	0	32554	32727	32405	32998	32804	32687	32687	32797	
4208	0	2780	4943	4259	6356	1368	0	32613	32941	32663	33031	32722	32795	32698	32815	
4209	0	2796	4920	4248	6340	1369	0	32579	32931	32729	33005	32599	32861	32711	32839	
4210	0	2787	4938	4207	6368	1370	0	32684	32691	32735	32813	32623	32767	32764	32775	
4211	0	2783	4921	4264	6341	1371	0	32650	33071	32692	32903	32597	32703	32855	32807	
4212	0	2803	4912	4268	6349	1372	0	32696	32939	32869	32807	32631	32767	32679	32751	
4213	0	2816	4907	4293	6367	1373	0	32719	32925	32826	32826	32559	32679	32749	32814	
4214	0	2799	4927	4219	6327	1374	0	32935	32830	32855	32839	32580	32790	32743	32819	
4215	0	2793	4900	4242	6368	1375	0	33121	32765	33060	32743	32607	32819	32577	32761	
4216	0	2784	4948	4252	6352	1376	0	33053	32759	32975	32583	32535	32786	32565	32817	
4217	0	2830	4914	4206	6320	1377	0	33046	32831	32903	32492	32503	32867	32581	32871	
4218	0	2811	4918	4238	6365	1378	0	33116	32471	32833	32363	32523	32859	32775	32758	
4219	0	2755	4964	4232	6362	1379	0	33019	32735	32706	32286	32567	32755	32731	32695	
4220	0	2770	4931	4240	6321	1380	0	32824	32599	32721	32258	32559	32826	32901	32734	
4221	0	2777	4960	4264	6312	1381	0	32734	32838	32555	32287	32548	32766	32855	32715	
4222	0	2770	4947	4213	6365	1382	0	32652	32711	32383	32381	32519	32841	32807	32775	
4223	0	2813	4948	4252	6366	1383	0	32511	32892	32383	32492	32535	32727	32697	32847	
4224	0	2766	4986	4250	6325	1384	0	32380	32817	32359	32668	32550	32742	32673	32782	
4225	0	2785	4876	4251	6334	1385	0	32403	32927	32257	32891	32612	32805	32775	32701	
4226	0	2792	4914	4269	6370	1386	0	32507	33001	32545	32983	32612	32751	32679	32745	
4227	0	2814	4938	4282	6334	1387	0	32625	32903	32747	33285	32579	32935	32647	32769	
4228	0	2760	4935	4262	6311	1388	0	32703	32876	32871	33181	32639	32831	32698	32871	
4229	0	2768	4954	4263	6312	1389	0	32747	32775	32821	33131	32599	32804	32594	32805	
4230	0	2756	4928	4290	6325	1390	0	32834	32702	32883	32991	32549	32767	32748	32749	
4231	0	2774	4972	4252	6274	1391	0	33032	32263	33012	32870	32506	32719	32647	32679	
4232	0	2859	4930	4291	6291	1392	0	33133	32303	33082	32739	32412	32773	32791	32679	
4233	0	2806	4925	4250	6376	1393	0	33055	32247	33031	32503	32497	32791	32679	32756	
4234	0	2792	4957	4269	6311	1394	0	32895	32590	32879	32407	32532	32771	32717	32801	
4235	0	2849	4949	4261	6302	1395	0	32846	32559	32755	32417	32569	32735	32731	32775	
4236	0	2798	4933	4267	6274	1396	0	32831	32749	32749	32546	32583	32723	32703	32759	
4237	0	2794	4929	4211	6332	1397	0	32738	32742	32731	32745	32675	32775	32675	32829	
4238	0	2798	4952	4282	6300	1398	0	32726	32763	32647	32815	32637	32755	32647	32827	
4239	0	2782	4974	4235	6300	1399	0	32740	32742	32745	32887	32565	32809	32734	32866	
4240	0	2800	4930	4275	6319	1400	0	32750	32819	32727	32814	32703	32801	32737	32751	
4241	0	2801	4978	4249	6293	1401	0	32783	32642	32690	32727	32871	32759	32641	32822	
4242	0	2760	4950	4285	6292	1402	0	32755	32787	32911	32724	32839	32799	32787	32743	
4243	0	2758	4954	4291	6280	1403	0	32632	32815	32829	32831	32787	32749	32683	32705	
4244	0	2755	4952	4262	6278	1404	0	32632	32935	32647	33111	32723	32751	32717	32784	
4245	0	2787	4958	4291	6314	1405	0	32599	33090	32587	33279	32700	32785	32591	32751	
4246	0	2751	4960	4289	6304	1406	0	32570	32884	32515	33228	32711	32837	32708	32745	
4247	0	2799	4929	4286	6273	1407	0	32647	33127	32491	33117	32735	32730	32749	32801	
4248	0	2747	4964	4274	6280	1408	0	32655	32860	32391	33103	32698	32831	32647	32717	
4249	0	2838	5012	4232	6325	1409	0	32604	32935	32273	33091	32607	32827	32789	32647	
4250	0	2817	4951	4271	6314	1410	0	32582	32702	32391	32921	32564	32723	32660	32683	
4251	0	2800	4964	4330	6289	1411	0	32652	32789	32384	32845	32639	32839	32767	32726	
4252	0	2737	4985	4244	6291	1412	0	32711	32685	32540	32647	32599	32836	32657	32732	
4253	0	2778	4949	4228	6313	1413	0	32795	32702	32747	32493	32671	32669	32759	32736	
4254	0	2756	4981	4235	6292	1414	0	32988	32747	32820	32549	32743	32754	32871	32799	
4255	0	2793	4980	4286	6276	1415	0	33046	32731	32802	32466	32811	32714	32799	32807	
4256	0	2786	4972	4261	6294	1416	0	32984	32740	32878	32503	32751	32719	32815	32711	
4257	0	2770	4978	4234	6287	1417	0	32944	32635	32965	32511	32743	32751	32655	32707	
4258	0	2767	4938	4271	6268	1418	0	32891	32750	32932	32522	32727	32715	32727	32750	
4259	0	2769	4944	4236	6252	1419	0	32847	32761	32860	32549	32817	32786	32775	32725	
4260	0	2799	4957	4286	6289	1420	0	32818	32727	32735	32559	32735	32875	32597	32775	
4261	0	2781	4924	4287	6302	1421	0	32801	32747	32751	32457	32738	32767	32643	32973	
4262	0	2749	4982	4256	6307	1422	0	32740	32860	32867	32351	32658	32831	32631	32903	
4263	0	2734	4950	4310	6284	1423	0	32729	32580	32813	32386	32679	32921	32659	32742	
4264	0	2750	5000	4283	6265	1424	0	32775	32835	32910	32466	32671	32764	32663	32787	
4265	0	2756	4965	4286	6292	1425	0	32678	32579	32759	32557	32675	32858	32640	32815	
4266	0	2789	4978	4281	6273	1426	0	32681	32863	32670	32850	32687	32854	32737	32647	
4267	0	2771	4950	4243	6264	1427	0	32711	32615	32586	33025	32739	32766	32603	32645	
4268	0	2784	4965	4277	6280	1428	0	32735	32867	32503	33131	32865	32795	32797	32716	
4269	0	2760	4938	4240	6272	1429	0	32743	32711	32613	33174	32751	32740	32661	32815	
4270	0	2761	4951	4233	6259	1430	0	32743	32812	32986	33151	32679	32775	32753	32724	
4271	0	2773	4976	4294	6280	1431	0	32761	32811	33019	32979	32667	32845	32693	32679	
4272	0	2743	4969	4339	6311	1432	0	32756	32803	33103	32858	32695	32775	32707	32727	
4273	0	2802	5003	4246	6256	1433	0	32748	32812	33041	32751	32661	32817	32636	32749	
4274	0	2752	4976	4328	6286	1434	0	32775	32574	33077	32781	32703	32687	32836	32807	
4275	0	2783	4936	4256	6287	1435	0	32791	32741	33051	32695	32789	32719	32823	32703	
4276	0	2782	4921	4297	6298	1436	0	32788	32803	32799	32725	32583	32687	32805	32743	
4277	0	2738	4964	4309	6281	1437	0	32743	32717	32813	32719	32537	32707	32685	32756	
4278	0	2804	4983	4283	6280	1438	0	32765	32935	32786	32756	32595	32697	32807	32675	
4279	0	2724	4948	4273	6260	1439	0	32823	32647	32815	32807	32623	32631	32775	32702	
4280	0	2775	4980	4249	6216	1440	0	32797	32847	32690	32894	32703	32759	32798	32709	
4281	0	2745	4980	4284	6276	1441	0	32723	32687	32485	32797	32709	32731	32687	32774	
