# OpenSignals Text File Format
# {"00:07:80:64:6D:DA": {"sensor": ["CUSTOM/0.5/1.0/V", "CUSTOM/0.5/1.0/V", "CUSTOM/0.5/1.0/V", "CUSTOM/0.5/1.0/V"], "device name": "Plataforma", "column": ["nSeq", "DI", "CH1", "CH2", "CH3", "CH4"], "sync interval": 2, "time": "11:20:49.55", "comments": "", "device connection": "BTH00:07:80:64:6D:DA", "channels": [1, 2, 3, 4], "date": "2017-6-2", "mode": 0, "digital IO": [0, 1], "firmware version": 772, "device": "biosignalsplux", "position": 0, "sampling rate": 1000, "label": ["CH1", "CH2", "CH3", "CH4"], "resolution": [16, 16, 16, 16], "special": [{}, {}, {}, {}]}, "00:07:80:3B:46:38": {"sensor": ["CUSTOM/0.5/1.0/V", "CUSTOM/0.5/1.0/V", "CUSTOM/0.5/1.0/V", "CUSTOM/0.5/1.0/V", "CUSTOM/0.5/1.0/V", "CUSTOM/0.5/1.0/V", "CUSTOM/0.5/1.0/V", "CUSTOM/0.5/1.0/V"], "device name": "EMGs", "column": ["nSeq", "DI", "RA_L", "RA_R", "OE_L", "OE:R", "IL_L", "IL_R", "MF_L", "MF_R"], "sync interval": 2, "time": "11:20:49.55", "comments": "", "device connection": "BTH00:07:80:3B:46:38", "channels": [1, 2, 3, 4, 5, 6, 7, 8], "date": "2017-6-2", "mode": 0, "digital IO": [0, 1], "firmware version": 772, "device": "biosignalsplux", "position": 1, "sampling rate": 1000, "label": ["RA_L", "RA_R", "OE_L", "OE:R", "IL_L", "IL_R", "MF_L", "MF_R"], "resolution": [16, 16, 16, 16, 16, 16, 16, 16], "special": [{}, {}, {}, {}, {}, {}, {}, {}]}}
# EndOfHeader
4552	0	2274	4976	5311	6794	0	0	32775	32599	32699	32743	32663	32846	32647	32735	
4553	0	2277	5007	5268	6788	1	0	32724	32582	32743	32324	32695	32799	32743	32797	
4554	0	2248	5021	5336	6788	2	0	32711	32706	32735	32263	32835	32775	32468	32687	
4555	0	2278	4984	5291	6776	3	0	32686	32621	32631	32415	32743	32678	32715	32686	
4556	0	2281	4978	5240	6769	4	0	32728	32711	32535	32552	32717	32719	32668	32759	
4557	0	2287	4995	5296	6744	5	0	32815	32775	32412	32603	32647	32951	32570	32703	
4558	0	2269	4953	5292	6763	6	0	32775	32815	32437	32455	32711	33051	32655	32575	
4559	0	2306	4983	5268	6708	7	0	32663	32847	32467	32668	32767	32980	32671	32578	
4560	0	2301	4968	5315	6740	8	0	32685	32935	32583	32598	32764	32981	32679	32655	
4561	0	2292	4982	5253	6728	9	0	32725	32901	32583	32701	32725	32924	32549	32654	
4562	0	2311	4976	5284	6706	10	0	32752	32932	32482	32545	32727	32887	32637	32745	
4563	0	2315	4973	5243	6688	11	0	32741	32877	32502	32391	32821	32978	32799	32733	
4564	0	2279	5022	5251	6712	12	0	32815	32847	32495	32239	32766	32799	32855	32819	
4565	0	2266	4983	5214	6652	13	0	32859	32871	32427	32332	32700	32763	32699	32900	
4566	0	2249	4995	5224	6674	14	0	32790	32807	32487	32343	32675	32813	32833	32877	
4567	0	2299	4984	5222	6688	15	0	32710	32829	32549	32455	32639	32825	32775	32885	
4568	0	2330	5035	5236	6673	16	0	32666	32805	32659	32821	32684	32815	32766	32829	
4569	0	2299	5003	5256	6694	17	0	32662	32863	32669	33061	32751	32740	32487	32887	
4570	0	2266	4993	5246	6676	18	0	32713	32741	32670	33159	32804	32683	32681	32915	
4571	0	2314	5025	5264	6688	19	0	32698	32637	32679	33095	32819	32735	32706	32869	
4572	0	2283	5027	5172	6657	20	0	32709	32559	32799	33021	32799	32703	32726	32751	
4573	0	2250	4980	5233	6618	21	0	32751	32564	32703	32836	32749	32813	32694	32745	
4574	0	2324	5013	5230	6619	22	0	32766	32635	32628	32775	32765	32709	32548	32773	
4575	0	2262	5022	5219	6597	23	0	32773	32743	32587	32795	32790	32783	32727	32690	
4576	0	2280	4982	5220	6568	24	0	32772	32575	32572	33071	32662	32838	32623	32577	
4577	0	2230	5020	5233	6595	25	0	32798	32754	32519	32823	32717	32839	32518	32707	
4578	0	2310	4979	5196	6548	26	0	32759	32705	32631	32913	32775	32748	32571	32843	
4579	0	2284	5022	5206	6532	27	0	32662	32623	32763	32805	32863	32732	32598	32927	
4580	0	2313	5027	5181	6559	28	0	32698	32567	32543	32811	32815	32764	32611	32903	
4581	0	2265	5064	5220	6550	29	0	32827	32757	32621	32687	32824	32927	32549	32826	
4582	0	2271	5028	5188	6537	30	0	32950	32957	32687	32535	32613	33065	32591	32729	
4583	0	2255	5021	5191	6510	31	0	33021	32863	32671	32743	32679	33003	32691	32775	
4584	0	2244	5054	5164	6475	32	0	33037	32871	32461	32767	32671	33031	32583	32859	
4585	0	2269	5038	5212	6506	33	0	32838	32959	32562	32638	32775	32911	32707	32867	
4586	0	2277	5058	5182	6440	34	0	32742	32839	32623	32621	32763	32834	32757	32775	
4587	0	2265	5093	5144	6469	35	0	32633	32735	32709	32640	32725	32805	32847	32535	
4588	0	2268	5012	5160	6464	36	0	32582	32647	32639	32705	32703	32737	32655	32589	
4589	0	2232	5045	5199	6457	37	0	32684	32655	32592	32708	32655	32759	32767	32551	
4590	0	2289	5065	5112	6456	38	0	32717	32632	32673	32851	32639	32621	32735	32679	
4591	0	2223	5036	5118	6404	39	0	32719	32645	32671	32897	32642	32514	32775	32725	
4592	0	2247	5045	5184	6424	40	0	32742	32731	32647	33033	32615	32645	32629	32591	
4593	0	2237	5074	5217	6443	41	0	32783	32763	32739	32971	32549	32615	32455	32614	
4594	0	2244	5059	5100	6394	42	0	32801	32711	32847	32940	32581	32658	32708	32609	
4595	0	2265	5092	5164	6368	43	0	32867	32639	32903	32948	32647	32591	32692	32663	
4596	0	2212	5101	5122	6382	44	0	32775	32803	33001	32517	32732	32602	32583	32751	
4597	0	2196	5050	5121	6388	45	0	32701	32883	32903	31954	32756	32647	32623	32658	
4598	0	2275	5069	5078	6357	46	0	32709	32821	32583	31906	32807	32658	32767	32604	
4599	0	2222	5114	5151	6264	47	0	32663	32727	32423	32039	32723	32837	32807	32731	
4600	0	2224	5042	5125	6267	48	0	32686	32605	32599	32247	32727	32879	32719	32868	
4601	0	2182	5124	5148	6306	49	0	32756	32811	32710	32175	32729	32919	32727	32766	
4602	0	2227	5146	5151	6235	50	0	32789	32916	32825	32135	32789	33015	32734	32807	
4603	0	2210	5067	5168	6204	51	0	32824	32915	32801	32135	32879	32893	32761	32767	
4604	0	2215	5117	5121	6252	52	0	32833	32715	32757	32423	32876	32679	32695	32903	
4605	0	2240	5138	5106	6212	53	0	32867	32710	32757	32755	32791	32583	32698	33015	
4606	0	2190	5120	5131	6202	54	0	32924	32941	32635	32572	32703	32807	32527	32966	
4607	0	2201	5128	5128	6193	55	0	32951	33038	32671	32615	32658	32903	32751	32933	
4608	0	2217	5132	5128	6136	56	0	32879	32735	32638	32753	32715	32751	32738	32978	
4609	0	2237	5123	5108	6152	57	0	32748	32602	32623	32823	32743	32590	32539	33063	
4610	0	2200	5148	5096	6154	58	0	32696	32509	32603	32795	32727	32638	32487	33095	
4611	0	2177	5196	5050	6113	59	0	32663	32356	32471	33231	32775	32583	32603	33111	
4612	0	2205	5091	5087	6102	60	0	32655	32311	32455	33471	32725	32742	32698	32809	
4613	0	2164	5173	5097	6082	61	0	32706	32315	32471	33792	32751	32767	32583	32679	
4614	0	2230	5153	5129	6043	62	0	32699	32412	32469	33671	32817	32758	32711	32693	
4615	0	2192	5131	5048	6067	63	0	32684	32415	32621	33671	32813	32669	32657	32623	
4616	0	2147	5159	5089	5999	64	0	32642	32443	32633	33583	32807	32551	32677	32641	
4617	0	2149	5176	5076	6002	65	0	32608	32487	32647	33707	32775	32455	32647	32733	
4618	0	2162	5241	5055	6003	66	0	32679	32391	32598	33495	32751	32583	32703	32885	
4619	0	2178	5182	5086	5981	67	0	32743	32551	32591	33471	32647	32821	32532	32901	
4620	0	2147	5212	5086	5898	68	0	32821	32751	32646	33188	32631	33025	32589	32740	
4621	0	2194	5220	5092	5932	69	0	32863	32867	32687	33251	32602	33058	32489	32647	
4622	0	2125	5230	5097	5924	70	0	32885	32929	32679	33127	32684	32994	32683	32599	
4623	0	2116	5217	5082	5918	71	0	32864	32941	33003	33191	32703	33036	32666	32622	
4624	0	2174	5245	5068	5873	72	0	32864	33047	32991	33105	32719	32847	32583	32711	
4625	0	2167	5253	5076	5838	73	0	32818	32886	32751	33013	32751	32671	32719	32751	
4626	0	2158	5269	5064	5822	74	0	32783	32792	32517	32635	32796	32839	32721	32711	
4627	0	2137	5270	5088	5812	75	0	32860	32791	32426	32223	32658	32807	32698	32727	
4628	0	2126	5270	5118	5808	76	0	32874	32903	32359	31825	32655	32845	32743	32694	
4629	0	2141	5280	5100	5744	77	0	32796	32837	32615	31639	32761	32694	32743	32775	
4630	0	2097	5237	5066	5773	78	0	32863	32847	32767	31825	32647	32775	32723	32743	
4631	0	2094	5279	5100	5704	79	0	32785	32839	32955	31807	32709	33073	32671	32684	
4632	0	2142	5313	5072	5729	80	0	32782	32703	32971	32179	32727	33134	32798	32679	
4633	0	2144	5286	5117	5716	81	0	32775	32715	32735	32277	32631	33189	32695	32677	
4634	0	2125	5337	5134	5680	82	0	32623	32903	32647	32317	32605	33113	32607	32635	
4635	0	2108	5336	5108	5699	83	0	32647	32829	32726	32411	32626	32910	32595	32611	
4636	0	2121	5320	5101	5632	84	0	32606	32756	32959	32647	32692	32919	32769	32666	
4637	0	2092	5328	5153	5613	85	0	32539	32806	32933	32455	32711	32863	32701	32820	
4638	0	2115	5356	5132	5618	86	0	32497	32850	33245	32027	32858	32775	32746	32759	
4639	0	2112	5335	5147	5635	87	0	32615	32914	33479	31979	32860	32683	32775	32766	
4640	0	2123	5393	5142	5602	88	0	32785	33043	33573	32007	32769	32703	32551	32766	
4641	0	2083	5358	5137	5637	89	0	32935	32903	33363	32535	32775	32516	32711	32767	
4642	0	2101	5368	5176	5553	90	0	32932	32807	33023	32950	32939	32421	32662	32811	
4643	0	2079	5390	5210	5568	91	0	32813	32607	32627	33143	32895	32311	32749	32903	
4644	0	2064	5412	5285	5565	92	0	32855	32663	32215	32935	32743	32351	32548	32839	
4645	0	2074	5432	5210	5549	93	0	32914	32663	31871	32959	32623	32629	32743	32759	
4646	0	2043	5414	5224	5540	94	0	32927	32450	31651	33069	32621	32676	32593	32683	
4647	0	2082	5436	5250	5520	95	0	32760	32498	31383	33101	32643	32647	32647	32722	
4648	0	2063	5458	5248	5551	96	0	32791	32591	31359	32749	32721	32783	32734	32767	
4649	0	2065	5488	5333	5486	97	0	32748	32690	31734	32183	32742	32783	32701	32727	
4650	0	2046	5426	5300	5486	98	0	32756	32775	32053	32007	32795	32775	32671	32858	
4651	0	2055	5487	5293	5436	99	0	32718	32705	32118	32123	32759	32709	32775	32843	
4652	0	2077	5468	5338	5456	100	0	32550	32658	32179	32609	32788	32743	32769	32772	
4653	0	2096	5483	5347	5459	101	0	32524	32613	32287	32871	32749	32705	32743	32838	
4654	0	2016	5512	5432	5476	102	0	32531	32818	32403	32878	32671	32673	32729	32767	
4655	0	2070	5509	5390	5440	103	0	32625	32903	32665	33157	32737	32787	32538	32735	
4656	0	2035	5533	5428	5441	104	0	32636	32891	32573	33619	32731	32662	32471	32793	
4657	0	2024	5522	5462	5428	105	0	32653	33085	32569	33787	32691	32775	32633	32760	
4658	0	2025	5546	5436	5406	106	0	32753	32967	32508	33254	32738	32821	32663	32720	
4659	0	2036	5514	5438	5424	107	0	32823	32803	32671	33015	32679	32741	32595	32725	
4660	0	2026	5599	5520	5400	108	0	32838	32679	32838	32823	32628	32743	32686	32783	
4661	0	2052	5566	5508	5452	109	0	32789	32620	32795	32582	32786	32711	32727	32751	
4662	0	2060	5579	5526	5397	110	0	32836	32575	32811	32549	32833	32802	32671	32738	
4663	0	2007	5582	5549	5374	111	0	32742	32619	32884	32527	32755	32796	32718	32831	
4664	0	2014	5584	5538	5393	112	0	32722	32567	32903	32468	32795	32731	32615	32825	
4665	0	2026	5572	5608	5384	113	0	32742	32350	32858	32477	32726	32715	32705	32759	
4666	0	1988	5602	5598	5370	114	0	32871	32757	32948	32325	32655	32824	32679	32743	
4667	0	1988	5625	5625	5337	115	0	33072	33083	33179	32030	32775	32775	32541	32701	
4668	0	2025	5620	5608	5374	116	0	33079	33015	33451	32195	32725	32705	32638	32719	
4669	0	2023	5604	5653	5369	117	0	32914	32871	33399	32478	32791	32641	32699	32775	
4670	0	2013	5595	5700	5329	118	0	32779	32991	33371	32607	32767	32717	32647	32832	
4671	0	1990	5648	5742	5379	119	0	32671	32919	33106	32871	32669	32743	32559	32847	
4672	0	2008	5630	5718	5352	120	0	32615	32605	32771	32943	32669	32698	32734	32839	
4673	0	1981	5646	5766	5342	121	0	32667	32575	32364	33046	32647	32692	32713	32785	
4674	0	2034	5646	5740	5296	122	0	32720	32809	32351	32943	32753	32660	32631	32852	
4675	0	1988	5629	5774	5332	123	0	32767	32725	32148	32963	32687	32820	32685	32820	
4676	0	2002	5660	5855	5351	124	0	32767	32695	32037	33367	32683	32871	32757	32762	
4677	0	2035	5653	5803	5306	125	0	32767	32582	32031	33575	32735	32807	32732	32814	
4678	0	2012	5644	5870	5381	126	0	32709	32599	32135	33737	32722	32719	32551	32823	
4679	0	1975	5674	5890	5354	127	0	32775	32578	32169	33759	32677	32807	32571	32775	
4680	0	1959	5707	5874	5342	128	0	32708	32647	32283	33835	32705	32835	32715	32798	
4681	0	2000	5724	5903	5314	129	0	32741	32591	32413	33915	32698	32742	32731	32745	
4682	0	1966	5710	5947	5336	130	0	32732	32583	32524	33865	32775	32783	32518	32739	
4683	0	1924	5693	5964	5310	131	0	32760	32587	32559	33670	32799	32797	32742	32687	
4684	0	1994	5709	5989	5363	132	0	32710	32527	32628	33375	32677	32775	32711	32694	
4685	0	1954	5701	6011	5358	133	0	32690	32574	32855	33223	32721	32745	32751	32775	
4686	0	1944	5757	5998	5324	134	0	32820	32687	32674	33103	32646	32804	32599	32751	
4687	0	1936	5752	6006	5322	135	0	32881	32685	32674	32684	32813	32821	32769	32679	
4688	0	1930	5751	6085	5302	136	0	32755	32557	32853	32527	32747	32763	32749	32695	
4689	0	1948	5766	6125	5324	137	0	32789	32612	33005	32493	32749	32751	32682	32687	
4690	0	1932	5760	6112	5335	138	0	32681	32647	32950	32415	32647	32717	32607	32687	
4691	0	1913	5710	6152	5318	139	0	32757	32527	32903	32342	32722	32630	32781	32807	
4692	0	1932	5769	6118	5281	140	0	32820	32387	32874	32022	32819	32583	32743	32764	
4693	0	1956	5771	6204	5300	141	0	32804	32415	32887	32009	32823	32617	32511	32819	
4694	0	1927	5776	6178	5316	142	0	32753	32656	32855	31943	32839	32543	32694	32806	
4695	0	1963	5744	6230	5346	143	0	32799	32754	32810	32165	32724	32575	32603	32807	
4696	0	1921	5772	6257	5325	144	0	32738	32853	32797	32192	32687	32611	32633	32775	
4697	0	1933	5798	6294	5295	145	0	32834	32845	32641	32429	32738	32495	32580	32879	
4698	0	1992	5794	6251	5306	146	0	32791	32901	32735	32454	32797	32751	32762	32743	
4699	0	1924	5782	6304	5312	147	0	32847	32943	32775	32507	32637	33039	32716	32615	
4700	0	1936	5798	6351	5335	148	0	32892	32919	32827	32455	32594	32953	32505	32605	
4701	0	1893	5776	6329	5273	149	0	32819	32753	32683	32223	32587	32911	32676	32604	
4702	0	1926	5821	6344	5317	150	0	32788	32763	32677	32083	32742	32775	32705	32687	
4703	0	1890	5812	6382	5325	151	0	32823	32751	32759	31855	32769	32877	32583	32743	
4704	0	1927	5823	6393	5298	152	0	32771	32854	32854	32059	32799	32829	32604	32743	
4705	0	1925	5780	6402	5289	153	0	32790	32831	32819	32052	32647	32738	32718	32692	
4706	0	1905	5834	6492	5306	154	0	32791	32867	32765	32237	32557	32854	32773	32709	
4707	0	1894	5806	6486	5341	155	0	32815	32927	32743	32389	32663	32667	32832	32701	
4708	0	1916	5868	6452	5295	156	0	32903	32941	32773	32727	32663	32615	32674	32775	
4709	0	1928	5850	6493	5315	157	0	32895	32943	32724	33194	32647	32494	32647	32799	
4710	0	1891	5852	6509	5310	158	0	32847	32865	32727	33151	32727	32559	32817	32784	
4711	0	1914	5840	6488	5325	159	0	32791	32879	32743	33287	32695	32769	32835	32713	
4712	0	1934	5808	6556	5285	160	0	32849	32751	32694	32903	32775	32699	32658	32759	
4713	0	1911	5836	6535	5335	161	0	32865	32599	32535	32927	32762	32679	32723	32759	
4714	0	1844	5856	6518	5235	162	0	32715	32349	32607	32769	32751	32576	32788	32769	
4715	0	1867	5799	6589	5337	163	0	32700	32349	32577	32861	32743	32607	32773	32839	
4716	0	1890	5866	6563	5376	164	0	32710	32599	32783	32899	32783	32633	32690	32767	
4717	0	1886	5847	6597	5307	165	0	32700	32771	32543	32969	32797	32759	32751	32723	
4718	0	1908	5845	6596	5268	166	0	32520	32642	32589	32997	32749	32913	32707	32700	
4719	0	1876	5828	6665	5334	167	0	32578	32703	32619	32675	32565	32803	32783	32803	
4720	0	1909	5852	6696	5316	168	0	32702	32879	32285	32271	32665	32775	32675	32728	
4721	0	1883	5858	6625	5265	169	0	32745	32613	32415	31804	32691	32787	32529	32775	
4722	0	1854	5867	6658	5306	170	0	32701	32291	32467	31793	32573	32807	32671	32767	
4723	0	1870	5876	6691	5275	171	0	32701	32757	32655	31835	32627	32627	32692	32687	
4724	0	1867	5860	6733	5284	172	0	32732	33031	32713	31951	32742	32676	32647	32711	
4725	0	1874	5874	6688	5292	173	0	32857	32991	32549	32119	32775	32711	32613	32927	
4726	0	1868	5814	6740	5281	174	0	32859	33134	32529	32959	32750	32839	32613	32717	
4727	0	1928	5925	6775	5305	175	0	32696	33317	32527	33523	32738	32735	32556	32599	
4728	0	1868	5859	6756	5306	176	0	32703	32969	32623	33863	32876	32719	32620	32703	
4729	0	1877	5915	6757	5313	177	0	32711	32535	32713	33909	32743	32598	32667	32790	
4730	0	1796	5830	6780	5279	178	0	32817	32447	32834	33717	32647	32535	32726	32964	
4731	0	1867	5880	6824	5261	179	0	32809	32647	32961	33286	32727	32667	32751	32863	
4732	0	1861	5853	6808	5279	180	0	32771	32763	32767	32957	32945	32867	32711	32703	
4733	0	1835	5879	6816	5276	181	0	32847	32791	32675	32940	32865	32898	32583	32707	
4734	0	1824	5902	6877	5315	182	0	32814	32694	32674	32551	32829	32815	32647	32697	
4735	0	1822	5908	6853	5293	183	0	32696	32767	32724	32546	32615	32759	32704	32839	
4736	0	1854	5883	6853	5284	184	0	32597	32575	32617	32583	32641	32741	32477	32759	
4737	0	1872	5844	6858	5280	185	0	32527	32343	32684	32367	32717	32846	32726	32597	
4738	0	1787	5872	6897	5304	186	0	32599	32527	32634	31935	32679	32858	32695	32511	
4739	0	1831	5906	6913	5256	187	0	32663	32805	32615	31613	32719	32843	32583	32835	
4740	0	1824	5886	6895	5227	188	0	32716	32589	32615	31663	32703	32823	32647	32971	
4741	0	1828	5864	6933	5266	189	0	32756	32519	32567	32019	32671	32847	32705	32861	
4742	0	1788	5852	6914	5262	190	0	32806	32743	32515	32363	32613	32947	32770	32742	
4743	0	1840	5883	6923	5240	191	0	32854	32879	32447	32837	32641	32835	32635	32903	
4744	0	1780	5907	6948	5230	192	0	32852	32911	32436	33274	32807	32679	32761	32969	
4745	0	1813	5890	6952	5245	193	0	32767	32441	32425	33741	32847	32623	32673	33009	
4746	0	1784	5900	6957	5259	194	0	32797	32867	32429	34094	32756	32639	32740	32985	
4747	0	1829	5901	6950	5258	195	0	32711	32982	32548	34599	32826	32479	32661	33153	
4748	0	1804	5858	6958	5254	196	0	32730	32671	32818	34871	32934	32431	32661	33263	
4749	0	1823	5873	6996	5213	197	0	32790	32205	32930	35021	32975	32707	32727	33008	
4750	0	1752	5887	6921	5221	198	0	32678	32295	32807	34791	32807	33047	32699	32716	
4751	0	1751	5832	7004	5212	199	0	32744	32587	32995	34603	32807	32967	32543	32743	
4752	0	1794	5886	6983	5247	200	0	32860	32637	33007	34013	32831	32671	32748	32695	
4753	0	1767	5924	6976	5180	201	0	32898	32522	33089	33653	32843	32623	32702	32630	
4754	0	1787	5870	7025	5213	202	0	32863	32525	32819	33099	32703	32956	32727	32594	
4755	0	1743	5888	6985	5187	203	0	32902	32479	32623	32699	32577	33095	32527	32463	
4756	0	1767	5909	7008	5256	204	0	32850	32644	32534	32323	32495	33030	32701	32285	
4757	0	1791	5932	7052	5215	205	0	32865	32884	32533	32021	32647	32911	32706	32450	
4758	0	1777	5914	7000	5229	206	0	32725	32819	32363	31907	32587	32999	32541	32671	
4759	0	1803	5888	7034	5211	207	0	32662	32620	32227	31938	32647	32999	32530	32502	
4760	0	1763	5898	7052	5225	208	0	32547	32842	32330	31756	32702	33087	32823	32451	
4761	0	1739	5883	7017	5208	209	0	32635	32867	32615	31853	32647	33133	32804	32631	
4762	0	1744	5876	7030	5174	210	0	32738	32887	32671	31751	32739	32875	32553	32827	
4763	0	1839	5904	7036	5185	211	0	32684	32867	32595	31819	32727	32769	32823	32927	
4764	0	1797	5906	7010	5198	212	0	32677	32767	32647	32103	32763	32879	32765	32807	
4765	0	1754	5869	6976	5190	213	0	32743	32722	32702	32571	32735	32711	32559	32923	
4766	0	1737	5875	7073	5186	214	0	32775	32807	32503	32751	32698	32741	32767	32935	
4767	0	1775	5860	7042	5196	215	0	32787	32775	32363	32914	32647	32783	32671	32891	
4768	0	1744	5876	7067	5219	216	0	32805	32933	32459	32561	32637	32806	32692	32937	
4769	0	1761	5915	7051	5158	217	0	32780	32730	32507	32511	32703	32695	32543	32749	
4770	0	1764	5854	7040	5195	218	0	32772	32700	32379	32293	32708	32748	32749	32805	
4771	0	1797	5926	7044	5128	219	0	32831	32754	32467	32158	32745	32607	32775	32706	
4772	0	1780	5888	7062	5176	220	0	32756	32767	32447	32018	32687	32457	32709	32735	
4773	0	1765	5842	7074	5186	221	0	32735	32765	32415	32215	32711	32436	32539	32739	
4774	0	1728	5884	7081	5180	222	0	32773	32807	32564	32391	32703	32539	32719	32749	
4775	0	1704	5896	7085	5142	223	0	32796	32687	32673	32547	32683	32839	32741	32759	
4776	0	1764	5911	7075	5162	224	0	32757	32781	32811	32487	32758	32743	32791	32767	
4777	0	1752	5874	7098	5139	225	0	32756	32838	32773	32143	32673	32831	32647	32647	
4778	0	1730	5946	7110	5156	226	0	32809	32901	32798	32407	32679	32887	32647	32646	
4779	0	1776	5914	7117	5184	227	0	32823	32799	33023	32378	32707	32815	32628	32759	
4780	0	1780	5930	7153	5111	228	0	32805	32751	33287	32415	32731	32836	32725	32775	
4781	0	1780	5859	7138	5143	229	0	32836	32629	33625	32315	32713	32847	32589	32747	
4782	0	1731	5916	7126	5115	230	0	32793	32835	33189	32415	32740	32903	32590	32775	
4783	0	1697	5865	7170	5141	231	0	32858	32943	32919	32619	32827	32863	32631	32887	
4784	0	1762	5880	7187	5118	232	0	32908	32935	32483	32845	32770	32775	32635	32899	
4785	0	1731	5901	7179	5113	233	0	32790	32919	32247	32823	32797	32851	32568	32797	
4786	0	1756	5906	7163	5089	234	0	32767	32851	32146	33026	32855	32743	32639	32736	
4787	0	1732	5928	7152	5120	235	0	32791	32668	32247	33117	32717	32729	32727	32719	
4788	0	1690	5920	7165	5130	236	0	32847	32539	32591	32971	32671	32739	32706	32754	
4789	0	1787	5888	7174	5108	237	0	32815	32599	32733	32903	32669	32803	32614	32685	
4790	0	1713	5913	7208	5102	238	0	32810	32676	32587	32741	32703	32669	32617	32727	
4791	0	1790	5931	7201	5152	239	0	32711	32733	32659	32703	32749	32629	32703	32819	
4792	0	1714	5972	7216	5128	240	0	32557	32827	32631	32618	32733	32498	32724	32871	
4793	0	1721	5919	7248	5116	241	0	32591	32771	32621	32748	32679	32514	32791	32815	
4794	0	1733	5917	7217	5120	242	0	32638	32637	32467	32719	32722	32646	32635	32763	
4795	0	1705	5914	7222	5146	243	0	32638	32655	32302	32790	32739	32706	32588	32825	
4796	0	1732	5916	7196	5092	244	0	32688	32703	32263	32687	32691	32788	32717	32799	
4797	0	1758	5944	7289	5146	245	0	32679	32668	32438	32579	32741	32745	32619	32810	
4798	0	1758	5950	7241	5125	246	0	32630	32631	32487	32743	32675	32667	32605	32871	
4799	0	1735	5907	7260	5094	247	0	32692	32575	32483	32890	32607	32658	32519	32851	
4800	0	1732	5944	7290	5149	248	0	32696	32516	32758	33023	32662	32775	32709	32815	
4801	0	1728	5925	7322	5114	249	0	32731	32519	32833	33047	32775	32647	32728	32831	
4802	0	1708	5912	7325	5113	250	0	32701	32551	32804	33051	32719	32597	32518	32830	
4803	0	1735	5933	7296	5097	251	0	32663	32574	32659	33060	32739	32709	32638	32834	
4804	0	1732	5923	7350	5147	252	0	32710	32835	32518	32978	32623	32918	32532	32745	
4805	0	1714	5942	7318	5107	253	0	32717	32859	32383	33005	32660	32981	32413	32743	
4806	0	1778	5906	7320	5101	254	0	32712	32759	32220	32983	32829	32993	32647	32775	
4807	0	1736	5908	7359	5084	255	0	32684	32673	32247	32799	32758	32883	32662	32809	
4808	0	1764	5947	7314	5142	256	0	32647	32685	32340	32631	32785	32854	32436	32743	
4809	0	1719	5942	7378	5096	257	0	32705	32665	32079	32583	32685	32862	32641	32719	
4810	0	1715	5970	7386	5144	258	0	32797	32809	31831	32445	32631	32767	32590	32783	
4811	0	1738	5925	7388	5096	259	0	32861	32659	31746	32131	32681	32775	32562	32775	
4812	0	1742	5993	7392	5076	260	0	32813	32698	31719	31751	32758	32893	32538	32686	
4813	0	1753	5952	7396	5072	261	0	32825	32834	31942	31207	32791	32823	32415	32703	
4814	0	1731	5985	7424	5104	262	0	32659	32915	32263	31175	32711	32799	32743	32723	
4815	0	1763	5960	7443	5128	263	0	32644	33075	32515	31524	32735	32759	32789	32767	
4816	0	1761	5973	7451	5132	264	0	32710	33103	32450	32111	32727	32827	32607	32707	
4817	0	1729	5933	7453	5131	265	0	32779	33205	32415	32941	32763	32775	32775	32631	
4818	0	1745	5979	7433	5088	266	0	32843	33151	32474	33543	32813	32806	32749	32629	
4819	0	1739	5953	7430	5098	267	0	32903	33031	32587	34086	32791	32847	32713	32753	
4820	0	1700	5974	7445	5105	268	0	32896	32822	32783	34511	32870	32871	32799	32624	
4821	0	1733	5983	7442	5096	269	0	32802	32683	32782	34559	32823	32783	32815	32607	
4822	0	1709	5942	7522	5122	270	0	32836	32605	32885	34279	32780	32877	32871	32625	
4823	0	1727	6023	7460	5170	271	0	32863	32567	33039	33881	32810	32971	32687	32631	
4824	0	1753	5956	7537	5081	272	0	32903	32615	33099	33367	32775	32948	32903	32679	
4825	0	1764	5930	7525	5102	273	0	32898	32775	33327	32855	32791	32871	32853	32567	
4826	0	1740	5949	7552	5093	274	0	33061	32770	33510	32466	32763	32775	32877	32629	
4827	0	1720	5983	7496	5100	275	0	33001	32615	33567	32401	32807	32655	32775	32635	
4828	0	1738	5968	7506	5067	276	0	32945	32439	33495	32334	32759	32679	32897	32663	
4829	0	1756	5964	7570	5122	277	0	32887	32177	33391	32603	32805	32715	33031	32599	
4830	0	1754	6016	7534	5066	278	0	32859	32057	33191	32935	32918	32564	32867	32645	
4831	0	1746	5984	7544	5122	279	0	32884	31911	33457	33330	32873	32495	33171	32647	
4832	0	1672	6009	7568	5140	280	0	32952	32075	33519	33300	32919	32403	33194	32722	
4833	0	1733	5994	7588	5102	281	0	32941	32389	33399	33351	32932	32428	33230	32731	
4834	0	1752	5950	7612	5092	282	0	33008	32423	33226	33213	32862	32617	33083	32679	
4835	0	1760	5939	7582	5106	283	0	32933	32414	32990	33246	32847	32863	33178	32644	
4836	0	1716	5998	7616	5117	284	0	32932	32358	33298	33113	32835	32775	33079	32679	
4837	0	1716	6002	7596	5096	285	0	32942	32461	33537	33238	32814	32754	33068	32615	
4838	0	1735	5965	7615	5092	286	0	32890	32359	33445	33074	32711	32829	32855	32639	
4839	0	1741	5970	7600	5108	287	0	32839	32375	33071	32970	32541	33043	32613	32711	
4840	0	1721	6001	7656	5155	288	0	32797	32479	32938	32753	32632	32967	32724	32692	
4841	0	1724	6020	7658	5165	289	0	32671	32494	32631	32767	32679	32909	32579	32769	
4842	0	1692	5996	7689	5107	290	0	32563	32475	32353	32925	32647	32679	32477	32894	
4843	0	1719	5991	7650	5100	291	0	32582	32671	32295	32914	32669	32372	32391	32939	
4844	0	1696	6051	7652	5096	292	0	32434	32940	32070	32903	32617	32355	32346	33078	
4845	0	1719	6009	7700	5167	293	0	32436	32953	31895	32679	32559	32581	32225	33091	
4846	0	1717	5992	7702	5129	294	0	32507	33007	31885	32703	32637	32735	32373	33071	
4847	0	1700	6027	7681	5150	295	0	32457	33031	31970	32445	32718	32421	32347	33134	
4848	0	1721	6005	7698	5149	296	0	32487	33063	32083	32271	32727	32202	32355	33226	
4849	0	1722	6010	7720	5165	297	0	32429	32641	32151	31839	32604	32485	32167	33172	
4850	0	1714	5997	7678	5154	298	0	32469	32569	32047	32028	32607	32763	32279	33083	
4851	0	1720	6029	7744	5135	299	0	32514	32627	32211	32219	32519	32903	32230	32986	
4852	0	1716	6022	7800	5096	300	0	32570	32695	32371	32364	32543	32914	32236	32951	
4853	0	1721	6026	7768	5167	301	0	32703	32863	32527	32423	32613	33122	32287	32783	
4854	0	1728	6056	7751	5140	302	0	32861	32807	32511	32431	32573	33215	32375	32789	
4855	0	1725	5980	7764	5149	303	0	32870	32797	32543	32452	32710	33063	32391	32887	
4856	0	1708	6012	7762	5144	304	0	32733	32766	32543	32407	32643	32859	32545	32881	
4857	0	1700	6044	7819	5157	305	0	32691	32859	32363	32615	32698	32644	32604	32915	
4858	0	1732	6052	7843	5166	306	0	32706	32755	32486	32476	32726	32487	32556	32925	
4859	0	1729	5987	7824	5112	307	0	32611	32738	32537	32677	32755	32519	32632	32854	
4860	0	1720	6024	7845	5178	308	0	32655	32898	32471	32577	32655	32739	32527	32701	
4861	0	1704	6034	7855	5138	309	0	32560	32854	32406	32476	32583	32758	32755	32709	
4862	0	1718	6033	7824	5166	310	0	32608	32805	32494	32723	32735	32738	32791	32690	
4863	0	1732	6040	7817	5181	311	0	32669	32694	32626	32692	32786	32765	32703	32647	
4864	0	1673	6040	7823	5174	312	0	32797	32663	32642	32751	32790	33067	32812	32668	
4865	0	1668	6001	7836	5174	313	0	32818	32733	32661	32683	32829	33221	32739	32566	
4866	0	1742	6000	7824	5156	314	0	32871	32773	32571	32731	32801	33007	32863	32511	
4867	0	1689	6021	7849	5176	315	0	32843	32713	32503	32644	32815	32863	32639	32663	
4868	0	1677	6026	7848	5144	316	0	32873	32661	32679	32772	32730	32844	32791	32695	
4869	0	1734	6005	7877	5187	317	0	32928	32719	32867	32666	32731	32754	32719	32705	
4870	0	1708	6027	7891	5168	318	0	32943	32775	32974	32765	32795	32735	32619	32658	
4871	0	1674	6017	7844	5160	319	0	32911	32806	33026	32823	32822	32677	32831	32663	
4872	0	1761	6048	7821	5155	320	0	32854	32723	33021	32775	32799	32735	32807	32621	
4873	0	1703	6029	7815	5165	321	0	32838	32607	33047	32715	32871	32771	32635	32703	
4874	0	1694	6020	7885	5168	322	0	32884	32615	32967	32810	32671	32847	32823	32797	
4875	0	1716	6038	7864	5148	323	0	32880	32623	32591	32753	32679	32843	32788	32739	
4876	0	1743	5996	7810	5146	324	0	32864	32739	32695	32799	32667	32753	32516	32773	
4877	0	1693	6021	7841	5156	325	0	32884	32895	32643	32765	32671	32723	32660	32791	
4878	0	1680	5993	7796	5143	326	0	32780	32877	32492	32690	32739	32775	32690	32671	
4879	0	1679	6050	7828	5184	327	0	32731	32629	32563	32647	32663	32594	32553	32814	
4880	0	1704	6021	7856	5156	328	0	32697	32711	32625	32775	32695	32549	32690	32818	
4881	0	1700	6020	7827	5134	329	0	32706	32804	32619	32813	32751	32508	32669	32827	
4882	0	1746	6042	7792	5107	330	0	32607	32811	32573	32751	32678	32561	32743	32845	
4883	0	1694	6016	7836	5182	331	0	32611	32671	32675	32495	32695	32597	32663	32755	
4884	0	1703	6019	7794	5109	332	0	32644	32765	32455	32599	32732	32830	32837	32591	
4885	0	1693	6066	7824	5133	333	0	32756	32866	32444	32455	32692	32791	32767	32615	
4886	0	1636	6013	7784	5166	334	0	32660	32895	32531	32578	32646	32765	32799	32715	
4887	0	1633	6001	7796	5111	335	0	32694	32871	32736	32635	32647	32703	32669	32791	
4888	0	1667	6069	7812	5132	336	0	32649	32846	32869	32740	32667	32667	32815	32711	
4889	0	1663	5952	7785	5142	337	0	32740	32722	32783	32771	32694	32691	32718	32695	
4890	0	1651	6026	7715	5126	338	0	32790	32613	32641	32737	32703	32727	32591	32751	
4891	0	1664	5993	7781	5162	339	0	32797	32601	32519	32817	32765	32725	32731	32839	
4892	0	1671	6018	7716	5114	340	0	32874	32633	32475	32799	32813	32746	32701	32826	
4893	0	1656	6018	7764	5128	341	0	32820	32620	32462	32727	32829	32771	32575	32751	
4894	0	1657	5993	7736	5106	342	0	32804	32621	32471	32507	32843	32807	32519	32749	
4895	0	1648	6037	7708	5139	343	0	32809	32699	32559	32103	32807	32743	32679	32854	
4896	0	1674	6007	7707	5090	344	0	32781	32687	32677	31855	32742	32687	32663	32795	
4897	0	1640	6000	7732	5100	345	0	32734	32711	32933	32058	32786	32815	32722	32748	
4898	0	1659	6014	7662	5151	346	0	32710	32731	33169	32071	32751	32749	32574	32796	
4899	0	1693	6020	7665	5094	347	0	32764	32734	32887	32098	32775	32823	32551	32797	
4900	0	1633	5988	7641	5122	348	0	32709	32791	32998	32311	32671	32804	32637	32743	
4901	0	1638	6012	7641	5070	349	0	32700	32863	33059	32798	32634	32855	32677	32721	
4902	0	1636	5975	7624	5082	350	0	32743	32895	32990	33083	32698	32803	32557	32721	
4903	0	1643	5941	7601	5072	351	0	32740	32826	32875	33358	32821	32813	32787	32701	
4904	0	1656	5996	7569	5093	352	0	32797	32818	32644	33308	32829	32894	32763	32655	
4905	0	1668	6013	7590	5069	353	0	32754	32711	32535	33439	32805	32876	32807	32666	
4906	0	1637	5948	7580	5034	354	0	32804	32611	32519	33219	32803	32831	32603	32701	
4907	0	1638	5987	7480	5080	355	0	32770	32619	32426	33396	32767	32838	32707	32751	
4908	0	1636	5993	7504	5091	356	0	32845	32559	32489	33485	32823	32834	32743	32751	
4909	0	1634	5946	7535	5077	357	0	32680	32647	32515	33427	32796	32858	32759	32719	
4910	0	1625	5938	7534	5022	358	0	32687	32647	32431	33415	32799	32827	32687	32729	
4911	0	1645	5964	7490	5036	359	0	32657	32493	32359	33490	32773	32775	32589	32743	
4912	0	1608	5970	7440	5038	360	0	32644	32460	32317	33306	32799	32807	32791	32769	
4913	0	1600	5944	7395	5039	361	0	32673	32475	32271	33301	32727	32695	32732	32762	
4914	0	1605	5948	7388	5083	362	0	32647	32407	32340	33362	32733	32647	32601	32815	
4915	0	1579	5952	7342	5042	363	0	32663	32468	32452	33201	32703	32671	32703	32762	
4916	0	1586	5944	7399	5064	364	0	32758	32605	32699	33003	32639	32679	32667	32839	
4917	0	1611	5927	7333	5025	365	0	32804	32583	32700	32896	32655	32709	32804	32797	
4918	0	1573	5884	7332	5050	366	0	32810	32503	32701	32837	32837	32821	32623	32830	
4919	0	1621	5908	7328	5000	367	0	32876	32611	32667	32646	32755	32911	32767	32727	
4920	0	1580	5925	7296	5055	368	0	32823	32759	32739	32532	32735	32759	32684	32699	
4921	0	1665	5937	7273	5006	369	0	32855	32735	32911	32639	32751	32758	32671	32787	
4922	0	1617	5919	7287	5012	370	0	32946	32759	33023	32659	32745	32766	32723	32793	
4923	0	1635	5903	7254	4978	371	0	32935	32901	32962	32607	32727	32639	32524	32839	
4924	0	1600	5933	7182	5020	372	0	32969	33016	32993	32723	32783	32671	32755	32884	
4925	0	1604	5880	7182	4984	373	0	32909	33015	32941	32628	32775	32918	32635	32785	
4926	0	1620	5906	7210	5028	374	0	32854	32991	32929	32775	32690	32975	32578	32723	
4927	0	1628	5881	7124	4996	375	0	32822	32839	33005	32486	32807	32839	32788	32731	
4928	0	1623	5901	7131	4972	376	0	32826	32743	33151	32621	32819	32843	32731	32733	
4929	0	1588	5865	7116	4968	377	0	32844	32751	33375	32372	32807	32869	32614	32711	
4930	0	1604	5902	7102	4996	378	0	32814	32687	33154	32311	32803	32823	32668	32790	
4931	0	1570	5853	7141	4994	379	0	32827	32743	32870	32219	32719	32838	32683	32719	
4932	0	1624	5894	7075	4996	380	0	32754	32695	32796	32364	32687	32743	32647	32717	
4933	0	1625	5849	7072	4986	381	0	32688	32733	32635	32439	32687	32643	32571	32854	
4934	0	1644	5852	7081	4956	382	0	32749	32636	32315	32259	32735	32666	32637	32871	
4935	0	1600	5868	7045	4952	383	0	32895	32686	32330	31879	32687	32695	32631	32835	
4936	0	1606	5849	6997	4963	384	0	32863	32770	32359	31693	32548	32597	32557	32801	
4937	0	1573	5850	7042	4949	385	0	32681	32732	32341	31689	32746	32617	32663	32745	
4938	0	1557	5866	7033	4936	386	0	32675	32797	33107	32026	32751	32679	32647	32791	
4939	0	1614	5854	7030	4954	387	0	32766	32791	33499	32479	32692	32679	32623	32765	
4940	0	1570	5827	6971	4979	388	0	32817	32557	33551	32763	32743	32775	32721	32756	
4941	0	1610	5877	6952	4941	389	0	32762	32471	33373	32942	32743	32891	32700	32690	
4942	0	1616	5872	6896	4946	390	0	32791	32623	33105	33259	32731	32751	32619	32783	
4943	0	1561	5831	6905	4958	391	0	32748	32745	32708	33490	32597	32858	32670	32757	
4944	0	1618	5796	6922	4984	392	0	32751	32701	32429	33097	32623	32843	32706	32671	
4945	0	1602	5878	6914	4908	393	0	32668	32887	32121	32459	32769	32819	32735	32681	
4946	0	1650	5828	6888	4960	394	0	32779	33230	31917	31991	32819	32820	32767	32719	
4947	0	1582	5848	6830	4902	395	0	32914	33473	31708	31942	32805	32759	32715	32759	
4948	0	1599	5860	6834	4920	396	0	32933	33287	31418	31738	32708	32734	32631	32775	
4949	0	1573	5844	6872	4948	397	0	32701	32899	31428	31684	32749	32775	32733	32732	
4950	0	1565	5829	6835	4920	398	0	32515	32674	31307	31734	32692	32773	32711	32734	
4951	0	1581	5868	6787	4943	399	0	32423	32571	31135	31958	32695	32795	32749	32691	
4952	0	1601	5815	6786	4944	400	0	32221	32615	31271	32423	32655	32775	32573	32707	
4953	0	1595	5849	6726	4944	401	0	32151	32718	31326	33095	32607	32746	32673	32739	
4954	0	1588	5830	6765	4956	402	0	32173	32897	31634	33516	32549	32796	32607	32707	
4955	0	1590	5821	6738	4909	403	0	32321	32759	31919	34191	32676	32767	32630	32823	
4956	0	1610	5890	6739	4953	404	0	32482	32635	32245	34639	32767	32775	32679	32851	
4957	0	1566	5841	6702	4918	405	0	32710	32455	32543	34945	32807	32774	32693	32851	
4958	0	1650	5906	6704	4937	406	0	32903	32149	32635	35055	32775	32843	32658	32885	
4959	0	1590	5836	6732	4946	407	0	32959	31927	32791	34818	32806	32754	32622	32770	
4960	0	1628	5862	6685	4889	408	0	32898	31861	33055	34513	32709	32711	32663	32886	
4961	0	1640	5840	6651	4931	409	0	32820	32223	33155	34146	32695	32699	32743	32863	
4962	0	1590	5804	6651	4907	410	0	32903	32519	33118	33896	32679	32613	32625	32773	
4963	0	1639	5815	6643	4956	411	0	32959	32658	33199	33666	32749	32599	32647	32695	
4964	0	1674	5832	6588	4909	412	0	32963	32711	33193	33683	32724	32647	32591	32771	
4965	0	1629	5808	6622	4920	413	0	32864	32783	33121	33504	32831	32722	32791	32789	
4966	0	1655	5830	6588	4938	414	0	32832	32852	33175	33387	32763	32787	32828	32734	
4967	0	1611	5828	6589	4936	415	0	32795	32915	33236	32883	32795	32700	32623	32732	
4968	0	1650	5780	6578	4923	416	0	32775	32891	33301	32575	32722	32687	32647	32724	
4969	0	1622	5841	6563	4908	417	0	32858	32903	33441	32399	32766	32721	32767	32711	
4970	0	1629	5824	6476	4965	418	0	32861	32915	33458	32213	32703	32711	32687	32809	
4971	0	1631	5824	6527	4900	419	0	32861	32898	33375	32132	32775	32620	32455	32823	
4972	0	1646	5816	6521	4943	420	0	32901	32999	33407	31917	32829	32671	32631	32791	
4973	0	1608	5844	6506	4921	421	0	32870	33019	33457	31831	32711	32662	32639	32747	
4974	0	1656	5810	6526	4903	422	0	32887	32971	33639	31683	32711	32549	32589	32873	
4975	0	1703	5810	6490	4924	423	0	32892	32877	33681	31561	32811	32615	32667	32791	
4976	0	1679	5851	6486	4907	424	0	32948	32798	33585	31435	32735	32683	32676	32717	
4977	0	1657	5821	6484	4916	425	0	32882	32789	33444	31409	32695	32767	32627	32621	
4978	0	1630	5859	6466	4902	426	0	32916	32711	33253	31767	32655	32703	32565	32711	
4979	0	1668	5786	6424	4947	427	0	32946	32707	32812	31943	32765	32674	32695	32701	
4980	0	1613	5816	6429	4904	428	0	32890	32799	32495	31929	32743	32711	32759	32699	
4981	0	1670	5827	6434	4910	429	0	32797	32916	32341	32044	32751	32717	32807	32683	
4982	0	1721	5811	6413	4924	430	0	32758	32863	32247	32186	32755	32738	32703	32687	
4983	0	1640	5817	6418	4956	431	0	32694	32823	32308	32503	32735	32665	32695	32679	
4984	0	1647	5899	6445	4928	432	0	32516	32703	32391	32647	32742	32668	32775	32751	
4985	0	1664	5825	6399	4901	433	0	32605	32723	32245	32787	32747	32883	32747	32577	
4986	0	1736	5841	6406	4900	434	0	32646	32979	32483	32675	32738	32783	32759	32671	
4987	0	1619	5856	6372	4865	435	0	32726	32962	32599	32796	32715	32631	32577	32775	
4988	0	1652	5832	6348	4932	436	0	32977	32977	33059	32804	32751	32787	32647	32703	
4989	0	1707	5866	6349	4932	437	0	33127	33021	33397	32935	32757	32783	32719	32693	
4990	0	1729	5820	6360	4920	438	0	33039	32999	33049	32719	32788	32775	32679	32755	
4991	0	1687	5852	6368	4915	439	0	32950	32775	32597	32493	32775	32839	32753	32804	
4992	0	1709	5838	6370	4908	440	0	33023	32691	32403	32295	32663	32516	32533	32821	
4993	0	1697	5868	6332	4911	441	0	32848	32707	32263	32122	32692	32451	32684	32775	
4994	0	1721	5822	6366	4900	442	0	32775	32684	32219	31994	32741	32507	32679	32759	
4995	0	1703	5852	6342	4954	443	0	32740	32537	31935	31892	32694	32629	32679	32814	
4996	0	1692	5866	6347	4902	444	0	32742	32607	31695	31367	32691	32620	32589	32893	
4997	0	1734	5858	6303	4924	445	0	32690	32908	31613	31787	32799	32803	32759	32775	
4998	0	1732	5835	6339	4935	446	0	32606	32695	31527	32279	32805	32562	32706	32791	
4999	0	1733	5828	6341	4910	447	0	32423	32628	31559	32623	32703	32759	32699	32807	
5000	0	1694	5872	6314	4980	448	0	32215	32555	31751	32889	32703	32815	32591	32702	
5001	0	1765	5859	6307	4889	449	0	32285	32695	31939	33541	32708	32855	32701	32717	
5002	0	1744	5791	6307	4931	450	0	32311	32660	31969	34021	32788	32773	32796	32767	
5003	0	1762	5864	6374	4960	451	0	32369	32549	32037	34281	32723	32867	32773	32879	
5004	0	1712	5821	6305	4956	452	0	32391	32655	32119	34535	32743	32756	32668	32786	
5005	0	1744	5895	6292	4945	453	0	32545	32755	32127	34653	32759	32751	32679	32802	
5006	0	1745	5826	6372	4971	454	0	32659	32583	32325	34631	32695	32723	32687	32879	
5007	0	1725	5874	6354	4960	455	0	32750	32423	32615	34323	32725	32725	32698	32853	
5008	0	1773	5873	6340	4956	456	0	32764	32364	32487	34087	32730	32775	32679	32799	
5009	0	1778	5878	6333	4984	457	0	32802	32470	32647	33591	32692	32659	32509	32821	
5010	0	1762	5850	6347	4972	458	0	32879	32579	32893	33151	32647	32631	32690	32775	
5011	0	1733	5841	6349	4952	459	0	32919	32725	32983	32679	32695	32679	32595	32865	
5012	0	1810	5896	6333	4977	460	0	32972	32775	32929	32707	32726	32751	32671	32750	
5013	0	1788	5859	6331	4971	461	0	32892	32799	32893	32847	32731	32797	32518	32543	
5014	0	1820	5860	6346	5016	462	0	32898	32819	32951	32871	32809	32773	32598	32617	
5015	0	1854	5871	6377	4953	463	0	32894	32719	32995	32756	32815	32669	32659	32807	
5016	0	1841	5891	6414	4995	464	0	32886	32672	32948	32558	32735	32603	32718	32949	
5017	0	1836	5892	6405	4992	465	0	32863	32631	32961	32446	32719	32711	32526	32794	
5018	0	1820	5948	6338	4990	466	0	32736	32631	32775	32491	32735	32754	32711	32683	
5019	0	1838	5861	6386	4997	467	0	32702	32789	32891	32431	32685	32751	32719	32717	
5020	0	1789	5865	6345	5007	468	0	32591	32735	32945	32443	32655	32767	32668	32887	
5021	0	1854	5851	6327	4980	469	0	32717	32731	33129	32415	32858	32711	32799	32898	
5022	0	1823	5880	6374	4988	470	0	32729	32701	32916	32477	32775	32843	32822	32836	
5023	0	1795	5866	6403	5020	471	0	32742	32700	32873	32431	32735	32871	32899	32767	
5024	0	1829	5905	6360	5021	472	0	32861	32753	32797	32522	32739	32851	32677	32735	
5025	0	1809	5892	6357	4990	473	0	32893	32748	32765	32658	32655	32837	32756	32748	
5026	0	1794	5869	6373	4978	474	0	32850	32699	32943	32715	32679	32983	32799	32739	
5027	0	1864	5877	6385	4979	475	0	32863	32720	33185	32802	32675	33115	32675	32709	
5028	0	1852	5889	6372	4982	476	0	32881	32767	33311	32679	32615	33173	32567	32684	
5029	0	1892	5888	6401	4998	477	0	32900	32699	33223	32529	32755	33035	32757	32694	
5030	0	1864	5889	6426	5010	478	0	32844	32766	33044	32363	32759	32885	32839	32647	
5031	0	1859	5876	6376	5059	479	0	32900	32887	32899	32147	32716	32860	32637	32683	
5032	0	1846	5864	6404	4996	480	0	32895	32903	32811	31989	32559	32787	32685	32710	
5033	0	1861	5853	6426	5089	481	0	32841	32854	32679	32052	32617	32759	32647	32767	
5034	0	1855	5872	6424	5052	482	0	32731	32830	32477	32247	32658	32730	32775	32702	
5035	0	1917	5916	6418	5041	483	0	32852	32890	32399	32305	32629	32723	32509	32742	
5036	0	1890	5882	6406	5000	484	0	32901	32974	32485	32015	32758	32630	32738	32716	
5037	0	1884	5881	6416	5052	485	0	32748	32999	32594	31703	32765	32694	32709	32735	
5038	0	1876	5927	6422	5060	486	0	32701	33187	32635	31767	32743	32766	32534	32729	
5039	0	1884	5886	6406	5052	487	0	32647	33255	32484	31657	32763	32719	32730	32771	
5040	0	1864	5884	6406	5046	488	0	32702	33148	32415	31851	32647	32731	32679	32799	
5041	0	1928	5916	6433	5037	489	0	32784	33023	32549	32125	32689	32751	32706	32703	
5042	0	1943	5894	6414	5054	490	0	32713	32759	32911	32716	32705	32645	32619	32727	
5043	0	1892	5869	6451	5074	491	0	32788	32278	33281	32959	32834	32770	32734	32745	
5044	0	1925	5902	6398	5066	492	0	32746	31945	33345	33351	32734	32743	32791	32823	
5045	0	1891	5910	6427	5054	493	0	32923	32263	32887	33524	32807	32773	32583	32807	
5046	0	1946	5892	6435	5096	494	0	32935	32500	32764	33775	32711	32755	32815	32791	
5047	0	1906	5909	6482	5078	495	0	32861	32570	32867	33635	32810	32719	32751	32739	
5048	0	1900	5914	6462	5088	496	0	32850	32421	32620	33585	32711	32647	32743	32745	
5049	0	1892	5889	6432	5069	497	0	32836	32435	32237	33310	32743	32663	32548	32807	
5050	0	1936	5896	6441	5055	498	0	32759	32547	31997	33239	32679	32685	32713	32786	
5051	0	1934	5949	6426	5060	499	0	32615	32477	31596	33019	32669	32706	32661	32818	
5052	0	1916	5934	6451	5058	500	0	32381	32297	31335	33057	32765	32727	32603	32820	
5053	0	1877	5925	6466	5086	501	0	32323	32355	31526	33020	32815	32766	32492	32843	
5054	0	1911	5860	6478	5093	502	0	32448	32475	31958	32955	32727	32721	32679	32783	
5055	0	1928	5867	6468	5081	503	0	32593	32739	32135	32660	32757	32767	32711	32811	
5056	0	1933	5899	6502	5084	504	0	32621	32915	32765	32355	32759	32775	32625	32799	
5057	0	1907	5875	6503	5106	505	0	32731	32981	33538	32391	32575	32775	32669	32751	
5058	0	1958	5916	6505	5095	506	0	33001	32959	33831	32453	32597	32764	32646	32773	
5059	0	1925	5888	6510	5105	507	0	33031	33043	33753	32621	32591	32791	32714	32767	
5060	0	1968	5910	6450	5110	508	0	32949	32962	33103	32799	32615	32767	32549	32807	
5061	0	1926	5917	6488	5091	509	0	32728	32911	32382	33019	32695	32859	32633	32801	
5062	0	1941	5863	6460	5121	510	0	32736	32919	32087	33047	32711	32821	32698	32758	
5063	0	1974	5886	6490	5129	511	0	32635	32867	31862	33107	32729	32773	32719	32799	
5064	0	1965	5921	6454	5110	512	0	32604	32975	31367	33139	32707	32817	32599	32775	
5065	0	1979	5915	6412	5080	513	0	32642	33044	31429	33109	32775	32588	32679	32732	
5066	0	1957	5885	6472	5130	514	0	32646	32772	31682	33149	32775	32630	32767	32700	
5067	0	1916	5838	6488	5101	515	0	32677	32591	31879	32993	32809	32622	32718	32756	
5068	0	2002	5888	6506	5110	516	0	32679	32530	32103	33133	32796	32749	32603	32791	
5069	0	1948	5936	6462	5082	517	0	32681	32621	32319	33018	32773	32800	32509	32731	
5070	0	1968	5899	6540	5134	518	0	32708	32735	32503	33138	32751	32799	32683	32799	
5071	0	1972	5895	6496	5125	519	0	32701	32951	32640	32991	32729	32807	32671	32831	
5072	0	2021	5897	6519	5144	520	0	32735	32900	32775	32893	32786	32819	32605	32751	
5073	0	1991	5936	6542	5166	521	0	32743	32725	32900	32813	32666	32796	32558	32695	
5074	0	1964	5824	6480	5147	522	0	32735	32638	32989	32849	32647	32773	32646	32711	
5075	0	1992	5887	6551	5150	523	0	32786	32594	33019	32724	32690	32775	32719	32756	
5076	0	1969	5863	6564	5122	524	0	32782	32663	32943	32439	32735	32846	32713	32711	
5077	0	1977	5897	6555	5112	525	0	32791	32695	32919	32195	32758	32855	32658	32679	
5078	0	2002	5912	6500	5110	526	0	32801	32827	32998	32261	32767	32794	32804	32713	
5079	0	1936	5864	6560	5129	527	0	32876	32797	32939	32357	32775	32807	32771	32701	
5080	0	1981	5891	6554	5142	528	0	32900	32829	33077	32421	32708	32886	32623	32771	
5081	0	2003	5871	6553	5155	529	0	32943	32805	33005	32447	32806	32831	32743	32679	
5082	0	1975	5890	6552	5160	530	0	32930	32799	32857	32387	32855	32902	32773	32637	
5083	0	2044	5946	6553	5173	531	0	32932	32803	32951	32462	32751	32895	32742	32742	
5084	0	1979	5876	6588	5157	532	0	32853	32812	33212	32365	32798	32850	32754	32751	
5085	0	2003	5920	6560	5181	533	0	32845	32706	33065	32047	32790	32903	32590	32820	
5086	0	2018	5890	6578	5180	534	0	32851	32733	32965	31831	32806	32901	32815	32847	
5087	0	1988	5855	6624	5212	535	0	32746	32689	33109	32037	32685	32865	32767	32733	
5088	0	1979	5925	6566	5176	536	0	32805	32671	33091	31762	32638	32801	32646	32730	
5089	0	1983	5937	6620	5157	537	0	32804	32750	33023	31533	32665	32737	32612	32683	
5090	0	2019	5926	6613	5170	538	0	32671	32663	32807	31671	32705	32737	32743	32769	
5091	0	1991	5920	6662	5146	539	0	32686	32667	32507	32141	32726	32647	32731	32739	
5092	0	1965	5929	6624	5149	540	0	32804	32692	32263	32731	32663	32679	32555	32837	
5093	0	1979	5909	6570	5141	541	0	32808	32692	32487	33366	32686	32675	32743	32869	
5094	0	1976	5905	6636	5154	542	0	32772	32733	32431	34063	32807	32431	32726	32789	
5095	0	2024	5848	6669	5204	543	0	32725	32711	32310	34409	32711	32423	32547	32815	
5096	0	1974	5878	6632	5172	544	0	32771	32577	32387	34783	32724	32642	32744	32886	
5097	0	1978	5888	6656	5173	545	0	32852	32507	32356	34679	32794	32818	32671	32783	
5098	0	2004	5904	6680	5213	546	0	32829	32405	32517	34499	32737	32931	32715	32743	
5099	0	2002	5883	6701	5214	547	0	32902	32435	32887	34165	32751	32935	32503	32724	
5100	0	1995	5897	6696	5236	548	0	33039	32254	32756	33894	32775	33031	32663	32763	
5101	0	1977	5876	6736	5193	549	0	33063	32321	32819	33655	32759	32919	32757	32775	
5102	0	2005	5896	6696	5241	550	0	32911	32676	32759	33351	32719	32855	32519	32775	
5103	0	1991	5872	6736	5208	551	0	32839	32959	32903	33005	32601	32732	32679	32825	
5104	0	2036	5923	6737	5188	552	0	32740	32735	32839	32819	32636	32831	32677	32775	
5105	0	2036	5872	6728	5193	553	0	32513	32699	32547	32811	32765	32724	32671	32679	
5106	0	1997	5818	6736	5230	554	0	32629	32767	32415	32647	32711	32759	32599	32775	
5107	0	2020	5915	6737	5216	555	0	32561	32935	32331	32511	32725	32775	32770	32855	
5108	0	1988	5890	6804	5225	556	0	32483	33105	32399	32399	32671	32775	32702	32729	
5109	0	1986	5920	6736	5236	557	0	32500	33243	32647	32325	32686	32911	32535	32638	
5110	0	1940	5866	6744	5219	558	0	32590	33156	32501	31943	32644	33068	32741	32641	
5111	0	1997	5883	6758	5212	559	0	32484	32991	32508	31397	32763	32820	32703	32669	
5112	0	2024	5884	6780	5223	560	0	32450	32658	32655	31357	32791	32699	32653	32683	
5113	0	2022	5878	6761	5228	561	0	32343	32362	32757	31452	32787	32676	32735	32727	
5114	0	1982	5830	6788	5248	562	0	32669	32375	32647	32023	32806	32591	32789	32787	
5115	0	2019	5856	6805	5257	563	0	32989	32327	32681	32314	32710	32724	32593	32818	
5116	0	2008	5860	6809	5232	564	0	33016	32623	32407	32662	32671	32707	32710	32839	
5117	0	2008	5892	6815	5273	565	0	32903	32771	32295	32679	32847	32493	32807	32822	
5118	0	1988	5870	6833	5220	566	0	32898	32692	32247	32727	32927	32455	32679	32903	
5119	0	1992	5872	6789	5240	567	0	32895	32559	32219	32613	32827	32543	32695	32883	
5120	0	2024	5873	6809	5218	568	0	32783	32533	32327	32547	32715	32831	32637	32791	
5121	0	1995	5881	6792	5273	569	0	32861	32662	32564	32763	32686	33015	32715	32644	
5122	0	1995	5856	6846	5216	570	0	32772	32532	32863	32827	32620	32975	32460	32691	
5123	0	2003	5876	6810	5247	571	0	32588	32527	32959	32913	32483	33047	32661	32594	
5124	0	1978	5868	6802	5230	572	0	32562	32583	32827	33062	32538	33135	32735	32596	
5125	0	1989	5893	6838	5208	573	0	32585	32725	32717	33414	32705	32903	32690	32792	
5126	0	1978	5868	6843	5216	574	0	32704	32800	32493	33431	32788	32643	32547	32735	
5127	0	1992	5878	6864	5184	575	0	32724	32919	32378	33463	32662	32663	32663	32727	
5128	0	2004	5858	6831	5223	576	0	32803	33007	32365	33203	32646	32823	32605	32804	
5129	0	1994	5890	6825	5222	577	0	32864	32960	32595	33287	32715	32789	32671	32723	
5130	0	1992	5910	6825	5222	578	0	32922	32933	32799	33253	32807	32791	32541	32687	
5131	0	2005	5861	6852	5237	579	0	32941	32975	32939	33023	32713	33018	32711	32735	
5132	0	1970	5832	6873	5229	580	0	32799	32970	32835	32773	32707	32933	32653	32817	
5133	0	1960	5882	6856	5190	581	0	32850	32799	32963	32743	32714	32743	32663	32813	
5134	0	1988	5836	6841	5236	582	0	32858	32871	33114	32335	32718	32695	32487	32773	
5135	0	2010	5879	6825	5211	583	0	33015	32903	33287	32052	32769	32683	32699	32823	
5136	0	2029	5857	6845	5230	584	0	32948	32811	33351	31791	32783	32734	32775	32835	
5137	0	1933	5861	6826	5245	585	0	32982	32527	33023	31707	32666	32791	32598	32809	
5138	0	1986	5836	6843	5244	586	0	32975	32525	33013	31649	32799	32527	32671	32791	
5139	0	1966	5828	6796	5188	587	0	32953	32709	32879	31796	32782	32683	32711	32751	
5140	0	1983	5876	6796	5178	588	0	32795	32815	32783	31969	32786	32583	32659	32727	
5141	0	1922	5812	6812	5220	589	0	32771	32979	32883	31943	32771	32562	32718	32743	
5142	0	1968	5835	6839	5241	590	0	32793	33060	32571	32088	32755	32565	32710	32799	
5143	0	1989	5819	6833	5188	591	0	32693	33055	32109	32435	32660	32637	32683	32751	
5144	0	1977	5861	6822	5216	592	0	32647	32918	31931	33125	32647	32663	32487	32679	
5145	0	1939	5791	6827	5212	593	0	32580	32849	31693	33235	32683	32663	32637	32769	
5146	0	1932	5858	6803	5174	594	0	32622	32932	31559	32981	32790	32657	32742	32742	
5147	0	1917	5827	6834	5204	595	0	32635	32757	31463	32614	32775	32711	32731	32738	
5148	0	1969	5810	6790	5198	596	0	32631	32597	31554	32358	32717	32845	32678	32685	
5149	0	1916	5842	6821	5162	597	0	32569	32482	31687	32381	32727	32795	32719	32694	
5150	0	1974	5839	6802	5225	598	0	32636	32402	31889	32571	32659	32612	32647	32850	
5151	0	1987	5824	6763	5201	599	0	32673	32302	32502	32887	32671	32807	32739	32879	
5152	0	1987	5840	6784	5212	600	0	32715	32317	32977	33395	32589	32821	32567	32843	
5153	0	1905	5833	6814	5164	601	0	32568	32419	32957	33671	32599	32754	32676	32858	
5154	0	1938	5805	6756	5166	602	0	32567	32698	32860	34055	32683	32775	32639	32875	
5155	0	1970	5767	6785	5232	603	0	32690	32727	32885	33959	32775	32799	32789	32825	
5156	0	1894	5824	6787	5225	604	0	32761	32727	33015	34173	32837	32775	32525	32807	
5157	0	1941	5790	6814	5229	605	0	32729	33043	33084	34138	32827	32799	32713	32855	
5158	0	1941	5817	6812	5181	606	0	32573	32803	32995	33847	32835	32850	32771	32765	
5159	0	1908	5786	6790	5165	607	0	32732	32437	32885	33607	32836	32799	32722	32715	
5160	0	1924	5817	6789	5179	608	0	32895	32207	32791	33239	32815	32835	32687	32807	
5161	0	1891	5792	6797	5196	609	0	32921	32203	32983	33125	32769	32851	32617	32847	
5162	0	1871	5800	6728	5192	610	0	32828	32365	33047	33015	32802	32775	32775	32775	
5163	0	1928	5808	6737	5176	611	0	32933	32687	32877	33023	32662	32759	32835	32775	
5164	0	1924	5784	6780	5194	612	0	32807	32959	32807	32991	32639	32751	32535	32708	
5165	0	1910	5778	6755	5185	613	0	32700	33017	32803	32954	32659	32775	32759	32743	
5166	0	1902	5779	6776	5189	614	0	32783	32955	32761	32796	32721	32821	32721	32767	
5167	0	1926	5792	6787	5201	615	0	32838	32850	32583	32391	32685	32806	32815	32727	
5168	0	1896	5765	6758	5125	616	0	32788	32775	32378	32083	32647	32799	32719	32711	
5169	0	1900	5793	6788	5169	617	0	32854	32863	32317	31873	32668	32847	32615	32804	
5170	0	1915	5788	6732	5175	618	0	32795	32935	32190	31495	32647	32789	32697	32733	
5171	0	1896	5764	6752	5145	619	0	32708	32935	32079	31543	32587	32771	32751	32838	
5172	0	1885	5764	6744	5180	620	0	32660	32867	32047	31575	32708	32775	32677	32871	
5173	0	1886	5743	6721	5168	621	0	32607	32765	32325	31670	32727	32763	32723	32887	
5174	0	1909	5786	6779	5167	622	0	32655	32623	32609	31887	32751	32707	32435	32823	
5175	0	1856	5762	6754	5154	623	0	32663	32711	32795	32186	32789	32786	32663	32727	
5176	0	1864	5761	6745	5137	624	0	32654	32868	32885	32533	32767	32789	32698	32671	
5177	0	1874	5787	6701	5148	625	0	32788	32807	32701	32748	32833	32743	32715	32702	
5178	0	1844	5803	6756	5158	626	0	32837	32671	32943	32983	32783	32869	32529	32701	
5179	0	1865	5726	6704	5138	627	0	32758	32551	32835	33340	32831	32987	32621	32703	
5180	0	1879	5790	6716	5132	628	0	32704	32551	32838	33301	32751	32702	32627	32751	
5181	0	1833	5742	6737	5112	629	0	32765	32557	33122	33270	32773	32427	32767	32724	
5182	0	1899	5742	6752	5132	630	0	32841	32567	33283	33245	32743	32661	32578	32759	
5183	0	1854	5768	6738	5160	631	0	32775	32588	33117	33159	32655	32727	32715	32823	
5184	0	1876	5806	6725	5196	632	0	32775	32773	33388	33135	32660	32837	32700	32811	
5185	0	1833	5770	6686	5156	633	0	32785	32605	33379	33053	32671	32847	32615	32771	
5186	0	1876	5752	6704	5110	634	0	32924	32719	33519	33019	32738	32943	32815	32631	
5187	0	1885	5751	6723	5143	635	0	32966	32742	33513	33037	32755	33029	32773	32700	
5188	0	1825	5734	6722	5121	636	0	32937	32799	33439	32755	32679	33191	32660	32667	
5189	0	1873	5717	6675	5088	637	0	33063	32759	33263	32647	32647	33015	32807	32692	
5190	0	1818	5760	6678	5129	638	0	32997	32729	32908	32470	32711	32961	32727	32679	
5191	0	1824	5732	6693	5112	639	0	32979	32743	32631	32355	32791	33038	32751	32679	
5192	0	1803	5702	6686	5134	640	0	32799	32795	32631	32260	32670	32830	32621	32713	
5193	0	1839	5756	6706	5146	641	0	32730	32805	32551	32135	32723	32927	32669	32743	
5194	0	1862	5699	6696	5174	642	0	32711	32727	32339	32131	32807	32775	32599	32767	
5195	0	1824	5726	6688	5173	643	0	32687	32692	32331	32094	32735	32540	32727	32740	
5196	0	1867	5737	6669	5126	644	0	32636	32603	32239	31930	32751	32529	32671	32780	
5197	0	1864	5730	6678	5101	645	0	32623	32564	32370	31853	32722	32576	32769	32759	
5198	0	1857	5716	6692	5122	646	0	32509	32641	32469	31890	32615	32593	32557	32789	
5199	0	1802	5732	6661	5114	647	0	32578	32839	32751	31995	32614	32559	32643	32877	
5200	0	1815	5736	6691	5120	648	0	32662	32951	32857	31999	32647	32547	32605	32794	
5201	0	1819	5730	6684	5128	649	0	32697	33038	32415	32202	32719	32814	32623	32766	
5202	0	1812	5741	6696	5139	650	0	32721	33006	32036	32671	32679	32763	32639	32799	
5203	0	1835	5739	6668	5122	651	0	32743	32970	31924	33091	32700	32688	32543	32815	
5204	0	1825	5716	6661	5126	652	0	32854	32991	31709	33175	32791	32695	32765	32754	
5205	0	1820	5740	6726	5106	653	0	32775	32839	31748	32975	32735	32631	32759	32751	
5206	0	1845	5754	6666	5113	654	0	32763	32747	31779	33133	32742	32763	32725	32783	
5207	0	1856	5727	6621	5104	655	0	32724	32391	31838	33167	32835	32575	32743	32781	
5208	0	1829	5708	6669	5108	656	0	32615	32007	32043	33522	32851	32583	32783	32717	
5209	0	1844	5740	6680	5094	657	0	32507	32015	31939	33557	32749	32571	32743	32724	
5210	0	1785	5748	6678	5069	658	0	32679	32017	32041	33879	32685	32559	32719	32839	
5211	0	1785	5764	6670	5106	659	0	32640	32111	32293	33999	32687	32541	32583	32910	
5212	0	1812	5682	6665	5136	660	0	32437	32345	32786	33831	32746	32572	32734	32903	
5213	0	1802	5726	6688	5109	661	0	32373	32839	32983	33276	32733	32647	32722	32789	
5214	0	1783	5736	6700	5149	662	0	32468	33079	33159	32887	32726	32797	32768	32738	
5215	0	1789	5718	6690	5086	663	0	32780	32961	33059	32869	32719	32802	32805	32740	
5216	0	1822	5667	6657	5104	664	0	32868	33005	33103	32722	32685	32763	32499	32770	
5217	0	1825	5727	6736	5128	665	0	32732	33023	32931	32923	32613	32769	32637	32849	
5218	0	1812	5744	6695	5120	666	0	32707	32981	32957	32933	32635	32773	32660	32799	
5219	0	1827	5762	6689	5074	667	0	32821	32934	32917	33103	32693	32717	32551	32787	
5220	0	1806	5741	6693	5074	668	0	32870	32863	32815	33119	32711	32815	32723	32775	
5221	0	1842	5750	6699	5080	669	0	32979	32871	32441	33167	32732	32729	32660	32838	
5222	0	1867	5754	6695	5075	670	0	32871	32813	32341	33199	32751	32751	32487	32851	
5223	0	1802	5765	6671	5113	671	0	32822	32895	32391	32951	32851	32727	32751	32751	
5224	0	1798	5719	6680	5077	672	0	32763	32836	32451	32931	32703	32783	32697	32775	
5225	0	1771	5736	6697	5104	673	0	32832	32795	32477	32712	32751	32839	32623	32701	
5226	0	1818	5738	6724	5115	674	0	32845	32762	32446	32715	32755	32799	32706	32751	
5227	0	1794	5700	6728	5073	675	0	32816	32743	32553	32775	32805	32861	32677	32671	
5228	0	1835	5738	6673	5116	676	0	32726	32678	32609	32758	32791	32831	32599	32692	
5229	0	1787	5707	6654	5090	677	0	32780	32723	32644	32813	32807	32604	32703	32791	
5230	0	1799	5685	6716	5104	678	0	32795	32813	32823	32703	32679	32639	32757	32767	
5231	0	1816	5702	6704	5076	679	0	32773	32783	32903	32719	32692	32695	32599	32797	
5232	0	1836	5682	6698	5062	680	0	32749	32698	32971	32761	32766	32775	32667	32799	
5233	0	1809	5723	6674	5114	681	0	32791	32671	33107	32551	32804	32759	32767	32765	
5234	0	1802	5741	6659	5096	682	0	32813	32759	33151	32489	32767	32773	32611	32789	
5235	0	1772	5756	6676	5136	683	0	32816	32751	33159	32346	32725	32899	32827	32836	
5236	0	1810	5724	6704	5048	684	0	32854	32613	32870	32109	32773	32978	32749	32711	
5237	0	1827	5733	6691	5085	685	0	32805	32647	32963	31829	32765	32847	32551	32735	
5238	0	1790	5775	6718	5096	686	0	32793	32687	32914	31893	32720	32719	32747	32775	
5239	0	1821	5710	6713	5051	687	0	32829	32787	32850	32118	32732	32660	32686	32721	
5240	0	1799	5738	6717	5054	688	0	32931	32923	32789	32343	32695	32695	32607	32831	
5241	0	1784	5706	6750	5084	689	0	32940	32911	32759	32501	32739	32726	32815	32749	
5242	0	1806	5719	6691	5085	690	0	32901	32855	32814	32516	32767	32758	32734	32745	
5243	0	1798	5720	6726	5128	691	0	32846	32839	32551	32655	32703	32899	32758	32671	
5244	0	1810	5718	6712	5080	692	0	32847	32823	32487	32517	32599	33044	32559	32583	
5245	0	1758	5688	6700	5097	693	0	32781	32815	32623	32694	32719	32975	32757	32726	
5246	0	1779	5764	6764	5081	694	0	32813	32758	32561	32743	32731	32746	32661	32716	
5247	0	1746	5723	6724	5096	695	0	32738	32709	32457	32847	32711	32759	32665	32771	
5248	0	1801	5720	6768	5091	696	0	32749	32642	32391	32805	32711	32854	32487	32786	
5249	0	1818	5724	6772	5065	697	0	32775	32580	32482	32788	32731	32866	32763	32734	
5250	0	1751	5731	6726	5075	698	0	32759	32571	32559	32804	32773	32803	32735	32749	
5251	0	1792	5712	6708	5088	699	0	32672	32699	32791	32892	32706	32766	32647	32766	
5252	0	1797	5784	6710	5084	700	0	32756	32709	32835	32797	32669	32743	32647	32819	
5253	0	1804	5724	6741	5109	701	0	32745	32669	32837	32759	32727	32751	32747	32862	
5254	0	1775	5746	6775	5094	702	0	32751	32647	32791	32783	32735	32823	32725	32749	
5255	0	1789	5700	6742	5065	703	0	32679	32610	32642	32957	32708	32749	32647	32711	
5256	0	1798	5745	6742	5118	704	0	32732	32611	32613	32879	32683	32723	32631	32807	
5257	0	1780	5781	6784	5100	705	0	32751	32591	32347	32793	32797	32671	32678	32842	
5258	0	1801	5758	6790	5116	706	0	32701	32725	32228	32611	32703	32655	32595	32838	
5259	0	1792	5769	6748	5111	707	0	32695	32787	32359	32615	32647	32685	32587	32733	
5260	0	1784	5738	6802	5130	708	0	32782	32751	32306	32657	32727	32707	32690	32708	
5261	0	1782	5764	6791	5100	709	0	32701	32719	32380	32775	32756	32834	32743	32673	
5262	0	1798	5777	6812	5079	710	0	32706	32823	32599	32789	32715	32898	32607	32702	
5263	0	1797	5712	6789	5070	711	0	32711	32955	32658	32583	32711	32959	32767	32641	
5264	0	1794	5781	6789	5098	712	0	32674	32903	32581	32437	32754	32975	32767	32765	
5265	0	1835	5753	6784	5088	713	0	32679	32831	32567	32306	32775	32871	32759	32823	
5266	0	1775	5753	6766	5092	714	0	32727	32871	32527	32477	32706	32771	32595	32748	
5267	0	1766	5760	6830	5086	715	0	32797	32860	32489	32647	32687	32822	32730	32746	
5268	0	1795	5714	6800	5112	716	0	32782	32738	32391	32699	32758	32775	32707	32775	
5269	0	1781	5728	6815	5113	717	0	32846	32625	32439	32919	32769	32703	32549	32759	
5270	0	1740	5752	6848	5074	718	0	32796	32599	32734	32901	32743	32748	32727	32823	
5271	0	1836	5744	6819	5100	719	0	32799	32581	32590	33143	32757	32687	32781	32871	
5272	0	1781	5744	6818	5093	720	0	32835	32591	32562	32963	32733	32758	32575	32723	
5273	0	1799	5782	6852	5114	721	0	32801	32576	32591	32991	32721	32729	32775	32745	
5274	0	1773	5761	6820	5116	722	0	32727	32719	32627	32670	32771	32635	32847	32767	
5275	0	1783	5764	6849	5077	723	0	32722	32797	32489	32679	32739	32627	32595	32749	
5276	0	1786	5782	6827	5105	724	0	32677	32700	32612	32799	32719	32582	32679	32763	
5277	0	1748	5753	6808	5151	725	0	32790	32719	32710	32855	32703	32695	32701	32828	
5278	0	1827	5783	6831	5109	726	0	32808	32663	32871	32943	32756	32829	32847	32838	
5279	0	1828	5804	6832	5097	727	0	32775	32630	32762	33075	32767	32839	32559	32783	
5280	0	1767	5790	6847	5115	728	0	32862	32694	32749	33103	32679	32811	32715	32783	
5281	0	1816	5822	6857	5070	729	0	32855	32844	32768	33019	32567	32811	32771	32743	
5282	0	1844	5760	6870	5088	730	0	32799	32940	32876	32991	32626	32975	32578	32703	
5283	0	1802	5798	6820	5087	731	0	32660	32772	32973	33117	32637	32742	32749	32775	
5284	0	1782	5756	6884	5134	732	0	32628	32775	32855	33029	32693	32615	32665	32831	
5285	0	1772	5792	6904	5044	733	0	32707	32711	32675	32897	32638	32719	32647	32827	
5286	0	1785	5790	6888	5129	734	0	32742	32591	32447	32607	32662	32735	32519	32647	
5287	0	1806	5826	6886	5115	735	0	32821	32683	32790	32541	32732	32495	32735	32711	
5288	0	1749	5826	6864	5112	736	0	32855	32635	33239	32214	32759	32428	32767	32755	
5289	0	1745	5768	6878	5111	737	0	32903	32615	33347	32148	32814	32414	32615	32795	
5290	0	1782	5824	6882	5084	738	0	32967	32707	33271	32262	32834	32387	32647	32821	
5291	0	1787	5822	6863	5088	739	0	32916	32763	33167	32299	32771	32346	32714	32785	
5292	0	1767	5795	6888	5127	740	0	32839	32732	32802	32230	32706	32441	32551	32807	
5293	0	1760	5798	6858	5104	741	0	32850	32766	32463	32339	32673	32999	32658	32667	
5294	0	1762	5780	6925	5091	742	0	32758	32859	32319	32443	32750	33121	32639	32691	
5295	0	1786	5816	6884	5134	743	0	32797	32843	32067	32561	32681	33131	32479	32733	
5296	0	1772	5807	6900	5116	744	0	32725	32734	32085	32546	32695	32875	32695	32733	
5297	0	1767	5827	6886	5087	745	0	32628	32707	32239	32548	32741	32742	32647	32711	
5298	0	1764	5820	6918	5138	746	0	32642	32677	32411	32619	32755	32727	32647	32701	
5299	0	1748	5770	6917	5112	747	0	32626	32722	32473	32842	32679	32799	32671	32791	
5300	0	1763	5810	6918	5122	748	0	32636	32847	32711	32807	32629	32787	32671	32753	
5301	0	1766	5864	6890	5091	749	0	32619	32807	32935	32615	32676	32742	32605	32831	
5302	0	1744	5810	6926	5103	750	0	32593	32933	32727	32215	32693	32647	32579	32743	
5303	0	1781	5789	6910	5094	751	0	32579	32818	32715	32205	32726	32529	32681	32738	
5304	0	1761	5784	6890	5113	752	0	32634	32692	33011	32081	32775	32591	32751	32801	
5305	0	1807	5816	6958	5066	753	0	32722	32715	32965	32015	32715	32691	32767	32783	
5306	0	1785	5803	6927	5078	754	0	32839	32655	32463	32466	32723	32771	32743	32755	
5307	0	1763	5799	6922	5048	755	0	32927	32621	32342	32663	32723	32785	32666	32646	
5308	0	1773	5795	6950	5093	756	0	33018	32685	31897	32996	32797	32711	32673	32743	
5309	0	1819	5818	6938	5084	757	0	32887	32671	31771	33191	32715	32678	32524	32835	
5310	0	1728	5823	6952	5114	758	0	32899	32731	31821	33315	32758	32621	32717	32846	
5311	0	1758	5792	6887	5106	759	0	32878	32967	31653	33283	32684	32623	32644	32871	
5312	0	1791	5806	6984	5142	760	0	32768	33037	31871	33338	32735	32711	32647	32788	
5313	0	1769	5784	6915	5125	761	0	32738	33119	32029	33603	32745	32871	32635	32770	
5314	0	1795	5795	6914	5094	762	0	32723	32983	32151	33607	32743	32898	32765	32789	
5315	0	1741	5818	6971	5116	763	0	32684	32717	32135	33711	32726	32914	32621	32852	
5316	0	1774	5824	6956	5090	764	0	32626	32615	32490	33799	32791	32919	32706	32797	
5317	0	1756	5785	6938	5085	765	0	32639	32639	32607	33825	32695	32631	32591	32734	
5318	0	1808	5811	6945	5135	766	0	32594	32455	32975	33751	32773	32628	32667	32847	
5319	0	1798	5820	6961	5092	767	0	32661	32404	33039	33511	32745	32727	32610	32823	
5320	0	1830	5822	6970	5095	768	0	32677	32455	33083	33407	32715	32738	32635	32804	
5321	0	1759	5849	6961	5114	769	0	32743	32494	33087	33367	32683	32845	32647	32754	
5322	0	1767	5855	6952	5116	770	0	32686	32451	33231	33277	32719	32820	32627	32713	
5323	0	1792	5801	6974	5080	771	0	32760	32351	33245	32941	32787	32854	32771	32759	
5324	0	1745	5812	6966	5108	772	0	32820	32407	32919	32647	32773	32823	32749	32759	
5325	0	1798	5801	7013	5130	773	0	32807	32487	32727	32479	32771	32775	32567	32751	
5326	0	1762	5828	6927	5084	774	0	32828	32543	32694	32573	32671	32708	32721	32730	
5327	0	1744	5852	7005	5097	775	0	32786	32595	32623	32743	32718	32695	32644	32719	
5328	0	1737	5831	6948	5088	776	0	32754	32641	32591	32757	32710	32679	32631	32679	
5329	0	1754	5798	6961	5085	777	0	32748	32797	32655	32687	32759	32690	32721	32703	
5330	0	1716	5780	6984	5128	778	0	32799	32971	32823	32359	32721	32639	32735	32647	
5331	0	1733	5820	7014	5104	779	0	32837	32995	32655	32255	32740	32633	32687	32755	
5332	0	1794	5830	6971	5100	780	0	32823	32887	32775	32274	32677	32535	32671	32775	
5333	0	1754	5820	7005	5085	781	0	32866	32871	32903	32327	32565	32543	32551	32815	
5334	0	1761	5840	7026	5072	782	0	32820	32751	32948	32175	32675	32555	32715	32829	
5335	0	1764	5796	6996	5099	783	0	32775	32671	32855	31985	32701	32663	32671	32863	
5336	0	1737	5776	6979	5110	784	0	32751	32699	32903	32036	32702	32671	32567	32775	
5337	0	1756	5804	6985	5119	785	0	32832	32765	32933	32127	32711	32739	32640	32765	
5338	0	1789	5792	6981	5122	786	0	32826	32755	33055	32455	32736	32775	32663	32739	
5339	0	1728	5816	7008	5077	787	0	32830	32807	33153	32375	32708	32871	32723	32766	
5340	0	1699	5824	6997	5121	788	0	32839	32871	33045	32535	32647	32847	32589	32775	
5341	0	1701	5822	7017	5118	789	0	32854	32847	32767	32413	32803	32831	32771	32734	
5342	0	1748	5810	6965	5083	790	0	32794	32830	32797	32383	32738	32771	32549	32723	
5343	0	1708	5826	7013	5122	791	0	32768	32717	32525	32539	32795	32742	32795	32775	
5344	0	1735	5778	7013	5106	792	0	32735	32727	32525	32639	32854	32743	32735	32751	
5345	0	1765	5782	7022	5068	793	0	32756	32839	32564	32614	32815	32759	32700	32788	
5346	0	1747	5808	7017	5098	794	0	32802	32879	32479	32559	32772	32795	32789	32834	
5347	0	1771	5830	7026	5077	795	0	32793	32855	32578	32719	32684	32803	32719	32703	
5348	0	1725	5846	6992	5118	796	0	32809	32974	32751	32696	32675	32826	32757	32679	
5349	0	1763	5820	7044	5088	797	0	32816	32934	32802	32747	32562	32973	32615	32675	
5350	0	1713	5804	6946	5064	798	0	32775	32830	32903	32713	32726	32975	32775	32687	
5351	0	1762	5797	7013	5084	799	0	32612	32719	32943	32938	32691	32866	32759	32734	
5352	0	1726	5810	7022	5058	800	0	32668	32743	32524	32946	32773	32820	32606	32761	
5353	0	1728	5805	7002	5090	801	0	32681	32705	32231	32848	32736	32823	32769	32667	
5354	0	1711	5839	7024	5112	802	0	32722	32703	32023	32794	32767	32885	32647	32727	
5355	0	1742	5831	7005	5086	803	0	32873	32759	32135	32839	32697	32759	32567	32747	
5356	0	1732	5794	7050	5112	804	0	32930	32819	32151	32743	32682	32691	32535	32821	
5357	0	1732	5778	7080	5107	805	0	32889	32775	31969	32257	32732	32659	32647	32823	
5358	0	1748	5800	6996	5110	806	0	32880	32737	31959	32250	32783	32727	32731	32817	
5359	0	1733	5800	7045	5104	807	0	32805	32771	32244	32102	32609	32775	32423	32805	
5360	0	1776	5787	7004	5092	808	0	32658	32862	32303	31918	32676	32747	32671	32757	
5361	0	1668	5838	7017	5076	809	0	32594	32877	32388	31659	32709	32783	32719	32780	
5362	0	1729	5822	7030	5104	810	0	32580	32791	32413	31971	32715	32785	32615	32715	
5363	0	1779	5818	7011	5076	811	0	32591	32844	32583	32307	32732	32829	32791	32607	
5364	0	1708	5774	6992	5072	812	0	32606	32729	32721	32455	32745	32881	32716	32679	
5365	0	1728	5817	6992	5037	813	0	32644	32671	32736	32690	32767	32647	32646	32754	
5366	0	1737	5799	7015	5068	814	0	32686	32605	32817	32789	32711	32647	32682	32851	
5367	0	1705	5784	7045	5086	815	0	32699	32675	32803	32764	32692	32903	32741	32803	
5368	0	1725	5793	7018	5112	816	0	32813	32735	32727	33157	32711	32797	32743	32874	
5369	0	1671	5809	7019	5084	817	0	32868	32801	32768	33503	32767	32668	32703	32833	
5370	0	1716	5764	7011	5097	818	0	32784	32639	32639	33615	32727	32641	32571	32871	
5371	0	1689	5801	7032	5086	819	0	32788	32500	32591	33847	32802	32647	32807	32834	
5372	0	1709	5824	7013	5085	820	0	32752	32412	32565	33781	32685	32740	32679	32729	
5373	0	1712	5810	7005	5124	821	0	32798	32475	32751	33487	32837	32604	32559	32759	
5374	0	1697	5777	7066	5114	822	0	32787	32602	32708	33367	32743	32647	32716	32725	
5375	0	1712	5806	7038	5061	823	0	32820	32684	32935	33271	32773	32827	32531	32717	
5376	0	1752	5822	7065	5087	824	0	32735	32722	32775	33092	32691	32863	32673	32711	
5377	0	1692	5794	7015	5110	825	0	32709	32708	32887	33303	32773	32759	32580	32722	
5378	0	1717	5803	7020	5088	826	0	32735	32603	32903	33342	32748	32807	32731	32775	
5379	0	1706	5797	7025	5076	827	0	32775	32647	32821	33083	32775	32715	32642	32775	
5380	0	1748	5815	7011	5061	828	0	32729	32611	32845	33071	32789	32716	32583	32774	
5381	0	1686	5786	7030	5102	829	0	32687	32571	32897	32967	32705	32687	32637	32807	
5382	0	1700	5800	6995	5080	830	0	32713	32569	33189	32903	32742	32701	32715	32709	
5383	0	1719	5815	7004	5080	831	0	32836	32631	33075	32900	32827	32775	32718	32747	
5384	0	1709	5827	7016	5111	832	0	32927	32775	32963	32887	32701	32911	32809	32683	
5385	0	1669	5796	7045	5069	833	0	32903	32823	32993	32722	32769	32948	32759	32710	
5386	0	1716	5793	7010	5079	834	0	32898	32847	33183	32607	32662	32975	32734	32711	
5387	0	1761	5811	7006	5081	835	0	32935	32966	33666	32425	32743	32823	32708	32775	
5388	0	1713	5772	7037	5092	836	0	32956	33047	34503	32359	32691	32853	32727	32797	
5389	0	1668	5781	7064	5133	837	0	33066	33086	34327	32311	32839	32791	32809	32742	
5390	0	1671	5779	7010	5083	838	0	33197	33069	33570	32300	32823	32775	32623	32703	
5391	0	1677	5784	7011	5059	839	0	33348	33005	33235	32543	32843	32723	32815	32735	
5392	0	1703	5793	7076	5064	840	0	33178	32871	32731	32557	32751	32479	32765	32887	
5393	0	1708	5768	7000	5029	841	0	33010	32807	32487	32367	32647	32548	32582	32855	
5394	0	1698	5839	7030	5065	842	0	32875	32727	32079	32420	32701	32535	32807	32807	
5395	0	1691	5765	7038	5061	843	0	32677	32836	31634	32625	32775	32623	32711	32835	
5396	0	1706	5814	7023	5097	844	0	32215	32757	31239	32959	32689	32719	32518	32755	
5397	0	1664	5798	7021	5080	845	0	31949	32550	30973	33143	32642	32852	32669	32775	
5398	0	1702	5741	7013	5060	846	0	31887	32488	30847	33095	32655	32893	32607	32775	
5399	0	1666	5764	7036	5063	847	0	31916	32767	30769	32943	32599	32924	32495	32717	
5400	0	1653	5796	7045	5083	848	0	31879	32815	30869	32842	32602	32972	32711	32771	
5401	0	1699	5784	7049	5092	849	0	31908	32279	30938	33013	32751	32943	32623	32703	
5402	0	1722	5820	6970	5049	850	0	32199	32287	31159	33049	32807	32969	32558	32735	
5403	0	1748	5813	7009	5038	851	0	32551	32813	31479	32987	32735	32803	32517	32818	
5404	0	1721	5784	7032	5084	852	0	32628	32924	31663	32775	32627	32757	32638	32862	
5405	0	1705	5816	7005	5088	853	0	32797	32815	31943	32765	32749	32724	32767	32767	
5406	0	1676	5818	7002	5044	854	0	32860	32556	32122	32794	32799	32702	32594	32759	
5407	0	1685	5795	6981	5040	855	0	32780	32459	32303	32815	32802	32623	32687	32765	
5408	0	1682	5772	6988	5087	856	0	32951	32589	32669	32605	32711	32647	32645	32799	
5409	0	1687	5793	6984	5056	857	0	33009	32687	32844	32535	32711	32623	32707	32775	
5410	0	1656	5812	7002	5079	858	0	33088	32791	32861	32303	32700	32665	32518	32709	
5411	0	1651	5788	6998	5026	859	0	33019	32943	33063	32090	32788	32647	32626	32695	
5412	0	1711	5805	6966	5065	860	0	33034	32967	33158	32116	32759	32747	32646	32831	
5413	0	1640	5820	7006	5031	861	0	32966	32900	33115	32365	32695	32775	32511	32811	
5414	0	1689	5801	7024	5061	862	0	32816	32903	33191	32466	32775	32701	32671	32692	
5415	0	1681	5796	6992	5029	863	0	32903	32861	33367	32391	32698	32859	32674	32663	
5416	0	1683	5784	6990	5044	864	0	32937	32775	33351	32491	32685	32901	32591	32647	
5417	0	1695	5814	6976	5093	865	0	32903	32749	33363	32663	32790	32829	32801	32659	
5418	0	1688	5796	7021	5070	866	0	32975	32763	33447	32613	32804	32707	32739	32815	
5419	0	1668	5782	6990	5058	867	0	32927	32927	33326	32775	32791	32707	32711	32687	
5420	0	1668	5775	6935	5011	868	0	32901	32937	33349	32615	32785	32647	32685	32647	
5421	0	1677	5808	6982	5068	869	0	32895	32707	33389	32751	32783	32645	32727	32826	
5422	0	1664	5820	6979	5073	870	0	32923	32679	33069	32903	32771	32603	32775	32773	
5423	0	1684	5795	7001	5048	871	0	32885	32635	33177	32789	32775	32607	32722	32769	
5424	0	1616	5824	6978	5056	872	0	32863	32577	33202	33006	32833	32647	32701	32813	
5425	0	1662	5814	6993	5025	873	0	32796	32621	33044	33159	32709	32674	32635	32743	
5426	0	1658	5804	7002	5018	874	0	32790	32739	33073	33318	32647	32691	32775	32706	
5427	0	1681	5820	6996	5018	875	0	32794	32775	33158	33302	32691	32658	32767	32743	
5428	0	1680	5843	6954	5026	876	0	32790	32719	33135	33241	32756	32617	32590	32847	
5429	0	1661	5810	6976	5056	877	0	32716	32551	33014	33303	32667	32519	32531	32861	
5430	0	1640	5822	6960	5054	878	0	32767	32519	32914	33271	32641	32542	32663	32795	
5431	0	1653	5809	7014	5071	879	0	32812	32559	32834	33202	32713	32786	32668	32748	
5432	0	1642	5796	6956	5036	880	0	32890	32573	32469	33099	32749	32771	32647	32835	
5433	0	1626	5809	7002	5038	881	0	32767	32703	32461	32946	32751	32805	32738	32710	
5434	0	1637	5771	6976	5026	882	0	32724	32751	32431	32749	32705	32759	32722	32666	
5435	0	1670	5804	6947	5068	883	0	32703	32711	32487	32791	32718	32759	32775	32727	
5436	0	1681	5839	6945	5005	884	0	32699	32775	32487	32627	32711	32762	32546	32783	
5437	0	1596	5832	6959	5023	885	0	32690	32793	32531	32613	32743	32761	32796	32758	
5438	0	1632	5800	6990	5010	886	0	32692	32799	32519	32595	32671	32775	32713	32715	
5439	0	1623	5791	7037	5052	887	0	32742	32838	32615	32587	32675	32755	32515	32740	
5440	0	1664	5806	7010	5020	888	0	32702	32813	32655	32551	32690	32599	32729	32791	
5441	0	1650	5817	7000	5006	889	0	32716	32758	32469	32503	32709	32767	32663	32831	
5442	0	1635	5815	6958	5031	890	0	32729	32807	32435	32385	32823	32637	32579	32839	
5443	0	1616	5818	6986	5022	891	0	32702	32835	32463	32359	32775	32770	32471	32804	
5444	0	1621	5817	6961	4992	892	0	32718	32789	32478	32429	32783	32606	32733	32815	
5445	0	1633	5792	6986	5028	893	0	32717	32775	32467	32307	32791	32596	32806	32789	
5446	0	1619	5819	6995	4998	894	0	32699	32743	32467	32436	32711	32587	32615	32747	
5447	0	1680	5816	6996	5018	895	0	32710	32767	32546	32500	32743	32591	32723	32812	
5448	0	1610	5805	6962	5030	896	0	32700	32730	32640	32571	32743	32671	32717	32711	
5449	0	1629	5767	6976	5038	897	0	32759	32703	32716	32679	32773	32642	32617	32735	
5450	0	1645	5824	6977	4996	898	0	32752	32719	32487	32527	32743	32679	32815	32723	
5451	0	1624	5810	6954	5020	899	0	32820	32743	32525	32550	32749	32681	32747	32727	
5452	0	1648	5800	6974	5030	900	0	32727	32821	32458	32586	32749	32615	32671	32757	
5453	0	1646	5839	6976	5035	901	0	32775	32847	32535	32543	32644	32646	32599	32812	
5454	0	1642	5825	7012	5026	902	0	32681	32775	32598	32551	32636	32707	32663	32775	
5455	0	1613	5794	6954	5031	903	0	32685	32791	32695	32718	32615	32749	32629	32797	
5456	0	1630	5816	6951	5022	904	0	32701	32775	32702	32679	32642	32748	32455	32806	
5457	0	1619	5797	6981	4992	905	0	32687	32727	32647	32749	32638	32683	32601	32911	
5458	0	1634	5796	6962	5004	906	0	32674	32756	32615	32734	32692	32789	32622	32898	
5459	0	1620	5807	6963	5013	907	0	32703	32743	32418	32666	32599	32812	32482	32870	
5460	0	1653	5850	6960	4999	908	0	32665	32743	32359	32838	32647	32799	32545	32871	
5461	0	1648	5822	6985	4996	909	0	32623	32775	32391	32681	32691	32831	32627	32749	
5462	0	1619	5838	6968	5006	910	0	32719	32863	32491	32743	32683	32916	32434	32819	
5463	0	1591	5802	7001	4990	911	0	32696	32937	32365	32635	32757	32903	32619	32853	
5464	0	1620	5856	7001	5027	912	0	32759	32879	32437	32669	32735	32863	32671	32773	
5465	0	1633	5833	6973	5026	913	0	32807	32903	32451	32638	32799	32854	32639	32743	
5466	0	1613	5821	6967	5008	914	0	32740	32935	32479	32543	32815	32807	32601	32759	
5467	0	1639	5843	7005	4993	915	0	32775	32903	32890	32647	32823	32786	32599	32727	
5468	0	1619	5872	6947	5020	916	0	32831	32995	33193	32639	32771	32847	32727	32642	
5469	0	1604	5828	6981	4999	917	0	32871	33027	33287	32705	32595	32814	32653	32620	
5470	0	1645	5865	7058	5003	918	0	32870	32990	33045	32751	32609	32850	32647	32581	
5471	0	1615	5828	6974	4972	919	0	32871	33015	32613	32690	32681	32685	32637	32595	
5472	0	1636	5852	6971	5022	920	0	32895	33026	32323	32681	32759	32633	32765	32655	
5473	0	1636	5804	6971	4936	921	0	32912	32950	32188	32639	32875	32603	32815	32647	
5474	0	1617	5772	7012	4963	922	0	32946	32819	32261	32719	32797	32695	32754	32666	
5475	0	1612	5834	6994	5010	923	0	32950	32782	32146	32671	32727	32791	32853	32611	
5476	0	1630	5866	7033	5012	924	0	32884	32741	32149	32590	32683	32804	32706	32667	
5477	0	1652	5872	6946	4981	925	0	32807	32799	32179	32766	32743	32942	32695	32661	
5478	0	1646	5880	6949	4998	926	0	32762	32742	32365	32805	32695	32911	32647	32695	
5479	0	1644	5853	7002	5028	927	0	32694	32630	32383	32751	32761	32887	32643	32775	
5480	0	1627	5860	6981	4960	928	0	32693	32543	32375	32854	32756	32875	32663	32695	
5481	0	1608	5851	7001	4994	929	0	32647	32614	32589	32783	32738	32743	32839	32727	
5482	0	1588	5886	6960	4981	930	0	32705	32615	32769	32955	32707	32815	32837	32723	
5483	0	1623	5818	7042	5018	931	0	32783	32449	32655	33053	32775	32757	32935	32647	
5484	0	1612	5887	6974	5006	932	0	32799	32433	32829	33122	32871	32823	32980	32619	
5485	0	1585	5841	7042	5014	933	0	32903	32425	32975	33135	32903	32747	32999	32559	
5486	0	1577	5904	6988	4982	934	0	32924	32402	33142	33007	32883	32711	33040	32535	
5487	0	1631	5870	6982	4988	935	0	32954	32427	33191	33017	32975	32695	33220	32525	
5488	0	1639	5868	7007	4972	936	0	33041	32451	33358	33007	32851	32703	33171	32535	
5489	0	1608	5908	7040	4933	937	0	32991	32425	33459	33065	32865	32765	33093	32583	
5490	0	1602	5872	7012	4990	938	0	32985	32413	33186	33156	32895	32729	33173	32530	
5491	0	1628	5854	6987	4979	939	0	33010	32477	33357	33035	33009	32647	33111	32548	
5492	0	1579	5914	6960	4990	940	0	33000	32563	33215	33123	32898	32543	33053	32566	
5493	0	1604	5815	7012	4978	941	0	32957	32623	33063	33057	32835	32695	32950	32735	
5494	0	1617	5921	6968	5018	942	0	32818	32713	33143	32919	32711	32647	32772	32775	
5495	0	1597	5859	6974	4992	943	0	32668	32597	32694	32914	32694	32679	32745	32891	
5496	0	1607	5888	7018	4964	944	0	32619	32695	32511	32775	32647	32751	32629	32923	
5497	0	1589	5858	7008	5003	945	0	32615	32709	32511	32973	32631	32813	32539	32877	
5498	0	1608	5900	7034	5018	946	0	32601	32622	32531	32875	32693	32642	32351	32971	
5499	0	1559	5864	7012	5023	947	0	32611	32662	32412	32730	32659	32631	32379	32979	
5500	0	1625	5932	6983	4998	948	0	32519	32694	32325	32745	32621	32647	32383	33071	
5501	0	1630	5898	7064	4940	949	0	32470	32685	32315	32557	32554	32695	32122	33091	
5502	0	1621	5903	7005	4952	950	0	32398	32775	32321	32607	32527	32722	32365	33154	
5503	0	1567	5872	7041	4994	951	0	32468	32743	32284	32415	32423	32631	32295	33059	
5504	0	1582	5921	6978	4973	952	0	32505	32699	32468	32559	32567	32547	32198	33170	
5505	0	1672	5950	7053	4988	953	0	32613	32799	32311	32586	32639	32538	32366	33095	
5506	0	1578	5870	7061	4968	954	0	32589	32813	32262	32503	32578	32663	32319	33139	
5507	0	1588	5864	7002	4945	955	0	32586	32841	32503	32631	32559	32847	32236	33023	
5508	0	1560	5912	7004	4965	956	0	32576	32843	32471	32478	32551	33023	32421	32986	
5509	0	1587	5889	7017	4997	957	0	32704	32812	32412	32687	32566	32933	32412	32836	
5510	0	1561	5892	7043	4945	958	0	32696	32801	32583	32706	32613	32775	32421	32839	
5511	0	1580	5902	6997	4984	959	0	32804	32871	32367	32647	32718	32751	32519	32829	
5512	0	1595	5912	7016	4958	960	0	32775	32839	32503	32607	32639	32751	32525	32827	
5513	0	1638	5911	7028	4944	961	0	32804	32821	32647	32574	32695	32787	32415	32815	
5514	0	1585	5838	7021	4982	962	0	32854	32839	32636	32609	32639	32803	32655	32818	
5515	0	1566	5934	7016	4970	963	0	32870	32847	32655	32569	32615	32775	32671	32773	
5516	0	1579	5913	7040	4971	964	0	32773	32871	32732	32663	32641	32818	32658	32700	
5517	0	1573	5906	7032	4933	965	0	32783	32775	32735	32666	32709	32821	32655	32703	
5518	0	1558	5963	6996	4968	966	0	32759	32700	32575	32643	32831	32788	32839	32735	
5519	0	1575	5930	7074	4973	967	0	32781	32794	32598	32575	32823	32715	32820	32827	
5520	0	1604	5921	7046	4946	968	0	32800	32839	32674	32551	32871	32551	32677	32855	
5521	0	1623	5938	7011	4986	969	0	32789	32823	32614	32709	32763	32531	32719	32804	
5522	0	1557	5924	7053	4980	970	0	32809	32807	32621	32793	32695	32473	32763	32713	
5523	0	1583	5986	7076	5001	971	0	32789	32791	32639	32810	32660	32502	32524	32705	
5524	0	1608	5925	7020	4952	972	0	32712	32751	32623	32850	32727	32527	32719	32739	
5525	0	1605	5916	7028	4965	973	0	32619	32823	32469	32725	32743	32695	32727	32702	
5526	0	1610	5933	7084	4954	974	0	32727	32859	32671	32767	32775	32773	32661	32708	
5527	0	1583	5918	7026	4964	975	0	32717	32839	32715	32769	32821	32863	32827	32676	
5528	0	1584	5890	7070	4916	976	0	32740	32791	32668	32767	32743	32977	32826	32681	
5529	0	1536	5903	7060	4966	977	0	32727	32725	32615	32775	32743	32903	32647	32647	
5530	0	1558	5970	7047	4978	978	0	32784	32687	32615	32691	32771	32914	32716	32718	
5531	0	1546	5950	7076	4936	979	0	32793	32668	32623	32879	32811	32791	32763	32713	
5532	0	1556	5930	7043	4972	980	0	32756	32687	32762	32847	32738	32767	32683	32717	
5533	0	1563	5922	7064	4976	981	0	32781	32711	32823	32703	32692	32839	32679	32743	
5534	0	1556	5965	7050	4986	982	0	32742	32775	32775	32658	32687	32858	32766	32737	
5535	0	1581	5940	7066	4969	983	0	32793	32717	32767	32759	32647	32742	32695	32684	
5536	0	1575	5944	7038	4965	984	0	32844	32787	32733	32666	32717	32810	32575	32743	
5537	0	1520	5924	7104	4986	985	0	32850	32823	32681	32473	32732	32719	32789	32775	
5538	0	1593	5958	7131	4984	986	0	32839	32799	32699	32111	32738	32691	32767	32678	
5539	0	1555	5962	7096	4952	987	0	32850	32791	32473	31799	32767	32655	32807	32708	
5540	0	1570	5938	7110	5014	988	0	32826	32751	32454	31663	32765	32671	32613	32749	
5541	0	1550	5900	7062	4958	989	0	32807	32689	32494	31924	32801	32635	32735	32831	
5542	0	1567	5968	7106	4971	990	0	32831	32766	32685	32347	32783	32647	32764	32830	
5543	0	1548	5925	7084	5010	991	0	32813	32765	32703	32671	32791	32639	32785	32694	
5544	0	1542	5944	7104	4969	992	0	32888	32732	32739	33259	32685	32681	32607	32690	
5545	0	1589	5974	7084	4962	993	0	32827	32879	32884	33639	32659	32662	32847	32743	
5546	0	1618	5929	7084	4947	994	0	32833	32821	32743	33943	32609	32775	32769	32685	
5547	0	1544	5953	7126	5001	995	0	32790	32879	32694	34098	32719	32582	32679	32798	
5548	0	1520	5956	7108	4956	996	0	32762	32847	32743	34067	32723	32595	32713	32710	
5549	0	1572	5940	7120	4945	997	0	32743	32707	32611	33863	32742	32551	32655	32775	
5550	0	1573	5945	7107	4984	998	0	32754	32579	32695	33687	32715	32646	32519	32749	
5551	0	1547	5934	7122	4962	999	0	32805	32519	32723	33470	32749	32639	32711	32837	
5552	0	1589	5980	7152	5023	1000	0	32816	32515	32802	33191	32749	32647	32610	32807	
5553	0	1605	5964	7144	4973	1001	0	32711	32467	32811	32973	32763	32655	32731	32835	
5554	0	1551	5902	7136	4936	1002	0	32750	32480	32615	32958	32794	32719	32611	32734	
5555	0	1605	5979	7121	4966	1003	0	32701	32531	32684	32903	32819	32805	32647	32660	
5556	0	1588	5964	7086	4939	1004	0	32700	32647	32627	32783	32749	32834	32725	32719	
5557	0	1549	5960	7110	4952	1005	0	32611	32707	32725	32627	32711	32756	32507	32647	
5558	0	1612	5991	7146	4964	1006	0	32669	32713	32587	32598	32690	32609	32694	32773	
5559	0	1558	5957	7081	4928	1007	0	32632	32887	32364	32583	32687	32495	32603	32823	
5560	0	1616	5944	7130	5010	1008	0	32740	32829	32317	32389	32794	32527	32615	32708	
5561	0	1587	6009	7084	4944	1009	0	32646	32815	32491	32350	32783	32607	32683	32705	
5562	0	1577	6000	7111	4994	1010	0	32693	32832	32531	32143	32807	32787	32790	32663	
5563	0	1586	6006	7133	4961	1011	0	32703	32918	32607	32127	32669	32790	32773	32659	
5564	0	1611	6000	7110	4962	1012	0	32751	32959	32527	32047	32647	32868	32702	32703	
5565	0	1564	5979	7100	4950	1013	0	32695	32975	32476	32167	32635	33007	32709	32685	
5566	0	1561	6015	7114	4946	1014	0	32718	32811	32575	32333	32567	33071	32715	32703	
5567	0	1548	6003	7144	4948	1015	0	32756	32719	32623	32343	32619	32970	32636	32767	
5568	0	1610	5972	7126	4955	1016	0	32793	32725	32662	32461	32617	32771	32637	32833	
5569	0	1593	6040	7148	4977	1017	0	32865	32835	32775	32609	32757	32815	32543	32810	
5570	0	1585	5996	7139	4987	1018	0	32839	32823	32643	32647	32731	32679	32690	32751	
5571	0	1609	6018	7117	4967	1019	0	32839	32677	32722	32736	32711	32783	32663	32740	
5572	0	1570	5991	7147	4955	1020	0	32764	32669	32587	32615	32775	32543	32509	32799	
5573	0	1586	5984	7106	4962	1021	0	32771	32677	32647	32871	32809	32546	32748	32811	
5574	0	1540	5988	7178	5000	1022	0	32782	32635	32759	32695	32703	32518	32643	32812	
5575	0	1546	6011	7170	4967	1023	0	32704	32689	32694	32823	32766	32546	32605	32762	
5576	0	1543	6015	7144	4964	1024	0	32697	32742	32567	32861	32759	32571	32711	32788	
5577	0	1594	5976	7146	4981	1025	0	32736	32743	32718	33021	32765	32710	32599	32864	
5578	0	1583	5988	7097	4987	1026	0	32816	32799	32681	32997	32804	32810	32525	32863	
5579	0	1557	5997	7157	4985	1027	0	32850	32751	32597	33015	32717	32775	32567	32922	
5580	0	1575	6022	7148	4966	1028	0	32841	32678	32721	33074	32734	32697	32807	32734	
5581	0	1569	5991	7137	4960	1029	0	32845	32691	32847	33141	32715	32675	32941	32594	
5582	0	1560	5981	7122	4962	1030	0	32823	32647	32687	33127	32735	32614	32662	32659	
5583	0	1629	5964	7148	5014	1031	0	32844	32647	32671	32990	32671	32629	32810	32709	
5584	0	1589	5994	7167	4960	1032	0	32813	32639	32668	32990	32739	32607	32735	32730	
5585	0	1563	6052	7165	4976	1033	0	32823	32658	32772	32935	32706	32647	32671	32695	
5586	0	1578	6028	7102	4971	1034	0	32779	32677	32625	32771	32743	32607	32714	32729	
5587	0	1616	6032	7122	4921	1035	0	32786	32691	32751	32703	32643	32767	32775	32730	
5588	0	1619	5993	7168	4983	1036	0	32786	32791	32463	32623	32731	32855	32597	32754	
5589	0	1587	6001	7176	4976	1037	0	32814	32743	32532	32567	32725	32775	32731	32915	
5590	0	1544	6043	7104	4961	1038	0	32747	32843	32623	32511	32695	32827	32758	32931	
5591	0	1554	5996	7049	4945	1039	0	32733	32787	32700	32479	32726	32769	32629	32833	
5592	0	1516	6010	7108	4932	1040	0	32764	32815	32633	32451	32773	32775	32806	32823	
5593	0	1572	5985	7143	4960	1041	0	32782	32834	32610	32545	32671	32739	32715	32811	
5594	0	1609	5988	7113	4978	1042	0	32828	32799	32686	32688	32807	32836	32451	32711	
5595	0	1591	6023	7146	4920	1043	0	32748	32711	32532	32689	32783	32802	32742	32743	
5596	0	1596	6026	7130	4976	1044	0	32743	32726	32507	32623	32836	32821	32719	32668	
5597	0	1627	5973	7099	4973	1045	0	32696	32815	32679	32625	32685	32660	32530	32690	
5598	0	1604	6005	7108	4937	1046	0	32758	32813	32631	32643	32669	32601	32690	32691	
5599	0	1606	6027	7120	4981	1047	0	32783	32681	32742	32615	32743	32666	32583	32694	
5600	0	1594	6009	7116	4965	1048	0	32766	32663	32461	32503	32686	32837	32694	32754	
5601	0	1621	5966	7084	4959	1049	0	32751	32717	32647	32604	32667	32866	32743	32796	
5602	0	1569	6016	7117	4937	1050	0	32749	32739	32747	32613	32746	32839	32519	32826	
5603	0	1555	6033	7153	4988	1051	0	32732	32730	32662	32751	32757	32858	32692	32741	
5604	0	1573	5988	7091	4982	1052	0	32728	32691	32764	32711	32773	32881	32719	32683	
5605	0	1611	5994	7126	5016	1053	0	32729	32671	32711	32804	32718	32911	32667	32764	
5606	0	1593	6022	7133	4970	1054	0	32724	32661	32451	32870	32695	32903	32682	32771	
5607	0	1586	5994	7110	4950	1055	0	32783	32773	32546	32803	32604	32775	32743	32724	
5608	0	1605	5981	7136	4932	1056	0	32761	32775	32599	32903	32645	32687	32615	32743	
5609	0	1593	6033	7122	4944	1057	0	32797	32759	32671	32734	32766	32679	32795	32729	
5610	0	1635	6006	7122	4974	1058	0	32784	32707	32667	32805	32719	32831	32663	32762	
5611	0	1621	6021	7108	4954	1059	0	32763	32667	32767	32773	32757	32757	32695	32797	
5612	0	1572	6035	7083	4944	1060	0	32712	32645	32655	32775	32687	32719	32535	32803	
5613	0	1571	5970	7095	4934	1061	0	32781	32647	32566	32763	32703	32733	32588	32797	
5614	0	1530	6017	7133	4972	1062	0	32715	32642	32679	32775	32745	32783	32647	32820	
5615	0	1603	6012	7136	4964	1063	0	32705	32663	32783	32803	32804	32762	32514	32763	
5616	0	1587	6016	7101	4984	1064	0	32718	32639	32685	32767	32783	32588	32615	32743	
5617	0	1577	6038	7060	5000	1065	0	32726	32658	32736	32818	32679	32599	32639	32811	
5618	0	1564	6038	7086	4929	1066	0	32743	32662	32796	32787	32647	32581	32677	32751	
5619	0	1616	5996	7057	4963	1067	0	32735	32607	32515	32791	32673	32535	32631	32742	
5620	0	1580	5964	7121	4978	1068	0	32706	32572	32487	32724	32775	32615	32775	32791	
5621	0	1540	5990	7083	4969	1069	0	32745	32698	32639	32583	32791	32796	32710	32818	
5622	0	1557	6019	7082	4965	1070	0	32747	32722	32613	32838	32628	32873	32668	32743	
5623	0	1556	6032	7079	4956	1071	0	32733	32715	32595	32738	32607	32813	32797	32727	
5624	0	1632	6012	7056	5001	1072	0	32740	32709	32559	32775	32687	32798	32583	32775	
5625	0	1578	6006	7075	4928	1073	0	32783	32743	32677	32771	32655	32683	32773	32784	
5626	0	1589	5954	7096	4933	1074	0	32791	32717	32727	32820	32685	32629	32702	32751	
5627	0	1602	6049	7144	4942	1075	0	32772	32756	32647	32893	32826	32597	32789	32747	
5628	0	1590	6018	7113	4941	1076	0	32727	32690	32723	32903	32829	32569	32519	32797	
5629	0	1577	5968	7073	4914	1077	0	32739	32785	32706	32958	32766	32439	32671	32775	
5630	0	1593	6033	7098	4959	1078	0	32700	32769	32685	32859	32790	32514	32578	32737	
5631	0	1578	6033	7101	4965	1079	0	32764	32719	32663	32783	32799	32687	32683	32751	
5632	0	1619	6034	7068	4982	1080	0	32743	32661	32591	32839	32823	32593	32599	32775	
5633	0	1595	6020	7058	4942	1081	0	32711	32621	32425	32787	32687	32626	32887	32771	
5634	0	1532	5989	7092	4959	1082	0	32687	32620	32428	32711	32589	32717	32743	32731	
5635	0	1646	6030	7072	4994	1083	0	32743	32663	32578	32628	32789	32829	32677	32711	
5636	0	1602	6044	7068	4998	1084	0	32825	32742	32731	32589	32743	32690	32815	32759	
5637	0	1567	5948	7056	4967	1085	0	32843	32763	32842	32711	32780	32647	32703	32740	
5638	0	1605	6001	7043	4929	1086	0	32902	32751	32676	32733	32726	32751	32637	32761	
5639	0	1609	6062	7057	4965	1087	0	32881	32687	32739	32796	32673	32705	32685	32695	
5640	0	1594	6034	7060	4890	1088	0	32816	32733	32815	32739	32674	32799	32685	32725	
5641	0	1614	6000	7056	4934	1089	0	32773	32743	32583	32711	32743	32754	32694	32743	
5642	0	1587	6005	7076	4948	1090	0	32716	32830	32535	32727	32677	32647	32659	32807	
5643	0	1566	5981	7040	4986	1091	0	32734	32802	32525	32647	32775	32645	32716	32807	
5644	0	1612	5957	7088	4973	1092	0	32727	32783	32583	32710	32738	32730	32731	32669	
5645	0	1603	5986	7068	4967	1093	0	32733	32847	32655	32631	32702	32663	32577	32684	
5646	0	1649	5973	7075	4989	1094	0	32731	32869	32615	32677	32695	32643	32731	32699	
5647	0	1608	5979	7070	4985	1095	0	32729	32871	32607	32679	32703	32703	32719	32701	
5648	0	1623	6007	7080	4912	1096	0	32730	32799	32617	32751	32755	32637	32685	32850	
5649	0	1589	6004	7048	4973	1097	0	32743	32756	32585	32799	32845	32790	32593	32819	
5650	0	1607	6028	7043	4952	1098	0	32742	32775	32587	32863	32791	32730	32711	32818	
5651	0	1606	5984	7040	4968	1099	0	32709	32736	32661	32915	32793	32708	32679	32807	
5652	0	1610	5995	7060	4929	1100	0	32745	32743	32558	32903	32821	32743	32541	32823	
5653	0	1601	6019	7033	4915	1101	0	32829	32699	32562	32842	32757	32718	32684	32847	
5654	0	1585	6001	7007	4958	1102	0	32745	32746	32579	32791	32573	32743	32647	32787	
5655	0	1599	6031	7070	4968	1103	0	32738	32679	32671	32969	32655	32555	32506	32775	
5656	0	1563	6004	7016	4950	1104	0	32773	32786	32786	32831	32599	32645	32631	32787	
5657	0	1610	5991	7037	4944	1105	0	32855	32890	32727	32558	32639	32647	32571	32715	
5658	0	1621	6021	7030	4924	1106	0	32815	32807	32775	32666	32617	32759	32691	32747	
5659	0	1618	6021	7005	4948	1107	0	32817	32694	32559	32719	32706	32743	32743	32677	
5660	0	1599	6003	7028	4964	1108	0	32764	32803	32736	32821	32751	32807	32578	32759	
5661	0	1557	5990	7038	4946	1109	0	32822	32749	32559	32775	32799	32831	32751	32741	
5662	0	1604	6003	7032	4944	1110	0	32694	32795	32502	32815	32821	32845	32695	32805	
5663	0	1610	6019	7048	4934	1111	0	32655	32743	32679	32858	32805	32747	32547	32755	
5664	0	1610	5948	7024	4988	1112	0	32708	32881	32667	32851	32727	32786	32767	32790	
5665	0	1564	5985	7027	4930	1113	0	32791	32769	32715	32814	32739	32804	32743	32863	
5666	0	1616	6016	7054	4975	1114	0	32805	32811	32663	32692	32703	32767	32601	32775	
5667	0	1607	5979	7016	4931	1115	0	32786	32759	32671	32759	32785	32714	32718	32791	
5668	0	1584	5985	6978	4981	1116	0	32839	32771	32737	32679	32692	32671	32707	32719	
5669	0	1558	5983	7021	4969	1117	0	32814	32711	32514	32775	32717	32807	32559	32743	
5670	0	1612	5989	7029	4962	1118	0	32858	32647	32530	32533	32775	32813	32775	32745	
5671	0	1590	5974	7031	5011	1119	0	32823	32813	32647	32665	32717	32686	32743	32743	
5672	0	1605	5988	6964	4968	1120	0	32761	32679	32647	32699	32686	32703	32559	32786	
5673	0	1624	6011	7029	4959	1121	0	32769	32724	32597	32437	32702	32735	32660	32799	
5674	0	1631	5950	6982	4951	1122	0	32716	32747	32644	32203	32709	32727	32754	32783	
5675	0	1596	5951	6985	4970	1123	0	32703	32727	32502	32199	32695	32706	32515	32669	
5676	0	1628	5961	6985	4952	1124	0	32647	32675	32580	32484	32813	32691	32738	32685	
5677	0	1598	6013	7000	4958	1125	0	32687	32711	32647	32477	32775	32735	32813	32709	
5678	0	1552	5972	7034	4978	1126	0	32769	32759	32571	32740	32611	32767	32708	32612	
5679	0	1634	5919	6992	5023	1127	0	32761	32660	32636	33037	32719	32775	32757	32703	
5680	0	1601	5968	6969	4960	1128	0	32812	32643	32677	33091	32735	32831	32796	32791	
5681	0	1603	5970	7002	4922	1129	0	32778	32607	32543	33149	32723	32804	32623	32698	
5682	0	1571	5958	7012	4970	1130	0	32794	32647	32511	33116	32711	32769	32719	32730	
5683	0	1579	5976	7012	4950	1131	0	32768	32671	32556	33095	32801	32609	32791	32635	
5684	0	1571	5949	7000	4936	1132	0	32737	32681	32703	32903	32683	32775	32623	32759	
5685	0	1608	5956	6940	4956	1133	0	32690	32687	32763	32989	32666	32743	32660	32867	
5686	0	1569	5968	7010	4916	1134	0	32714	32620	32707	32943	32775	32575	32775	32877	
5687	0	1573	5930	7064	4961	1135	0	32701	32623	32711	32839	32797	32639	32655	32859	
5688	0	1600	5972	6972	4948	1136	0	32749	32703	32547	32865	32667	32647	32722	32773	
5689	0	1580	5954	6963	4964	1137	0	32727	32731	32605	32875	32623	32746	32564	32734	
5690	0	1590	5912	7030	4956	1138	0	32756	32699	32631	32717	32639	32791	32628	32701	
5691	0	1580	5916	6978	4968	1139	0	32788	32734	32694	32772	32707	32855	32619	32709	
5692	0	1612	5898	7043	4948	1140	0	32764	32745	32763	32734	32722	32831	32647	32743	
5693	0	1590	5931	6980	4962	1141	0	32783	32775	32519	32703	32794	32798	32676	32835	
5694	0	1620	5901	7021	4960	1142	0	32823	32823	32775	32646	32703	32743	32493	32775	
5695	0	1575	5956	6986	5007	1143	0	32799	32699	32767	32469	32831	32782	32729	32790	
5696	0	1568	5960	7006	4975	1144	0	32751	32701	32807	32626	32807	32797	32663	32743	
5697	0	1606	5965	6960	4993	1145	0	32845	32695	32813	32471	32789	32807	32623	32815	
5698	0	1621	5916	6950	4938	1146	0	32756	32703	32519	32580	32791	32789	32655	32855	
5699	0	1592	5950	6963	4970	1147	0	32727	32659	32533	32535	32790	32815	32679	32783	
5700	0	1576	5949	6970	5001	1148	0	32718	32634	32692	32807	32775	32819	32694	32732	
5701	0	1584	5907	6963	4937	1149	0	32748	32694	32623	32736	32709	32799	32754	32701	
5702	0	1566	5952	6952	4951	1150	0	32692	32718	32627	32839	32765	32707	32612	32791	
5703	0	1636	5933	6970	4963	1151	0	32652	32743	32679	32874	32701	32583	32735	32743	
5704	0	1600	5968	6971	4947	1152	0	32709	32766	32505	32701	32709	32699	32788	32751	
5705	0	1585	5924	6981	4986	1153	0	32666	32748	32485	32727	32620	32749	32513	32758	
5706	0	1581	5957	6984	4950	1154	0	32730	32775	32660	32611	32635	32695	32653	32707	
5707	0	1572	5910	6985	4962	1155	0	32705	32815	32642	32783	32719	32663	32662	32786	
5708	0	1625	5936	6949	4952	1156	0	32772	32774	32647	32727	32763	32709	32609	32783	
5709	0	1663	5943	6958	4985	1157	0	32820	32759	32629	32822	32719	32615	32555	32795	
5710	0	1569	5944	6970	4932	1158	0	32795	32750	32719	32701	32759	32551	32707	32708	
5711	0	1573	5914	6985	5000	1159	0	32868	32707	32980	32759	32791	32613	32683	32783	
5712	0	1602	5938	6990	4922	1160	0	32859	32662	32941	32622	32703	32631	32588	32737	
5713	0	1579	5928	7000	4945	1161	0	32806	32607	32749	32643	32697	32675	32578	32707	
5714	0	1590	5921	6976	4956	1162	0	32802	32619	32581	32623	32698	32678	32759	32759	
5715	0	1590	5942	6989	4973	1163	0	32826	32663	32629	32655	32733	32647	32709	32782	
5716	0	1617	5906	6972	4930	1164	0	32805	32733	32647	32555	32700	32658	32635	32808	
5717	0	1612	5928	6972	4997	1165	0	32808	32695	32683	32711	32729	32663	32734	32815	
5718	0	1597	5928	6980	4939	1166	0	32694	32685	32743	32695	32749	32631	32769	32705	
5719	0	1573	5886	6949	4970	1167	0	32758	32767	32647	32775	32679	32795	32723	32742	
5720	0	1616	5922	6975	4971	1168	0	32794	32759	32749	32773	32661	32835	32724	32765	
5721	0	1593	5920	7000	4980	1169	0	32735	32703	32407	32743	32671	32826	32709	32786	
5722	0	1588	5956	6973	4994	1170	0	32767	32621	32499	32956	32762	32839	32543	32733	
5723	0	1591	5943	6955	5005	1171	0	32727	32647	32549	32998	32705	32772	32711	32799	
5724	0	1597	5938	6987	4992	1172	0	32709	32661	32445	32839	32810	32723	32639	32772	
5725	0	1604	5893	6960	4948	1173	0	32702	32671	32475	32903	32666	32735	32483	32830	
5726	0	1618	5946	6989	4960	1174	0	32728	32711	32532	32833	32627	32637	32745	32821	
5727	0	1658	5944	7006	4944	1175	0	32758	32718	32603	32831	32711	32631	32734	32806	
5728	0	1611	5937	6970	4948	1176	0	32732	32743	32494	32828	32789	32735	32656	32719	
5729	0	1619	5938	7004	4994	1177	0	32740	32751	32485	32765	32775	32865	32685	32634	
5730	0	1629	5906	6984	5020	1178	0	32708	32667	32407	32741	32763	32751	32823	32683	
5731	0	1586	5913	6972	4985	1179	0	32780	32676	32532	32711	32749	32819	32769	32678	
5732	0	1606	5876	7032	5043	1180	0	32775	32659	32629	32775	32710	32858	32509	32679	
5733	0	1618	5951	6942	4948	1181	0	32796	32635	32637	32763	32743	32855	32658	32707	
5734	0	1580	5940	6955	5000	1182	0	32759	32598	33087	32711	32705	32754	32683	32742	
5735	0	1626	5941	7011	4974	1183	0	32788	32639	33391	32775	32660	32847	32739	32789	
5736	0	1604	5962	6995	5000	1184	0	32769	32685	33504	32685	32643	32852	32631	32717	
5737	0	1586	5909	6980	4976	1185	0	32769	32719	33315	32775	32739	32667	32748	32838	
5738	0	1564	5869	7029	4979	1186	0	32733	32679	33076	32767	32773	32681	32642	32822	
5739	0	1586	5908	6937	4978	1187	0	32775	32661	32739	32727	32814	32821	32660	32815	
5740	0	1630	5928	6966	4980	1188	0	32796	32703	32577	32719	32671	32839	32647	32793	
5741	0	1598	5920	7033	5012	1189	0	32809	32723	32383	32751	32731	32829	32738	32786	
5742	0	1608	5900	6986	4962	1190	0	32833	32773	32231	32839	32775	32799	32775	32867	
5743	0	1624	5916	6970	4984	1191	0	32732	32761	32118	32695	32714	32914	32663	32759	
5744	0	1592	5899	6963	5028	1192	0	32665	32791	31988	32758	32695	32853	32775	32711	
5745	0	1615	5876	6961	4995	1193	0	32726	32806	31879	32765	32737	32799	32703	32762	
5746	0	1587	5904	6954	4964	1194	0	32722	32762	31987	32756	32761	32763	32734	32775	
5747	0	1592	5921	7024	4950	1195	0	32625	32740	32381	32807	32789	32813	32647	32773	
5748	0	1622	5893	6956	4964	1196	0	32598	32735	32659	32727	32739	32788	32721	32733	
5749	0	1578	5840	6969	4988	1197	0	32617	32635	32829	32662	32713	32811	32757	32819	
5750	0	1622	5905	6943	4989	1198	0	32679	32685	33071	32711	32735	32861	32755	32828	
5751	0	1582	5897	6988	5019	1199	0	32696	32705	33139	32821	32719	32955	32623	32735	
5752	0	1598	5916	7008	4989	1200	0	32713	32660	32999	32847	32639	32879	32775	32799	
5753	0	1602	5856	6995	4982	1201	0	32855	32692	32839	32875	32621	32845	32703	32709	
5754	0	1609	5894	6978	4968	1202	0	32909	32758	32599	32927	32655	32815	32708	32703	
5755	0	1581	5904	6992	5014	1203	0	32943	32711	32367	32911	32666	32775	32579	32799	
5756	0	1603	5900	6974	4964	1204	0	32895	32772	32255	32927	32711	32843	32748	32775	
5757	0	1586	5881	6970	5032	1205	0	32886	32775	32223	32833	32695	32804	32748	32685	
5758	0	1620	5880	6992	5009	1206	0	32854	32759	32231	32838	32723	32786	32819	32750	
5759	0	1628	5879	6948	5031	1207	0	32843	32662	32113	32836	32839	32807	32623	32759	
5760	0	1604	5885	6964	4990	1208	0	32852	32707	32331	32895	32791	32751	32823	32767	
5761	0	1584	5867	6964	4956	1209	0	32788	32643	32354	32947	32789	32855	32741	32711	
5762	0	1606	5905	6980	5005	1210	0	32708	32631	32375	32861	32679	32818	32549	32639	
5763	0	1582	5877	6969	4980	1211	0	32636	32723	32583	32975	32739	32939	32630	32795	
5764	0	1599	5830	6961	5001	1212	0	32687	32634	32943	33007	32631	32911	32747	32818	
5765	0	1570	5865	6988	5011	1213	0	32654	32615	32847	32977	32756	32898	32749	32807	
5766	0	1620	5859	6998	5026	1214	0	32642	32541	33103	33050	32687	32877	32607	32684	
5767	0	1595	5867	6931	4976	1215	0	32610	32643	33270	32935	32749	32767	32759	32765	
5768	0	1600	5899	6944	4965	1216	0	32767	32743	33475	33029	32758	32773	32714	32737	
5769	0	1592	5921	6956	4944	1217	0	32819	32695	33523	32861	32690	32646	32485	32831	
5770	0	1635	5851	7003	4978	1218	0	32761	32705	33394	32734	32607	32764	32671	32879	
5771	0	1624	5859	6956	4992	1219	0	32799	32724	33139	32615	32819	32711	32693	32815	
5772	0	1616	5864	6960	4995	1220	0	32830	32620	32724	32626	32721	32771	32607	32774	
5773	0	1575	5807	6957	4953	1221	0	32804	32677	32426	32707	32799	32823	32623	32694	
5774	0	1628	5900	6970	4988	1222	0	32956	32826	32043	32839	32738	32813	32653	32726	
5775	0	1645	5866	6964	5016	1223	0	32857	32839	31783	32685	32708	32787	32720	32703	
5776	0	1592	5890	6958	4975	1224	0	32791	32823	31850	32311	32735	32764	32487	32719	
5777	0	1635	5851	6982	4984	1225	0	32818	32973	31931	31922	32811	32877	32774	32692	
5778	0	1638	5860	6995	5013	1226	0	32740	33137	32303	31781	32736	32859	32729	32670	
5779	0	1607	5877	6955	4964	1227	0	32677	33039	32732	32036	32767	32924	32483	32735	
5780	0	1639	5826	6998	4973	1228	0	32718	32839	32747	32263	32789	32862	32698	32751	
5781	0	1626	5880	6944	5008	1229	0	32754	32708	32895	32663	32707	32769	32685	32819	
5782	0	1616	5859	6915	4976	1230	0	32694	32647	33014	32813	32793	32775	32667	32771	
5783	0	1601	5848	6944	4963	1231	0	32687	32605	32951	32887	32702	32747	32507	32841	
5784	0	1634	5809	7003	4982	1232	0	32723	32606	32913	32855	32775	32775	32727	32775	
5785	0	1578	5831	6989	4980	1233	0	32824	32678	32690	32895	32738	32731	32815	32704	
5786	0	1615	5850	7017	4995	1234	0	32912	32599	32957	32881	32731	32543	32670	32742	
5787	0	1542	5826	6992	5021	1235	0	32950	32597	32813	32890	32647	32611	32775	32787	
5788	0	1588	5840	6953	4997	1236	0	32940	32511	32629	33131	32743	32689	32635	32757	
5789	0	1595	5856	7017	5043	1237	0	32876	32599	32514	33117	32623	32719	32615	32829	
5790	0	1618	5857	7001	5015	1238	0	32838	32677	32485	32799	32661	32751	32694	32743	
5791	0	1602	5844	7002	5008	1239	0	32827	32711	32391	32503	32639	32769	32599	32715	
5792	0	1612	5789	6961	5000	1240	0	32736	32819	31892	32487	32642	32795	32671	32717	
5793	0	1609	5800	6973	5000	1241	0	32584	32775	31884	32789	32743	32775	32647	32799	
5794	0	1618	5823	6994	5006	1242	0	32468	32791	32033	32676	32719	32839	32675	32852	
5795	0	1580	5826	6962	5027	1243	0	32391	32847	32146	32583	32754	32775	32661	32838	
5796	0	1582	5800	6977	5002	1244	0	32504	32839	32233	32564	32823	32786	32607	32749	
5797	0	1601	5838	7023	5048	1245	0	32683	32903	32311	32523	32710	32849	32515	32715	
5798	0	1588	5826	7000	5012	1246	0	32734	32751	32418	32847	32679	32743	32583	32729	
5799	0	1578	5810	7011	5022	1247	0	32736	32711	32493	32895	32759	32806	32671	32819	
5800	0	1633	5789	6983	5028	1248	0	32671	32627	32506	33059	32755	32771	32807	32795	
5801	0	1615	5802	7002	5003	1249	0	32655	32621	32588	33031	32775	32643	32643	32791	
5802	0	1642	5820	6990	5024	1250	0	32719	32647	32797	32973	32727	32559	32677	32825	
5803	0	1589	5796	6995	5019	1251	0	32751	32751	32903	32903	32646	32610	32614	32807	
5804	0	1632	5788	7006	5030	1252	0	32783	32855	33091	32687	32773	32605	32759	32739	
5805	0	1593	5780	6993	5022	1253	0	32798	32831	33179	32723	32660	32705	32738	32687	
5806	0	1629	5790	7022	5079	1254	0	32790	32819	32887	32667	32681	32871	32581	32642	
5807	0	1611	5796	6974	4987	1255	0	32841	32803	33095	32684	32640	32883	32770	32647	
5808	0	1609	5806	6978	5005	1256	0	32745	32719	33199	32803	32743	32897	32762	32743	
5809	0	1645	5780	6998	5014	1257	0	32821	32671	33021	32788	32807	32903	32623	32782	
5810	0	1604	5802	7031	5068	1258	0	32854	32741	33063	32823	32759	32903	32775	32877	
5811	0	1613	5791	6999	4986	1259	0	32839	32607	32948	32775	32613	32807	32751	32802	
5812	0	1596	5769	7020	5011	1260	0	32910	32647	32701	32835	32635	32811	32753	32763	
5813	0	1614	5752	6999	5028	1261	0	32847	32623	32836	32895	32742	32749	32719	32811	
5814	0	1618	5796	7032	5024	1262	0	32752	32700	32812	32775	32751	32685	32703	32775	
5815	0	1603	5746	7012	5007	1263	0	32806	32727	32710	32859	32807	32709	32539	32847	
5816	0	1613	5780	7018	5020	1264	0	32773	32647	32831	32818	32775	32729	32749	32796	
5817	0	1622	5769	7014	5074	1265	0	32766	32708	32943	32623	32721	32739	32671	32785	
5818	0	1617	5825	7000	5010	1266	0	32765	32621	32685	32707	32709	32749	32524	32763	
5819	0	1619	5768	7000	5030	1267	0	32783	32617	32863	32740	32803	32631	32587	32823	
5820	0	1647	5827	7032	5049	1268	0	32736	32715	32820	32829	32751	32539	32663	32767	
5821	0	1646	5833	7044	5053	1269	0	32759	32665	32694	32736	32823	32556	32553	32659	
5822	0	1613	5784	7023	5084	1270	0	32788	32627	32687	32751	32807	32645	32679	32722	
5823	0	1645	5789	7016	5060	1271	0	32782	32615	32710	32685	32743	32769	32625	32822	
5824	0	1607	5796	7061	5069	1272	0	32826	32695	32782	32629	32678	32747	32543	32791	
5825	0	1572	5778	7020	5016	1273	0	32811	32743	32623	32783	32679	32775	32694	32835	
5826	0	1607	5764	7040	5092	1274	0	32820	32713	32391	32815	32735	32797	32749	32820	
5827	0	1616	5756	7013	5051	1275	0	32676	32795	32607	32647	32685	32884	32589	32759	
5828	0	1594	5774	7019	5057	1276	0	32729	32892	32709	32845	32667	32835	32679	32751	
5829	0	1602	5817	7052	5059	1277	0	32732	32763	32663	32797	32647	32799	32727	32711	
5830	0	1604	5808	7033	5062	1278	0	32772	32775	32703	32827	32627	32795	32643	32719	
5831	0	1609	5802	7038	5088	1279	0	32777	32715	32785	32775	32775	32861	32811	32823	
5832	0	1597	5744	7042	5049	1280	0	32859	32799	32687	32757	32733	32867	32629	32775	
5833	0	1574	5767	7053	5098	1281	0	32901	32643	32492	32823	32715	32845	32742	32757	
5834	0	1606	5771	7033	5079	1282	0	32829	32695	32391	32827	32794	32807	32543	32694	
5835	0	1639	5779	7088	5090	1283	0	32837	32709	32567	32789	32730	32895	32735	32723	
5836	0	1640	5804	7117	5104	1284	0	32802	32737	32785	32723	32583	32863	32691	32684	
5837	0	1635	5736	7094	5083	1285	0	32851	32758	32965	32838	32684	32775	32601	32729	
5838	0	1651	5759	7088	5078	1286	0	32805	32749	32993	32821	32667	32743	32703	32734	
5839	0	1635	5734	7088	5060	1287	0	32812	32691	33105	32815	32762	32759	32679	32677	
5840	0	1693	5778	7140	5069	1288	0	32834	32699	32931	32711	32681	32743	32614	32715	
5841	0	1654	5791	7060	5065	1289	0	32813	32751	32630	32647	32709	32775	32699	32703	
5842	0	1595	5795	7094	5081	1290	0	32762	32719	32422	32799	32702	32805	32812	32722	
5843	0	1677	5810	7123	5099	1291	0	32700	32695	32159	32687	32667	32751	32807	32751	
5844	0	1645	5761	7129	5127	1292	0	32735	32775	32055	32671	32719	32814	32707	32833	
5845	0	1623	5738	7121	5066	1293	0	32665	32789	32103	32783	32735	32775	32743	32767	
5846	0	1630	5794	7142	5084	1294	0	32594	32701	32127	32599	32775	32758	32674	32813	
5847	0	1604	5781	7140	5104	1295	0	32605	32642	32126	32742	32735	32599	32631	32847	
5848	0	1618	5758	7182	5108	1296	0	32575	32799	32336	32647	32749	32759	32527	32923	
5849	0	1682	5806	7184	5105	1297	0	32647	32765	32459	32674	32830	32551	32679	32837	
5850	0	1672	5777	7170	5109	1298	0	32544	32735	32551	32476	32787	32527	32679	32775	
5851	0	1628	5764	7169	5123	1299	0	32613	32673	32643	32295	32623	32551	32541	32818	
5852	0	1612	5814	7149	5107	1300	0	32634	32609	32575	32171	32772	32508	32646	32821	
5853	0	1616	5746	7206	5128	1301	0	32646	32743	32417	32207	32861	32563	32767	32839	
5854	0	1657	5743	7176	5139	1302	0	32715	32802	32431	32535	32787	32645	32615	32834	
5855	0	1628	5807	7162	5116	1303	0	32684	32827	32387	32835	32727	32833	32711	32775	
5856	0	1680	5742	7192	5088	1304	0	32741	32927	32471	32982	32742	32983	32690	32719	
5857	0	1659	5772	7181	5081	1305	0	32775	32804	32575	33087	32647	33091	32575	32615	
5858	0	1685	5788	7172	5072	1306	0	32819	32715	32545	33159	32645	33173	32679	32668	
5859	0	1653	5772	7161	5052	1307	0	32864	32709	32659	33106	32644	33175	32647	32731	
5860	0	1647	5764	7195	5165	1308	0	32841	32807	32671	33017	32703	33019	32593	32719	
5861	0	1647	5769	7214	5097	1309	0	32841	32717	32739	33255	32725	32831	32711	32767	
5862	0	1652	5796	7195	5094	1310	0	32868	32727	32669	33051	32676	32829	32647	32749	
5863	0	1631	5780	7218	5084	1311	0	32863	32599	32775	32911	32711	32943	32754	32687	
5864	0	1623	5748	7216	5131	1312	0	32833	32643	32806	32677	32765	32955	32583	32668	
5865	0	1634	5783	7194	5117	1313	0	32816	32589	32765	32615	32758	32775	32807	32762	
5866	0	1628	5780	7232	5132	1314	0	32748	32603	32751	32503	32759	32742	32719	32807	
5867	0	1654	5763	7184	5110	1315	0	32727	32773	32791	32674	32756	32708	32743	32671	
5868	0	1649	5802	7213	5106	1316	0	32736	32729	32759	32695	32767	32743	32557	32687	
5869	0	1618	5781	7232	5108	1317	0	32712	32733	32735	32751	32759	32705	32783	32711	
5870	0	1643	5692	7213	5103	1318	0	32781	32723	32767	32871	32751	32747	32755	32754	
5871	0	1659	5749	7258	5130	1319	0	32769	32724	33015	32735	32820	32807	32681	32852	
5872	0	1680	5731	7224	5134	1320	0	32768	32719	33075	32775	32791	32823	32745	32871	
5873	0	1672	5766	7205	5105	1321	0	32857	32678	32932	32718	32725	32927	32735	32754	
5874	0	1676	5774	7236	5124	1322	0	32796	32658	33063	32925	32775	32892	32630	32717	
5875	0	1634	5717	7278	5142	1323	0	32839	32691	32879	32919	32755	32733	32743	32741	
5876	0	1646	5779	7221	5101	1324	0	32822	32671	32810	32939	32711	32767	32743	32739	
5877	0	1652	5728	7200	5138	1325	0	32846	32635	32978	32953	32607	32822	32735	32818	
5878	0	1669	5746	7232	5104	1326	0	32855	32805	32961	32763	32695	32740	32727	32813	
5879	0	1616	5721	7216	5085	1327	0	32831	32663	32739	32830	32720	32775	32706	32743	
5880	0	1620	5745	7229	5089	1328	0	32861	32679	32625	32789	32647	32663	32699	32786	
5881	0	1630	5765	7249	5113	1329	0	32764	32615	32553	32855	32722	32749	32537	32735	
5882	0	1655	5694	7218	5116	1330	0	32847	32621	32198	32839	32742	32813	32707	32815	
5883	0	1625	5764	7227	5129	1331	0	32775	32713	32195	32645	32655	32854	32775	32775	
5884	0	1632	5773	7250	5117	1332	0	32712	32711	32103	32763	32701	32815	32605	32763	
5885	0	1595	5744	7240	5145	1333	0	32732	32711	32343	32788	32836	32756	32717	32862	
5886	0	1609	5734	7235	5101	1334	0	32736	32735	32785	32623	32837	32563	32551	32804	
5887	0	1635	5710	7243	5095	1335	0	32850	32871	32887	32633	32775	32622	32752	32747	
5888	0	1636	5772	7280	5136	1336	0	32786	32825	33079	32713	32839	32751	32715	32694	
5889	0	1639	5719	7270	5132	1337	0	32754	32707	32647	32707	32800	32818	32731	32775	
5890	0	1618	5731	7246	5080	1338	0	32574	32775	32539	32607	32775	32834	32615	32737	
5891	0	1600	5723	7220	5112	1339	0	32576	32804	32463	32595	32627	32819	32623	32790	
5892	0	1668	5710	7233	5157	1340	0	32611	32797	32183	32748	32647	32743	32655	32791	
5893	0	1642	5726	7253	5189	1341	0	32692	32743	32159	32743	32717	32775	32644	32759	
5894	0	1609	5718	7233	5147	1342	0	32814	32869	32135	32596	32775	32834	32639	32743	
5895	0	1678	5704	7249	5144	1343	0	32868	32818	32555	32699	32643	32814	32743	32711	
5896	0	1617	5706	7264	5137	1344	0	32866	32732	32340	32621	32711	32587	32543	32742	
5897	0	1631	5746	7236	5149	1345	0	32898	32757	32558	32659	32705	32661	32659	32783	
5898	0	1609	5699	7267	5154	1346	0	32899	32807	32615	32770	32795	32617	32719	32877	
5899	0	1652	5701	7244	5168	1347	0	32772	32732	32557	32759	32655	32748	32647	32797	
5900	0	1622	5709	7252	5100	1348	0	32792	32675	33028	32635	32724	32868	32671	32819	
5901	0	1604	5716	7281	5118	1349	0	32716	32659	33066	32695	32741	32903	32608	32823	
5902	0	1599	5680	7255	5144	1350	0	32734	32791	33223	32588	32686	32894	32599	32743	
5903	0	1637	5717	7240	5102	1351	0	32772	32772	33003	32717	32743	32832	32599	32787	
5904	0	1605	5673	7268	5121	1352	0	32762	32773	32701	32655	32711	32835	32677	32791	
5905	0	1606	5709	7225	5098	1353	0	32708	32681	32463	32510	32639	32786	32708	32727	
5906	0	1650	5714	7306	5114	1354	0	32659	32766	31975	32667	32755	32719	32775	32747	
5907	0	1623	5733	7254	5129	1355	0	32668	32771	31487	32633	32759	32833	32710	32767	
5908	0	1628	5710	7215	5137	1356	0	32581	32747	31358	32701	32852	32609	32719	32764	
5909	0	1639	5715	7260	5174	1357	0	32528	32619	31441	32711	32678	32609	32641	32783	
5910	0	1605	5662	7252	5109	1358	0	32526	32714	31612	32615	32747	32855	32762	32759	
5911	0	1618	5699	7241	5114	1359	0	32584	32719	31807	32643	32717	32829	32820	32812	
5912	0	1601	5703	7246	5124	1360	0	32622	32765	32039	32371	32796	32791	32609	32831	
5913	0	1611	5698	7266	5128	1361	0	32671	32727	32455	31999	32681	32763	32662	32843	
5914	0	1623	5716	7233	5144	1362	0	32734	32868	32634	31343	32743	32763	32751	32789	
5915	0	1612	5683	7271	5129	1363	0	32729	32919	32751	31009	32739	32759	32589	32670	
5916	0	1616	5731	7257	5134	1364	0	32743	32943	32866	31357	32635	32831	32743	32629	
5917	0	1611	5668	7270	5136	1365	0	32775	32979	33092	31744	32662	32868	32719	32721	
5918	0	1609	5713	7238	5160	1366	0	32751	32865	33138	32263	32722	32819	32621	32732	
5919	0	1636	5700	7209	5097	1367	0	32768	32721	32957	32334	32715	32802	32743	32695	
5920	0	1605	5641	7268	5138	1368	0	32861	32885	33159	32663	32767	32847	32715	32689	
5921	0	1569	5652	7259	5160	1369	0	32863	32973	33315	32953	32643	32903	32583	32655	
5922	0	1586	5688	7272	5101	1370	0	32911	32847	33413	33397	32794	32943	32742	32599	
5923	0	1572	5681	7205	5154	1371	0	32892	32797	33383	33831	32684	32687	32591	32615	
5924	0	1617	5668	7264	5156	1372	0	32804	32692	33015	33958	32767	32615	32713	32647	
5925	0	1591	5647	7265	5123	1373	0	32845	32715	33363	34079	32799	32670	32647	32735	
5926	0	1608	5661	7208	5116	1374	0	32863	32471	33331	34252	32819	32663	32690	32703	
5927	0	1597	5632	7228	5170	1375	0	32850	32481	33341	34327	32730	32721	32727	32807	
5928	0	1564	5637	7248	5114	1376	0	32784	32501	33453	34279	32738	32783	32662	32879	
5929	0	1617	5668	7260	5131	1377	0	32863	32575	33423	34285	32647	32847	32563	32814	
5930	0	1612	5671	7281	5112	1378	0	32868	32519	33325	34237	32742	32719	32692	32771	
5931	0	1590	5658	7268	5130	1379	0	32893	32383	32935	34041	32807	32701	32687	32806	
5932	0	1598	5714	7256	5138	1380	0	32807	32391	32747	33799	32789	32679	32553	32871	
5933	0	1593	5622	7262	5132	1381	0	32841	32500	32663	33591	32775	32671	32765	32807	
5934	0	1622	5652	7261	5104	1382	0	32812	32499	32483	33335	32809	32743	32738	32769	
5935	0	1585	5682	7288	5141	1383	0	32839	32502	32503	33207	32757	32703	32511	32798	
5936	0	1601	5672	7236	5132	1384	0	32837	32381	32335	33063	32803	32949	32749	32867	
5937	0	1627	5617	7301	5116	1385	0	32814	32583	32132	32735	32724	32983	32676	32811	
5938	0	1558	5667	7240	5095	1386	0	32728	32695	32095	32767	32763	32814	32627	32751	
5939	0	1599	5621	7268	5125	1387	0	32628	32767	32095	32445	32707	32854	32743	32727	
5940	0	1580	5662	7270	5161	1388	0	32586	32734	32095	32477	32677	32837	32742	32727	
5941	0	1565	5617	7258	5153	1389	0	32647	32743	31910	32331	32646	33026	32591	32711	
5942	0	1593	5636	7259	5160	1390	0	32605	32807	31780	32196	32659	32994	32751	32731	
5943	0	1614	5605	7234	5162	1391	0	32618	32890	31945	31974	32749	32775	32755	32753	
5944	0	1554	5613	7234	5116	1392	0	32622	32873	32012	31827	32717	32775	32562	32770	
5945	0	1604	5626	7242	5156	1393	0	32647	32790	32108	32004	32639	32787	32715	32747	
5946	0	1604	5602	7243	5133	1394	0	32681	32834	32238	31895	32709	32724	32692	32687	
5947	0	1603	5608	7252	5174	1395	0	32620	32874	32639	31959	32615	32751	32706	32681	
5948	0	1600	5664	7282	5159	1396	0	32806	32933	33159	31983	32635	32694	32615	32791	
5949	0	1598	5684	7254	5110	1397	0	32834	32890	33317	32251	32665	32682	32699	32847	
5950	0	1610	5626	7246	5104	1398	0	32924	32924	33255	32319	32607	32775	32749	32715	
5951	0	1567	5632	7283	5158	1399	0	32869	32915	32994	32315	32695	32623	32709	32764	
5952	0	1567	5619	7268	5173	1400	0	32819	32915	33183	32437	32705	32734	32799	32711	
5953	0	1572	5584	7221	5125	1401	0	32761	32775	33154	32491	32743	32750	32718	32722	
5954	0	1533	5607	7268	5147	1402	0	32754	32701	32783	32433	32723	32764	32638	32763	
5955	0	1612	5602	7270	5121	1403	0	32719	32791	32743	32439	32703	32751	32655	32639	
5956	0	1623	5618	7287	5164	1404	0	32688	32746	32681	32386	32729	32799	32511	32743	
5957	0	1622	5572	7250	5141	1405	0	32748	32751	32647	32603	32775	32738	32647	32809	
5958	0	1590	5594	7232	5147	1406	0	32705	32730	32578	32599	32719	32685	32687	32821	
5959	0	1609	5584	7244	5211	1407	0	32784	32709	32452	32749	32719	32674	32347	32799	
5960	0	1572	5617	7230	5158	1408	0	32717	32764	32461	32711	32775	32727	32671	32823	
5961	0	1582	5604	7248	5107	1409	0	32716	32765	32497	32658	32730	32757	32715	32860	
5962	0	1613	5611	7282	5136	1410	0	32664	32809	32580	32628	32775	32788	32595	32827	
5963	0	1581	5634	7258	5165	1411	0	32741	32695	32485	32609	32751	32743	32615	32830	
5964	0	1573	5610	7236	5200	1412	0	32774	32660	32655	32711	32690	32742	32599	32833	
5965	0	1605	5607	7274	5179	1413	0	32830	32643	32674	32655	32719	32721	32677	32726	
5966	0	1586	5600	7265	5134	1414	0	32789	32773	32580	32625	32771	32783	32583	32801	
5967	0	1544	5620	7285	5162	1415	0	32837	32723	32671	32615	32789	32773	32765	32837	
5968	0	1571	5571	7270	5137	1416	0	32876	32775	32597	32775	32867	32789	32789	32828	
5969	0	1584	5561	7248	5148	1417	0	32864	32679	32581	32795	32847	32851	32760	32819	
5970	0	1577	5617	7279	5149	1418	0	32839	32879	32695	32611	32695	32813	32775	32742	
5971	0	1568	5605	7264	5120	1419	0	32775	32861	32763	32743	32671	32799	32686	32671	
5972	0	1528	5524	7244	5113	1420	0	32824	32701	32492	32795	32767	32815	32811	32658	
5973	0	1560	5607	7279	5145	1421	0	32793	32791	32659	32639	32767	32791	32871	32660	
5974	0	1574	5566	7240	5134	1422	0	32735	32891	32573	32599	32675	32629	32839	32661	
5975	0	1584	5610	7218	5112	1423	0	32815	32926	32663	32623	32627	32637	32829	32687	
5976	0	1607	5592	7269	5107	1424	0	32693	32767	32775	32748	32722	32735	32603	32706	
5977	0	1548	5604	7218	5144	1425	0	32724	32807	32669	32723	32715	32835	32693	32738	
5978	0	1570	5584	7249	5168	1426	0	32803	32884	32865	32749	32751	32823	32639	32755	
5979	0	1562	5642	7285	5153	1427	0	32820	32879	32844	33087	32695	32783	32738	32738	
5980	0	1571	5585	7235	5123	1428	0	32781	32621	32783	33175	32756	32822	32783	32723	
5981	0	1534	5545	7268	5152	1429	0	32821	32587	32804	33055	32695	32827	32647	32759	
5982	0	1584	5632	7260	5186	1430	0	32775	32563	32831	33058	32679	32873	32655	32685	
5983	0	1585	5558	7254	5156	1431	0	32740	32509	32454	32951	32723	32633	32629	32715	
5984	0	1562	5595	7243	5153	1432	0	32721	32423	32450	33095	32647	32647	32621	32765	
5985	0	1520	5596	7259	5130	1433	0	32705	32669	32645	33127	32743	32711	32603	32727	
5986	0	1593	5590	7246	5152	1434	0	32733	32631	32575	32991	32719	32807	32511	32775	
5987	0	1522	5588	7220	5150	1435	0	32694	32644	32647	33044	32775	32754	32623	32815	
5988	0	1594	5552	7235	5184	1436	0	32589	32547	32659	32958	32791	32767	32647	32795	
5989	0	1563	5572	7206	5142	1437	0	32623	32647	32404	32989	32663	32789	32597	32815	
5990	0	1579	5560	7265	5127	1438	0	32698	32741	32461	32943	32711	32783	32708	32673	
5991	0	1585	5542	7216	5113	1439	0	32719	32815	32666	32830	32742	32767	32607	32717	
5992	0	1622	5571	7209	5166	1440	0	32788	32667	32551	32775	32708	32797	32492	32833	
5993	0	1586	5603	7209	5092	1441	0	32797	32615	32655	32659	32695	32887	32638	32867	
