# OpenSignals Text File Format
# {"00:07:80:64:6D:DA": {"sensor": ["CUSTOM/0.5/1.0/V", "CUSTOM/0.5/1.0/V", "CUSTOM/0.5/1.0/V", "CUSTOM/0.5/1.0/V"], "device name": "Plataforma", "column": ["nSeq", "DI", "CH1", "CH2", "CH3", "CH4"], "sync interval": 2, "time": "14:11:54.355", "comments": "", "device connection": "BTH00:07:80:64:6D:DA", "channels": [1, 2, 3, 4], "date": "2017-6-2", "mode": 0, "digital IO": [0, 1], "firmware version": 772, "device": "biosignalsplux", "position": 0, "sampling rate": 1000, "label": ["CH1", "CH2", "CH3", "CH4"], "resolution": [16, 16, 16, 16], "special": [{}, {}, {}, {}]}, "00:07:80:3B:46:38": {"sensor": ["CUSTOM/0.5/1.0/V", "CUSTOM/0.5/1.0/V", "CUSTOM/0.5/1.0/V", "CUSTOM/0.5/1.0/V", "CUSTOM/0.5/1.0/V", "CUSTOM/0.5/1.0/V", "CUSTOM/0.5/1.0/V", "CUSTOM/0.5/1.0/V"], "device name": "EMGs", "column": ["nSeq", "DI", "RA_L", "RA_R", "OE_L", "OE:R", "IL_L", "IL_R", "MF_L", "MF_R"], "sync interval": 2, "time": "14:11:54.355", "comments": "", "device connection": "BTH00:07:80:3B:46:38", "channels": [1, 2, 3, 4, 5, 6, 7, 8], "date": "2017-6-2", "mode": 0, "digital IO": [0, 1], "firmware version": 772, "device": "biosignalsplux", "position": 1, "sampling rate": 1000, "label": ["RA_L", "RA_R", "OE_L", "OE:R", "IL_L", "IL_R", "MF_L", "MF_R"], "resolution": [16, 16, 16, 16, 16, 16, 16, 16], "special": [{}, {}, {}, {}, {}, {}, {}, {}]}}
# EndOfHeader
3610	0	4277	7112	4578	7037	0	0	32798	32703	32639	32707	31965	32733	32947	32915	
3611	0	4267	7066	4541	7045	1	0	32786	32757	32647	32839	32551	32495	32470	32855	
3612	0	4248	7097	4519	7081	2	0	32782	32839	32759	32752	32695	32818	32431	32695	
3613	0	4225	7113	4561	7041	3	0	32793	32764	32784	32735	32703	32690	32902	32735	
3614	0	4264	7125	4570	7042	4	0	32759	32626	32700	32631	32903	32839	33359	32734	
3615	0	4301	7110	4554	7028	5	0	32730	32741	32655	32710	32982	32668	33231	32739	
3616	0	4302	7135	4572	7056	6	0	32687	32631	32592	32623	32943	32817	32604	32625	
3617	0	4281	7108	4526	7046	7	0	32666	32727	32647	32687	33039	32818	32135	32553	
3618	0	4256	7086	4552	7072	8	0	32710	32817	32701	32645	32980	32847	32263	32588	
3619	0	4252	7075	4578	7036	9	0	32716	32742	32797	32463	32967	32890	32745	32583	
3620	0	4288	7109	4553	7066	10	0	32697	32731	32895	32546	32871	32614	33204	32718	
3621	0	4275	7112	4535	7026	11	0	32721	32710	32829	32599	32839	32810	33003	32825	
3622	0	4255	7110	4544	7013	12	0	32747	32723	32831	32685	32775	32634	32469	32851	
3623	0	4247	7144	4486	7027	13	0	32807	32567	32835	32743	32719	32822	32084	32921	
3624	0	4325	7096	4512	7058	14	0	32815	32787	33038	32763	32771	32642	32343	32836	
3625	0	4265	7088	4544	7042	15	0	32727	32708	33107	32679	32711	32957	33063	32794	
3626	0	4297	7078	4488	7056	16	0	32767	32567	33116	32695	32799	32645	33335	32699	
3627	0	4262	7121	4521	7035	17	0	32787	32742	33098	32694	32811	32759	33159	32773	
3628	0	4323	7058	4542	7062	18	0	32788	32711	33094	32775	32734	32722	32455	32767	
3629	0	4264	7100	4523	7080	19	0	32775	32693	32999	32739	32854	32902	32440	32808	
3630	0	4284	7122	4499	7050	20	0	32749	32610	32983	32751	32659	32775	32713	32737	
3631	0	4295	7064	4536	7028	21	0	32692	32474	32839	32743	32743	32845	33287	32867	
3632	0	4267	7123	4527	7088	22	0	32732	32629	32771	32833	32871	32741	33250	32802	
3633	0	4252	7096	4594	7073	23	0	32788	32617	32646	32828	32879	32895	32819	32791	
3634	0	4269	7140	4524	7050	24	0	32751	32773	32666	32743	32862	32773	32410	32742	
3635	0	4273	7088	4489	7054	25	0	32793	32733	32701	32743	32892	32788	32228	32722	
3636	0	4291	7074	4502	7052	26	0	32788	32597	32711	32771	32807	32734	32769	32799	
3637	0	4265	7152	4562	7044	27	0	32767	32703	32807	32799	32707	32786	33164	32742	
3638	0	4265	7124	4511	7038	28	0	32724	32590	32715	32751	32679	32883	33019	32754	
3639	0	4294	7086	4517	7046	29	0	32713	32703	32717	32788	32732	32844	32798	32645	
3640	0	4290	7052	4560	7088	30	0	32764	32679	32708	32691	32729	32839	32173	32754	
3641	0	4269	7082	4526	7052	31	0	32743	32809	32737	32605	32783	32565	32211	32714	
3642	0	4286	7124	4535	7011	32	0	32774	32723	32782	32590	32619	32771	32601	32826	
3643	0	4273	7075	4549	7054	33	0	32796	32578	32688	32625	32295	32415	33207	32759	
3644	0	4304	7085	4552	7067	34	0	32863	32815	32635	32749	32087	32724	33069	32799	
3645	0	4266	7052	4537	7061	35	0	32804	32773	32599	32749	32343	32463	32769	32961	
3646	0	4296	7084	4538	7058	36	0	32782	32569	32647	32813	32727	32818	32271	32946	
3647	0	4260	7058	4534	7049	37	0	32701	32723	32669	32607	32775	32569	32524	32803	
3648	0	4290	7034	4486	7060	38	0	32722	32519	32778	32585	32775	32820	32989	32751	
3649	0	4291	7088	4501	7056	39	0	32703	32641	32813	32634	32743	32775	33261	32903	
3650	0	4232	7082	4527	7054	40	0	32771	32559	32783	32619	32859	32743	33252	32930	
3651	0	4260	7068	4537	7038	41	0	32742	32737	32705	32799	32900	32903	32703	32719	
3652	0	4257	7076	4526	7056	42	0	32734	32636	32675	32775	32839	32613	32231	32761	
3653	0	4336	7070	4502	7074	43	0	32805	32783	32571	32831	32709	32714	32426	32724	
3654	0	4306	7065	4538	7045	44	0	32703	32679	32565	32751	32623	32749	33060	32647	
3655	0	4281	7067	4540	7076	45	0	32749	32739	32571	32633	32527	32862	33287	32596	
3656	0	4267	7068	4542	7068	46	0	32710	32593	32595	32644	32723	32867	33086	32695	
3657	0	4253	7042	4544	7063	47	0	32727	32711	32652	32631	32773	32559	32439	32771	
3658	0	4226	7038	4495	7076	48	0	32743	32543	32730	32895	32755	32679	31906	32900	
3659	0	4253	7095	4547	7021	49	0	32797	32695	32900	32880	32641	32713	32355	32883	
3660	0	4232	7091	4495	7046	50	0	32829	32524	32948	32758	32546	32804	32925	32915	
3661	0	4252	7097	4493	7039	51	0	32764	32671	32887	32903	32613	32943	33198	32757	
3662	0	4267	7063	4505	7044	52	0	32719	32538	32815	32850	32582	32679	32859	32591	
3663	0	4268	7027	4508	7101	53	0	32728	32655	32783	32795	32871	32767	32332	32466	
3664	0	4290	7107	4505	7069	54	0	32760	32573	32761	32759	32884	32647	32164	32519	
3665	0	4253	7044	4511	7080	55	0	32765	32659	32681	32682	32871	32758	32562	32687	
3666	0	4270	7074	4514	7058	56	0	32756	32594	32725	32754	32854	32855	33079	32659	
3667	0	4252	7032	4483	7043	57	0	32804	32740	32741	32658	33231	32575	33105	32659	
3668	0	4264	7067	4492	7089	58	0	32802	32659	32811	32518	33287	32879	32913	32713	
3669	0	4317	7017	4509	7049	59	0	32932	32711	32820	32567	33159	32689	32443	32683	
3670	0	4317	7061	4518	7054	60	0	32879	32630	32891	32506	32932	32754	32541	32729	
3671	0	4273	7064	4532	7052	61	0	32828	32711	33043	32621	32738	32647	32861	32850	
3672	0	4256	7086	4528	7024	62	0	32764	32719	33083	32598	32515	32758	33431	32929	
3673	0	4226	6994	4519	7043	63	0	32759	32575	32983	32727	32427	32807	33319	32967	
3674	0	4333	7077	4494	7072	64	0	32690	32717	32955	32708	32639	32647	32831	32935	
3675	0	4275	7050	4489	7070	65	0	32735	32581	32839	32796	32623	32647	32125	32655	
3676	0	4312	7058	4517	7096	66	0	32740	32691	32724	32763	32479	32706	32451	32647	
3677	0	4293	7068	4541	7081	67	0	32744	32679	32721	32817	32117	32753	32815	32690	
3678	0	4286	7088	4541	7076	68	0	32804	32483	32839	32687	32203	32711	33172	32751	
3679	0	4278	7046	4520	7078	69	0	32745	32723	32857	32711	32343	32703	33095	32965	
3680	0	4306	7108	4557	7080	70	0	32781	32637	32727	32627	32524	32762	32355	32959	
3681	0	4272	7081	4495	7083	71	0	32828	32557	32709	32687	32599	32740	32169	32855	
3682	0	4257	7066	4473	7049	72	0	32803	32703	32743	32646	32740	32724	32373	32850	
3683	0	4282	7016	4496	7089	73	0	32861	32502	32726	32735	32771	32782	33037	32837	
3684	0	4337	7062	4524	7106	74	0	32867	32673	32698	32639	32599	32698	33239	32970	
3685	0	4287	7070	4502	7086	75	0	32848	32655	32755	32711	32775	32743	33175	32847	
3686	0	4279	7081	4500	7084	76	0	32775	32711	32743	32726	32775	32742	32595	32775	
3687	0	4312	7044	4499	7108	77	0	32712	32762	32711	32699	32753	32888	32327	32807	
3688	0	4297	7018	4498	7106	78	0	32624	32644	32727	32769	32850	32719	32647	32769	
3689	0	4319	7042	4522	7085	79	0	32605	32783	32705	32608	32775	32831	33159	32847	
3690	0	4272	7061	4492	7107	80	0	32620	32613	32743	32641	32955	32715	33367	32655	
3691	0	4291	7052	4484	7132	81	0	32655	32705	32713	32580	32807	32843	32869	32671	
3692	0	4360	7070	4517	7074	82	0	32571	32599	32675	32631	32647	32710	32461	32733	
3693	0	4325	7044	4502	7068	83	0	32632	32703	32631	32559	32580	32860	32349	32690	
3694	0	4308	7062	4521	7076	84	0	32716	32666	32637	32726	32615	32856	32602	32669	
3695	0	4309	7040	4504	7129	85	0	32711	32620	32629	32543	32655	32800	33050	32717	
3696	0	4268	7058	4508	7111	86	0	32804	32676	32586	32655	32655	32693	33191	32727	
3697	0	4292	7029	4511	7064	87	0	32863	32503	32543	32628	32771	32687	32742	32799	
3698	0	4330	7054	4435	7051	88	0	32870	32763	32590	32799	32751	32643	32241	32924	
3699	0	4297	7038	4528	7093	89	0	32843	32783	32696	32748	32793	32740	32174	32788	
3700	0	4303	6978	4518	7108	90	0	32742	32756	32780	32798	32925	32765	32791	32700	
3701	0	4312	7008	4496	7143	91	0	32784	32729	32808	32738	32850	32785	33212	32740	
3702	0	4304	7042	4514	7088	92	0	32846	32647	32783	32770	32761	32871	33123	32819	
3703	0	4326	7046	4480	7096	93	0	32869	32679	32719	32804	32582	32789	32485	32667	
3704	0	4310	7056	4528	7093	94	0	32759	32539	32783	32802	32673	32943	32255	32711	
3705	0	4315	7031	4484	7066	95	0	32729	32679	33010	32830	32732	32647	32433	32719	
3706	0	4320	7034	4502	7112	96	0	32716	32797	32940	32807	32851	32825	32869	32786	
3707	0	4300	6985	4532	7086	97	0	32739	32679	32895	32900	32734	32620	33323	32732	
3708	0	4320	7060	4510	7105	98	0	32765	32705	32829	32877	32627	32823	33082	32898	
3709	0	4324	7034	4529	7113	99	0	32772	32561	32802	32909	32726	32747	32548	32855	
3710	0	4320	7067	4486	7136	100	0	32806	32724	32762	32927	32703	32793	32190	32732	
3711	0	4304	7024	4546	7108	101	0	32758	32612	32815	32965	32825	32855	32580	32519	
3712	0	4292	7046	4495	7105	102	0	32844	32734	32792	32887	32865	32828	33021	32582	
3713	0	4304	6977	4469	7128	103	0	32731	32609	32795	32723	32767	32979	33039	32684	
3714	0	4298	7032	4500	7124	104	0	32668	32755	32717	32743	32771	32825	32903	32721	
3715	0	4281	7001	4459	7151	105	0	32734	32799	32631	32788	32849	32879	32295	32727	
3716	0	4323	7064	4474	7106	106	0	32697	32828	32647	32807	32867	32607	32133	32879	
3717	0	4275	7050	4524	7078	107	0	32782	32802	32707	32591	32809	32785	32563	32823	
3718	0	4326	7043	4492	7105	108	0	32718	32803	32689	32419	32586	32727	32999	32710	
3719	0	4300	7034	4489	7088	109	0	32701	32854	32775	32563	32385	32711	33074	32758	
3720	0	4296	7037	4455	7105	110	0	32718	32819	32807	32575	32767	32821	32795	32845	
3721	0	4284	7036	4484	7074	111	0	32771	32771	32763	32429	32953	32498	32353	32903	
3722	0	4318	7058	4496	7088	112	0	32764	32742	32821	32516	33030	32583	32165	32925	
3723	0	4293	7012	4464	7129	113	0	32828	32725	32762	32463	33167	32541	32682	32868	
3724	0	4308	7025	4528	7128	114	0	32825	32694	32734	32621	33063	32738	33273	32647	
3725	0	4320	7042	4509	7132	115	0	32740	32620	32734	32772	32719	32829	33095	32751	
3726	0	4263	7008	4483	7088	116	0	32692	32703	32789	32692	32358	32519	32875	32811	
3727	0	4272	7030	4500	7099	117	0	32612	32581	32803	32797	32071	32686	32434	32804	
3728	0	4329	7008	4546	7117	118	0	32680	32738	32875	32791	32301	32684	32399	32765	
3729	0	4303	7037	4518	7118	119	0	32708	32553	32974	32575	32282	32797	32694	32854	
3730	0	4288	7037	4500	7112	120	0	32796	32635	33013	32703	32271	32877	33389	32989	
3731	0	4326	7026	4553	7099	121	0	32846	32695	32887	32628	32469	32623	33093	32955	
3732	0	4298	7022	4508	7140	122	0	32826	32663	32851	32709	32725	32830	32699	32797	
3733	0	4326	6978	4536	7162	123	0	32892	32775	32787	32775	32719	32839	32359	32690	
3734	0	4273	7017	4498	7156	124	0	32859	32775	32773	32758	32922	32826	32371	32732	
3735	0	4304	7016	4479	7084	125	0	32734	32723	32804	32785	33121	32767	32855	32640	
3736	0	4341	7032	4461	7156	126	0	32775	32555	32730	32717	32900	32791	33255	32500	
3737	0	4302	7028	4457	7154	127	0	32832	32738	32729	32763	32723	32695	33187	32475	
3738	0	4373	7004	4464	7148	128	0	32790	32707	32690	32719	32751	32733	32487	32593	
3739	0	4318	6986	4444	7136	129	0	32764	32815	32702	32798	32811	32847	32244	32738	
3740	0	4349	7012	4534	7128	130	0	32687	32742	32758	32854	32751	32653	32548	32775	
3741	0	4339	6949	4485	7143	131	0	32626	32711	32687	32797	32636	32743	33037	32730	
3742	0	4325	7020	4516	7086	132	0	32681	32773	32679	32775	32463	32615	33501	32767	
3743	0	4308	7025	4432	7122	133	0	32682	32615	32671	32815	32548	32858	33159	32855	
3744	0	4251	6983	4526	7096	134	0	32694	32694	32674	32836	32679	32555	32679	32857	
3745	0	4302	7022	4484	7134	135	0	32677	32535	32639	32662	32757	32721	32397	32870	
3746	0	4347	7038	4472	7108	136	0	32772	32749	32629	32698	32923	32639	32677	32783	
3747	0	4313	7010	4484	7137	137	0	32793	32562	32603	32567	32845	32718	33215	32637	
3748	0	4291	6992	4470	7125	138	0	32808	32703	32564	32601	32889	32664	33233	32731	
3749	0	4271	6979	4497	7131	139	0	32902	32749	32592	32578	32775	32751	32995	32749	
3750	0	4323	7035	4519	7128	140	0	32812	32647	32641	32757	32655	32535	32431	32692	
3751	0	4292	7046	4467	7140	141	0	32809	32734	32668	32687	32787	32870	32344	32716	
3752	0	4294	7004	4488	7153	142	0	32767	32610	32759	32741	32919	32663	32561	32708	
3753	0	4342	7012	4477	7113	143	0	32734	32712	32822	32625	32845	32931	33215	32812	
3754	0	4282	6980	4465	7135	144	0	32810	32743	32773	32669	32783	32817	33131	32735	
3755	0	4312	6982	4448	7108	145	0	32860	32639	32845	32644	32683	32821	32839	32703	
3756	0	4348	7005	4458	7147	146	0	32762	32747	32936	32731	32703	32871	32325	32747	
3757	0	4343	7051	4443	7152	147	0	32772	32698	32857	32715	32882	32735	32223	32666	
3758	0	4338	7005	4503	7125	148	0	32729	32504	32798	32775	32829	32967	32783	32871	
3759	0	4292	6993	4494	7076	149	0	32701	32712	32882	32695	32739	32867	33187	32771	
3760	0	4355	7000	4459	7132	150	0	32665	32685	32775	32743	32851	32797	33147	32829	
3761	0	4293	7004	4462	7100	151	0	32683	32523	32785	32721	32601	32829	32668	32838	
3762	0	4298	6979	4478	7144	152	0	32743	32623	32725	32551	32642	32619	32104	32945	
3763	0	4283	7008	4470	7136	153	0	32728	32733	32800	32645	32604	32658	32391	32978	
3764	0	4307	6980	4464	7133	154	0	32741	32607	32772	32597	32439	32506	32863	32846	
3765	0	4283	7023	4505	7132	155	0	32775	32647	32636	32653	32695	32874	33245	32511	
3766	0	4346	7022	4483	7130	156	0	32838	32658	32699	32609	32645	32715	32799	32605	
3767	0	4301	7013	4494	7138	157	0	32839	32775	32703	32749	32740	32870	32359	32707	
3768	0	4319	6992	4489	7107	158	0	32824	32735	32715	32694	32668	32698	31999	32745	
3769	0	4254	6996	4452	7165	159	0	32824	32637	32722	32670	32413	32655	32208	32687	
3770	0	4282	7042	4436	7132	160	0	32808	32775	32654	32600	32080	32644	32861	32788	
3771	0	4268	6999	4469	7146	161	0	32792	32845	32771	32727	31983	32555	32989	32859	
3772	0	4306	7040	4469	7164	162	0	32747	32600	32886	32705	32244	32847	32839	32839	
3773	0	4294	7008	4508	7162	163	0	32820	32773	32911	32815	32694	32739	32463	32970	
3774	0	4310	7029	4491	7136	164	0	32740	32713	32937	32739	33220	32861	32169	32856	
3775	0	4321	6974	4473	7161	165	0	32680	32561	32947	32771	33471	32992	32639	32775	
3776	0	4284	6983	4425	7139	166	0	32757	32647	32895	32620	33079	32928	33019	32845	
3777	0	4278	7035	4524	7106	167	0	32712	32519	32908	32673	32715	32747	33234	32807	
3778	0	4288	6963	4460	7116	168	0	32681	32746	32855	32694	32647	32733	32972	32727	
3779	0	4280	6969	4469	7165	169	0	32655	32785	32720	32807	32479	32647	32253	32751	
3780	0	4298	6997	4436	7138	170	0	32717	32764	32734	32766	32576	32823	32445	32690	
3781	0	4293	7037	4456	7126	171	0	32765	32788	32727	32653	32773	32551	32799	32738	
3782	0	4317	6950	4486	7131	172	0	32826	32629	32781	32764	32719	32825	33270	32775	
3783	0	4305	6995	4474	7133	173	0	32769	32735	32775	32800	32967	32735	33195	32679	
3784	0	4328	7020	4463	7156	174	0	32828	32799	32791	32786	32659	32775	32750	32831	
3785	0	4370	7001	4486	7110	175	0	32741	32535	32791	32939	32579	32785	32287	32756	
3786	0	4325	6977	4450	7216	176	0	32751	32719	32701	32941	32587	32567	32431	32681	
3787	0	4292	6982	4464	7140	177	0	32761	32683	32669	32846	32678	32647	32775	32667	
3788	0	4344	6996	4466	7146	178	0	32770	32669	32647	32922	32911	32597	33398	32607	
3789	0	4273	6997	4450	7144	179	0	32841	32725	32658	32866	32903	32837	33154	32647	
3790	0	4326	7010	4504	7171	180	0	32797	32751	32615	32775	32885	32699	32679	32720	
3791	0	4334	7030	4448	7116	181	0	32812	32623	32711	32765	33030	32815	32292	32851	
3792	0	4336	7009	4468	7118	182	0	32804	32719	32709	32582	33181	32788	32346	32751	
3793	0	4275	6993	4458	7146	183	0	32794	32710	32767	32534	32867	32793	33047	32764	
3794	0	4273	6946	4465	7131	184	0	32687	32617	32847	32454	32615	32877	33372	32775	
3795	0	4306	6981	4513	7180	185	0	32705	32647	32817	32454	32327	32621	33037	32803	
3796	0	4325	7013	4483	7102	186	0	32748	32590	32847	32523	32463	32775	32524	32807	
3797	0	4326	6969	4517	7124	187	0	32797	32657	32868	32635	32775	32511	32315	32911	
3798	0	4324	6966	4425	7120	188	0	32773	32647	32822	32624	32716	32869	32685	32851	
3799	0	4311	6952	4421	7144	189	0	32647	32610	32783	32762	32716	32807	33287	32711	
3800	0	4281	6975	4498	7147	190	0	32597	32635	32903	32556	32679	32717	33247	32812	
3801	0	4302	6975	4458	7119	191	0	32655	32676	32959	32583	32727	32804	32896	32802	
3802	0	4299	6974	4412	7117	192	0	32742	32437	32946	32535	32727	32717	32343	32691	
3803	0	4348	7016	4477	7138	193	0	32698	32677	32833	32692	32699	32868	32271	32639	
3804	0	4305	7029	4520	7154	194	0	32703	32584	32659	32663	32772	32564	32892	32823	
3805	0	4340	6974	4470	7138	195	0	32781	32787	32654	32775	32916	32784	33278	32791	
3806	0	4305	6960	4444	7148	196	0	32805	32861	32743	32722	32954	32641	33093	32679	
3807	0	4347	7019	4493	7150	197	0	32807	32745	32742	32863	32743	32751	32725	32679	
3808	0	4331	6966	4490	7107	198	0	32788	32831	32657	32935	32599	32605	32233	32665	
3809	0	4326	6982	4420	7169	199	0	32775	32576	32628	32974	32541	32716	32455	32786	
3810	0	4335	6977	4477	7136	200	0	32821	32667	32455	32859	32660	32623	32941	32903	
3811	0	4346	6980	4440	7152	201	0	32808	32683	32406	32823	32813	32805	33218	32783	
3812	0	4318	6964	4463	7133	202	0	32855	32812	32530	32775	32833	32587	33126	32790	
3813	0	4347	6972	4438	7145	203	0	32855	32749	32631	32751	32631	32828	32447	32827	
3814	0	4322	6988	4474	7152	204	0	32749	32565	32642	32681	32565	32673	32241	32849	
3815	0	4305	6983	4453	7097	205	0	32841	32739	32751	32665	32681	32865	32483	32767	
3816	0	4319	6963	4486	7179	206	0	32868	32652	32764	32615	32653	32605	33062	32804	
3817	0	4305	6988	4490	7162	207	0	32846	32699	32851	32523	32700	32871	33204	32833	
3818	0	4357	6968	4424	7158	208	0	32838	32611	32935	32607	32769	32734	32933	32735	
3819	0	4308	6993	4461	7126	209	0	32833	32559	32983	32573	32735	32807	32307	32735	
3820	0	4362	6984	4492	7129	210	0	32706	32607	32924	32681	32699	32726	32224	32720	
3821	0	4312	6992	4455	7158	211	0	32632	32681	32887	32759	32847	32790	32662	32818	
3822	0	4315	6997	4464	7168	212	0	32647	32607	32967	32749	32781	32767	33215	32903	
3823	0	4283	6985	4496	7162	213	0	32658	32612	33011	32647	32804	32787	32983	32723	
3824	0	4318	6992	4438	7146	214	0	32685	32442	32933	32751	32836	32703	32756	32667	
3825	0	4332	6985	4474	7148	215	0	32764	32632	32863	32753	32759	32741	32135	32708	
3826	0	4288	7017	4460	7189	216	0	32673	32686	32885	32765	32644	32808	32261	32694	
3827	0	4313	6998	4459	7157	217	0	32713	32791	32841	32703	32860	32723	32647	32742	
3828	0	4308	6982	4486	7112	218	0	32741	32773	32685	32764	32775	32807	33159	32733	
3829	0	4318	6958	4441	7142	219	0	32742	32627	32580	32713	32629	32550	33119	32718	
3830	0	4346	6986	4514	7201	220	0	32750	32743	32551	32831	32583	32723	32742	32788	
3831	0	4298	7008	4452	7193	221	0	32743	32847	32439	32745	32471	32532	32349	32836	
3832	0	4346	7003	4494	7146	222	0	32791	32738	32423	32825	32631	32822	32365	32762	
3833	0	4302	6978	4493	7144	223	0	32761	32663	32506	32775	32727	32784	32930	32903	
3834	0	4323	6968	4458	7196	224	0	32802	32754	32526	32799	32681	32903	33415	32875	
3835	0	4328	6988	4488	7132	225	0	32811	32535	32519	32827	32738	32703	33138	32738	
3836	0	4370	7015	4470	7140	226	0	32814	32755	32738	32733	32707	32739	32639	32775	
3837	0	4326	6994	4452	7151	227	0	32769	32809	32791	32761	32663	32727	32205	32788	
3838	0	4284	6994	4427	7123	228	0	32694	32609	32902	32669	32628	32675	32543	32711	
3839	0	4338	6996	4525	7130	229	0	32690	32751	33065	32786	32439	32754	33084	32711	
3840	0	4291	6993	4409	7214	230	0	32666	32684	33165	32709	32621	32729	33375	32811	
3841	0	4342	6992	4440	7142	231	0	32722	32756	33079	32731	32807	32749	32839	32738	
3842	0	4342	6974	4491	7065	232	0	32756	32711	33063	32738	32743	32763	32415	32807	
3843	0	4319	7010	4454	7182	233	0	32736	32811	33019	32755	32727	32762	32262	32657	
3844	0	4306	6991	4522	7194	234	0	32754	32784	32943	32685	32674	32628	32671	32795	
3845	0	4369	6996	4439	7153	235	0	32759	32637	32858	32667	32831	32812	33031	32795	
3846	0	4367	6952	4432	7134	236	0	32816	32741	32765	32737	32864	32769	33269	32750	
3847	0	4333	6984	4447	7166	237	0	32850	32692	32679	32653	32871	32723	32947	32685	
3848	0	4295	7010	4430	7140	238	0	32842	32775	32639	32694	32775	32895	32333	32743	
3849	0	4319	6989	4485	7194	239	0	32767	32727	32775	32703	32743	32784	32430	32691	
3850	0	4323	7012	4408	7136	240	0	32762	32765	32630	32717	32814	32567	32775	32676	
3851	0	4336	6991	4492	7203	241	0	32775	32647	32552	32823	32775	32738	33159	32646	
3852	0	4324	6990	4437	7132	242	0	32748	32757	32685	32706	32662	32647	33035	32708	
3853	0	4312	6984	4498	7190	243	0	32743	32525	32673	32732	32721	32813	32574	32751	
3854	0	4319	6980	4454	7140	244	0	32688	32573	32671	32706	32839	32946	32191	32716	
3855	0	4344	6991	4434	7163	245	0	32701	32563	32612	32720	32859	32645	32230	32725	
3856	0	4292	6974	4420	7149	246	0	32745	32759	32581	32713	32850	32786	32679	32737	
3857	0	4248	6994	4492	7152	247	0	32813	32761	32627	32720	32930	32775	33117	32821	
3858	0	4307	7018	4471	7138	248	0	32792	32739	32559	32541	32731	32743	33172	32809	
3859	0	4315	6969	4481	7163	249	0	32775	32612	32623	32741	32642	32543	32669	32749	
3860	0	4346	6956	4459	7164	250	0	32810	32805	32727	32577	32615	32703	32293	32856	
3861	0	4316	6968	4515	7132	251	0	32760	32707	32775	32572	32335	32560	32332	33218	
3862	0	4320	7006	4443	7189	252	0	32734	32820	32834	32511	32143	32711	32709	32836	
3863	0	4324	6980	4481	7145	253	0	32736	32646	32831	32487	32494	32647	33011	32669	
3864	0	4300	6956	4488	7133	254	0	32807	32593	32884	32578	32903	32827	33087	32715	
3865	0	4320	6994	4449	7108	255	0	32747	32646	32877	32827	32899	32885	32733	32647	
3866	0	4286	6980	4458	7219	256	0	32730	32612	32895	32925	32703	32771	32343	32723	
3867	0	4322	6996	4442	7150	257	0	32815	32701	32826	32849	32622	32783	32703	32771	
3868	0	4313	7017	4486	7134	258	0	32768	32581	32759	32855	32631	32617	33228	32706	
3869	0	4312	7011	4484	7136	259	0	32733	32690	32717	32541	32794	32951	33383	32797	
3870	0	4307	6943	4500	7171	260	0	32773	32663	32771	32646	32567	32879	33308	32797	
3871	0	4315	6998	4454	7144	261	0	32703	32700	32813	32593	32541	32927	32707	32789	
3872	0	4328	7018	4469	7168	262	0	32773	32622	32851	32631	32615	32592	32391	32920	
3873	0	4312	6954	4456	7126	263	0	32692	32718	32973	32818	32710	32825	32567	32807	
3874	0	4298	6982	4413	7172	264	0	32761	32826	33047	32830	32671	32633	33107	32801	
3875	0	4333	7042	4465	7139	265	0	32743	32773	33140	32839	32646	32804	33325	32802	
3876	0	4325	7020	4439	7158	266	0	32726	32764	33195	32761	32879	32613	32930	32738	
3877	0	4267	6979	4482	7116	267	0	32735	32724	33159	32759	32881	32775	32461	32723	
3878	0	4286	7008	4481	7150	268	0	32701	32647	33068	32588	33058	32622	32322	32711	
3879	0	4339	7004	4473	7148	269	0	32763	32512	32940	32443	33096	32863	32647	32689	
3880	0	4351	6995	4480	7173	270	0	32739	32671	32772	32503	33019	32697	33007	32764	
3881	0	4334	6980	4479	7145	271	0	32815	32658	32513	32519	32910	32825	33260	32738	
3882	0	4341	7016	4471	7160	272	0	32759	32743	32351	32624	32669	32603	32871	32642	
3883	0	4337	7006	4481	7157	273	0	32769	32567	32317	32667	32467	32775	32219	32692	
3884	0	4329	6952	4528	7160	274	0	32821	32710	32397	32725	32391	32669	32326	32716	
3885	0	4299	7012	4504	7152	275	0	32814	32588	32467	32797	32783	32805	32759	32707	
3886	0	4302	6985	4505	7128	276	0	32820	32835	32540	32685	32556	32661	33213	32767	
3887	0	4308	7004	4467	7141	277	0	32813	32780	32589	32775	32274	32815	33067	32829	
3888	0	4305	7011	4454	7135	278	0	32791	32647	32577	32739	32227	32463	32725	33022	
3889	0	4356	7016	4437	7140	279	0	32771	32723	32615	32879	32391	32806	32204	32929	
3890	0	4310	6957	4456	7180	280	0	32799	32602	32637	32779	32642	32581	32201	32893	
3891	0	4288	6977	4489	7173	281	0	32717	32675	32679	32903	32719	32885	32604	32738	
3892	0	4308	7010	4536	7163	282	0	32694	32517	32756	32929	32655	32567	33213	32733	
3893	0	4304	6998	4400	7139	283	0	32745	32671	32745	32809	32775	32765	33183	32739	
3894	0	4351	7001	4416	7116	284	0	32723	32547	32743	32933	32807	32647	32429	32831	
3895	0	4363	7028	4499	7154	285	0	32724	32669	32762	32819	32799	32873	32184	32851	
3896	0	4274	7015	4503	7139	286	0	32703	32761	32816	32808	32676	32644	32261	32642	
3897	0	4335	7034	4515	7156	287	0	32701	32773	32838	32642	32759	32807	32836	32636	
3898	0	4346	7024	4430	7158	288	0	32702	32765	32807	32670	32831	32637	33287	32687	
3899	0	4308	6997	4478	7180	289	0	32743	32543	32799	32615	32835	32871	32887	32767	
3900	0	4323	7008	4452	7141	290	0	32765	32775	32818	32701	32910	32623	32450	32694	
3901	0	4337	7025	4484	7180	291	0	32779	32710	33097	32655	32829	32878	32179	32748	
3902	0	4314	7000	4513	7193	292	0	32839	32553	33080	32807	32997	32718	32445	32799	
3903	0	4344	7016	4484	7189	293	0	32832	32753	33167	32714	32885	32681	33093	32719	
3904	0	4289	6960	4417	7164	294	0	32813	32785	33135	32868	32991	32742	33302	32871	
3905	0	4305	6976	4519	7146	295	0	32829	32549	33029	32796	32815	32694	32989	32828	
3906	0	4359	7011	4468	7157	296	0	32799	32661	32903	32858	32647	32743	32534	32810	
3907	0	4307	6984	4467	7176	297	0	32781	32617	32991	32743	32646	32663	32343	32689	
3908	0	4320	6996	4464	7141	298	0	32788	32653	32979	32640	32646	32743	32788	32712	
3909	0	4323	6980	4462	7141	299	0	32687	32667	32831	32593	32711	32655	32992	32759	
3910	0	4312	7002	4478	7157	300	0	32724	32607	32747	32572	32796	32871	33350	32699	
3911	0	4335	7014	4435	7110	301	0	32757	32767	32562	32799	32639	32773	32943	32794	
3912	0	4298	6992	4465	7138	302	0	32655	32511	32481	32561	32517	32775	32389	32815	
3913	0	4311	7008	4512	7160	303	0	32663	32683	32617	32607	32628	32745	32362	32805	
3914	0	4308	6988	4472	7124	304	0	32738	32622	32529	32426	32702	32677	32591	32711	
3915	0	4297	7059	4470	7152	305	0	32735	32742	32569	32389	32837	32765	33255	32687	
3916	0	4336	6964	4457	7151	306	0	32784	32807	32471	32358	32745	32743	33206	32751	
3917	0	4300	6976	4496	7141	307	0	32764	32585	32476	32579	32647	32742	32835	32714	
3918	0	4331	7011	4459	7159	308	0	32866	32755	32599	32647	32700	32764	32351	32761	
3919	0	4326	6983	4502	7175	309	0	32895	32687	32583	32798	32900	32871	32473	32839	
3920	0	4326	7014	4464	7153	310	0	32797	32775	32455	32827	33053	32839	32802	32671	
3921	0	4317	7020	4500	7144	311	0	32834	32726	32479	32903	33173	32884	33443	32701	
3922	0	4363	7024	4496	7158	312	0	32767	32575	32647	32854	32943	32807	33223	32679	
3923	0	4316	7066	4510	7130	313	0	32769	32655	32807	32759	32711	32812	32764	32727	
3924	0	4345	7061	4496	7178	314	0	32675	32711	32863	32759	32599	32839	32308	32786	
3925	0	4323	7048	4454	7177	315	0	32743	32757	32866	32788	32745	32678	32501	32665	
3926	0	4340	7024	4474	7148	316	0	32732	32719	32946	32775	32629	32702	32933	32812	
3927	0	4299	7028	4484	7156	317	0	32734	32746	33031	32799	32498	32723	33350	32858	
3928	0	4276	7002	4455	7170	318	0	32749	32589	32930	32660	32263	32615	33005	32885	
3929	0	4310	7016	4473	7162	319	0	32746	32743	32903	32694	32319	32615	32509	32845	
3930	0	4276	7007	4512	7141	320	0	32726	32801	32943	32745	32287	32517	32302	32857	
3931	0	4312	7050	4476	7177	321	0	32775	32767	32882	32818	32263	32681	32575	32911	
3932	0	4322	7056	4479	7192	322	0	32840	32742	32763	32673	32479	32697	33067	32839	
3933	0	4341	7022	4457	7157	323	0	32878	32584	32647	32685	32434	32797	33219	32724	
3934	0	4306	7027	4464	7150	324	0	32864	32703	32671	32599	32517	32690	32719	32636	
3935	0	4294	7008	4476	7157	325	0	32711	32671	32668	32685	32806	32831	32095	32605	
3936	0	4302	7030	4480	7147	326	0	32785	32717	32661	32567	33060	32669	32027	32679	
3937	0	4307	6981	4475	7192	327	0	32802	32753	32707	32631	32956	32773	32391	32462	
3938	0	4302	7000	4484	7152	328	0	32774	32701	32759	32666	32877	32621	33087	32345	
3939	0	4347	7027	4493	7165	329	0	32842	32791	32805	32684	32771	32845	32965	32486	
3940	0	4313	7063	4493	7160	330	0	32827	32759	32861	32775	32775	32753	32631	32545	
3941	0	4349	6999	4502	7150	331	0	32866	32641	32882	32869	32486	32855	32263	32647	
3942	0	4297	7047	4556	7168	332	0	32871	32886	32793	32883	32498	32687	32243	32876	
3943	0	4331	6997	4505	7208	333	0	32978	32887	32767	32769	32323	32692	32781	32911	
3944	0	4338	7048	4493	7120	334	0	32976	32703	32869	32619	32182	32708	33142	32807	
3945	0	4292	6958	4491	7139	335	0	32860	32785	32831	32539	32335	32659	33037	32859	
3946	0	4331	7014	4515	7132	336	0	32686	32710	32754	32455	32582	32742	32785	32853	
3947	0	4352	7029	4504	7169	337	0	32725	32605	32738	32403	32809	32740	32263	32772	
3948	0	4288	7071	4483	7155	338	0	32765	32663	32583	32549	32967	32838	32439	32643	
3949	0	4363	6992	4464	7186	339	0	32783	32685	32523	32794	33042	32652	33052	32791	
3950	0	4314	7016	4544	7177	340	0	32798	32753	32449	32965	33055	32831	33303	32763	
3951	0	4326	7061	4504	7160	341	0	32785	32807	32417	32897	33151	32749	33284	32831	
3952	0	4324	7076	4518	7114	342	0	32647	32647	32588	32701	33127	32969	32703	32628	
3953	0	4296	7032	4486	7184	343	0	32578	32567	32859	32635	33119	33069	32326	32609	
3954	0	4267	7066	4512	7117	344	0	32457	32473	33015	32527	33159	32999	32708	32710	
3955	0	4341	7000	4520	7181	345	0	32378	32436	33121	32636	33199	32997	33215	32737	
3956	0	4332	7048	4536	7150	346	0	32433	32186	33093	32531	33065	32756	33415	32731	
3957	0	4291	7045	4480	7178	347	0	32495	32220	32911	32375	32935	32991	33060	32799	
3958	0	4342	7074	4505	7183	348	0	32507	31959	32730	32311	32647	32806	32491	32642	
3959	0	4315	7040	4547	7181	349	0	32503	32164	32485	32223	32231	32975	32383	32786	
3960	0	4341	7046	4510	7180	350	0	32571	32155	32351	32327	31974	32898	32722	32903	
3961	0	4333	7054	4493	7138	351	0	32709	32091	32340	32359	31979	32822	33089	32967	
3962	0	4305	7048	4485	7192	352	0	32743	32259	32404	32609	32191	32659	33215	33023	
3963	0	4329	7041	4524	7181	353	0	32687	32429	32525	32603	32605	32647	32852	33087	
3964	0	4316	7044	4555	7153	354	0	32787	32439	32604	32809	32564	32594	32324	33123	
3965	0	4351	7042	4513	7154	355	0	32980	32903	32773	33033	32342	32548	32245	33183	
3966	0	4355	7061	4502	7143	356	0	33022	33018	32825	33228	32342	32529	32805	33191	
3967	0	4312	7018	4543	7146	357	0	33017	32887	32876	33271	32955	32493	33230	33123	
3968	0	4322	7003	4570	7112	358	0	32949	33079	32935	33255	33334	32743	33179	32942	
3969	0	4331	7026	4504	7197	359	0	32838	32951	33074	33245	33427	32568	32661	32878	
3970	0	4299	7060	4499	7130	360	0	32706	33025	33023	33159	33426	32855	32255	32850	
3971	0	4341	7048	4491	7163	361	0	32541	33031	32975	33061	33116	32615	32383	32787	
3972	0	4331	7056	4528	7201	362	0	32559	32988	32975	32995	32832	32807	32913	32875	
3973	0	4333	7046	4547	7171	363	0	32580	33031	32951	32962	32703	32629	33238	32903	
3974	0	4307	7046	4519	7177	364	0	32517	32982	32895	32919	32687	32655	32943	32919	
3975	0	4309	7002	4506	7180	365	0	32584	33116	32868	32807	32509	32757	32506	32823	
3976	0	4305	7078	4511	7180	366	0	32575	32963	32983	32903	32572	32610	32203	32684	
3977	0	4287	7055	4520	7146	367	0	32550	32877	32921	32883	32669	32714	32471	32662	
3978	0	4269	7028	4537	7181	368	0	32549	32903	32876	32796	32823	32663	33007	32751	
3979	0	4268	7042	4532	7180	369	0	32549	32903	32927	32903	33189	32511	33110	32811	
3980	0	4323	7096	4514	7153	370	0	32591	32609	32903	32831	33321	32604	32852	32772	
3981	0	4341	7080	4496	7168	371	0	32492	32762	33025	32899	32916	32562	32341	32767	
3982	0	4339	7036	4545	7152	372	0	32532	32829	32999	32878	32573	32783	32135	32781	
3983	0	4306	7057	4560	7158	373	0	32630	32687	32967	32925	32660	32661	32156	32697	
3984	0	4329	7043	4481	7185	374	0	32713	32767	32928	32849	32743	32541	32914	32558	
3985	0	4300	7061	4603	7154	375	0	32740	32590	32813	32766	32847	32601	33047	32549	
3986	0	4324	7020	4550	7235	376	0	32761	32689	32823	32593	32677	32558	32919	32548	
3987	0	4266	6980	4549	7166	377	0	32838	32595	32819	32621	32585	32767	32291	32483	
3988	0	4312	7085	4518	7204	378	0	32877	32643	32715	32662	32641	32726	32289	32527	
3989	0	4288	7078	4506	7192	379	0	32945	32605	32605	32573	32629	32903	32775	32610	
3990	0	4281	7036	4545	7217	380	0	32916	32439	32521	32567	32569	32636	33247	32700	
3991	0	4324	7080	4570	7219	381	0	32902	32597	32627	32607	32639	32867	33203	32699	
3992	0	4337	7016	4561	7189	382	0	32996	32639	32661	32611	32567	32703	32767	32697	
3993	0	4302	7114	4550	7172	383	0	33118	32788	32595	32634	32381	33015	32277	32711	
3994	0	4300	7034	4563	7185	384	0	33126	32789	32552	32548	32391	32741	32439	32723	
3995	0	4315	7056	4579	7184	385	0	33153	32742	32518	32441	32609	33043	32791	32738	
3996	0	4305	7056	4578	7190	386	0	33060	32775	32636	32463	32611	32935	33285	32647	
3997	0	4285	7017	4562	7184	387	0	33108	32613	32748	32487	32619	32935	33287	32607	
3998	0	4304	7091	4592	7137	388	0	33099	32759	32931	32613	32726	32806	32663	32631	
3999	0	4333	7046	4536	7179	389	0	33097	32679	32955	32659	32589	32813	32348	32525	
4000	0	4282	7050	4592	7141	390	0	33074	32790	33004	32694	32588	32775	32308	32465	
4001	0	4311	7066	4509	7142	391	0	32948	32775	32943	32633	32451	32765	32999	32406	
4002	0	4323	7066	4598	7140	392	0	32967	32783	33007	32547	32524	32898	33271	32503	
4003	0	4311	7076	4552	7189	393	0	33005	32793	32895	32432	32503	32627	33107	32538	
4004	0	4348	7058	4509	7140	394	0	32892	32671	32713	32371	32823	32759	32511	32764	
4005	0	4310	7068	4525	7176	395	0	32870	32767	32475	32478	32854	32663	32310	32707	
4006	0	4328	7064	4593	7208	396	0	32892	32721	32404	32579	32647	32718	32621	32773	
4007	0	4293	7060	4654	7168	397	0	32836	32726	32495	32439	32445	32817	33086	32846	
4008	0	4313	7053	4554	7201	398	0	32730	32639	32526	32593	32175	32569	33517	32879	
4009	0	4296	7048	4557	7166	399	0	32729	32619	32657	32737	32151	32773	33227	32957	
4010	0	4303	7104	4512	7192	400	0	32678	32715	32659	32699	32293	32699	32519	32956	
4011	0	4310	7049	4553	7198	401	0	32673	32591	32717	32764	32319	32781	32400	32943	
4012	0	4333	7079	4530	7177	402	0	32613	32685	32852	32695	32295	32771	32727	32807	
4013	0	4370	7066	4590	7167	403	0	32609	32583	33029	32781	32539	32625	33078	32817	
4014	0	4298	7054	4511	7119	404	0	32668	32723	32956	32817	32757	32613	33331	32871	
4015	0	4310	7082	4560	7173	405	0	32666	32543	32831	32711	32783	32727	32891	32835	
4016	0	4360	7076	4569	7134	406	0	32658	32607	32743	32759	32788	32835	32327	32615	
4017	0	4326	7061	4532	7190	407	0	32715	32441	32655	32785	32828	32646	32308	32640	
4018	0	4261	6986	4569	7170	408	0	32685	32628	32611	32974	33074	32785	32639	32823	
4019	0	4291	7057	4506	7164	409	0	32743	32468	32637	33057	33220	32508	33156	32894	
4020	0	4270	7068	4580	7168	410	0	32717	32630	32609	32951	33159	32813	33015	32702	
4021	0	4334	7056	4518	7166	411	0	32768	32605	32695	32924	33127	32646	32662	32730	
4022	0	4299	7038	4544	7144	412	0	32709	32753	32773	32702	33026	32780	32231	32852	
4023	0	4268	7072	4542	7140	413	0	32686	32716	32747	32761	33364	32757	32255	32918	
4024	0	4326	7063	4568	7140	414	0	32690	32714	32743	32820	33174	32868	32763	32642	
4025	0	4293	7060	4578	7096	415	0	32634	32511	32747	32751	32943	32763	33267	32543	
4026	0	4280	7046	4503	7160	416	0	32640	32551	32647	32772	32839	32885	33052	32577	
4027	0	4294	7043	4573	7184	417	0	32622	32548	32676	32733	33027	32827	32669	32726	
4028	0	4306	7058	4534	7125	418	0	32644	32711	32655	32663	32911	32791	32231	32801	
4029	0	4283	7099	4504	7149	419	0	32681	32709	32716	32742	32770	32837	32414	32815	
4030	0	4296	7036	4516	7120	420	0	32745	32763	32860	32627	32881	32815	32840	32791	
4031	0	4248	7063	4540	7122	421	0	32870	32804	32937	32581	32641	32767	33349	32855	
4032	0	4272	7042	4506	7153	422	0	32869	32831	32947	32499	32200	32679	33103	32988	
4033	0	4303	7039	4538	7192	423	0	32850	32571	33035	32553	31983	32601	32581	33045	
4034	0	4308	7073	4516	7113	424	0	32775	32663	32981	32430	32155	32685	32180	32940	
4035	0	4293	7044	4556	7134	425	0	32756	32570	32933	32431	32229	32637	32557	32846	
4036	0	4237	7039	4505	7162	426	0	32792	32772	32829	32535	32748	32699	33059	32842	
4037	0	4265	7065	4558	7158	427	0	32749	32573	32827	32663	32738	32763	33190	32759	
4038	0	4261	7056	4527	7138	428	0	32716	32705	32701	32791	32676	32658	32962	32759	
4039	0	4324	7034	4564	7132	429	0	32854	32509	32775	32847	32735	32827	32367	32827	
4040	0	4248	7044	4516	7109	430	0	32821	32641	32771	32967	32711	32574	32287	32763	
4041	0	4305	7058	4493	7160	431	0	32804	32477	32863	33084	32698	32729	32555	32675	
4042	0	4261	7060	4558	7137	432	0	32781	32639	32823	33043	32727	32615	33179	32692	
4043	0	4294	7088	4547	7129	433	0	32711	32486	32671	33004	32727	32790	33157	32751	
4044	0	4274	7032	4559	7131	434	0	32694	32647	32607	32851	32822	32797	32842	32819	
4045	0	4342	7056	4479	7132	435	0	32716	32795	32604	32764	32668	32783	32055	32867	
4046	0	4280	7052	4548	7145	436	0	32726	32647	32581	32647	32804	32656	32145	32814	
4047	0	4298	7079	4516	7148	437	0	32586	32754	32590	32597	32865	32707	32525	32775	
4048	0	4296	7016	4537	7108	438	0	32598	32615	32663	32492	32887	32598	32935	32647	
4049	0	4312	7090	4507	7098	439	0	32613	32692	32775	32443	32719	32727	32998	32629	
4050	0	4257	7056	4550	7114	440	0	32700	32591	32723	32421	32799	32630	32687	32671	
4051	0	4287	7089	4532	7104	441	0	32813	32711	32805	32517	32703	32723	32119	32637	
4052	0	4264	7114	4515	7151	442	0	32822	32635	32897	32511	32770	32738	32248	32692	
4053	0	4258	7048	4501	7099	443	0	32765	32704	32898	32513	32735	32842	32676	32854	
4054	0	4294	7024	4495	7094	444	0	32807	32741	32893	32655	32708	32633	33441	32810	
4055	0	4276	7011	4512	7118	445	0	32746	32658	32935	32727	32654	32851	33330	32678	
4056	0	4301	7073	4510	7110	446	0	32757	32679	32915	32766	32543	32749	32815	32756	
4057	0	4247	7054	4512	7167	447	0	32686	32525	32881	32773	32585	32749	32471	32754	
4058	0	4268	7072	4494	7098	448	0	32754	32644	32717	32980	32780	32838	32571	32742	
4059	0	4244	7078	4528	7100	449	0	32756	32711	32695	32991	32932	32700	33107	32707	
4060	0	4257	7043	4513	7101	450	0	32745	32679	32683	32974	33030	32749	33339	32673	
4061	0	4282	7044	4534	7111	451	0	32740	32647	32767	32903	32889	32640	33061	32642	
4062	0	4259	7046	4500	7147	452	0	32807	32655	32821	32999	33007	32839	32423	32609	
4063	0	4246	7060	4497	7096	453	0	32811	32726	32791	33028	32727	32775	32287	32653	
4064	0	4278	7072	4514	7113	454	0	32871	32728	32703	32959	32611	32551	32423	32829	
4065	0	4264	7114	4544	7121	455	0	32808	32685	32767	32951	32615	32813	33156	32783	
4066	0	4266	7045	4542	7118	456	0	32799	32765	32788	32846	32695	32684	33187	32782	
4067	0	4268	7025	4533	7101	457	0	32854	32791	32887	32813	32643	32783	32855	32884	
4068	0	4262	7038	4490	7101	458	0	32786	32699	32927	32732	32647	32825	32247	32855	
4069	0	4238	7089	4546	7110	459	0	32831	32795	33045	32804	33128	32902	32254	32967	
4070	0	4297	7081	4496	7087	460	0	32748	32695	33151	32711	33165	32903	32620	32884	
4071	0	4260	7068	4538	7139	461	0	32660	32731	33050	32562	32701	32852	33287	32775	
4072	0	4272	7062	4492	7113	462	0	32621	32581	33051	32431	32347	32919	33179	32774	
4073	0	4291	7018	4520	7129	463	0	32679	32707	32927	32246	32263	32903	32903	32633	
4074	0	4256	7116	4474	7113	464	0	32604	32503	32775	32359	32443	32775	32403	32557	
4075	0	4247	7038	4487	7150	465	0	32668	32683	32609	32439	32596	32873	32438	32470	
4076	0	4286	7072	4529	7076	466	0	32737	32551	32493	32462	32607	32716	32978	32503	
4077	0	4244	7068	4516	7100	467	0	32814	32764	32401	32538	32457	32826	33311	32669	
4078	0	4254	7072	4581	7165	468	0	32815	32621	32306	32543	32381	32715	33330	32740	
4079	0	4298	7070	4559	7117	469	0	32804	32687	32282	32679	32364	32747	32631	32949	
4080	0	4279	7061	4491	7092	470	0	32823	32663	32347	32635	32819	32491	32357	33027	
4081	0	4272	7080	4559	7101	471	0	32829	32564	32480	32745	33466	32709	32359	32962	
4082	0	4291	7090	4597	7112	472	0	32822	32684	32678	32647	33037	32663	32951	33159	
4083	0	4238	7051	4529	7107	473	0	32799	32580	32870	32772	32127	32647	33115	33135	
4084	0	4273	7079	4569	7132	474	0	32795	32775	32787	32730	32029	32626	33175	33134	
4085	0	4289	7067	4516	7151	475	0	32754	32596	32802	32822	32055	32583	32604	32821	
4086	0	4224	7058	4483	7131	476	0	32791	32747	32859	32813	32262	32669	32126	32727	
4087	0	4242	7058	4541	7117	477	0	32769	32801	32862	32935	32735	32679	32490	32692	
4088	0	4245	7113	4501	7109	478	0	32765	32621	32901	32847	32884	32735	33014	32732	
4089	0	4282	7100	4517	7113	479	0	32743	32655	32941	32900	33053	32588	33283	32575	
4090	0	4281	7094	4518	7080	480	0	32762	32617	32949	32821	32911	32799	32886	32494	
4091	0	4252	7083	4583	7128	481	0	32732	32724	32964	32743	32767	32599	32484	32637	
4092	0	4272	7090	4534	7126	482	0	32758	32725	32857	32823	32667	32820	32271	32743	
4093	0	4245	7022	4536	7130	483	0	32834	32693	32759	32743	32640	32642	32629	32850	
4094	0	4270	7038	4551	7110	484	0	32815	32718	32647	32822	33007	32855	33039	32956	
4095	0	4278	7088	4511	7097	485	0	32824	32501	32611	32647	33275	32811	33242	32739	
4096	0	4286	7082	4506	7100	486	0	32809	32698	32646	32730	33608	32711	32724	32677	
4097	0	4346	7076	4540	7110	487	0	32778	32655	32621	32613	33005	32836	32295	32716	
4098	0	4278	7053	4559	7115	488	0	32799	32573	32569	32617	32748	32711	32357	32575	
4099	0	4249	7059	4554	7108	489	0	32840	32703	32519	32645	32647	32876	32516	32863	
4100	0	4252	7112	4532	7106	490	0	32860	32711	32539	32706	32617	32646	32975	32923	
4101	0	4256	7069	4535	7101	491	0	32871	32823	32653	32551	32654	32903	32951	32919	
4102	0	4255	7028	4553	7136	492	0	32712	32711	32799	32638	32484	32727	32487	32845	
4103	0	4264	7054	4499	7126	493	0	32694	32605	32859	32671	32591	32933	32047	32696	
4104	0	4262	7089	4539	7103	494	0	32676	32674	32796	32615	32545	32824	32099	32689	
4105	0	4276	7077	4547	7082	495	0	32625	32576	32742	32751	32484	32802	32629	32533	
4106	0	4217	7053	4547	7076	496	0	32672	32659	32806	32711	32501	32725	33245	32637	
4107	0	4256	7066	4582	7094	497	0	32647	32475	32794	32758	32647	32755	33133	32679	
4108	0	4235	7048	4501	7144	498	0	32740	32747	32877	32732	33245	32668	32516	32639	
4109	0	4264	7086	4556	7138	499	0	32735	32731	32959	32643	33543	32698	32246	32708	
4110	0	4233	7059	4544	7123	500	0	32695	32702	32932	32784	33313	32548	32364	32699	
4111	0	4257	7044	4544	7124	501	0	32796	32734	32951	32810	32671	32743	33154	32790	
4112	0	4274	7074	4512	7108	502	0	32770	32742	32957	32819	32365	32605	33493	32850	
4113	0	4268	7098	4564	7142	503	0	32827	32759	32903	32722	32295	32818	33207	33125	
4114	0	4254	7056	4549	7088	504	0	32756	32703	32924	32839	32399	32743	32541	32806	
4115	0	4250	7054	4458	7134	505	0	32745	32575	32839	32858	32705	32857	32356	32777	
4116	0	4294	7088	4548	7122	506	0	32683	32668	32843	32674	32639	32623	32775	32826	
4117	0	4276	7083	4552	7107	507	0	32786	32617	32933	32811	32559	32903	33379	32775	
4118	0	4248	7040	4533	7122	508	0	32746	32787	33023	32707	32660	32735	33457	32706	
4119	0	4260	7056	4569	7084	509	0	32704	32743	32999	32738	32724	32707	32887	32756	
4120	0	4255	7090	4540	7100	510	0	32716	32671	32902	32685	32755	32764	32420	32677	
4121	0	4233	7092	4502	7161	511	0	32767	32738	32854	32714	32751	32836	32326	32749	
4122	0	4208	7064	4512	7108	512	0	32780	32593	32813	32662	32671	32756	32751	32846	
4123	0	4306	7040	4550	7141	513	0	32729	32708	32820	32740	32647	32818	33107	32807	
4124	0	4210	7044	4526	7104	514	0	32815	32614	32805	32725	32867	32591	33243	32668	
4125	0	4221	7066	4492	7115	515	0	32821	32757	32751	32816	32827	32903	32839	32753	
4126	0	4252	7069	4564	7097	516	0	32751	32742	32710	32643	32855	32885	32446	32706	
4127	0	4267	7105	4538	7103	517	0	32780	32581	32709	32660	32775	32775	32556	32693	
4128	0	4260	7043	4508	7095	518	0	32839	32735	32647	32503	32813	32763	32903	32775	
4129	0	4278	7054	4540	7160	519	0	32764	32791	32550	32563	32796	32660	33431	32814	
4130	0	4237	7056	4552	7109	520	0	32722	32623	32557	32535	32862	32812	33215	32850	
4131	0	4271	7065	4496	7094	521	0	32704	32743	32477	32679	32681	32611	32610	32718	
4132	0	4244	7080	4530	7180	522	0	32780	32757	32532	32803	32739	32863	32310	32734	
4133	0	4234	7054	4538	7114	523	0	32781	32574	32551	32676	32861	32815	32563	32717	
4134	0	4225	7034	4546	7108	524	0	32684	32698	32710	32695	32764	32662	33039	32730	
4135	0	4247	7083	4561	7124	525	0	32750	32733	32797	32549	32677	32855	33199	32805	
4136	0	4285	7078	4508	7131	526	0	32793	32570	32691	32597	32628	32739	32963	32775	
4137	0	4273	7078	4563	7143	527	0	32758	32715	32675	32516	32636	32807	32457	32685	
4138	0	4225	7038	4519	7115	528	0	32806	32791	32684	32607	32747	32813	32175	32711	
4139	0	4265	7083	4585	7122	529	0	32834	32604	32659	32627	32718	32673	32563	32766	
4140	0	4245	7092	4503	7080	530	0	32799	32639	32619	32770	32724	32742	32929	32775	
4141	0	4238	7076	4528	7133	531	0	32775	32562	32613	32875	32711	32567	33183	32834	
4142	0	4259	7098	4595	7119	532	0	32698	32755	32621	32917	32738	32621	32832	32850	
4143	0	4234	7056	4516	7108	533	0	32775	32807	32619	32903	32685	32578	32359	32759	
4144	0	4289	7085	4530	7137	534	0	32707	32735	32604	32900	32581	32681	32186	32879	
4145	0	4228	7114	4542	7168	535	0	32741	32747	32692	32795	32607	32476	32724	32681	
4146	0	4283	7073	4558	7134	536	0	32777	32576	32633	32703	32628	32775	33110	32738	
4147	0	4274	7120	4544	7164	537	0	32757	32809	32663	32631	32613	32738	33223	32770	
4148	0	4243	7075	4522	7111	538	0	32819	32790	32663	32711	32465	32847	32786	32795	
4149	0	4232	7100	4529	7124	539	0	32827	32713	32660	32613	32662	32775	32262	32785	
4150	0	4260	7068	4514	7058	540	0	32756	32775	32678	32784	32722	32866	32340	32818	
4151	0	4232	7096	4534	7082	541	0	32780	32615	32775	32679	32677	32838	32839	32825	
4152	0	4288	7080	4498	7116	542	0	32783	32708	32879	32748	32797	32647	33167	32815	
4153	0	4246	7034	4578	7094	543	0	32830	32663	32903	32699	32898	32821	33092	32747	
4154	0	4239	7064	4498	7123	544	0	32813	32738	32903	32699	32983	32732	32452	32740	
4155	0	4277	7090	4532	7136	545	0	32808	32697	32993	32694	33123	32837	32009	32740	
4156	0	4256	7045	4511	7142	546	0	32635	32612	33101	32758	32919	32626	32004	32791	
4157	0	4266	7077	4520	7109	547	0	32582	32620	33031	32759	32740	32789	32667	32780	
4158	0	4260	7060	4536	7098	548	0	32612	32593	32903	32729	32674	32603	32960	32763	
4159	0	4273	7068	4524	7140	549	0	32677	32799	32769	32669	32823	32831	32980	32663	
4160	0	4255	7062	4543	7101	550	0	32758	32690	32738	32642	32660	32759	32349	32603	
4161	0	4257	7046	4554	7094	551	0	32729	32535	32759	32567	32671	32762	32071	32688	
4162	0	4278	7054	4508	7097	552	0	32743	32686	32761	32572	32701	32762	32484	32817	
4163	0	4259	7095	4562	7148	553	0	32736	32751	32809	32595	32647	32563	32987	32791	
4164	0	4275	7015	4469	7136	554	0	32758	32579	32849	32640	32543	32831	33351	32751	
4165	0	4272	7074	4542	7140	555	0	32781	32735	32727	32551	32635	32692	33091	32745	
4166	0	4247	7020	4515	7106	556	0	32847	32621	32679	32703	32823	32815	32409	32764	
4167	0	4244	7026	4494	7118	557	0	32821	32735	32761	32637	32839	32775	32274	32687	
4168	0	4222	7056	4556	7120	558	0	32784	32745	32756	32788	32738	32671	32597	32748	
4169	0	4276	7064	4493	7132	559	0	32844	32620	32829	32774	32719	32715	33170	32738	
4170	0	4247	7074	4495	7106	560	0	32765	32711	32826	32912	32726	32615	33238	32827	
4171	0	4248	7019	4515	7104	561	0	32748	32571	32773	32901	32666	32758	32983	32767	
4172	0	4236	7085	4529	7108	562	0	32728	32692	32770	32891	32659	32615	32491	32685	
4173	0	4293	7078	4536	7148	563	0	32718	32711	32727	32826	32558	32893	32431	32903	
4174	0	4233	7057	4473	7111	564	0	32716	32594	32847	32847	32479	32783	32791	32879	
4175	0	4274	7010	4538	7132	565	0	32716	32687	32807	32804	32647	32887	33139	32807	
4176	0	4254	7093	4589	7108	566	0	32785	32682	32787	32703	32781	32623	33191	32815	
4177	0	4266	7084	4516	7128	567	0	32741	32719	32695	32706	32775	32795	32858	32822	
4178	0	4280	7054	4510	7104	568	0	32739	32681	32647	32626	32726	32621	32390	32749	
4179	0	4228	7048	4508	7105	569	0	32699	32662	32604	32721	32480	32743	32696	32743	
4180	0	4251	7075	4511	7105	570	0	32720	32531	32622	32701	32623	32567	33134	32799	
4181	0	4208	7086	4552	7134	571	0	32748	32700	32663	32677	32867	32751	33587	32724	
4182	0	4259	7035	4572	7106	572	0	32845	32623	32788	32679	32935	32559	33279	32655	
4183	0	4218	7056	4548	7102	573	0	32788	32819	32893	32518	32879	32887	32831	32647	
4184	0	4261	7109	4499	7116	574	0	32744	32807	33007	32551	32692	32775	32378	32783	
4185	0	4253	7038	4496	7108	575	0	32735	32588	33007	32459	32722	32903	32623	32751	
4186	0	4228	7068	4531	7076	576	0	32846	32726	32974	32564	32679	32775	33103	32795	
4187	0	4223	7049	4520	7094	577	0	32760	32807	32902	32444	32591	32647	33215	32695	
4188	0	4245	7063	4557	7086	578	0	32647	32487	32855	32449	32806	32748	33028	32749	
4189	0	4272	7111	4543	7074	579	0	32636	32703	32711	32375	32806	32599	32551	32775	
4190	0	4203	7066	4520	7088	580	0	32751	32743	32690	32591	32889	32892	32270	32747	
4191	0	4224	7044	4481	7096	581	0	32868	32736	32541	32644	32463	32739	32581	32830	
4192	0	4237	7040	4541	7066	582	0	32870	32767	32513	32823	32524	32843	32971	32685	
4193	0	4270	7024	4527	7136	583	0	32877	32679	32527	32844	32703	32578	33095	32787	
4194	0	4220	7070	4520	7097	584	0	32876	32795	32531	33081	32810	32811	32852	32844	
4195	0	4269	7044	4509	7080	585	0	32767	32587	32549	33101	32723	32613	32188	32759	
4196	0	4252	7029	4499	7151	586	0	32711	32701	32621	33009	32686	32910	32267	32766	
4197	0	4247	7035	4492	7120	587	0	32677	32607	32659	33055	32735	32753	32614	32748	
4198	0	4229	7060	4478	7050	588	0	32693	32727	32644	32937	32700	32775	33178	32762	
4199	0	4187	7056	4549	7101	589	0	32725	32665	32631	32899	32677	32775	33069	32671	
4200	0	4261	7035	4528	7106	590	0	32724	32719	32676	32786	32731	32861	32623	32698	
4201	0	4253	7080	4499	7126	591	0	32804	32647	32626	32819	32693	32807	32219	32722	
4202	0	4223	7072	4542	7118	592	0	32767	32825	32748	32791	32687	32895	32183	32743	
4203	0	4240	7070	4513	7079	593	0	32751	32759	32739	32551	32620	32871	32734	32533	
4204	0	4233	7043	4532	7112	594	0	32677	32465	32741	32621	32634	32710	33207	32714	
4205	0	4224	7099	4533	7063	595	0	32742	32694	32775	32447	32671	32591	33012	32893	
4206	0	4242	7040	4520	7072	596	0	32722	32715	32799	32513	32903	32379	32455	32879	
4207	0	4248	7095	4507	7122	597	0	32706	32518	32851	32495	32964	32701	31879	32634	
4208	0	4268	7067	4584	7082	598	0	32743	32707	32850	32592	32761	32532	32122	32975	
4209	0	4226	7060	4520	7065	599	0	32710	32557	33000	32596	32797	32799	32647	32923	
4210	0	4254	7057	4559	7075	600	0	32652	32673	33055	32633	32803	32603	33063	32611	
4211	0	4181	7058	4506	7105	601	0	32713	32700	33167	32671	32731	32890	32875	32468	
4212	0	4283	7106	4532	7120	602	0	32738	32613	33159	32883	32887	32823	32355	32609	
4213	0	4264	7050	4529	7092	603	0	32784	32714	33070	32887	32862	32926	32127	32769	
4214	0	4244	7107	4531	7066	604	0	32860	32710	32950	32799	32641	32886	32421	32783	
4215	0	4241	7114	4554	7072	605	0	32772	32813	32903	32809	32516	32759	33106	32775	
4216	0	4208	7052	4551	7075	606	0	32743	32786	32951	32700	32589	32791	33357	32751	
4217	0	4235	7091	4514	7108	607	0	32829	32695	32823	32692	32483	32738	33210	32795	
4218	0	4215	7074	4550	7094	608	0	32762	32706	32711	32642	32646	32821	32507	32670	
4219	0	4248	7074	4536	7043	609	0	32724	32487	32621	32786	32724	32628	32355	32703	
4220	0	4238	7080	4532	7070	610	0	32780	32699	32583	32879	32687	32726	32535	32818	
4221	0	4269	7078	4525	7035	611	0	32764	32607	32647	32845	32551	32473	33137	32755	
4222	0	4260	7081	4540	7098	612	0	32766	32683	32775	32829	32659	32742	33263	32730	
4223	0	4233	7090	4576	7128	613	0	32722	32686	32739	32837	32786	32711	32822	32817	
4224	0	4233	7060	4532	7069	614	0	32757	32534	32701	32658	32661	32791	32315	32735	
4225	0	4232	7047	4539	7038	615	0	32796	32723	32750	32856	32607	32805	32295	32737	
4226	0	4228	7076	4584	7081	616	0	32832	32671	32682	32783	32539	32658	32819	32815	
4227	0	4208	7107	4554	7102	617	0	32751	32572	32703	32717	32582	32738	33351	32743	
4228	0	4241	7085	4545	7119	618	0	32815	32723	32751	32527	32677	32738	33430	32759	
4229	0	4271	7071	4537	7076	619	0	32869	32605	32802	32529	32694	32771	32815	32859	
4230	0	4249	7044	4529	7104	620	0	32839	32703	32934	32531	32725	32661	32517	32829	
4231	0	4262	7065	4525	7094	621	0	32782	32647	33067	32599	32612	32805	32623	32801	
4232	0	4225	7064	4509	7057	622	0	32766	32811	33074	32701	32533	32623	33047	32782	
4233	0	4229	7094	4526	7069	623	0	32820	32847	32882	32729	32450	32821	33309	32990	
4234	0	4229	7068	4545	7078	624	0	32756	32723	32679	32662	32533	32671	33198	32822	
4235	0	4213	7112	4516	7036	625	0	32757	32695	32554	32647	32795	32775	32679	32845	
4236	0	4215	7082	4550	7040	626	0	32727	32587	32511	32575	32813	32596	32344	32717	
4237	0	4267	7060	4532	7032	627	0	32763	32775	32423	32730	32775	32870	32491	32754	
4238	0	4261	7108	4524	7078	628	0	32807	32743	32375	32715	32844	32641	33027	32681	
4239	0	4178	7115	4539	7110	629	0	32816	32742	32479	32775	32789	32855	33275	32814	
4240	0	4234	7062	4512	7076	630	0	32815	32751	32555	32742	32747	32753	32786	32786	
4241	0	4249	7075	4502	7069	631	0	32859	32755	32605	32663	32803	32885	32407	32802	
4242	0	4208	7073	4510	7074	632	0	32900	32707	32708	32766	32769	32705	32304	32807	
4243	0	4164	7074	4521	7057	633	0	32838	32519	32863	32586	32709	32653	32626	32713	
4244	0	4252	7116	4522	7050	634	0	32784	32627	32945	32646	32804	32791	33109	32666	
4245	0	4259	7088	4527	7032	635	0	32825	32642	32947	32583	32842	32707	33239	32589	
4246	0	4224	7067	4543	7062	636	0	32741	32714	32899	32647	32815	32759	32795	32635	
4247	0	4219	7089	4555	7052	637	0	32677	32700	32843	32582	32774	32627	32291	32735	
4248	0	4241	7118	4559	7036	638	0	32713	32578	32807	32684	32673	32780	32241	32684	
4249	0	4233	7099	4525	7075	639	0	32781	32807	32689	32681	32631	32717	32687	32711	
4250	0	4230	7080	4527	7056	640	0	32732	32613	32663	32767	32597	32784	33220	32743	
4251	0	4208	7082	4564	7062	641	0	32642	32715	32767	32693	32715	32623	33127	32817	
4252	0	4196	7089	4505	7058	642	0	32663	32530	32916	32759	32551	32762	32679	32731	
4253	0	4174	7098	4518	7042	643	0	32674	32742	32903	32709	32573	32635	32260	32829	
4254	0	4155	7091	4547	7040	644	0	32756	32849	32816	32761	32552	32938	32352	32804	
4255	0	4209	7056	4522	7028	645	0	32775	32772	32765	32571	32575	32780	32740	32789	
4256	0	4269	7117	4505	7066	646	0	32735	32785	32813	32677	32644	32887	33019	32771	
4257	0	4204	7124	4550	7044	647	0	32715	32631	32918	32709	32813	32789	33057	32771	
4258	0	4258	7099	4488	6994	648	0	32723	32758	33001	32765	32823	32874	32437	32790	
4259	0	4217	7086	4517	7015	649	0	32759	32786	33012	32692	32844	32795	32161	32786	
4260	0	4224	7078	4496	7026	650	0	32669	32679	32999	32763	32714	32734	32165	32693	
4261	0	4220	7105	4536	7053	651	0	32716	32687	32961	32698	32846	32708	32703	32808	
4262	0	4253	7107	4561	7045	652	0	32808	32609	32879	32735	32767	32767	33150	32801	
4263	0	4222	7103	4546	7037	653	0	32755	32705	32756	32663	32903	32562	32769	32637	
4264	0	4221	7094	4507	7020	654	0	32721	32563	32607	32715	32866	32804	32455	32517	
4265	0	4235	7109	4531	7043	655	0	32801	32735	32519	32674	32999	32578	32157	32485	
4266	0	4196	7109	4568	7070	656	0	32829	32580	32562	32603	33155	32813	32295	32623	
4267	0	4196	7104	4569	7028	657	0	32872	32740	32677	32717	33125	32647	33045	32647	
4268	0	4213	7099	4518	7026	658	0	32841	32540	32887	32758	32847	32871	33318	32775	
4269	0	4228	7117	4517	7011	659	0	32785	32703	33035	32839	32669	32710	33029	32850	
4270	0	4225	7092	4518	7036	660	0	32707	32775	32958	32883	32605	32891	32533	32839	
4271	0	4243	7072	4548	7068	661	0	32749	32838	33065	32798	32684	32668	32361	32867	
4272	0	4248	7080	4530	7033	662	0	32684	32759	33046	32809	32807	32795	32711	32812	
4273	0	4245	7111	4521	7056	663	0	32647	32829	32979	32593	32791	32655	33167	32804	
4274	0	4236	7098	4550	7060	664	0	32726	32823	32858	32623	32599	32766	33335	32829	
4275	0	4221	7088	4516	7070	665	0	32716	32738	32727	32719	32212	32612	32966	33039	
4276	0	4233	7072	4536	7044	666	0	32599	32775	32647	32723	31826	32591	32348	33039	
4277	0	4219	7104	4541	7073	667	0	32738	32559	32581	32852	31879	32506	32590	33037	
4278	0	4238	7115	4501	7039	668	0	32817	32719	32542	32785	31999	32662	33060	33109	
4279	0	4235	7093	4532	7037	669	0	32775	32583	32555	32876	32399	32583	33587	32976	
4280	0	4227	7108	4552	7042	670	0	32740	32716	32615	32775	32694	32838	33333	32861	
4281	0	4213	7110	4550	7016	671	0	32726	32647	32767	32705	32822	32670	32725	32669	
4282	0	4220	7129	4522	7048	672	0	32725	32671	32836	32708	32903	32930	32334	32697	
4283	0	4233	7144	4534	7030	673	0	32757	32683	32807	32735	33007	32807	32363	32758	
4284	0	4228	7117	4544	7043	674	0	32802	32551	32767	32775	32950	32887	33022	32823	
4285	0	4209	7068	4545	7008	675	0	32780	32727	32812	32731	32815	32770	33436	32373	
4286	0	4228	7120	4513	7041	676	0	32750	32578	32877	32735	32891	32732	33287	32418	
4287	0	4197	7103	4529	7063	677	0	32714	32700	32897	32681	33165	32671	32586	32547	
4288	0	4240	7108	4539	7030	678	0	32734	32790	32903	32799	33307	32839	32367	32629	
4289	0	4196	7113	4553	7028	679	0	32743	32751	32835	32806	33159	32817	32595	32676	
4290	0	4216	7092	4524	7053	680	0	32847	32827	32754	32786	33110	32947	33100	32665	
4291	0	4226	7114	4580	7070	681	0	32780	32531	32541	32700	33159	32823	33175	32658	
4292	0	4307	7145	4534	7045	682	0	32852	32634	32314	32735	32875	32813	33061	32740	
4293	0	4233	7118	4533	7053	683	0	32813	32615	32247	32819	32519	32847	32423	32743	
4294	0	4248	7117	4540	7064	684	0	32893	32739	32283	32791	32335	32897	32300	32836	
4295	0	4184	7133	4517	7062	685	0	32809	32679	32380	32780	32708	32830	32466	32685	
4296	0	4259	7092	4520	7044	686	0	32786	32499	32455	32861	32623	32674	32988	32674	
4297	0	4272	7170	4555	7051	687	0	32760	32695	32479	32960	32179	32699	33171	32738	
4298	0	4232	7110	4506	7052	688	0	32775	32659	32591	32827	32177	32577	32879	32893	
4299	0	4226	7089	4577	7046	689	0	32709	32759	32687	32696	32379	32640	32205	32831	
4300	0	4246	7104	4520	7012	690	0	32706	32640	32797	32545	32415	32709	32261	32876	
4301	0	4234	7165	4522	7016	691	0	32732	32751	32861	32443	32713	32517	32647	32710	
4302	0	4245	7104	4566	7018	692	0	32688	32796	32879	32612	33006	32831	32967	32698	
4303	0	4270	7120	4535	7032	693	0	32749	32795	32916	32583	33022	32812	33150	32723	
4304	0	4256	7097	4557	7032	694	0	32795	32756	32963	32735	32678	32823	32669	32829	
4305	0	4227	7115	4566	7053	695	0	32693	32735	33007	32693	32391	32571	32247	32871	
4306	0	4229	7070	4515	7080	696	0	32742	32691	33038	32681	32423	32740	32254	32788	
4307	0	4224	7104	4568	7075	697	0	32743	32708	33015	32671	32591	32607	32743	32708	
4308	0	4255	7092	4580	7038	698	0	32647	32615	33001	32571	32865	32773	33227	32685	
4309	0	4240	7138	4589	7086	699	0	32671	32573	32988	32647	32922	32732	33053	32854	
4310	0	4238	7142	4558	7090	700	0	32711	32605	33063	32614	32791	32773	32531	32902	
4311	0	4237	7155	4563	7098	701	0	32679	32481	33009	32505	32754	32685	32151	32834	
4312	0	4215	7104	4567	7094	702	0	32766	32725	32891	32631	32759	32845	32046	32797	
4313	0	4259	7142	4530	7049	703	0	32781	32571	32943	32642	32795	32678	32775	32813	
4314	0	4240	7136	4541	7115	704	0	32830	32709	32945	32687	32775	32868	33076	32717	
4315	0	4267	7141	4587	7086	705	0	32782	32758	32983	32734	32675	32635	33007	32816	
4316	0	4308	7116	4513	7074	706	0	32821	32595	32935	32754	32818	32819	32421	32711	
4317	0	4211	7146	4552	7064	707	0	32830	32675	32890	32621	32775	32701	32208	32703	
4318	0	4276	7100	4524	7107	708	0	32817	32519	32729	32554	32946	32794	32585	32706	
4319	0	4249	7126	4545	7073	709	0	32831	32601	32679	32559	32815	32663	33049	32727	
4320	0	4250	7109	4580	7052	710	0	32745	32582	32551	32479	32690	32707	33388	32693	
4321	0	4234	7083	4566	7090	711	0	32783	32637	32438	32598	32685	32631	33058	32679	
4322	0	4284	7082	4612	7071	712	0	32839	32639	32437	32623	32933	32703	32455	32751	
4323	0	4270	7114	4609	7064	713	0	32756	32639	32531	32604	32939	32736	32260	32841	
4324	0	4223	7101	4560	7093	714	0	32657	32698	32468	32799	32766	32692	32663	32859	
4325	0	4260	7126	4517	7076	715	0	32700	32587	32493	32893	32495	32801	33030	32743	
4326	0	4251	7108	4562	7047	716	0	32676	32751	32546	32895	32587	32783	33239	32775	
4327	0	4199	7110	4567	7072	717	0	32743	32519	32499	32903	32767	32869	33030	32767	
4328	0	4234	7083	4521	7096	718	0	32813	32727	32621	32857	32586	32711	32372	32775	
4329	0	4232	7088	4578	7091	719	0	32887	32627	32640	32949	32524	32836	32263	32816	
4330	0	4276	7164	4542	7109	720	0	32878	32679	32684	32925	32705	32671	32517	32771	
4331	0	4271	7133	4592	7104	721	0	32843	32612	32813	32699	32775	32887	33213	32805	
4332	0	4256	7117	4590	7080	722	0	32813	32785	32711	32811	32827	32903	33319	32724	
4333	0	4272	7093	4553	7072	723	0	32799	32631	32718	32812	32775	32814	32918	32749	
4334	0	4257	7104	4603	7106	724	0	32717	32727	32852	33083	32819	32829	32532	32911	
4335	0	4287	7124	4526	7088	725	0	32858	32676	32834	33101	32703	32779	32509	32894	
4336	0	4253	7178	4590	7104	726	0	32786	32799	32743	32854	32724	32890	32851	32881	
4337	0	4265	7130	4574	7116	727	0	32687	32647	32783	32799	32769	32629	33332	32703	
4338	0	4276	7095	4548	7041	728	0	32743	32732	32941	32627	32795	32727	33207	32474	
4339	0	4238	7104	4600	7111	729	0	32738	32607	33063	32361	32743	32594	32903	32590	
4340	0	4265	7113	4519	7056	730	0	32647	32628	33045	32541	32436	32663	32391	32714	
4341	0	4286	7130	4542	7086	731	0	32679	32485	33142	32637	32412	32711	32351	32813	
4342	0	4256	7117	4545	7062	732	0	32700	32698	32972	32751	32511	32582	33004	32751	
4343	0	4213	7107	4616	7115	733	0	32806	32585	32798	32839	32767	32795	33361	32770	
4344	0	4212	7084	4617	7064	734	0	32796	32740	32661	32948	32843	32599	33079	32775	
4345	0	4240	7097	4542	7081	735	0	32759	32767	32590	33039	32812	32803	32679	32826	
4346	0	4232	7123	4525	7089	736	0	32674	32742	32671	32887	32735	32631	32231	32740	
4347	0	4254	7100	4540	7080	737	0	32716	32868	32570	32534	32725	32745	32237	32759	
4348	0	4271	7108	4583	7098	738	0	32754	32850	32625	32307	32707	32861	32799	32783	
4349	0	4255	7075	4561	7072	739	0	32756	32827	32567	32263	32647	32763	33255	32742	
4350	0	4264	7126	4592	7096	740	0	32749	32647	32475	32439	32713	32916	32929	32851	
4351	0	4317	7117	4608	7096	741	0	32700	32700	32511	32423	32703	32855	32534	32857	
4352	0	4254	7056	4603	7081	742	0	32749	32659	32629	32499	32687	32889	32177	32724	
4353	0	4257	7108	4556	7077	743	0	32729	32686	32679	32527	32679	32809	32285	32839	
4354	0	4266	7121	4577	7104	744	0	32742	32599	32698	32564	32775	32838	32826	32817	
4355	0	4265	7143	4563	7070	745	0	32743	32546	32740	32547	32665	32850	33015	32855	
4356	0	4229	7091	4573	7096	746	0	32729	32635	32903	32725	32727	32903	32886	32797	
4357	0	4247	7102	4559	7104	747	0	32729	32699	32949	32745	32807	32691	32192	32802	
4358	0	4281	7090	4563	7109	748	0	32654	32591	33180	32887	32673	32823	32150	32825	
4359	0	4283	7065	4517	7075	749	0	32708	32726	33357	32852	32643	32534	32587	32722	
4360	0	4226	7083	4613	7118	750	0	32668	32686	33367	32799	32695	32711	33075	32647	
4361	0	4253	7103	4539	7135	751	0	32692	32740	33154	32871	32684	32603	33179	32711	
4362	0	4248	7122	4561	7072	752	0	32711	32531	32852	32769	32639	32669	32677	32787	
4363	0	4252	7138	4584	7101	753	0	32685	32686	32699	32858	32612	32599	32263	32687	
4364	0	4262	7120	4538	7092	754	0	32745	32622	32796	32769	32698	32698	32346	32767	
4365	0	4230	7103	4541	7102	755	0	32679	32706	32763	32678	32743	32758	32715	32622	
4366	0	4210	7083	4588	7108	756	0	32751	32769	32524	32668	32718	32726	33399	32821	
4367	0	4234	7075	4548	7074	757	0	32800	32754	32343	32589	32671	32878	33287	32889	
4368	0	4296	7060	4560	7076	758	0	32831	32799	32457	32699	32639	32535	32698	32679	
4369	0	4208	7113	4555	7101	759	0	32836	32746	32407	32685	32711	32759	32430	32701	
4370	0	4270	7136	4546	7098	760	0	32848	32743	32397	32685	32816	32615	32583	32718	
4371	0	4236	7096	4560	7071	761	0	32816	32643	32457	32594	32823	32882	33227	32783	
4372	0	4210	7065	4574	7132	762	0	32864	32689	32468	32606	32750	32757	33515	32797	
4373	0	4255	7055	4579	7079	763	0	32775	32783	32633	32519	32647	32827	33210	32861	
4374	0	4227	7077	4593	7091	764	0	32767	32599	32804	32676	32681	32598	32699	32789	
4375	0	4172	7040	4569	7082	765	0	32732	32805	32927	32615	32671	32878	32445	32822	
4376	0	4208	7085	4526	7120	766	0	32767	32916	32940	32627	32786	32742	32558	32852	
4377	0	4209	7165	4578	7104	767	0	32695	32694	32921	32647	32660	32865	33117	32799	
4378	0	4239	7088	4584	7097	768	0	32729	32677	33026	32783	32663	32775	33255	32765	
4379	0	4215	7096	4526	7059	769	0	32720	32483	33135	32846	32621	32869	32976	32799	
4380	0	4231	7077	4586	7107	770	0	32806	32718	33191	32854	32771	32591	32303	32774	
4381	0	4245	7128	4549	7112	771	0	32790	32637	33149	32929	32727	32783	32293	32721	
4382	0	4255	7065	4583	7092	772	0	32741	32799	33128	32925	32679	32545	32647	32719	
4383	0	4199	7065	4572	7088	773	0	32791	32767	32903	32941	32743	32698	32943	32763	
4384	0	4186	7138	4575	7122	774	0	32815	32655	32707	32695	32605	32567	32998	32759	
4385	0	4262	7071	4534	7108	775	0	32836	32756	32673	32679	32601	32871	32685	32775	
4386	0	4197	7062	4558	7117	776	0	32806	32527	32629	32580	32863	32796	32107	32775	
4387	0	4246	7103	4558	7106	777	0	32746	32679	32709	32586	32767	32796	32076	32771	
4388	0	4233	7112	4576	7125	778	0	32685	32703	32898	32573	32708	32821	32559	32783	
4389	0	4260	7087	4546	7073	779	0	32765	32711	32910	32450	32711	32990	33179	32895	
4390	0	4224	7070	4569	7104	780	0	32687	32460	32805	32601	32743	32741	33020	32845	
4391	0	4245	7106	4516	7094	781	0	32647	32583	32839	32727	32790	32900	32727	32733	
4392	0	4235	7093	4576	7083	782	0	32738	32525	32788	32713	32813	32729	32177	32807	
4393	0	4253	7088	4543	7102	783	0	32672	32677	32694	32783	32668	32812	32247	32717	
4394	0	4197	7108	4550	7067	784	0	32738	32647	32605	32871	32809	32815	32940	32694	
4395	0	4168	7099	4486	7108	785	0	32759	32759	32713	32831	32738	32762	33357	32781	
4396	0	4256	7077	4544	7116	786	0	32787	32660	32709	32861	32727	32843	33351	32799	
4397	0	4218	7108	4604	7085	787	0	32745	32727	32795	32811	32679	32715	32742	32665	
4398	0	4198	7066	4608	7053	788	0	32807	32631	32709	32791	32707	32775	32060	32775	
4399	0	4186	7060	4570	7102	789	0	32903	32742	32620	32748	32678	32490	32382	32814	
4400	0	4186	7072	4590	7084	790	0	32838	32699	32540	32605	32637	32675	32956	32722	
4401	0	4225	7057	4548	7124	791	0	32802	32625	32527	32700	32751	32647	33189	32730	
4402	0	4221	7106	4528	7122	792	0	32815	32655	32591	32640	32751	32771	33219	32871	
4403	0	4211	7076	4568	7044	793	0	32913	32703	32453	32844	32683	32709	32715	32733	
4404	0	4200	7096	4548	7076	794	0	32808	32667	32348	32894	32743	32751	32319	32700	
4405	0	4188	7082	4587	7088	795	0	32871	32773	32391	32729	32811	32717	32759	32631	
4406	0	4184	7053	4557	7043	796	0	32756	32668	32474	32740	32781	32761	33263	32723	
4407	0	4194	7075	4541	7059	797	0	32706	32762	32558	32623	32663	32895	33319	32771	
4408	0	4168	7084	4560	7060	798	0	32645	32701	32707	32617	32715	32597	33132	32791	
4409	0	4224	7058	4552	7096	799	0	32644	32695	32924	32655	32677	32799	32564	32897	
4410	0	4248	7064	4583	7032	800	0	32708	32749	33021	32581	32594	32647	32197	32720	
4411	0	4240	7085	4570	7076	801	0	32769	32854	33138	32553	32585	32767	32595	32692	
4412	0	4213	7102	4558	7081	802	0	32729	32783	33187	32556	32800	32895	33117	32757	
4413	0	4196	7092	4539	7065	803	0	32823	32811	33100	32642	32683	32771	33133	32830	
4414	0	4227	7069	4565	7081	804	0	32919	32684	32923	32641	32734	32877	32943	32795	
4415	0	4205	7068	4531	7043	805	0	33001	32764	32855	32573	32719	32583	32423	32887	
4416	0	4201	7100	4546	7078	806	0	32967	32557	32940	32493	32711	32802	32290	32671	
4417	0	4228	7069	4610	7050	807	0	32909	32638	32794	32557	32716	32593	32620	32757	
4418	0	4236	7080	4540	7065	808	0	32810	32463	32730	32586	32692	32795	33047	32741	
4419	0	4201	7094	4560	7072	809	0	32860	32575	32855	32669	32647	32593	33191	32743	
4420	0	4166	7100	4559	7040	810	0	32882	32391	32807	32807	32611	32826	32691	32799	
4421	0	4242	7107	4623	7048	811	0	32799	32587	32869	32957	32647	32895	32293	32703	
4422	0	4245	7098	4548	7073	812	0	32729	32627	32727	32985	32733	32628	32204	32694	
4423	0	4225	7049	4571	7108	813	0	32742	32775	32637	33201	32732	32853	32775	32733	
4424	0	4154	7100	4547	7066	814	0	32662	32756	32604	33019	32735	32647	33214	32791	
4425	0	4201	7108	4580	7065	815	0	32559	32853	32585	32931	32671	32775	33203	32697	
4426	0	4177	7092	4571	7062	816	0	32546	32823	32485	32685	32750	32751	32769	32766	
4427	0	4216	7100	4577	7069	817	0	32658	32902	32471	32683	32832	32767	32285	32726	
4428	0	4199	7114	4538	7070	818	0	32747	32853	32586	32692	32735	32860	32288	32740	
4429	0	4214	7068	4632	7068	819	0	32749	32775	32629	32663	32688	32754	32727	32711	
4430	0	4183	7091	4550	7060	820	0	32734	32734	32718	32687	32692	32815	33116	32683	
4431	0	4225	7038	4627	7078	821	0	32703	32605	32743	32683	32748	32487	32927	32748	
4432	0	4210	7096	4600	7019	822	0	32639	32617	32727	32634	32743	32731	32404	32837	
4433	0	4182	7083	4546	7068	823	0	32610	32528	32726	32775	32707	32789	32146	32836	
4434	0	4192	7069	4633	7066	824	0	32617	32713	32671	32758	32736	32752	32215	32755	
4435	0	4213	7104	4575	7072	825	0	32718	32642	32576	32829	32739	32775	32669	32686	
4436	0	4215	7086	4612	7044	826	0	32801	32735	32571	32837	32773	32703	33097	32692	
4437	0	4217	7097	4574	7066	827	0	32716	32663	32687	32635	32895	32823	32982	32731	
4438	0	4219	7086	4592	7070	828	0	32677	32749	32755	32639	32975	32731	32583	32771	
4439	0	4238	7140	4555	7049	829	0	32707	32732	32893	32413	33026	32827	32216	32804	
4440	0	4159	7086	4612	7060	830	0	32827	32726	32984	32485	32873	32903	32426	32775	
4441	0	4186	7088	4656	7060	831	0	32871	32730	32999	32551	32819	32775	33146	32710	
4442	0	4182	7098	4587	7074	832	0	32951	32812	32980	32589	32656	32855	33503	32621	
4443	0	4201	7109	4588	7062	833	0	32809	32814	32823	32623	32540	32595	32949	32761	
4444	0	4197	7113	4622	7078	834	0	32848	32754	32855	32534	32543	32751	32551	32767	
4445	0	4215	7131	4605	7046	835	0	32756	32733	32863	32555	32781	32551	32409	32819	
4446	0	4256	7100	4609	7070	836	0	32712	32721	32822	32583	32874	32733	32721	32785	
4447	0	4219	7076	4598	7078	837	0	32788	32562	32770	32575	32818	32643	33269	32764	
4448	0	4218	7063	4585	7006	838	0	32806	32602	32819	32607	32575	32699	33354	32845	
4449	0	4176	7123	4636	7046	839	0	32831	32559	32813	32820	32236	32687	33053	32903	
4450	0	4206	7093	4622	7028	840	0	32870	32683	32751	32841	32143	32647	32375	32942	
4451	0	4185	7097	4546	7055	841	0	32837	32487	32871	33001	32281	32740	32530	32867	
4452	0	4186	7114	4612	7035	842	0	32732	32672	32929	33034	32540	32846	32871	32813	
4453	0	4188	7084	4584	7004	843	0	32766	32592	32903	32955	32799	32850	33341	32742	
4454	0	4223	7074	4561	7042	844	0	32793	32647	32883	32954	32821	32619	33237	32786	
4455	0	4185	7094	4570	7024	845	0	32745	32647	32783	32944	32821	32759	32748	32836	
4456	0	4178	7064	4572	7064	846	0	32765	32865	32732	32978	32751	32487	32315	32828	
4457	0	4134	7136	4604	7033	847	0	32725	32822	32801	32810	32708	32757	32254	32767	
4458	0	4197	7092	4568	7016	848	0	32774	32948	32769	32768	32770	32623	32852	32749	
4459	0	4231	7116	4618	7004	849	0	32745	32867	32695	32713	32817	32766	33231	32737	
4460	0	4164	7084	4650	7078	850	0	32673	32796	32583	32526	32821	32695	32983	32815	
4461	0	4210	7074	4560	7020	851	0	32711	32751	32491	32586	32758	32827	32583	32721	
4462	0	4177	7120	4616	7042	852	0	32724	32489	32524	32537	32882	32678	32135	32675	
4463	0	4210	7113	4594	7070	853	0	32775	32631	32629	32420	32876	32743	32390	32647	
4464	0	4201	7084	4613	6984	854	0	32733	32557	32684	32257	32924	32695	32845	32694	
4465	0	4210	7124	4618	7030	855	0	32752	32614	32775	32381	32925	32795	33285	32775	
4466	0	4192	7118	4610	7032	856	0	32738	32718	32863	32578	32939	32647	33063	32911	
4467	0	4154	7122	4598	7016	857	0	32755	32661	32862	32713	32851	32723	32371	32711	
4468	0	4158	7109	4631	7040	858	0	32804	32659	32887	32677	32775	32727	32253	32585	
4469	0	4224	7129	4642	7018	859	0	32812	32577	32679	32797	32644	32668	32512	32583	
4470	0	4176	7108	4598	6990	860	0	32878	32677	32614	32884	32634	32855	33023	32698	
4471	0	4184	7118	4620	7014	861	0	32808	32507	32815	32895	32490	32527	33238	32827	
4472	0	4181	7106	4652	7016	862	0	32804	32647	32902	33007	32549	32859	32751	32775	
4473	0	4192	7102	4652	7021	863	0	32893	32519	33020	32868	32775	32583	32303	32765	
4474	0	4215	7148	4673	7014	864	0	32846	32743	32939	32903	32715	32892	32011	32747	
4475	0	4126	7125	4625	6976	865	0	32743	32541	32952	32848	32682	32829	32343	32879	
4476	0	4198	7082	4604	7056	866	0	32775	32758	33039	32876	32679	32804	32885	32871	
4477	0	4142	7144	4609	7040	867	0	32681	32739	33061	32736	32739	32669	33031	32783	
4478	0	4219	7116	4600	6964	868	0	32612	32775	32994	32797	32770	32795	32803	32717	
4479	0	4181	7102	4642	7045	869	0	32655	32853	32901	32551	32716	32831	32337	32775	
4480	0	4137	7070	4685	7045	870	0	32663	32834	32837	32356	32754	32847	32356	32751	
4481	0	4177	7150	4674	6997	871	0	32736	32869	32852	32461	32745	32903	32655	32765	
4482	0	4207	7114	4579	6980	872	0	32786	32797	32878	32493	32684	32570	33138	32788	
4483	0	4194	7108	4628	7016	873	0	32767	32718	32807	32613	32694	32759	33199	32639	
4484	0	4178	7108	4654	7017	874	0	32679	32615	32700	32639	32711	32759	32860	32660	
4485	0	4227	7117	4670	6978	875	0	32658	32677	32570	32647	32738	32775	32321	32822	
4486	0	4176	7152	4686	7012	876	0	32759	32527	32546	32797	32807	32725	32480	32801	
4487	0	4173	7093	4646	7033	877	0	32805	32596	32439	32879	32807	32699	32701	32671	
4488	0	4188	7060	4642	7032	878	0	32749	32702	32274	32893	32739	32713	33351	32731	
4489	0	4228	7100	4652	6963	879	0	32727	32666	32326	32879	32811	32748	33207	32647	
4490	0	4182	7107	4627	6996	880	0	32679	32729	32412	32937	32765	32839	32823	32723	
4491	0	4208	7136	4676	7015	881	0	32832	32771	32468	32931	32727	32633	32454	32749	
4492	0	4181	7142	4643	6999	882	0	32872	32782	32417	32858	32673	32908	32638	32773	
4493	0	4184	7144	4681	7000	883	0	32813	32658	32470	32951	32595	32679	33233	32743	
4494	0	4176	7136	4700	7029	884	0	32801	32740	32593	32743	32689	32942	33437	32669	
4495	0	4197	7160	4643	7008	885	0	32727	32599	32791	32711	32727	32657	33311	32775	
4496	0	4121	7188	4666	6963	886	0	32769	32660	32815	32681	32687	32791	32647	32876	
4497	0	4168	7162	4653	7007	887	0	32724	32677	32941	32609	32705	32569	32354	32816	
4498	0	4158	7135	4602	6994	888	0	32774	32764	32926	32687	32775	32809	32504	32858	
4499	0	4157	7154	4638	6969	889	0	32791	32836	32841	32610	32743	32510	33089	32715	
4500	0	4184	7115	4648	6985	890	0	32782	32818	32807	32642	32647	32799	33338	32867	
4501	0	4195	7126	4628	6970	891	0	32783	32775	32783	32643	32629	32599	32903	32951	
4502	0	4166	7136	4680	7012	892	0	32756	32687	32647	32628	32647	32791	32489	32716	
4503	0	4165	7134	4662	7008	893	0	32771	32695	32679	32759	32739	32557	32260	32694	
4504	0	4166	7154	4663	6990	894	0	32742	32494	32617	32715	32810	32834	32585	32686	
4505	0	4174	7145	4672	6992	895	0	32749	32583	32634	32812	32711	32757	32982	32756	
4506	0	4157	7085	4652	7041	896	0	32764	32503	32749	32715	32799	32903	33191	32791	
4507	0	4160	7091	4639	6989	897	0	32759	32673	32818	32788	32767	32758	32804	32686	
4508	0	4137	7091	4648	6968	898	0	32872	32775	32873	32724	32660	32742	32331	32738	
4509	0	4181	7157	4653	7005	899	0	32824	32679	32871	32676	32659	32762	32185	32871	
4510	0	4168	7072	4664	7002	900	0	32836	32741	32866	32623	32617	32737	32615	32751	
4511	0	4196	7124	4674	6959	901	0	32738	32519	32849	32538	32809	32850	33181	32575	
4512	0	4188	7136	4658	6962	902	0	32709	32703	32870	32647	32759	32869	33191	32711	
4513	0	4181	7109	4663	7010	903	0	32730	32669	32903	32775	32681	32845	32668	32903	
4514	0	4185	7150	4609	6969	904	0	32766	32847	32811	32901	32733	32791	31981	33093	
4515	0	4168	7162	4617	6996	905	0	32754	32799	32837	32703	32679	32730	32126	32825	
4516	0	4120	7116	4683	6972	906	0	32734	32502	32834	32750	32615	32627	32562	32711	
4517	0	4153	7109	4643	6980	907	0	32717	32667	32796	32647	32742	32799	32967	32704	
4518	0	4145	7174	4659	6996	908	0	32770	32615	32769	32727	32835	32613	33053	32687	
4519	0	4210	7152	4628	7024	909	0	32729	32775	32759	32647	32822	32820	32559	32687	
4520	0	4165	7155	4692	7012	910	0	32712	32775	32794	32687	32815	32567	32098	32767	
4521	0	4140	7132	4614	6991	911	0	32726	32773	32801	32663	32801	32914	32402	32725	
4522	0	4122	7126	4658	7037	912	0	32693	32739	32895	32582	32636	32646	32867	32727	
4523	0	4189	7162	4637	6957	913	0	32632	32583	32775	32639	32466	32788	33401	32647	
4524	0	4185	7128	4660	6993	914	0	32696	32700	32825	32557	32519	32447	33175	32846	
4525	0	4179	7168	4662	6953	915	0	32740	32579	32833	32607	32813	32577	32581	32836	
4526	0	4164	7136	4676	6983	916	0	32749	32671	32847	32655	33029	32463	32228	32722	
4527	0	4132	7140	4628	6990	917	0	32745	32612	32817	32829	32915	32775	32342	32574	
4528	0	4143	7104	4637	6979	918	0	32692	32758	32773	32898	32820	32639	33063	32724	
4529	0	4149	7156	4603	6957	919	0	32794	32565	32846	32634	32735	32711	33343	32799	
4530	0	4135	7140	4675	6992	920	0	32828	32702	32831	32568	32711	32735	32982	32836	
4531	0	4186	7140	4733	6959	921	0	32820	32711	32877	32439	32639	32868	32559	32950	
4532	0	4158	7138	4591	6956	922	0	32692	32681	32867	32551	32541	32740	32060	32786	
4533	0	4179	7122	4670	6984	923	0	32724	32692	32825	32607	32699	32825	32607	32769	
4534	0	4164	7152	4592	7004	924	0	32760	32549	32700	32814	32677	32742	33103	32775	
4535	0	4174	7143	4641	6979	925	0	32831	32764	32574	32931	32765	33033	33287	32842	
4536	0	4130	7169	4680	6950	926	0	32775	32759	32599	32873	32753	32511	32959	32807	
4537	0	4173	7134	4648	6968	927	0	32732	32645	32647	32927	32687	32686	32423	32863	
4538	0	4173	7132	4669	6981	928	0	32759	32611	32695	32735	32514	32590	32368	32798	
4539	0	4143	7128	4604	6956	929	0	32777	32549	32759	32671	32543	32713	32615	32695	
4540	0	4176	7157	4638	6972	930	0	32692	32677	32699	32511	32594	32711	33283	32562	
4541	0	4161	7126	4620	6955	931	0	32732	32567	32669	32563	32637	32903	33275	32727	
4542	0	4149	7148	4636	6946	932	0	32717	32699	32713	32583	32647	32711	32931	32831	
4543	0	4168	7158	4593	6969	933	0	32804	32742	32635	32724	32731	32742	32274	32793	
4544	0	4164	7148	4686	6968	934	0	32814	32615	32604	32724	32828	32719	32285	32695	
4545	0	4131	7148	4644	6980	935	0	32762	32826	32557	32965	32899	32641	32823	32806	
4546	0	4181	7113	4599	6960	936	0	32791	32658	32519	33042	32854	32678	33251	32785	
4547	0	4140	7098	4636	6980	937	0	32815	32677	32509	33055	32765	32634	33333	32797	
4548	0	4149	7129	4649	6985	938	0	32826	32539	32567	33047	32661	32794	32719	32803	
4549	0	4162	7139	4667	6920	939	0	32796	32733	32605	32879	32682	32803	32389	32699	
4550	0	4124	7116	4694	6966	940	0	32839	32647	32572	32856	32864	32823	32450	32723	
4551	0	4132	7100	4643	6975	941	0	32844	32819	32633	32703	32801	32658	32927	32754	
4552	0	4090	7124	4635	7024	942	0	32836	32634	32775	32621	32743	32784	33261	32727	
4553	0	4190	7123	4644	6958	943	0	32783	32749	32871	32719	32717	32876	33154	32739	
4554	0	4119	7143	4596	7000	944	0	32775	32669	32876	32595	32695	32806	32655	32823	
4555	0	4152	7150	4640	6956	945	0	32676	32677	33029	32647	32593	32884	32188	32903	
4556	0	4136	7163	4618	7008	946	0	32692	32535	32948	32513	32628	32479	32351	32855	
4557	0	4153	7144	4622	6956	947	0	32668	32679	32967	32332	32755	32741	32967	32764	
4558	0	4174	7166	4616	6977	948	0	32715	32694	32917	32345	32727	32481	33121	32748	
4559	0	4182	7126	4635	6975	949	0	32736	32771	32902	32581	32767	32755	33051	32699	
4560	0	4168	7136	4645	6993	950	0	32711	32775	32966	32647	32807	32559	32406	32791	
4561	0	4202	7102	4626	6974	951	0	32750	32797	32871	32698	32759	32634	32198	32729	
4562	0	4146	7115	4655	6976	952	0	32820	32679	32732	32647	32727	32564	32417	32800	
4563	0	4166	7101	4642	6937	953	0	32742	32719	32706	32668	32697	32705	32902	32919	
4564	0	4184	7130	4593	6990	954	0	32818	32581	32661	32747	32762	32860	33091	32741	
4565	0	4144	7144	4659	6970	955	0	32775	32699	32623	32730	32767	32623	32987	32689	
4566	0	4174	7138	4639	6977	956	0	32764	32579	32659	32692	32763	32801	32463	32660	
4567	0	4183	7102	4580	6941	957	0	32688	32623	32615	32767	32826	32636	32322	32735	
4568	0	4187	7124	4667	6991	958	0	32749	32596	32559	32711	32739	32817	32526	32756	
4569	0	4139	7098	4608	6969	959	0	32795	32756	32588	32700	32727	32959	33187	32677	
4570	0	4186	7134	4621	6960	960	0	32747	32727	32543	32636	32679	33147	33207	32727	
4571	0	4201	7125	4626	6950	961	0	32827	32676	32575	32582	32783	32965	32877	32694	
4572	0	4129	7081	4620	6946	962	0	32886	32785	32642	32662	32797	32987	32263	32711	
4573	0	4140	7122	4635	6976	963	0	32773	32748	32763	32585	32740	32562	32460	32706	
4574	0	4146	7109	4590	7008	964	0	32745	32736	32852	32633	32713	32783	32855	32743	
4575	0	4140	7106	4595	7024	965	0	32697	32535	32864	32668	32724	32823	33367	32783	
4576	0	4152	7110	4618	6978	966	0	32697	32647	32847	32742	32700	32623	33114	32660	
4577	0	4164	7140	4632	6989	967	0	32674	32757	32847	32699	32749	32609	32711	32679	
4578	0	4141	7094	4615	7011	968	0	32761	32765	32853	32766	32687	32519	32223	32749	
4579	0	4136	7107	4586	7020	969	0	32757	32796	32706	32679	32846	32738	32375	32855	
4580	0	4169	7148	4638	6980	970	0	32822	32852	32809	32866	32799	32583	32627	32863	
4581	0	4184	7165	4626	6968	971	0	32898	32875	32886	32852	32807	32669	33234	32913	
4582	0	4089	7140	4632	7026	972	0	32846	32683	32903	32884	32775	32563	33103	32773	
4583	0	4132	7111	4630	7012	973	0	32791	32773	32917	33060	32740	32718	32671	32685	
4584	0	4124	7120	4609	7008	974	0	32861	32603	32951	32911	32775	32739	32140	32797	
4585	0	4124	7114	4592	7018	975	0	32756	32735	32854	32956	32735	32871	32538	32887	
4586	0	4102	7136	4601	7012	976	0	32732	32551	32925	32863	32710	32673	33047	32941	
4587	0	4156	7108	4646	7034	977	0	32754	32683	32847	32562	32669	32783	33453	32831	
4588	0	4124	7114	4635	7013	978	0	32722	32631	32903	32495	32691	32559	33167	32738	
4589	0	4178	7108	4597	7020	979	0	32749	32647	32999	32545	32743	32739	32501	32855	
4590	0	4128	7136	4676	7001	980	0	32731	32686	32877	32495	32783	32701	32332	32903	
4591	0	4155	7128	4634	7037	981	0	32668	32495	32762	32438	32798	32968	32466	32939	
4592	0	4184	7136	4572	7043	982	0	32692	32535	32702	32553	32713	32660	32773	33072	
4593	0	4177	7107	4606	6969	983	0	32697	32276	32690	32553	32698	32735	33097	32703	
4594	0	4183	7114	4686	7040	984	0	32713	32484	32571	32759	32853	32791	32765	32603	
4595	0	4166	7089	4616	7022	985	0	32751	32509	32647	32866	32754	33007	32315	32565	
4596	0	4152	7106	4626	7028	986	0	32773	32671	32685	32711	32741	33021	32167	32380	
4597	0	4182	7102	4624	6991	987	0	32765	32445	32754	32668	32791	32662	32590	32318	
4598	0	4150	7074	4647	7012	988	0	32785	32756	32775	32703	32727	32865	33254	32189	
4599	0	4136	7112	4584	7010	989	0	32836	32677	32791	32647	32615	32604	33203	32143	
4600	0	4147	7103	4628	7022	990	0	32711	32713	32799	32679	32740	32783	33005	32202	
4601	0	4110	7082	4597	7060	991	0	32705	32615	32707	32749	32859	32591	32431	32331	
4602	0	4140	7094	4625	7036	992	0	32774	32791	32713	32809	33052	32699	32487	32549	
4603	0	4145	7097	4624	7024	993	0	32809	32724	32653	32751	32939	32566	32788	33008	
4604	0	4190	7052	4612	7021	994	0	32692	32590	32621	32767	32822	32749	33301	33415	
4605	0	4164	7096	4575	7020	995	0	32757	32639	32708	32641	32671	32687	33302	33553	
4606	0	4133	7084	4606	7052	996	0	32679	32615	32796	32719	32591	32757	32695	33388	
4607	0	4167	7036	4620	7036	997	0	32702	32674	32820	32765	32647	32694	32281	33187	
4608	0	4141	7139	4572	7051	998	0	32751	32539	32966	32703	32647	32804	32399	33203	
4609	0	4187	7090	4646	7075	999	0	32735	32665	32945	32885	32629	32528	32903	33037	
4610	0	4170	7051	4619	7053	1000	0	32811	32775	32873	32799	32767	32901	33241	32975	
4611	0	4176	7097	4596	7045	1001	0	32767	32628	32763	32870	32719	32821	32933	32929	
4612	0	4111	7116	4612	7105	1002	0	32715	32623	32627	32775	32663	32935	32194	32795	
4613	0	4152	7057	4650	7054	1003	0	32732	32519	32589	32775	32742	32735	31963	32590	
4614	0	4162	7072	4624	7048	1004	0	32755	32620	32574	32881	32758	32879	32249	32583	
4615	0	4145	7120	4592	7060	1005	0	32817	32727	32513	32743	32745	32761	32731	32534	
4616	0	4189	7127	4588	7080	1006	0	32766	32898	32554	32780	32756	32818	33110	32495	
4617	0	4153	7082	4608	7084	1007	0	32775	32883	32634	32735	32749	32815	33045	32681	
4618	0	4201	7112	4583	7070	1008	0	32771	32839	32617	32684	32726	32831	32319	32875	
4619	0	4184	7064	4624	7061	1009	0	32722	32791	32553	32687	32701	32831	32209	32947	
4620	0	4156	7118	4592	7075	1010	0	32812	32775	32575	32557	32632	32791	32625	32791	
4621	0	4170	7109	4582	7068	1011	0	32867	32631	32695	32621	32770	32719	33107	32758	
4622	0	4144	7097	4567	7057	1012	0	32866	32763	32679	32615	32759	32887	33191	32839	
4623	0	4200	7084	4611	7064	1013	0	32871	32596	32725	32583	32855	32839	32935	33003	
4624	0	4161	7121	4636	7078	1014	0	32873	32767	32783	32581	32758	32743	32431	32948	
4625	0	4171	7101	4596	7058	1015	0	32763	32647	32807	32612	32703	32834	32380	32804	
4626	0	4174	7138	4579	7084	1016	0	32700	32731	32921	32663	32839	32829	32807	32807	
4627	0	4162	7085	4617	7077	1017	0	32655	32751	32959	32615	32780	32621	33497	32775	
4628	0	4139	7074	4561	7128	1018	0	32671	32583	32959	32831	32591	32713	33391	32679	
4629	0	4160	7076	4593	7104	1019	0	32742	32737	32955	32796	32647	32609	32971	32519	
4630	0	4186	7064	4555	7090	1020	0	32698	32623	32889	32687	32607	32775	32352	32527	
4631	0	4194	7101	4599	7062	1021	0	32828	32767	32799	32807	32698	32612	32537	32519	
4632	0	4136	7076	4624	7080	1022	0	32830	32588	32748	32713	32725	32749	32987	32551	
4633	0	4129	7024	4587	7082	1023	0	32791	32668	32756	32655	32722	32660	33447	32551	
4634	0	4155	7068	4537	7105	1024	0	32676	32647	32736	32707	32737	32810	33170	32495	
4635	0	4221	7072	4568	7094	1025	0	32671	32743	32747	32647	32677	32612	32725	32582	
4636	0	4194	7081	4663	7088	1026	0	32749	32771	32915	32550	32551	32762	32262	32780	
4637	0	4160	7087	4563	7112	1027	0	32759	32679	32918	32500	32619	32598	32510	32823	
4638	0	4186	7118	4576	7084	1028	0	32724	32811	32988	32453	32493	32655	32736	32604	
4639	0	4177	7056	4575	7123	1029	0	32723	32678	33022	32373	32679	32501	33124	32805	
4640	0	4150	7074	4550	7096	1030	0	32715	32775	32915	32431	32709	32678	32997	32972	
4641	0	4159	7069	4563	7108	1031	0	32793	32615	32775	32535	32815	32899	32319	33058	
4642	0	4191	7008	4579	7106	1032	0	32725	32694	32747	32788	32803	32815	32205	32791	
4643	0	4152	7100	4585	7125	1033	0	32775	32640	32660	32965	32773	32786	32355	32557	
4644	0	4167	7086	4595	7118	1034	0	32764	32680	32646	32935	32753	32801	32950	32634	
4645	0	4137	7068	4565	7098	1035	0	32775	32703	32637	33082	32679	32887	33119	32495	
4646	0	4147	7038	4573	7141	1036	0	32871	32515	32703	33167	32684	32799	32917	32746	
4647	0	4136	7052	4557	7162	1037	0	32843	32578	32793	33295	32588	32827	32271	32787	
4648	0	4153	7068	4577	7140	1038	0	32857	32533	32879	33091	32647	32759	32359	32971	
4649	0	4108	7038	4549	7097	1039	0	32801	32695	32931	33019	32655	32863	32737	32963	
4650	0	4151	7087	4563	7118	1040	0	32831	32802	32949	32863	32751	32820	33287	32695	
4651	0	4149	7045	4496	7128	1041	0	32740	32831	32821	32747	32821	32773	33239	32655	
4652	0	4147	7048	4578	7132	1042	0	32736	32803	32574	32710	32759	32543	32983	32633	
4653	0	4205	7078	4560	7154	1043	0	32860	32671	32471	32631	32733	32753	32415	32630	
4654	0	4162	7067	4539	7128	1044	0	32871	32663	32574	32573	32738	32545	32396	32707	
4655	0	4168	7076	4600	7066	1045	0	32887	32573	32671	32416	32599	32730	32851	32959	
4656	0	4143	7051	4604	7186	1046	0	32836	32661	32772	32407	32623	32695	33153	33183	
4657	0	4157	7104	4561	7137	1047	0	32761	32691	32859	32377	32583	32850	33231	33207	
4658	0	4179	7103	4569	7087	1048	0	32665	32623	32790	32615	32626	32685	32708	33327	
4659	0	4173	7066	4552	7126	1049	0	32657	32718	32787	32786	32647	32790	32263	32855	
4660	0	4195	7076	4544	7139	1050	0	32671	32625	32724	32815	32711	32756	32303	32462	
4661	0	4139	7054	4493	7109	1051	0	32730	32671	32718	32747	32695	32911	32935	32599	
4662	0	4161	7029	4560	7173	1052	0	32801	32603	32716	32765	32727	32661	33302	32578	
4663	0	4169	7060	4588	7126	1053	0	32815	32711	32647	32775	32711	32763	32983	32607	
4664	0	4118	7078	4521	7152	1054	0	32701	32569	32703	32590	32717	32669	32545	32805	
4665	0	4164	7037	4580	7124	1055	0	32712	32695	32539	32641	32711	32861	32220	33019	
4666	0	4132	7044	4594	7145	1056	0	32828	32543	32516	32586	32679	32823	32373	32751	
4667	0	4133	7036	4536	7139	1057	0	32839	32713	32645	32798	32798	32723	32948	32775	
4668	0	4116	7057	4585	7096	1058	0	32785	32570	32775	32743	32881	32764	33082	32757	
4669	0	4124	7062	4524	7137	1059	0	32823	32679	32626	32719	32727	32743	32844	32775	
4670	0	4128	7054	4565	7158	1060	0	32908	32636	32711	32638	32637	32877	32252	32827	
4671	0	4102	7046	4543	7138	1061	0	32937	32622	32763	32789	32669	32817	31981	32749	
4672	0	4164	7064	4548	7125	1062	0	32804	32582	32920	32711	32617	32775	32351	32564	
4673	0	4133	7054	4520	7154	1063	0	32841	32572	32964	32740	32604	32991	33091	32595	
4674	0	4173	7064	4508	7122	1064	0	32816	32622	33047	32783	32495	32852	33181	32692	
4675	0	4142	7068	4545	7135	1065	0	32758	32687	33067	32959	32658	32903	32701	32751	
4676	0	4226	7060	4541	7138	1066	0	32743	32609	33039	32831	32788	32829	32221	32615	
4677	0	4169	7069	4558	7181	1067	0	32724	32749	32918	32810	32808	32838	32237	32735	
4678	0	4116	7063	4590	7127	1068	0	32680	32785	32877	32747	32658	32765	32695	32700	
4679	0	4174	7014	4560	7140	1069	0	32589	32534	32833	32751	32583	32799	33143	32647	
4680	0	4144	7042	4531	7133	1070	0	32583	32612	32845	32535	32573	32757	33221	32523	
4681	0	4145	7108	4563	7152	1071	0	32647	32428	32767	32543	32627	32793	32731	32639	
4682	0	4164	7030	4525	7182	1072	0	32690	32647	32775	32415	32647	32749	32327	32822	
4683	0	4167	7065	4526	7149	1073	0	32740	32703	32836	32613	32680	32689	32495	32868	
4684	0	4176	7044	4513	7140	1074	0	32802	32519	32769	32517	32694	32741	32975	32745	
4685	0	4163	7048	4561	7179	1075	0	32838	32671	32692	32538	32671	32585	33222	32852	
4686	0	4178	7095	4545	7147	1076	0	32818	32669	32573	32471	32715	32795	32990	33095	
4687	0	4132	7060	4548	7139	1077	0	32754	32685	32475	32707	32685	32693	32583	33135	
4688	0	4150	7042	4582	7156	1078	0	32750	32815	32557	32796	32807	32621	32415	32964	
4689	0	4169	7054	4527	7128	1079	0	32814	32767	32568	32732	32647	32795	32559	32807	
4690	0	4164	7076	4530	7164	1080	0	32780	32871	32562	32765	32678	32603	33220	32801	
4691	0	4137	7070	4568	7149	1081	0	32769	32762	32615	32835	32762	32857	33455	32743	
4692	0	4151	7052	4520	7166	1082	0	32766	32609	32756	32871	32735	32762	33133	32670	
4693	0	4150	7014	4518	7162	1083	0	32813	32724	32915	32679	32647	32668	32589	32739	
4694	0	4195	7085	4537	7178	1084	0	32839	32671	32919	32615	32605	32727	32475	32668	
4695	0	4180	7033	4515	7164	1085	0	32748	32545	32928	32610	32659	32621	32726	32623	
4696	0	4167	7027	4541	7161	1086	0	32688	32733	33071	32748	32655	32941	33189	32771	
4697	0	4178	7090	4535	7136	1087	0	32696	32711	32986	32775	32819	32855	33346	32799	
4698	0	4133	7026	4518	7164	1088	0	32665	32527	32843	32734	32613	32812	32975	32827	
4699	0	4161	7075	4548	7164	1089	0	32678	32733	32833	32673	32615	32732	32405	32911	
4700	0	4150	7048	4512	7145	1090	0	32779	32855	32815	32701	32766	32614	32244	32990	
4701	0	4160	7031	4484	7187	1091	0	32764	32593	32763	32598	32733	32751	32671	32935	
4702	0	4158	7058	4535	7128	1092	0	32716	32743	32703	32682	32725	32603	33215	32455	
4703	0	4180	7026	4514	7101	1093	0	32734	32695	32719	32727	32635	32843	33129	32604	
4704	0	4156	7032	4551	7189	1094	0	32788	32557	32745	32855	32659	32751	32727	32719	
4705	0	4174	7057	4522	7192	1095	0	32791	32716	32727	32934	32738	32810	32287	32709	
4706	0	4146	7061	4527	7174	1096	0	32801	32711	32757	32874	32786	32678	32389	32573	
4707	0	4122	7026	4530	7185	1097	0	32834	32599	32756	32842	32735	32465	32734	32606	
4708	0	4132	7072	4520	7202	1098	0	32773	32829	32804	32667	32659	32847	33114	32711	
4709	0	4126	7023	4542	7204	1099	0	32746	32761	32762	32655	32733	32783	33055	32642	
4710	0	4152	7049	4492	7132	1100	0	32799	32549	32739	32501	32737	32655	32585	32834	
4711	0	4144	7048	4539	7152	1101	0	32809	32700	32663	32568	32711	32759	32165	32898	
4712	0	4149	7051	4456	7193	1102	0	32722	32663	32692	32471	32615	32668	32391	32967	
4713	0	4109	7072	4505	7176	1103	0	32679	32644	32732	32605	32653	32839	32799	32647	
4714	0	4149	7034	4552	7138	1104	0	32732	32630	32743	32634	32621	32676	33297	32717	
4715	0	4141	7052	4547	7208	1105	0	32747	32447	32719	32759	32715	32868	32955	32816	
4716	0	4157	6984	4512	7182	1106	0	32734	32676	32703	32717	32709	32735	32467	32742	
4717	0	4137	7037	4520	7182	1107	0	32698	32747	32828	32887	32663	32873	32227	32716	
4718	0	4146	7040	4531	7202	1108	0	32705	32527	32898	32823	32647	32903	32223	32626	
4719	0	4130	7054	4485	7172	1109	0	32717	32731	32978	32767	32607	32672	32841	32663	
4720	0	4173	7012	4508	7175	1110	0	32771	32713	32959	32735	32743	32707	33063	32615	
4721	0	4136	7062	4540	7153	1111	0	32761	32771	33025	32903	32743	32557	32763	32591	
4722	0	4137	7030	4485	7172	1112	0	32781	32821	33036	32647	32775	32886	32358	32645	
4723	0	4142	7068	4518	7182	1113	0	32807	32679	32991	32547	32614	32857	32016	32698	
4724	0	4148	7022	4483	7178	1114	0	32863	32945	32902	32539	32587	32858	32528	32727	
4725	0	4133	7024	4550	7192	1115	0	32902	32899	32717	32698	32661	32749	33159	32689	
4726	0	4160	7016	4581	7184	1116	0	32926	32935	32550	32796	32657	32683	33199	32715	
4727	0	4154	7050	4550	7190	1117	0	32887	32823	32489	32738	32591	32751	32799	32615	
4728	0	4156	7038	4522	7162	1118	0	32944	32870	32452	32804	32694	32742	32329	32567	
4729	0	4120	7012	4604	7160	1119	0	32887	32599	32461	32833	32706	32854	32373	32715	
4730	0	4133	7015	4536	7128	1120	0	32954	32767	32439	32780	32809	32775	32884	32766	
4731	0	4130	7038	4511	7157	1121	0	32882	32775	32461	32775	32717	32757	33373	32775	
4732	0	4159	7002	4520	7179	1122	0	32871	32732	32567	32799	32705	32801	33220	32759	
4733	0	4146	7052	4582	7140	1123	0	32848	32727	32617	32695	32716	32853	32711	32735	
4734	0	4122	7008	4557	7198	1124	0	32750	32647	32671	32655	32727	32847	32309	32863	
4735	0	4137	7034	4569	7203	1125	0	32698	32717	32743	32692	32694	32838	32428	32887	
4736	0	4156	7012	4576	7176	1126	0	32683	32695	32684	32623	32763	32680	33019	32885	
4737	0	4177	7024	4503	7168	1127	0	32688	32710	32623	32575	32732	32811	33247	32878	
4738	0	4163	7039	4582	7172	1128	0	32620	32529	32702	32573	32711	32703	33187	32796	
4739	0	4128	7034	4504	7168	1129	0	32550	32463	32836	32564	32743	32711	32512	32793	
4740	0	4155	7016	4503	7209	1130	0	32468	32359	32789	32479	32739	32630	32242	32797	
4741	0	4184	7017	4505	7183	1131	0	32428	32344	32669	32568	32890	32805	32553	32775	
4742	0	4134	7038	4526	7184	1132	0	32503	32168	32633	32381	32839	32707	33071	32783	
4743	0	4176	7052	4523	7180	1133	0	32486	32391	32596	32423	32789	32897	33531	32725	
4744	0	4160	7040	4536	7152	1134	0	32592	32201	32551	32485	32695	32775	33191	32727	
4745	0	4176	7027	4542	7144	1135	0	32639	32425	32497	32665	32671	32951	32683	32775	
4746	0	4182	7050	4542	7241	1136	0	32593	32361	32519	32466	32609	32699	32316	32875	
4747	0	4144	6979	4523	7220	1137	0	32586	32217	32530	32521	32589	32977	32784	32781	
4748	0	4166	7065	4489	7209	1138	0	32581	32251	32550	32471	32695	32847	33192	32757	
4749	0	4097	7043	4543	7208	1139	0	32582	32273	32615	32675	32879	32888	33351	32903	
4750	0	4143	7048	4576	7190	1140	0	32825	32704	32701	32803	32903	32676	32898	33143	
4751	0	4173	7014	4510	7178	1141	0	32948	32957	32887	32934	32943	32555	32239	33323	
4752	0	4129	7040	4529	7210	1142	0	32940	32829	32884	32935	32823	32628	32383	33149	
4753	0	4162	7030	4553	7208	1143	0	32978	33034	32998	33020	32809	32507	32775	33060	
4754	0	4154	7075	4543	7195	1144	0	32873	33029	32999	32909	32887	32735	33295	32865	
4755	0	4193	7028	4520	7205	1145	0	32755	32782	32919	32911	32655	32647	33139	32894	
4756	0	4162	6979	4557	7190	1146	0	32737	32903	32911	33026	32631	32569	32621	32955	
4757	0	4140	7025	4569	7232	1147	0	32684	33015	32988	33239	32723	32637	32082	32999	
4758	0	4191	7016	4588	7220	1148	0	32663	32924	32978	33285	32925	32412	32377	32935	
4759	0	4167	7069	4555	7206	1149	0	32527	33072	33147	33067	32914	32599	32942	33005	
4760	0	4179	7049	4544	7255	1150	0	32416	33029	33230	32927	32845	32614	33151	32919	
4761	0	4146	7053	4574	7253	1151	0	32387	32829	33199	32775	32709	32463	33026	32769	
4762	0	4132	7016	4554	7197	1152	0	32380	32978	33095	32767	32775	32707	32469	32834	
4763	0	4125	7018	4592	7190	1153	0	32417	32903	32928	32759	32711	32703	32157	32822	
4764	0	4144	7065	4544	7190	1154	0	32484	32661	32972	32804	32647	32807	32525	32671	
4765	0	4157	7020	4571	7253	1155	0	32495	32801	32851	32853	32514	32790	33061	32769	
4766	0	4179	7042	4539	7214	1156	0	32445	32806	32863	32827	32639	32635	33229	32733	
4767	0	4159	7034	4580	7254	1157	0	32553	32914	32769	32951	32784	32679	32783	32727	
4768	0	4133	7035	4580	7253	1158	0	32719	32899	32687	32867	32700	32605	32373	32724	
4769	0	4135	7048	4601	7224	1159	0	32786	32887	32659	32911	32581	32794	32304	32719	
4770	0	4132	7050	4617	7209	1160	0	32814	32652	32646	32820	32543	32807	32749	32786	
4771	0	4116	7012	4606	7204	1161	0	32898	32791	32726	32793	32623	32676	33111	32723	
4772	0	4148	7066	4573	7229	1162	0	32977	32867	32793	32689	32667	32895	33206	32679	
4773	0	4091	7045	4569	7232	1163	0	33013	32642	32804	32583	32703	32807	32729	32549	
4774	0	4162	7060	4556	7264	1164	0	33062	32711	32818	32639	32581	32924	32125	32450	
4775	0	4173	7062	4582	7230	1165	0	33022	32591	32767	32540	32583	32831	32331	32455	
4776	0	4153	7035	4518	7256	1166	0	32934	32713	32775	32581	32477	32839	32749	32457	
4777	0	4182	7086	4548	7280	1167	0	32971	32695	32796	32565	32468	32820	33220	32559	
4778	0	4121	7032	4593	7264	1168	0	33091	32578	32809	32573	32489	32717	32995	32479	
4779	0	4153	7041	4562	7236	1169	0	33142	32711	32694	32438	32643	32718	32677	32461	
4780	0	4201	7044	4620	7269	1170	0	33182	32587	32677	32539	32969	32591	32211	32391	
4781	0	4118	7018	4596	7260	1171	0	33240	32775	32615	32699	32778	32720	32353	32309	
4782	0	4150	7009	4612	7280	1172	0	33125	32567	32600	32599	32679	32798	32692	32404	
4783	0	4124	7034	4575	7230	1173	0	33199	32764	32647	32628	32623	32855	33036	32575	
4784	0	4141	7035	4629	7218	1174	0	33053	32673	32543	32631	32758	32775	33007	32583	
4785	0	4175	7037	4560	7211	1175	0	33018	32823	32539	32775	32753	32819	32404	32679	
4786	0	4170	7030	4633	7208	1176	0	32953	32775	32551	32711	32684	32666	32061	32683	
4787	0	4120	7034	4600	7286	1177	0	32928	32573	32557	32732	32702	32903	32428	32769	
4788	0	4131	7020	4612	7269	1178	0	32865	32702	32631	32661	32641	32695	33056	32743	
4789	0	4174	7022	4587	7208	1179	0	32835	32538	32639	32815	32707	32829	33198	32807	
4790	0	4150	7034	4569	7224	1180	0	32854	32775	32711	32743	32663	32647	33125	32963	
4791	0	4162	7036	4603	7203	1181	0	32813	32719	32669	32767	32799	32767	32527	32919	
4792	0	4141	7045	4617	7227	1182	0	32713	32583	32671	32679	32743	32742	32365	32852	
4793	0	4184	7032	4590	7246	1183	0	32692	32699	32700	32703	32767	32811	32493	32843	
4794	0	4165	7014	4603	7254	1184	0	32668	32534	32757	32539	32791	32757	33089	32839	
4795	0	4164	7034	4626	7262	1185	0	32663	32581	32924	32525	32789	32819	33401	32785	
4796	0	4163	7026	4586	7262	1186	0	32706	32493	32977	32526	32663	32889	32875	32631	
4797	0	4160	7025	4624	7268	1187	0	32636	32667	33075	32485	32634	32694	32552	32735	
4798	0	4132	7005	4562	7288	1188	0	32573	32563	33106	32439	32679	32839	32298	32749	
4799	0	4166	7032	4609	7285	1189	0	32603	32681	32975	32468	32805	32736	32698	32763	
4800	0	4190	7019	4610	7312	1190	0	32621	32635	32869	32495	32775	32727	33105	32772	
4801	0	4096	7021	4580	7268	1191	0	32602	32501	32835	32563	32775	32791	33265	32815	
4802	0	4111	7013	4631	7282	1192	0	32614	32583	32735	32631	32839	32839	32887	32767	
4803	0	4130	7007	4578	7244	1193	0	32633	32455	32718	32503	32815	32511	32351	32879	
4804	0	4137	7046	4612	7226	1194	0	32718	32583	32735	32626	32687	32715	32415	32911	
4805	0	4153	7004	4644	7249	1195	0	32732	32524	32607	32647	32660	32549	32772	32948	
4806	0	4110	6995	4623	7220	1196	0	32780	32655	32660	32791	32707	32751	33255	32805	
4807	0	4136	7038	4626	7236	1197	0	32758	32605	32557	32903	32863	32615	33287	32809	
4808	0	4201	7009	4624	7275	1198	0	32742	32725	32611	32927	32819	32727	32818	32734	
4809	0	4184	7023	4592	7248	1199	0	32744	32756	32557	32721	32775	32615	32439	32850	
4810	0	4140	7062	4602	7279	1200	0	32743	32722	32487	32719	32796	32861	32365	32837	
4811	0	4126	6997	4622	7252	1201	0	32719	32749	32463	32670	32695	32739	33027	32734	
4812	0	4152	7021	4627	7243	1202	0	32782	32566	32540	32762	32570	32919	33383	32847	
4813	0	4126	7006	4576	7274	1203	0	32788	32723	32647	32854	32565	32791	33239	32759	
4814	0	4129	7024	4624	7261	1204	0	32790	32679	32647	32893	32541	32769	32511	32815	
4815	0	4152	6995	4621	7264	1205	0	32769	32765	32731	33045	32671	32799	32307	32820	
4816	0	4105	7026	4573	7273	1206	0	32692	32703	32817	32975	32599	32887	32527	32972	
4817	0	4161	7042	4593	7296	1207	0	32668	32564	32813	32899	32705	32877	33005	32861	
4818	0	4119	7056	4592	7262	1208	0	32716	32683	32774	32708	32711	32753	33202	32813	
4819	0	4150	7014	4642	7267	1209	0	32807	32550	33012	32559	32743	32771	33001	32789	
4820	0	4112	7015	4616	7277	1210	0	32775	32617	33067	32411	32703	32561	32462	32723	
4821	0	4109	7048	4630	7265	1211	0	32716	32531	33075	32455	32682	32743	32169	32743	
4822	0	4139	7011	4615	7229	1212	0	32786	32677	32972	32405	32727	32724	32599	32698	
4823	0	4135	7014	4617	7240	1213	0	32701	32549	32970	32487	32658	32813	33103	32608	
4824	0	4131	7013	4611	7292	1214	0	32570	32612	33027	32690	32663	32822	33131	32660	
4825	0	4134	7048	4610	7248	1215	0	32578	32676	32941	32811	32819	32759	32941	32655	
4826	0	4075	7011	4620	7270	1216	0	32615	32735	32903	32925	32793	32758	32331	32722	
4827	0	4136	7013	4638	7300	1217	0	32647	32735	32801	32879	32749	32558	32367	32857	
4828	0	4091	7005	4608	7273	1218	0	32719	32599	32806	32929	32809	32759	32671	32825	
4829	0	4136	7024	4626	7301	1219	0	32710	32727	32773	32838	32727	32519	33266	32855	
4830	0	4092	7013	4592	7248	1220	0	32751	32575	32767	32711	32623	32739	33185	32797	
4831	0	4100	6982	4616	7246	1221	0	32743	32662	32746	32757	32640	32623	32705	32767	
4832	0	4097	6985	4642	7236	1222	0	32772	32570	32583	32687	32662	32804	32253	32663	
4833	0	4122	7042	4615	7192	1223	0	32775	32729	32579	32726	32676	32657	32319	32765	
4834	0	4086	7016	4668	7257	1224	0	32799	32671	32569	32679	32749	32855	32813	32773	
4835	0	4078	7007	4578	7282	1225	0	32777	32769	32557	32743	32735	32735	33019	32731	
4836	0	4091	6987	4636	7265	1226	0	32775	32694	32599	32821	32699	32799	33075	32851	
4837	0	4120	7040	4676	7295	1227	0	32690	32767	32589	32821	32721	32782	32467	32743	
4838	0	4086	6996	4588	7268	1228	0	32713	32553	32615	32841	32695	32813	32003	32666	
4839	0	4154	6983	4616	7264	1229	0	32775	32663	32685	32633	32725	32860	32382	32845	
4840	0	4131	6987	4643	7224	1230	0	32815	32586	32713	32647	32691	32551	32965	32871	
4841	0	4129	7030	4650	7267	1231	0	32764	32727	32772	32486	32707	32773	33159	32887	
4842	0	4117	6967	4608	7248	1232	0	32781	32613	32869	32589	32647	32636	33159	32802	
4843	0	4114	7024	4664	7268	1233	0	32833	32742	32863	32603	32621	32807	32559	32757	
4844	0	4129	7016	4626	7238	1234	0	32737	32775	32828	32699	32669	32605	32391	32775	
4845	0	4133	7002	4650	7253	1235	0	32764	32676	32802	32681	32689	32812	32564	32822	
4846	0	4088	7002	4684	7256	1236	0	32737	32647	32826	32721	32795	32709	33154	32711	
4847	0	4119	6956	4621	7250	1237	0	32781	32510	32797	32751	32683	32878	33372	32487	
4848	0	4161	6998	4627	7227	1238	0	32898	32679	32767	32895	32713	32751	32955	32715	
4849	0	4077	7018	4647	7236	1239	0	32908	32662	32796	32861	32695	32851	32541	32849	
4850	0	4096	6992	4644	7257	1240	0	32848	32751	32668	32959	32809	32807	32357	32917	
4851	0	4121	6990	4636	7256	1241	0	32841	32556	32553	32908	32723	32935	32759	33001	
4852	0	4098	6998	4672	7278	1242	0	32784	32734	32495	32709	32647	32578	33271	32811	
4853	0	4091	7063	4674	7233	1243	0	32703	32571	32535	32886	32647	32787	33302	32835	
4854	0	4093	7024	4654	7268	1244	0	32687	32679	32615	32885	32623	32647	32799	32749	
4855	0	4106	7013	4656	7313	1245	0	32713	32615	32617	32837	32703	32892	32324	32815	
4856	0	4120	7019	4619	7239	1246	0	32732	32751	32663	32828	32713	32796	32352	32839	
4857	0	4089	7012	4604	7239	1247	0	32722	32807	32679	32735	32775	32821	32859	32862	
4858	0	4067	7000	4598	7289	1248	0	32770	32858	32690	32677	32773	32503	33240	32734	
4859	0	4129	6995	4592	7240	1249	0	32760	32801	32701	32491	32767	32900	33191	32683	
4860	0	4079	7003	4643	7212	1250	0	32791	32689	32789	32547	32719	32815	32495	32757	
4861	0	4090	7026	4667	7279	1251	0	32726	32807	32791	32626	32831	32602	32089	32575	
4862	0	4058	6996	4645	7276	1252	0	32787	32632	32793	32609	32901	32745	32461	32695	
4863	0	4072	6964	4654	7253	1253	0	32742	32703	32807	32534	32771	32635	33007	32693	
4864	0	4085	6989	4648	7229	1254	0	32756	32627	32806	32647	32687	32720	33118	32644	
4865	0	4043	7013	4654	7228	1255	0	32769	32702	32793	32659	32796	32591	33031	32615	
4866	0	4093	6985	4675	7241	1256	0	32773	32695	32873	32642	32739	32692	32455	32542	
4867	0	4081	7032	4632	7238	1257	0	32841	32661	32927	32719	32681	32596	32217	32687	
4868	0	4096	6979	4668	7210	1258	0	32842	32623	32868	32768	32711	32862	32453	32879	
4869	0	4090	6962	4703	7261	1259	0	32714	32537	32895	32671	32825	32799	33078	32797	
4870	0	4072	6968	4616	7243	1260	0	32671	32614	32831	32825	32703	32613	33239	32748	
4871	0	4097	6982	4649	7242	1261	0	32742	32647	32775	32769	32679	32748	32862	32747	
4872	0	4107	7012	4602	7254	1262	0	32691	32707	32727	32853	32701	32508	32220	32705	
4873	0	4090	6985	4680	7216	1263	0	32663	32577	32793	32822	32784	32783	32085	32824	
4874	0	4110	6958	4638	7246	1264	0	32706	32701	32835	32743	32687	32838	32367	32789	
4875	0	4080	6989	4598	7219	1265	0	32726	32667	32900	32743	32608	32807	32790	32813	
4876	0	4047	7024	4641	7200	1266	0	32806	32646	32793	32629	32623	32758	33039	32805	
4877	0	4052	6962	4661	7226	1267	0	32764	32677	32805	32725	32775	32678	32517	32893	
4878	0	4091	6959	4622	7294	1268	0	32716	32665	32683	32547	32701	32725	32111	33075	
4879	0	4047	6960	4688	7222	1269	0	32802	32809	32535	32697	32759	32791	32188	33039	
4880	0	3994	7008	4624	7257	1270	0	32879	32807	32554	32529	32813	32652	32810	32803	
4881	0	4066	6989	4670	7239	1271	0	32826	32719	32733	32679	32731	32822	33358	32871	
4882	0	4084	6980	4617	7193	1272	0	32825	32791	32775	32675	32670	32823	33235	32735	
4883	0	3996	6956	4641	7241	1273	0	32757	32573	32855	32535	32727	32847	32687	32797	
4884	0	4067	6939	4688	7252	1274	0	32774	32715	32861	32658	32775	32708	32363	32662	
4885	0	4066	6993	4657	7246	1275	0	32782	32659	32871	32592	32765	32767	32640	32766	
4886	0	4076	6984	4681	7235	1276	0	32771	32690	32903	32526	32691	32681	33124	32767	
4887	0	4015	6980	4650	7252	1277	0	32762	32703	32895	32575	32731	32791	33415	32773	
4888	0	4067	6955	4663	7232	1278	0	32741	32711	32863	32731	32791	32739	33142	32765	
4889	0	4031	6958	4668	7245	1279	0	32667	32691	32871	32787	32853	32847	32491	32748	
4890	0	4092	6939	4672	7250	1280	0	32671	32683	32847	32882	32815	32849	32354	32804	
4891	0	4040	7005	4612	7226	1281	0	32700	32647	32919	32956	32773	32796	32735	32797	
4892	0	4017	6978	4699	7216	1282	0	32711	32711	32893	32903	32761	32863	33062	32841	
4893	0	4047	6975	4657	7237	1283	0	32788	32803	32890	33045	32647	32814	33415	32914	
4894	0	4053	6982	4710	7273	1284	0	32843	32767	32838	32871	32671	32903	32949	32820	
4895	0	4037	6981	4647	7240	1285	0	32850	32726	32759	32831	32559	32751	32399	32691	
4896	0	4037	6944	4692	7293	1286	0	32785	32553	32822	32663	32668	32684	32292	32637	
4897	0	4016	6978	4659	7268	1287	0	32803	32724	32723	32817	32679	32757	32743	32584	
4898	0	4101	6930	4688	7258	1288	0	32812	32866	32645	32700	32711	32630	33303	32609	
4899	0	4034	6986	4656	7275	1289	0	32713	32786	32667	32749	32775	32745	33343	32791	
4900	0	4064	6989	4697	7284	1290	0	32692	32659	32641	32589	32775	32711	32751	32674	
4901	0	4029	6961	4679	7287	1291	0	32727	32811	32629	32595	32634	32714	32430	32620	
4902	0	4035	6958	4662	7282	1292	0	32732	32751	32636	32484	32677	32570	32559	32621	
4903	0	3995	6980	4650	7246	1293	0	32724	32571	32609	32524	32722	32869	33089	32685	
4904	0	4067	6948	4712	7237	1294	0	32721	32658	32691	32603	32735	32632	33367	32843	
4905	0	4064	6950	4728	7257	1295	0	32783	32660	32735	32564	32707	32775	33138	32719	
4906	0	4044	6974	4692	7237	1296	0	32791	32663	32788	32629	32765	32705	32661	32821	
4907	0	3975	7002	4681	7257	1297	0	32760	32621	32957	32518	32879	32743	32203	32672	
4908	0	4057	6968	4686	7248	1298	0	32766	32644	32860	32638	32879	32685	32544	32598	
4909	0	4034	6982	4657	7260	1299	0	32745	32647	32891	32763	32725	32743	33011	32694	
4910	0	4014	6966	4695	7216	1300	0	32800	32674	32839	32855	32671	32519	33276	32711	
4911	0	4079	6956	4695	7232	1301	0	32775	32514	32807	32759	32797	32611	32791	32551	
4912	0	3989	6956	4703	7266	1302	0	32789	32698	32823	32762	32775	32591	32359	32579	
4913	0	4014	6943	4680	7259	1303	0	32764	32738	32681	32759	32703	32805	32180	32581	
4914	0	4046	6967	4680	7278	1304	0	32769	32671	32584	32868	32791	32642	32587	32647	
4915	0	3982	6928	4716	7270	1305	0	32773	32773	32567	32866	32708	32854	33078	32688	
4916	0	4034	6948	4696	7267	1306	0	32743	32658	32555	32903	32690	32583	33131	32711	
4917	0	4004	6918	4734	7304	1307	0	32714	32723	32531	32850	32637	32687	32761	32615	
4918	0	4034	6972	4685	7246	1308	0	32734	32635	32615	32679	32559	32644	32311	32685	
4919	0	4040	6942	4649	7231	1309	0	32775	32807	32647	32707	32615	32697	32295	32751	
4920	0	3982	6982	4704	7252	1310	0	32852	32617	32790	32562	32567	32817	32710	32927	
4921	0	4011	6943	4692	7232	1311	0	32860	32735	32781	32602	32759	32788	33199	33079	
4922	0	4002	6923	4721	7262	1312	0	32803	32823	32796	32639	32775	32738	33206	33046	
4923	0	4027	6944	4664	7270	1313	0	32815	32701	32685	32635	32771	32757	32587	33177	
4924	0	4021	6927	4697	7326	1314	0	32783	32739	32754	32806	32823	32762	32263	33086	
4925	0	4028	6890	4710	7312	1315	0	32817	32639	32751	32746	32797	32812	32359	32865	
4926	0	3994	6927	4744	7275	1316	0	32817	32667	32850	32751	32772	32835	32519	32735	
4927	0	3991	6934	4715	7276	1317	0	32770	32477	32903	32487	32695	32725	33138	32709	
4928	0	4010	6944	4706	7253	1318	0	32748	32620	32957	32577	32753	32845	32994	32747	
4929	0	3988	6930	4685	7277	1319	0	32742	32535	32811	32577	32702	32580	32359	32687	
4930	0	4028	6962	4700	7260	1320	0	32735	32689	32949	32723	32643	32852	32177	32719	
4931	0	4002	6941	4716	7243	1321	0	32804	32615	33101	32789	32592	32639	32287	32558	
4932	0	4010	6950	4704	7263	1322	0	32816	32743	33074	32752	32731	32804	32864	32543	
4933	0	4027	6924	4744	7260	1323	0	32799	32582	32962	32639	32721	32635	33076	32739	
4934	0	4015	6921	4712	7265	1324	0	32806	32703	32996	32565	32719	32798	33085	32900	
4935	0	3981	6900	4718	7277	1325	0	32780	32591	32927	32647	32703	32631	32565	32978	
4936	0	3984	6921	4709	7248	1326	0	32757	32655	32897	32506	32647	32767	32209	32892	
4937	0	3981	6912	4734	7272	1327	0	32815	32792	32756	32600	32583	32564	32317	32673	
4938	0	3986	6957	4720	7309	1328	0	32755	32578	32786	32322	32598	32767	32980	32621	
4939	0	3992	6928	4726	7299	1329	0	32748	32707	32766	32505	32830	32559	33172	32803	
4940	0	4011	6946	4723	7301	1330	0	32690	32579	32775	32595	32771	32763	32973	32835	
4941	0	3958	6948	4708	7265	1331	0	32768	32757	32799	32761	32793	32559	32415	32871	
4942	0	3980	6896	4725	7306	1332	0	32699	32699	32687	33018	32742	32710	32363	32847	
4943	0	3968	6963	4724	7284	1333	0	32731	32745	32698	32825	32631	32548	32642	32738	
4944	0	4019	6922	4768	7264	1334	0	32672	32655	32695	32788	32672	32691	33287	32655	
4945	0	3986	6908	4732	7273	1335	0	32732	32524	32679	32733	32647	32612	33415	32658	
4946	0	3988	6905	4758	7266	1336	0	32686	32542	32660	32879	32775	32789	32959	32659	
4947	0	3980	6893	4772	7288	1337	0	32720	32567	32734	32859	32733	32519	32571	32647	
4948	0	3971	6875	4746	7280	1338	0	32717	32743	32724	33021	32660	32797	32539	32551	
4949	0	4024	6929	4736	7272	1339	0	32756	32766	32671	32933	32637	32692	33007	32659	
4950	0	4020	6942	4749	7285	1340	0	32756	32599	32675	32730	32591	32978	33394	32708	
4951	0	3971	6962	4757	7284	1341	0	32823	32690	32668	32519	32655	32901	33182	32671	
4952	0	4015	6911	4732	7300	1342	0	32884	32659	32653	32607	32603	32927	32827	32551	
4953	0	4014	6933	4748	7298	1343	0	32825	32799	32694	32587	32643	32834	32346	32730	
4954	0	3968	6902	4748	7311	1344	0	32820	32815	32678	32868	32727	32870	32463	32836	
4955	0	4015	6928	4720	7237	1345	0	32770	32530	32643	32681	32837	32871	33009	32889	
4956	0	3990	6916	4746	7299	1346	0	32742	32655	32621	32655	32831	32898	33255	32862	
4957	0	4024	6918	4786	7311	1347	0	32703	32747	32559	32553	32660	32695	33167	33020	
4958	0	4002	6924	4809	7304	1348	0	32682	32631	32669	32679	32698	32694	32470	33239	
4959	0	4027	6896	4719	7338	1349	0	32733	32693	32621	32733	32704	32751	32091	33024	
4960	0	3956	6920	4741	7303	1350	0	32802	32758	32600	32736	32807	32554	32414	33049	
4961	0	4012	6934	4708	7292	1351	0	32681	32639	32799	32806	32717	32717	32663	33191	
4962	0	3996	6936	4754	7314	1352	0	32698	32645	32855	32851	32683	32564	33023	32967	
4963	0	4013	6899	4772	7317	1353	0	32742	32549	32935	32751	32689	32863	32837	32931	
4964	0	4036	6908	4755	7299	1354	0	32750	32599	32933	32811	32719	32570	32349	32799	
4965	0	3958	6870	4761	7322	1355	0	32794	32799	32859	32879	32785	32754	32256	32865	
4966	0	3966	6932	4777	7307	1356	0	32782	32641	32839	32916	32727	32508	32502	32731	
4967	0	4023	6879	4766	7312	1357	0	32758	32636	32742	32929	32732	32824	33071	32731	
4968	0	4021	6902	4764	7320	1358	0	32719	32647	32662	32847	32701	32707	33375	32668	
4969	0	4008	6860	4781	7356	1359	0	32764	32687	32647	32797	32599	32900	32859	32602	
4970	0	4003	6880	4732	7348	1360	0	32769	32647	32711	32804	32679	32789	32356	32691	
4971	0	4004	6884	4748	7345	1361	0	32845	32658	32724	32759	32850	32867	32423	32830	
4972	0	4000	6853	4779	7360	1362	0	32767	32807	32703	32656	32727	32743	32767	32849	
4973	0	4012	6856	4754	7306	1363	0	32764	32795	32638	32485	32685	32891	33311	32685	
4974	0	3959	6843	4754	7340	1364	0	32808	32813	32615	32575	32731	32615	33311	32647	
4975	0	3965	6864	4742	7344	1365	0	32805	32676	32597	32571	32796	32775	32721	32590	
4976	0	3993	6895	4789	7342	1366	0	32794	32767	32638	32751	32733	32637	32341	32708	
4977	0	3960	6845	4776	7350	1367	0	32741	32771	32717	32685	32722	32751	32473	32748	
4978	0	3984	6864	4776	7349	1368	0	32742	32655	32711	32731	32683	32711	32978	32839	
4979	0	4012	6896	4766	7328	1369	0	32714	32719	32623	32700	32671	32748	33317	32603	
4980	0	3997	6853	4736	7337	1370	0	32718	32551	32623	32615	32645	32647	32959	32591	
4981	0	3958	6881	4715	7324	1371	0	32760	32612	32569	32687	32623	32690	32519	32711	
4982	0	3922	6852	4750	7380	1372	0	32724	32621	32604	32675	32647	32631	32093	32788	
4983	0	3949	6850	4773	7364	1373	0	32762	32783	32733	32727	32628	32828	32502	32695	
4984	0	3954	6873	4770	7371	1374	0	32809	32764	32828	32602	32751	32647	32996	32605	
4985	0	3984	6880	4746	7345	1375	0	32749	32742	32807	32609	32827	32767	33215	32658	
4986	0	3938	6888	4747	7330	1376	0	32800	32703	32833	32674	32763	32634	32993	32743	
4987	0	4014	6839	4708	7386	1377	0	32828	32583	32847	32628	32773	32734	32341	32775	
4988	0	3972	6876	4727	7342	1378	0	32704	32647	32837	32599	32754	32522	32183	32608	
4989	0	4002	6891	4715	7273	1379	0	32769	32762	32844	32735	32718	32825	32532	32748	
4990	0	3972	6878	4715	7328	1380	0	32706	32527	32845	32662	32679	32765	32927	32742	
4991	0	3941	6881	4745	7327	1381	0	32858	32877	32854	32767	32758	32671	33209	32847	
4992	0	3977	6852	4720	7342	1382	0	32817	32799	32919	32709	32726	32883	32900	32631	
4993	0	3964	6849	4748	7336	1383	0	32829	32791	32839	32679	32772	32751	32331	32775	
4994	0	3952	6877	4715	7372	1384	0	32796	32723	32831	32836	32722	33039	32375	32764	
4995	0	3973	6864	4676	7320	1385	0	32775	32559	32815	32940	32754	32883	32736	32724	
4996	0	3965	6889	4731	7368	1386	0	32767	32647	32850	32788	32758	32900	33350	32716	
4997	0	3954	6820	4713	7306	1387	0	32708	32647	32775	32751	32623	32639	33407	32498	
4998	0	3989	6857	4736	7381	1388	0	32678	32647	32807	32869	32615	32963	32967	32759	
4999	0	3910	6845	4688	7356	1389	0	32653	32607	32742	32821	32819	32743	32405	32836	
5000	0	3997	6875	4680	7388	1390	0	32751	32605	32747	32715	32844	32895	32505	32865	
5001	0	3929	6841	4646	7341	1391	0	32838	32641	32705	32437	32799	32625	32993	32812	
5002	0	3958	6838	4711	7341	1392	0	32825	32475	32742	32367	32775	32804	33248	32927	
5003	0	3968	6838	4684	7348	1393	0	32799	32643	32677	32382	32759	32663	33269	33055	
5004	0	3970	6838	4654	7342	1394	0	32818	32743	32715	32510	32799	32775	32694	32885	
5005	0	3923	6828	4678	7360	1395	0	32743	32575	32748	32607	32565	32707	32268	32847	
5006	0	3922	6830	4689	7408	1396	0	32719	32647	32767	32743	32623	32848	32357	32679	
5007	0	3934	6844	4665	7375	1397	0	32736	32633	32831	32812	32686	32535	32914	32572	
5008	0	3967	6806	4692	7365	1398	0	32831	32824	32814	32919	32669	32711	33182	32567	
5009	0	3927	6781	4644	7344	1399	0	32813	32821	32719	32884	32609	32735	33143	32567	
5010	0	3952	6818	4670	7344	1400	0	32812	32703	32735	32786	32637	32571	32535	32687	
5011	0	3945	6841	4660	7358	1401	0	32729	32735	32867	32963	32642	32775	32237	32806	
5012	0	3961	6825	4716	7363	1402	0	32743	32615	32850	33045	32611	32900	32439	32786	
5013	0	3971	6820	4652	7364	1403	0	32751	32690	32828	33155	32615	32775	32893	32791	
5014	0	3949	6831	4648	7339	1404	0	32858	32709	32844	32869	32643	32900	33175	32817	
5015	0	3907	6756	4696	7304	1405	0	32887	32745	32725	32824	32615	32693	32847	32811	
5016	0	3953	6745	4645	7376	1406	0	32841	32679	32757	32925	32603	32775	32214	32831	
5017	0	3969	6813	4640	7376	1407	0	32828	32847	32717	33056	32621	32631	31990	32835	
5018	0	3946	6750	4632	7328	1408	0	32760	32678	32653	33223	32658	32786	32261	32775	
5019	0	3943	6760	4624	7350	1409	0	32726	32912	32767	33269	32647	32871	32884	32843	
5020	0	3953	6780	4690	7368	1410	0	32658	32711	32707	33006	32685	32575	32890	32725	
5021	0	3972	6822	4645	7360	1411	0	32591	32839	32593	33001	32719	32721	32775	32799	
5022	0	3927	6816	4618	7368	1412	0	32688	32687	32695	32775	32695	32724	32273	32987	
5023	0	3954	6818	4698	7403	1413	0	32733	32799	32677	32515	32656	32729	32260	33089	
5024	0	3918	6757	4584	7390	1414	0	32742	32605	32624	32532	32666	32805	32751	32924	
5025	0	3969	6787	4682	7414	1415	0	32713	32705	32754	32487	32811	32696	33215	32827	
5026	0	3914	6794	4667	7378	1416	0	32730	32545	32869	32548	32751	32775	33423	32527	
5027	0	3947	6808	4585	7350	1417	0	32719	32643	32879	32541	32727	32551	33005	32587	
5028	0	3956	6807	4614	7349	1418	0	32804	32481	32854	32480	32763	32879	32498	32665	
5029	0	3941	6800	4601	7390	1419	0	32851	32775	32801	32465	32759	32617	32594	32681	
5030	0	3941	6816	4661	7360	1420	0	32799	32631	32793	32444	32742	32831	33024	32817	
5031	0	3973	6783	4569	7358	1421	0	32751	32660	32807	32615	32679	32736	33287	32919	
5032	0	3979	6779	4604	7369	1422	0	32738	32582	32795	32641	32772	32810	33231	32853	
5033	0	3946	6789	4573	7420	1423	0	32790	32647	32862	32559	32701	32915	32737	32846	
5034	0	3914	6789	4627	7353	1424	0	32813	32554	32926	32683	32775	32647	32303	33023	
5035	0	3927	6774	4581	7380	1425	0	32802	32728	32966	32851	32755	32759	32469	33063	
5036	0	3952	6778	4588	7364	1426	0	32727	32756	32909	32687	32699	32705	32826	33005	
5037	0	3928	6778	4584	7365	1427	0	32711	32727	32828	32599	32735	32692	33259	32836	
5038	0	3941	6792	4570	7377	1428	0	32708	32775	32739	32517	32685	32773	33045	32891	
5039	0	3945	6737	4542	7422	1429	0	32766	32588	32697	32551	32725	32575	32383	32801	
5040	0	3978	6770	4570	7392	1430	0	32732	32739	32727	32493	32743	32786	31975	32775	
5041	0	3948	6779	4600	7396	1431	0	32798	32592	32743	32457	32679	32687	32223	32785	
5042	0	3926	6756	4566	7379	1432	0	32828	32743	32746	32551	32676	32802	32783	32845	
5043	0	3962	6785	4590	7368	1433	0	32694	32549	32765	32599	32698	32853	33185	32659	
5044	0	3970	6785	4588	7366	1434	0	32660	32699	32793	32860	32710	32751	32915	32683	
5045	0	3940	6810	4599	7395	1435	0	32708	32514	32765	32835	32769	32825	32473	32732	
5046	0	4015	6755	4596	7356	1436	0	32721	32613	32740	32695	32711	32607	32260	32681	
5047	0	4004	6776	4603	7424	1437	0	32743	32583	32762	32629	32724	32745	32489	32663	
5048	0	3947	6740	4535	7437	1438	0	32810	32668	32759	32609	32731	32551	33069	32687	
5049	0	3960	6788	4562	7373	1439	0	32711	32629	32766	32793	32647	32799	33388	32615	
5050	0	3977	6761	4549	7396	1440	0	32791	32807	32733	32695	32719	32579	32989	32637	
5051	0	3948	6811	4560	7384	1441	0	32775	32859	32773	32635	32711	32854	32540	32719	
