# OpenSignals Text File Format
# {"00:07:80:3B:46:38": {"sensor": ["CUSTOM/0.5/1.0/V", "CUSTOM/0.5/1.0/V", "CUSTOM/0.5/1.0/V", "CUSTOM/0.5/1.0/V", "CUSTOM/0.5/1.0/V", "CUSTOM/0.5/1.0/V", "CUSTOM/0.5/1.0/V", "CUSTOM/0.5/1.0/V"], "device name": "EMGs", "column": ["nSeq", "DI", "RA_L", "RA_R", "OE_L", "OE:R", "IL_L", "IL_R", "MF_L", "MF_R"], "sync interval": 2, "time": "18:6:57.400", "comments": "", "device connection": "BTH00:07:80:3B:46:38", "channels": [1, 2, 3, 4, 5, 6, 7, 8], "date": "2017-6-1", "mode": 0, "digital IO": [0, 1], "firmware version": 772, "device": "biosignalsplux", "position": 0, "sampling rate": 1000, "label": ["RA_L", "RA_R", "OE_L", "OE:R", "IL_L", "IL_R", "MF_L", "MF_R"], "resolution": [16, 16, 16, 16, 16, 16, 16, 16], "special": [{}, {}, {}, {}, {}, {}, {}, {}]}}
# EndOfHeader
0	0	32814	32795	32772	32935	32773	33031	32763	33287	
1	0	32818	32902	32644	32914	32807	33428	32639	33303	
2	0	32749	33003	32775	32903	33303	32756	33042	33011	
3	0	32743	32994	32773	33015	32893	33031	32955	32863	
4	0	32838	32903	32708	32914	32706	33087	32750	32749	
5	0	32771	32959	32799	32991	32391	33215	32367	32788	
6	0	32733	32827	32798	32763	32367	32327	32443	32613	
7	0	32773	32861	32631	32759	33002	30956	32637	32391	
8	0	32816	32765	32775	32534	33095	31095	32699	32299	
9	0	32884	32607	32707	32477	33071	31167	32239	33316	
10	0	32861	32559	32470	32358	32253	32791	31895	34035	
11	0	32774	32589	32685	32525	32663	33038	32111	32903	
12	0	32847	32587	32543	32289	32101	32598	31615	32199	
13	0	32848	32643	32647	32633	32635	33766	32343	32546	
14	0	32756	32767	32569	32703	32316	34222	33383	33649	
15	0	32741	32725	32698	32642	32293	32861	33693	34337	
16	0	32603	32894	32670	32540	33364	35687	33078	33383	
17	0	32697	32866	32859	32643	33740	33244	33732	32751	
18	0	32662	33026	32819	32623	32551	32197	34075	32143	
19	0	32607	32943	32874	32677	32263	32878	33479	32099	
20	0	32816	32761	32706	32407	33479	32600	33373	32499	
21	0	32837	32590	32663	32418	33511	32837	32567	32633	
22	0	32816	32615	32647	32493	32951	32955	31959	32487	
23	0	32809	32751	32660	32359	32335	32113	33031	32245	
24	0	32748	32790	32701	32607	32121	32619	32947	31789	
25	0	32666	32863	32819	32797	32435	32887	32629	31131	
26	0	32698	32845	32683	32811	32871	32527	32511	31527	
27	0	32728	32735	32623	32789	33399	32263	32583	31879	
28	0	32801	32655	32495	32692	33397	32407	33075	33103	
29	0	32775	32819	32558	32831	33529	32564	33204	33171	
30	0	32846	32791	32519	32967	33007	33099	33339	32875	
31	0	32792	32867	32663	32931	32887	33255	32567	33234	
32	0	32639	32749	32728	32647	32594	33303	32063	33731	
33	0	32630	32743	32647	32751	32692	33152	31975	33787	
34	0	32736	32603	32507	32707	32399	32903	30855	33255	
35	0	32728	32647	32493	32476	32415	32655	30629	32436	
36	0	32746	32641	32695	32355	32757	31717	30803	32346	
37	0	32743	32783	32615	32479	32295	31535	31900	32259	
38	0	32673	32815	32847	32647	31783	31995	32477	31788	
39	0	32647	32935	32911	32653	30436	32939	33063	32839	
40	0	32572	33063	33263	32855	32215	32847	35187	32967	
41	0	32660	32903	33079	32543	32455	32923	34228	32642	
42	0	32783	32692	33042	32519	32717	32103	33188	32991	
43	0	32796	32871	32903	32549	33079	31458	32881	33062	
44	0	32818	32773	32930	32687	33755	31847	33315	32174	
45	0	32834	32759	32807	32735	33831	31814	33887	32447	
46	0	32860	32629	32785	32511	33369	32479	33796	32465	
47	0	32857	32703	32687	32613	33253	33586	32831	32967	
48	0	32854	32691	32693	32804	33204	33760	32281	34111	
49	0	32806	32759	32607	32775	33135	32703	32692	34347	
50	0	32834	32703	32551	32607	33229	32391	32585	33535	
51	0	32887	32749	32658	32703	32930	32387	32454	32679	
52	0	32775	32765	32563	32805	32829	32159	32683	32511	
53	0	32775	32903	32731	32803	32661	32951	32965	30751	
54	0	32773	32798	32620	32587	32025	33239	33579	30327	
55	0	32710	32858	32623	32669	32883	34359	33503	30751	
56	0	32819	32686	32575	32703	32868	33347	32985	32045	
57	0	32927	32610	32535	32474	32383	33255	32180	33845	
58	0	32924	32423	32498	32289	32091	33285	31687	33737	
59	0	32857	32599	32463	32428	31811	32346	31998	33343	
60	0	32884	32559	32513	32605	32557	30639	31917	33231	
61	0	32738	32854	32707	32899	32814	30764	32471	32011	
62	0	32679	33021	32860	32876	32203	30367	32846	32269	
63	0	32622	33165	32973	32975	32815	33775	33108	32523	
64	0	32556	33091	32893	32914	32743	37109	32679	33415	
65	0	32626	32983	32911	32761	33238	37467	33259	31187	
66	0	32756	32818	32671	32519	34163	34823	33175	31215	
67	0	32824	32791	32693	32615	33879	34015	32604	32252	
68	0	32769	32819	32594	32785	32519	34358	32357	33220	
69	0	32806	32903	32756	32742	32177	34647	33144	33303	
70	0	32773	32765	32689	32951	32925	33519	33126	33259	
71	0	32749	32895	32851	32917	33129	32557	33327	33389	
72	0	32665	33007	32900	33043	33029	31645	33533	32764	
73	0	32689	32789	32694	32807	33633	31457	32767	32642	
74	0	32789	32787	32773	32836	33253	31455	32283	32643	
75	0	32809	32707	32721	32739	32447	31367	32389	32942	
76	0	32823	32709	32710	32737	31571	31460	32793	32962	
77	0	32835	32687	32647	32695	32347	31381	32617	32687	
78	0	32788	32763	32715	32631	32658	32015	33102	32133	
79	0	32743	32741	32732	32625	32667	31823	32615	32078	
80	0	32744	32799	32857	32591	32549	31943	32475	32177	
81	0	32769	32844	32887	32615	32837	32037	31915	33041	
82	0	32747	32702	32687	32419	32226	32043	32583	32927	
83	0	32767	32699	32708	32563	31819	32380	33350	32901	
84	0	32712	32612	32607	32563	32087	32885	33334	33573	
85	0	32809	32599	32693	32370	31983	33591	32751	33236	
86	0	32797	32655	32663	32367	32391	33466	32518	33102	
87	0	32855	32567	32637	32383	32925	32980	32637	32783	
88	0	32877	32607	32685	32340	32770	32271	32747	32726	
89	0	32853	32643	32647	32599	32859	30651	32813	33255	
90	0	32804	32799	32756	32570	33318	30802	32572	32743	
91	0	32796	32751	32637	32620	32774	32556	32639	31597	
92	0	32789	32831	32770	32647	32575	32508	32885	31893	
93	0	32772	32918	32823	32863	33119	33772	33081	32159	
94	0	32740	32932	32645	32935	32773	34687	33023	32996	
95	0	32818	32767	32708	32694	32988	34037	32207	33551	
96	0	32745	32879	32711	32933	33692	33317	32864	32529	
97	0	32720	32919	32885	32948	33623	32623	32903	31423	
98	0	32713	32979	32863	33023	33925	32285	32967	31655	
99	0	32735	32951	32817	32708	33257	32789	32340	32194	
100	0	32782	32885	32655	32839	32223	33179	32363	32903	
101	0	32701	32807	32710	32705	32556	32853	32772	33201	
102	0	32775	32775	32570	32365	32479	32436	32847	32971	
103	0	32768	32743	32717	32557	32483	32531	32366	32783	
104	0	32711	32749	32759	32559	32631	32663	32311	33241	
105	0	32740	32735	32769	32498	32391	33524	32503	33170	
106	0	32767	32761	32716	32699	32646	33519	32615	33685	
107	0	32854	32767	32597	32708	31908	33177	32679	33635	
108	0	32817	32769	32663	32583	32831	31895	33281	33339	
109	0	32753	32795	32703	32693	33671	31615	33359	32871	
110	0	32764	32743	32687	32513	33958	32135	33220	32062	
111	0	32729	32727	32783	32765	33687	31777	33164	31538	
112	0	32756	32805	32659	32723	32476	31541	33149	31079	
113	0	32827	32701	32679	32510	31142	32915	33333	31623	
114	0	32825	32775	32683	32691	32505	31204	32389	32519	
115	0	32756	32659	32757	32557	32202	32327	31275	33155	
116	0	32817	32706	32731	32314	32901	35137	30996	32961	
117	0	32812	32717	32817	32519	33859	36219	31477	33671	
118	0	32668	32949	32959	32743	33279	35618	32311	32763	
119	0	32743	32755	32738	32611	32109	33535	32430	32077	
120	0	32782	32807	32751	32665	32500	31075	32946	33085	
121	0	32768	32763	32767	32743	33415	30818	33375	34389	
122	0	32839	32738	32698	32533	32775	32583	33625	33577	
123	0	32839	32709	32551	32692	31923	33917	34391	32219	
124	0	32756	32847	32791	32871	32079	32775	34045	31690	
125	0	32743	32867	32733	32791	31750	31958	33447	32357	
126	0	32767	32918	32767	33002	32306	32583	32903	32895	
127	0	32743	32939	32677	32887	32601	32759	32332	32363	
128	0	32799	32731	32636	32583	33131	32258	32199	31567	
129	0	32799	32793	32567	32707	33598	31975	32319	31518	
130	0	32764	32821	32812	32898	33658	33383	32604	31418	
131	0	32709	32943	32623	33009	34047	34909	33324	31675	
132	0	32762	32851	32719	32678	34868	33767	32549	32876	
133	0	32813	32797	32551	32706	33519	32119	31833	34247	
134	0	32675	32860	32758	33023	31519	32327	33053	33905	
135	0	32719	32925	32659	32743	30225	32693	34083	34233	
136	0	32754	32831	32711	32895	32385	31365	32898	33399	
137	0	32698	32955	32701	32984	32932	32053	32293	32930	
138	0	32751	32775	32723	32639	32263	33095	31967	32685	
139	0	32785	32763	32775	32769	32511	32247	32134	31094	
140	0	32864	32645	32647	32603	32271	31908	32727	31421	
141	0	32773	32687	32846	32619	31655	31795	33934	32639	
142	0	32783	32829	32852	32654	31943	32816	33495	32591	
143	0	32816	32740	32799	32591	33383	33956	32639	32567	
144	0	32764	32829	32743	32479	34271	34535	32402	33159	
145	0	32882	32595	32743	32501	33942	34439	32391	33399	
146	0	32838	32699	32703	32454	33095	33549	31847	33081	
147	0	32831	32703	32641	32467	31777	33543	31921	33321	
148	0	32856	32663	32769	32487	32522	33618	32933	32866	
149	0	32757	32647	32719	32391	33025	33743	33105	32089	
150	0	32699	32767	32763	32510	32516	33159	33538	31975	
151	0	32695	32805	32826	32708	32373	32443	34170	32215	
152	0	32669	32911	32732	32773	32101	31519	33701	32493	
153	0	32724	32767	32775	32727	32977	31231	32753	32892	
154	0	32631	32839	32699	32555	33204	31887	32756	33366	
155	0	32708	32730	32735	32613	33421	32804	32445	32822	
156	0	32780	32775	32599	32613	33147	33211	32423	32454	
157	0	32760	32646	32644	32349	33399	32373	32132	32919	
158	0	32767	32788	32673	32591	33407	32027	31879	32548	
159	0	32856	32595	32647	32639	32887	32691	32135	33027	
160	0	32795	32717	32647	32495	33138	30269	32590	32484	
161	0	32751	32661	32590	32477	32941	31191	32833	32525	
162	0	32717	32819	32695	32647	32282	32051	33564	32257	
163	0	32720	32871	32671	32621	31139	34627	33471	31992	
164	0	32710	32863	32833	32641	31791	34618	32251	32630	
165	0	32644	32841	32669	32663	32900	32572	32007	32001	
166	0	32636	32964	32855	32940	33415	31071	32671	32135	
167	0	32724	32835	32642	32635	32583	31660	32742	33178	
168	0	32632	32903	32759	32874	32194	33295	32799	33423	
169	0	32633	32901	32645	32935	32444	33132	32647	34151	
170	0	32699	32863	32623	32807	32557	33466	32829	34033	
171	0	32851	32707	32535	32756	31774	34163	32391	33221	
172	0	32864	32659	32647	32742	31809	33843	32503	32419	
173	0	32831	32782	32710	32749	32727	33687	33076	31829	
174	0	32686	32903	32703	32831	33149	33189	33014	31811	
175	0	32712	32949	32855	32935	33239	32639	32973	32007	
176	0	32837	32863	32719	32958	33094	32940	32980	32012	
177	0	32796	32911	32773	32765	34176	32263	33221	32530	
178	0	32896	32818	32708	32759	34381	31548	33323	32839	
179	0	32871	32757	32775	32710	33711	31556	33261	32670	
180	0	32886	32727	32756	32471	33087	32787	33157	32707	
181	0	32955	32751	32743	32647	32844	33815	32540	32492	
182	0	32887	32754	32631	32653	32356	32751	31599	32407	
183	0	32841	32812	32712	32694	32710	33963	31780	32775	
184	0	32709	32949	32715	32679	32938	34263	32388	32841	
185	0	32745	32875	32863	32675	32239	33863	32715	32847	
186	0	32754	32751	32706	32687	33071	32135	32900	33005	
187	0	32743	32702	32743	32551	33215	31599	33133	33223	
188	0	32780	32687	32559	32389	32742	31527	32677	33017	
189	0	32748	32660	32605	32529	32523	31489	32399	32025	
190	0	32743	32641	32701	32439	32215	31574	32508	31519	
191	0	32742	32727	32635	32439	32761	32389	32681	32099	
192	0	32723	32701	32741	32575	32635	33063	32999	33378	
193	0	32765	32668	32722	32319	32811	33601	32994	33588	
194	0	32826	32553	32527	32509	32353	33949	32423	33671	
195	0	32743	32754	32715	32591	32447	33007	32391	33283	
196	0	32653	32891	32720	32740	33071	32046	32463	33250	
197	0	32704	32791	32691	32826	32855	30826	32525	32807	
198	0	32733	32773	32647	33019	32694	29975	33231	32269	
199	0	32684	32925	32746	33070	32537	31494	33091	32214	
200	0	32719	32847	32717	32757	32804	32646	32339	32935	
201	0	32742	32845	32759	32833	33031	33654	32714	32679	
202	0	32814	32807	32707	32901	32692	34627	33031	32222	
203	0	32751	33010	32817	33063	32627	34230	32951	32247	
204	0	32727	32895	32681	32927	32021	33405	33946	31773	
205	0	32806	32812	32695	32647	32988	33415	32871	32129	
206	0	32715	32771	32627	32708	32129	35142	32413	32718	
207	0	32722	32758	32699	32479	31535	34615	33074	33135	
208	0	32824	32605	32487	32383	32036	34405	32663	33935	
209	0	32749	32717	32692	32429	32801	33101	32708	33511	
210	0	32765	32767	32789	32535	33199	32535	32835	33229	
211	0	32689	32835	32767	32754	33086	31507	32765	31572	
212	0	32676	32967	32775	32823	33453	29949	32263	31079	
213	0	32688	32850	32724	32854	33151	31341	32519	31433	
214	0	32680	32829	32775	32823	33075	31963	32901	30844	
215	0	32816	32711	32627	32714	32191	33275	33028	31503	
216	0	32826	32647	32639	32625	32309	34215	32410	32743	
217	0	32843	32859	32685	32495	32575	34560	32367	33398	
218	0	32772	32912	32701	32852	33877	32561	32523	33863	
219	0	32708	32983	32807	32911	33231	31499	32679	34455	
220	0	32686	32829	32679	32811	32923	31638	33167	33590	
221	0	32741	32743	32739	32743	32605	32062	33303	32339	
222	0	32755	32731	32647	32340	33332	32501	32827	32548	
223	0	32839	32687	32684	32508	32196	32359	32839	32887	
224	0	32760	32820	32773	32525	32545	31715	33010	32815	
225	0	32751	32731	32698	32481	32581	31535	33229	32821	
226	0	32775	32825	32719	32470	32007	31825	33099	33549	
227	0	32799	32663	32731	32679	32286	32887	32195	33428	
228	0	32821	32659	32705	32681	32518	35099	32191	32423	
229	0	32714	32737	32825	32661	33639	34533	32877	31565	
230	0	32753	32805	32847	32499	34629	33031	32786	31787	
231	0	32700	32923	32869	32641	34098	33151	32323	32519	
232	0	32681	32954	32860	32900	34119	33215	32660	33062	
233	0	32692	32868	32823	32615	32221	34219	32839	33437	
234	0	32724	32770	32735	32645	31751	33131	32808	32927	
235	0	32782	32799	32721	32749	32467	32763	32279	32551	
236	0	32785	32791	32747	32775	32839	32290	32531	32198	
237	0	32734	32736	32726	32551	32428	32231	32690	32481	
238	0	32807	32694	32743	32663	31879	32291	33209	32445	
239	0	32807	32615	32717	32725	32066	31895	32996	33158	
240	0	32762	32605	32719	32599	32340	31422	32981	33119	
241	0	32787	32629	32624	32562	32539	32367	32686	32657	
242	0	32798	32719	32788	32607	32903	33067	32660	32307	
243	0	32730	32627	32634	32473	32707	33743	32791	31941	
244	0	32799	32647	32684	32543	32551	33255	32691	32853	
245	0	32815	32681	32593	32530	32787	32420	32685	32871	
246	0	32815	32815	32756	32679	33052	32263	32943	32551	
247	0	32802	32839	32821	32573	33066	32606	32466	32374	
248	0	32783	32890	32723	32509	32925	32953	32533	31957	
249	0	32826	32759	32655	32575	33095	32356	32615	31748	
250	0	32863	32803	32575	32559	32924	32367	33375	30756	
251	0	32822	32738	32669	32647	32599	32309	32962	31463	
252	0	32770	32823	32701	32799	32991	32421	32597	32911	
253	0	32901	32743	32583	32391	32421	31827	32551	35251	
254	0	32725	32865	32811	32731	32957	31446	32178	34471	
255	0	32626	33020	32807	32783	32259	34301	32981	32079	
256	0	32690	32925	32871	32825	32743	34327	32721	31719	
257	0	32736	32799	32799	32543	32863	33700	31539	33367	
258	0	32636	32804	32885	32706	32511	33922	32031	33543	
259	0	32692	32827	32786	32660	31718	34684	33531	32123	
260	0	32725	32647	32711	32679	33329	32537	33379	32198	
261	0	32769	32642	32655	32565	33360	32559	32791	32487	
262	0	32804	32687	32727	32787	32123	33473	33023	33101	
263	0	32718	32822	32707	32795	32455	32646	33009	34115	
264	0	32633	32828	32855	32709	33030	31661	32943	34113	
265	0	32759	32860	32709	32655	32725	31847	33225	33589	
266	0	32815	32693	32620	32642	33423	31367	33051	33036	
267	0	32780	32711	32715	32507	33279	31535	33083	32898	
268	0	32754	32719	32631	32461	32785	32631	32963	32087	
269	0	32742	32799	32725	32756	32619	33330	32420	31987	
270	0	32681	32759	32628	32611	32979	33567	32155	31835	
271	0	32710	32747	32775	32658	33057	32551	32580	32323	
272	0	32759	32628	32629	32439	32507	33557	32254	32742	
273	0	32742	32705	32775	32515	32639	34531	33117	32135	
274	0	32755	32763	32663	32613	32161	34294	33146	32215	
275	0	32743	32727	32615	32467	32207	33713	32338	32283	
276	0	32741	32726	32647	32510	32706	32817	32221	33033	
277	0	32722	32771	32594	32551	32743	31937	32820	32487	
278	0	32769	32720	32711	32738	32743	31196	32555	32655	
279	0	32751	32711	32631	32805	33045	29541	32667	32622	
280	0	32727	32815	32782	32967	32839	30945	32894	32551	
281	0	32781	32747	32715	32802	33005	32823	32611	32378	
282	0	32765	32887	32669	32965	33395	32863	32411	32271	
283	0	32775	32882	32783	32899	33261	33247	32540	32727	
284	0	32812	33005	32775	32765	33287	33383	32087	33581	
285	0	32807	32903	32662	32751	33187	33879	32063	33387	
286	0	32742	32935	32687	32827	33011	32898	32435	33055	
287	0	32754	32927	32775	32883	32647	32391	33235	32732	
288	0	32754	32790	32643	32541	32873	31879	33143	33203	
289	0	32706	32975	32727	32574	32691	31071	33251	33575	
290	0	32667	32935	32859	32818	32045	32263	33523	32635	
291	0	32713	32823	32682	32775	30975	32577	33388	32375	
292	0	32752	32725	32714	32682	30967	33119	33637	32055	
293	0	32786	32639	32667	32515	32563	32263	33061	32574	
294	0	32729	32839	32839	32577	33357	31995	32111	32062	
295	0	32764	32903	32903	32495	33003	34405	31583	31258	
296	0	32801	32717	32738	32493	33266	33191	31955	31767	
297	0	32747	32764	32807	32399	33423	33259	32383	33093	
298	0	32749	32621	32757	32327	32863	34323	33029	32580	
299	0	32815	32617	32893	32301	32617	34455	33508	31647	
300	0	32715	32641	32735	32519	31717	32991	33238	31799	
301	0	32775	32685	32700	32532	32639	31923	33172	33598	
302	0	32723	32671	32739	32439	32433	31307	33664	34150	
303	0	32822	32685	32631	32749	32078	32795	33455	32547	
304	0	32694	32727	32607	32903	33132	33829	33191	31879	
305	0	32727	32837	32639	32932	33781	34333	33195	31751	
306	0	32771	32866	32541	33063	32962	34123	32747	32000	
307	0	32696	32852	32511	33215	32773	34567	32505	32903	
308	0	32748	32773	32391	32980	32677	34133	31975	33557	
309	0	32705	32827	32459	32855	32571	33415	31767	33351	
310	0	32558	32695	32507	32727	33199	32003	32205	32961	
311	0	32790	32695	32555	32667	32717	31775	31974	32894	
312	0	32834	32582	32539	32737	32903	31771	32271	32933	
313	0	32760	32725	32694	32537	33324	30739	32307	32913	
314	0	32764	32740	32831	32637	33303	30611	32259	32369	
315	0	32763	33005	32999	32727	32903	29429	32620	32349	
316	0	32791	32925	33028	32583	32359	29565	32631	32797	
317	0	32741	32859	33137	32534	32167	32100	32473	32013	
318	0	32708	32713	32947	32447	32643	33199	33191	30868	
319	0	32903	32735	32951	32255	32799	34418	33060	31319	
320	0	32970	32717	32823	32447	31734	37016	32546	32389	
321	0	32916	32903	32956	32721	32167	36980	32804	32492	
322	0	32929	32812	32783	32815	33185	35794	32717	33116	
323	0	32877	32887	32829	32941	34080	32699	33089	33847	
324	0	32869	32855	32669	32831	33031	30452	32473	35263	
325	0	32768	32823	32708	32707	33373	30382	32105	35655	
326	0	32773	32812	32593	32817	34863	31975	32758	33455	
327	0	32732	32802	32687	32775	34405	33585	32607	32470	
328	0	32703	32903	32700	32580	32425	33775	33521	32377	
329	0	32655	32876	32795	32780	31286	32951	35125	31943	
330	0	32683	32815	32628	32706	31983	32326	34191	31719	
331	0	32703	32802	32603	32694	32169	32519	33735	31859	
332	0	32713	32687	32530	32517	32321	32701	32892	32295	
333	0	32736	32683	32477	32349	32621	32311	32075	32658	
334	0	32762	32647	32335	32501	32685	32127	31775	32469	
335	0	32720	32623	32433	32563	31938	31835	31959	32474	
336	0	32745	32631	32575	32445	31751	31263	32466	33027	
337	0	32747	32578	32643	32491	32387	31171	32338	33835	
338	0	32689	32655	32639	32581	33383	30895	32162	33924	
339	0	32810	32603	32639	32291	33495	32263	31992	34079	
340	0	32847	32543	32667	32381	32978	34013	31974	32951	
341	0	32775	32628	32631	32407	33427	34647	32391	33435	
342	0	32768	32707	32583	32409	33148	34251	32775	32884	
343	0	32798	32775	32613	32551	32637	34069	33079	31748	
344	0	32818	32719	32525	32703	31935	32315	33717	32029	
345	0	32836	32850	32605	32607	32868	31725	33251	32258	
346	0	32710	32838	32692	32820	33810	31577	32732	31839	
347	0	32716	32853	32620	32823	33429	32459	32751	30399	
348	0	32812	32751	32514	32755	32525	32727	32547	30495	
349	0	32774	32868	32589	32626	32111	34159	33221	31108	
350	0	32787	32815	32738	32825	32470	35533	34033	29772	
351	0	32696	32903	32851	32718	34293	34052	33511	30887	
352	0	32643	33007	32927	32997	34153	33061	32149	33425	
353	0	32644	32974	32950	32885	32078	32950	32341	33635	
354	0	32668	32935	32771	32845	30941	32471	32316	34215	
355	0	32770	32846	32729	32677	31421	32509	32745	33631	
356	0	32738	32863	32775	32719	31693	32775	33591	33405	
357	0	32756	32799	32788	32645	33014	32927	32584	34615	
358	0	32765	32655	32694	32565	32695	33110	31399	34318	
359	0	32679	32711	32719	32735	31940	32743	32498	33575	
360	0	32761	32786	32732	32837	32877	31995	32887	32989	
361	0	32794	32718	32676	32695	32599	32772	32499	32773	
362	0	32797	32763	32609	32734	33059	32605	32453	32324	
363	0	32820	32694	32615	32620	33207	32698	32215	32399	
364	0	32784	32811	32617	32583	32990	32468	32229	32605	
365	0	32820	32711	32557	32567	32733	32601	32503	32759	
366	0	32815	32679	32679	32603	32811	32313	32943	33189	
367	0	32778	32685	32647	32683	32911	31463	33149	33142	
368	0	32751	32725	32687	32419	33511	31292	32859	33219	
369	0	32790	32647	32727	32457	33019	32515	32475	32833	
370	0	32709	32807	32820	32711	33247	32070	33175	32122	
371	0	32830	32587	32667	32583	32695	31842	32699	32627	
372	0	32899	32622	32580	32379	32215	33378	32380	32263	
373	0	32873	32660	32591	32495	31951	35479	32549	32012	
374	0	32727	32690	32615	32551	31988	35321	33078	31687	
375	0	32782	32679	32655	32309	32282	33941	32503	32182	
376	0	32683	32815	32719	32599	33088	32399	32565	31380	
377	0	32527	33145	33029	32746	33887	29631	33250	31303	
378	0	32560	33075	32870	33005	33701	30659	33703	31599	
379	0	32621	33040	32839	32846	32964	33031	33695	32715	
380	0	32711	32827	32706	32567	32835	33636	33198	33633	
381	0	32692	32715	32659	32450	33090	33131	32758	34019	
382	0	32743	32595	32695	32390	32559	32771	32237	33331	
383	0	32771	32573	32612	32155	32271	31783	32871	32733	
384	0	32740	32517	32720	31969	31687	32382	32872	33596	
385	0	32799	32403	32644	31851	32457	32135	32347	33154	
386	0	32794	32564	32727	31816	33355	30127	32285	32647	
387	0	32802	32555	32625	32115	33085	30033	32775	32295	
388	0	32761	32643	32775	32251	32518	32113	32788	31999	
389	0	32736	32849	32701	32549	32373	33715	32643	32203	
390	0	32813	32847	32767	32879	32734	34183	32567	32283	
391	0	32804	33060	32748	32847	33183	33615	32867	32903	
392	0	32769	33157	32775	33266	33319	34495	33082	33298	
393	0	32778	33283	32855	33343	33069	35567	33027	33500	
394	0	32704	33142	32843	33585	32011	35607	32775	33107	
395	0	32709	33155	32895	33751	31804	34527	32404	33371	
396	0	32792	33231	32711	33919	32854	33372	32531	32978	
397	0	32758	33234	32562	33799	33823	32887	32855	32231	
398	0	32792	32924	32303	33695	33299	32903	32608	32303	
399	0	32735	32925	32331	33692	33287	32247	32300	32401	
400	0	32729	32879	32351	33406	33202	32721	32207	32551	
401	0	32759	32853	32431	33279	32533	32977	32660	32909	
402	0	32826	32786	32626	33159	32756	32911	32647	33116	
403	0	32818	32757	32716	32863	33165	32503	32767	32381	
404	0	32837	32679	32606	32708	33085	31623	32543	32495	
405	0	32854	32635	32531	32407	33087	31203	32279	32815	
406	0	32793	32595	32542	32383	32957	32937	33159	32539	
407	0	32691	32668	32623	32263	33716	34740	33047	31879	
408	0	32785	32637	32493	32061	32877	34299	32806	32278	
409	0	32779	32591	32599	32085	33303	33223	32202	32604	
410	0	32701	32599	32519	32149	32895	33106	32039	32229	
411	0	32622	32769	32583	32247	31184	31047	33711	31907	
412	0	32504	32839	32858	32317	30881	30359	33735	32478	
413	0	32559	32699	32855	32295	30839	31591	33212	32630	
414	0	32618	32619	32751	32309	32335	32226	32707	32569	
415	0	32791	32467	32783	32133	31933	31736	33285	33325	
416	0	32887	32481	32783	31988	32186	31534	33191	33941	
417	0	32869	32495	32775	32035	32454	32334	33047	33735	
418	0	32839	32628	32858	32101	33039	32701	32176	32581	
419	0	32695	32695	32947	32429	33444	32207	32461	32103	
420	0	32842	32713	32903	32425	33099	33627	32831	31399	
421	0	32770	32831	32895	32623	33184	32233	32683	30852	
422	0	32694	33003	32956	32815	33861	32441	32871	31045	
423	0	32824	32875	32828	32846	33685	32460	32263	33109	
424	0	32865	32762	32787	32643	32711	33767	32359	34391	
425	0	32933	32647	32862	32567	32215	34283	32555	35143	
426	0	32996	32634	32639	32647	32658	33223	32647	32967	
427	0	32898	32714	32629	32599	33746	33007	32575	32037	
428	0	32817	32815	32692	32727	33879	31694	32439	33250	
429	0	32729	32895	32714	32751	32843	31591	33061	33125	
430	0	32685	32927	32643	32893	32086	32549	33381	32319	
431	0	32632	32903	32701	32869	31363	32179	33727	30671	
432	0	32692	32823	32661	32847	31699	32722	32921	31943	
433	0	32642	32791	32654	32585	32871	34163	33191	33388	
434	0	32711	32710	32583	32391	33027	34117	33093	33887	
435	0	32758	32558	32595	32339	33133	31638	32953	33385	
436	0	32749	32655	32541	32463	33431	30077	32495	32227	
437	0	32815	32660	32421	32481	33935	30127	32327	32119	
438	0	32871	32647	32441	32308	33882	31931	32519	31863	
439	0	32743	32741	32668	32547	33013	33575	33199	31184	
440	0	32732	32775	32631	32631	32646	33790	31751	31838	
441	0	32701	32988	32743	32563	32095	33973	31397	32340	
442	0	32798	32895	32685	32743	31583	34963	31327	32122	
443	0	32757	32822	32662	32711	32028	35450	32630	33737	
444	0	32713	32903	32827	32875	32743	35186	31957	34335	
445	0	32653	32943	32903	32831	32987	34001	32015	33319	
446	0	32653	32915	32932	32902	32645	34055	32686	33590	
447	0	32572	33011	32948	33031	32065	34471	34123	33623	
448	0	32644	32957	32883	32989	30447	33455	35137	33149	
449	0	32785	32821	32761	32719	32813	32956	33615	32638	
450	0	32740	32850	32841	32903	33671	32373	32827	33009	
451	0	32729	32818	32805	32735	33181	32763	32771	32803	
452	0	32829	32743	32695	32791	33007	33011	32583	32839	
453	0	32786	32804	32703	32607	32786	32557	32169	32443	
454	0	32850	32727	32742	32731	33477	31916	32699	32667	
455	0	32836	32771	32699	32743	33991	30500	32829	33039	
456	0	32858	32689	32695	32666	33495	29616	32891	32757	
457	0	32899	32615	32533	32455	32923	30807	32819	31675	
458	0	32890	32591	32503	32595	32132	32070	32747	31509	
459	0	32879	32572	32487	32585	31983	32845	31941	32613	
460	0	32822	32671	32534	32549	32582	33785	32193	32221	
461	0	32846	32659	32551	32583	33791	34837	32481	32135	
462	0	32716	32767	32644	32639	32803	33911	32940	31887	
463	0	32611	32871	32871	32668	32083	31231	32873	32177	
464	0	32583	32983	32913	32941	32187	32754	32647	31479	
465	0	32684	32887	32813	32729	32326	33447	32757	32830	
466	0	32743	32757	32709	32435	32583	32003	32903	34503	
467	0	32740	32775	32745	32619	32754	32295	33004	34095	
468	0	32720	32748	32682	32541	32071	33127	33311	33427	
469	0	32785	32663	32643	32231	32385	33206	32987	33091	
470	0	32716	32519	32642	32223	32531	32685	32549	32571	
471	0	32749	32655	32700	32521	32903	31700	32737	31724	
472	0	32735	32767	32587	32716	33130	32034	32935	31914	
473	0	32683	32742	32679	32923	33091	32818	32613	32039	
474	0	32743	32750	32759	32809	33283	32332	32789	33127	
475	0	32847	32613	32639	32526	32828	32541	32628	33823	
476	0	32850	32683	32630	33018	32749	33069	32367	33335	
477	0	32925	32647	32607	32991	32286	33322	32325	33086	
478	0	32932	32643	32564	32749	32203	33701	32221	33182	
479	0	32879	32817	32703	32719	33138	31866	32434	31711	
480	0	32582	33114	32971	33043	34107	27645	32621	29516	
481	0	32614	33079	32903	32867	33293	28772	32982	30612	
482	0	32749	33036	32836	32832	32503	34204	33139	31930	
483	0	32669	33099	32838	32868	32919	32964	33159	33114	
484	0	32729	33021	32745	33019	33715	32999	32575	32302	
485	0	32753	33036	32709	33095	33551	33635	33255	31327	
486	0	32786	32975	32758	33143	32263	33750	32733	33031	
487	0	32846	32761	32538	32846	32151	34871	32463	34511	
488	0	32847	32775	32519	32559	31836	35843	33198	34390	
489	0	32841	32775	32643	32607	32901	35303	33167	34843	
490	0	32746	32806	32826	32577	33287	36034	33127	34843	
491	0	32826	32655	32740	32471	31506	34143	32917	34174	
492	0	32932	32599	32751	32277	31111	33492	33380	32803	
493	0	32903	32508	32733	32113	32389	31845	32769	31388	
494	0	32743	32814	32941	32304	33197	28703	32103	31010	
495	0	32608	32735	32927	32450	32433	29431	32735	32045	
496	0	32761	32556	32821	31994	32295	30493	32631	32501	
497	0	32710	32514	32721	32131	32948	30749	32661	30812	
498	0	32613	32598	32683	32415	33613	30607	32940	30813	
499	0	32708	32584	32796	32197	33516	31359	32639	32724	
500	0	32842	32380	32482	32334	32900	33532	32423	33709	
501	0	32852	32559	32751	32532	33103	34437	32824	33363	
502	0	32726	32799	32710	32750	33196	35887	33024	33519	
503	0	32696	33079	32805	33181	32551	37183	32775	33401	
504	0	32642	33213	32692	33415	32879	36007	32167	33654	
505	0	32708	33203	32775	33394	33438	34053	31803	33149	
506	0	32712	33079	32707	33327	33183	32783	32582	32988	
507	0	32727	33089	32679	33175	33093	32471	32947	32966	
508	0	32810	33021	32610	33379	33086	32071	32471	32786	
509	0	32804	32927	32634	33217	33426	31591	32991	31426	
510	0	32775	32771	32729	33019	32047	32499	33719	30895	
511	0	32812	32733	32716	32839	32118	32694	32871	32287	
512	0	32717	32825	32786	32845	32967	32231	32615	32519	
513	0	32639	32790	32727	32805	33895	31866	33030	31639	
514	0	32594	32895	32814	32671	32089	32807	33349	32971	
515	0	32800	32687	32631	32475	31510	31732	33100	35679	
516	0	32781	32623	32665	32236	33254	30487	31062	35159	
517	0	32805	32631	32647	32425	33391	29469	30127	33783	
518	0	32923	32481	32593	32226	32276	30695	31257	33969	
519	0	32922	32541	32539	32051	31977	32195	32785	33592	
520	0	32816	32679	32676	32284	31889	34338	32998	31248	
521	0	32596	32806	32826	32223	32077	34639	33240	30124	
522	0	32609	32759	32893	32161	32082	29690	34009	32052	
523	0	32615	32743	32765	31975	31586	31943	34727	31684	
524	0	32610	32767	32749	32235	32150	34047	34471	30263	
525	0	32746	32531	32687	31955	32813	34969	33404	30001	
526	0	32712	32491	32695	32067	33479	36064	32319	31356	
527	0	32719	32622	32703	32621	33980	35318	32171	32470	
528	0	32728	32723	32584	32854	32975	34896	32319	33587	
529	0	32686	32903	32439	33353	32475	34887	32689	33911	
530	0	32720	33157	32463	33530	32622	34541	32773	33750	
531	0	32733	33159	32627	33306	32599	33687	32791	33336	
532	0	32823	33005	32709	33341	32764	32747	32788	33167	
533	0	32814	33023	32795	33378	33201	32254	32557	33142	
534	0	32879	32902	32791	33198	33669	32084	32641	33087	
535	0	32916	32871	32799	33101	33343	31809	32411	32997	
536	0	32888	32811	32869	32804	32927	31807	32819	32947	
537	0	32885	32715	32743	32755	33247	31503	32773	32639	
538	0	32885	32690	32663	32719	32978	32223	32585	32621	
539	0	32827	32643	32775	32614	32739	32655	32991	32279	
540	0	32788	32687	32701	32479	32910	32349	32335	32514	
541	0	32819	32690	32636	32551	33194	32727	31980	32759	
542	0	32743	32612	32751	32481	33639	32415	32159	33605	
543	0	32775	32567	32764	32381	33415	31623	32135	33775	
544	0	32828	32457	32575	32303	33463	30271	32407	33585	
545	0	32838	32452	32571	32167	31551	30529	32735	32336	
546	0	32642	32541	32630	32199	32181	30757	33030	31642	
547	0	32711	32515	32516	32023	31456	32827	33655	32642	
548	0	32679	32615	32527	32210	31871	33157	32405	32719	
549	0	32655	32738	32629	32233	32219	32683	32190	33759	
550	0	32598	32860	32825	32535	32995	32406	33460	32953	
551	0	32535	32999	32983	32708	31563	31600	33701	33061	
552	0	32574	33159	33015	32611	31059	31311	33751	32679	
553	0	32627	32933	32845	32511	31751	32582	33222	31717	
554	0	32775	32889	32658	32373	33093	30500	32095	32207	
555	0	32792	33039	32869	32575	34238	30943	31479	31927	
556	0	32833	32903	32933	32529	33052	35135	32591	31991	
557	0	32850	32801	32903	32615	32715	36311	33509	32359	
558	0	32879	32758	32751	32660	33693	35001	33821	33065	
559	0	32852	32894	32785	32971	35033	32306	33330	32577	
560	0	32798	32933	32839	33155	34951	33191	33499	32642	
561	0	32769	32860	32719	33445	32879	37157	33217	31719	
562	0	32976	32887	32701	33471	31943	36735	32547	31649	
563	0	33004	32775	32603	33287	32487	34487	31504	32247	
564	0	32797	32877	32757	33311	32663	31638	31070	32239	
565	0	32628	33039	32739	33461	33230	33305	30813	32570	
566	0	32602	32922	32871	33327	32727	35481	30899	32878	
567	0	32519	32847	32919	33009	32082	34139	32343	32935	
568	0	32504	32783	32809	33078	31398	31732	33763	33086	
569	0	32527	32737	32903	32815	31655	31716	33771	33343	
570	0	32615	32687	32775	32580	32180	31725	33447	33635	
571	0	32619	32727	32739	32599	32737	31163	32684	33263	
572	0	32668	32647	32733	32468	32981	31989	31927	32740	
573	0	32673	32643	32743	32333	32935	32047	32822	32420	
574	0	32690	32575	32847	32213	32695	32135	33155	32663	
575	0	32687	32450	32713	32199	32540	32315	33287	32022	
576	0	32735	32495	32692	32089	31967	31875	33185	32603	
577	0	32705	32543	32801	32163	31130	30509	33319	33321	
578	0	32724	32594	32751	32169	33047	30253	33415	33815	
579	0	32807	32529	32775	32066	32823	32511	32657	34363	
580	0	32870	32429	32703	31879	33047	33071	32363	33632	
581	0	32820	32619	32735	32199	33206	33433	32594	32291	
582	0	32818	32629	32684	32331	32899	34243	32743	31076	
583	0	32880	32676	32603	32287	32359	34350	32935	31215	
584	0	32863	32773	32641	32525	32783	33664	33015	31939	
585	0	32781	32795	32695	32541	33583	32822	33207	30431	
586	0	32822	32717	32635	32587	34475	32041	32831	30813	
587	0	32924	32876	32647	32562	34219	32085	33043	31367	
588	0	32911	33095	32553	32962	33591	32999	33359	31837	
589	0	32929	33025	32447	33038	33106	33154	33205	32628	
590	0	32961	33095	32391	33052	32711	31858	34081	32230	
591	0	33060	32941	32327	32903	31847	31963	33597	33063	
592	0	33125	32834	32252	32793	32900	32199	32690	34183	
593	0	33066	32935	32359	32735	33787	31730	32903	34051	
594	0	33079	32963	32407	33071	34106	31347	33119	33348	
595	0	33118	32959	32429	32947	34033	32559	32863	33849	
596	0	33055	32935	32510	32821	32919	33927	32070	34149	
597	0	32976	33046	32647	33049	31239	34813	32295	33277	
598	0	32932	33095	32570	32918	31391	33938	32391	32707	
599	0	32986	32999	32519	32975	32407	32834	32559	32429	
600	0	32985	32924	32329	32811	32583	31947	33121	32229	
601	0	32997	32831	32455	32807	32846	31186	33357	32743	
602	0	32927	32799	32542	33039	32903	31284	32878	33333	
603	0	32887	32639	32519	32875	33298	32412	32205	33781	
604	0	33019	32471	32543	32391	32281	35207	32293	33959	
605	0	32885	32479	32711	32391	32679	34285	32271	35150	
606	0	32836	32386	32711	32237	32848	32011	32455	32818	
607	0	32569	32621	32887	32387	33167	30468	31623	30765	
608	0	32330	32805	33201	32285	33053	30055	31364	30279	
609	0	32239	32805	33205	32379	32124	28869	32731	27838	
610	0	32329	32707	33078	32353	30727	28703	33063	29799	
611	0	32469	32503	33013	31958	32018	32426	32361	35436	
612	0	32454	32567	33039	32035	33007	35147	32625	37910	
613	0	32460	32721	33044	32433	33327	35829	33353	34439	
614	0	32477	32790	33028	32532	32850	36837	33394	32343	
615	0	32510	32781	33107	32735	32133	38003	32875	30591	
616	0	32507	32863	32999	32842	32414	36575	32303	31179	
617	0	32522	33087	32943	33071	32207	34883	31750	32485	
618	0	32506	33253	32763	33345	33287	34801	32429	32449	
619	0	32495	33471	32805	33459	34107	33735	33436	32311	
620	0	32436	33415	32845	33471	34582	32971	33463	32775	
621	0	32609	33235	32709	33278	34505	32543	31623	32919	
622	0	32720	33170	32631	33103	32647	32135	32626	32983	
623	0	32719	33031	32627	33100	31095	32329	33735	32829	
624	0	32694	33054	32709	32940	31332	32442	33909	32759	
625	0	32742	32897	32708	32715	32687	31671	33759	32679	
626	0	32681	32812	32838	32624	32890	31295	33031	33207	
627	0	32858	32613	32626	32362	32135	30787	32027	33749	
628	0	32868	32551	32555	32199	31665	30037	31103	33353	
629	0	32814	32635	32674	32453	31834	28631	31463	32787	
630	0	32891	32519	32598	32287	32511	30821	32146	31925	
631	0	32962	32423	32631	31879	33391	33703	31623	32006	
632	0	32724	32519	32903	31997	31745	34905	32131	32214	
633	0	32703	32571	32799	32206	29227	35231	34759	32087	
634	0	32700	32566	32629	31975	31316	33129	33086	32551	
635	0	32672	32635	32611	32065	33911	31949	32535	32983	
636	0	32758	32591	32604	31980	35401	32807	31934	32547	
637	0	32793	32577	32437	31867	35383	33537	31783	32375	
638	0	32733	32815	32715	32341	34379	32903	32106	32948	
639	0	32873	32831	32841	32543	33011	32790	34119	33006	
640	0	32895	32799	32894	32602	32485	33063	34933	32181	
641	0	32912	32725	32901	32739	32083	31797	34109	32271	
642	0	32971	32713	32743	32823	32979	32479	33266	32631	
643	0	33002	32759	32738	33122	32847	33145	32812	32447	
644	0	33011	32775	32711	33223	32722	32487	32535	32247	
645	0	32879	32689	32683	33274	32871	32279	32543	32663	
646	0	32903	32687	32737	33247	31623	33078	33052	32903	
647	0	32903	32661	32738	33194	32223	33799	32615	32621	
648	0	32887	32812	32775	33347	32526	33820	32573	32911	
649	0	32858	32839	32711	33311	32727	33318	32695	33118	
650	0	32730	32829	32644	33117	33652	32463	32500	32735	
651	0	32728	32845	32634	33207	33754	31682	32902	32715	
652	0	32678	32743	32638	33031	33719	30975	33467	32417	
653	0	32668	32775	32642	32935	32943	31805	32879	32171	
654	0	32663	32765	32567	32731	32621	32967	32543	32621	
655	0	32690	32871	32660	32827	32935	33391	32804	32749	
656	0	32636	32775	32607	32559	33033	31583	31871	33903	
657	0	32623	32935	32621	32438	33028	29571	31314	36044	
658	0	32727	32797	32599	32237	31454	30431	31284	36037	
659	0	32704	32724	32620	32319	30660	33884	31756	32124	
660	0	32512	32834	32753	32348	32047	33641	32733	30665	
661	0	32511	32874	32859	32477	32817	33305	33308	31839	
662	0	32625	32677	32748	32263	32537	35204	33662	31479	
663	0	32687	32655	32833	32313	32500	36605	33786	30175	
664	0	32687	32701	32799	32387	32891	35431	33778	29767	
665	0	32750	32762	32687	32295	33127	33615	33551	30957	
666	0	32701	32749	32677	32605	33067	32527	33151	32317	
667	0	32714	32807	32622	32711	33043	31836	33031	33846	
668	0	32751	32743	32543	32727	33151	31669	32601	34222	
669	0	32833	32762	32587	32543	33133	33548	32582	33751	
670	0	32701	32661	32718	32591	32975	32879	32421	33287	
671	0	32711	32735	32771	32506	32877	33383	32775	32647	
672	0	32664	32885	32713	32647	32885	33977	33129	31386	
673	0	32695	32827	32748	32391	33250	32239	33001	32356	
674	0	32727	32699	32727	32239	33147	30876	32214	33645	
675	0	32921	32407	32503	32135	32799	31380	31661	33947	
676	0	32909	32516	32571	32204	32951	29894	31829	32287	
677	0	32898	32517	32501	32132	32926	29406	31721	32210	
678	0	32860	32647	32573	32493	33708	29073	32225	32191	
679	0	32970	32587	32485	32508	32401	30322	32421	31511	
680	0	32919	32575	32495	32391	32342	30949	32871	30639	
681	0	32837	32811	32598	32695	32845	32001	33375	31548	
682	0	32858	32804	32587	32751	33235	36130	33268	32978	
683	0	32757	32869	32602	32607	32921	37746	32343	33622	
684	0	32588	33166	32943	33030	32479	37548	32273	34172	
685	0	32530	33338	32975	33209	30423	37279	34447	33654	
686	0	32584	33285	32723	33463	29452	36818	34013	34111	
687	0	32671	33252	32775	33332	32100	34535	33019	34471	
688	0	32691	33126	32687	33281	32829	33199	32951	33287	
689	0	32676	32921	32757	33001	33098	32147	33251	32479	
690	0	32733	32882	32797	33167	33711	31605	33159	32421	
691	0	32794	32958	32735	32950	33363	31201	33099	32127	
692	0	32775	32929	32741	32903	33435	31715	32489	32611	
693	0	32794	32773	32647	32725	33139	31962	32623	32772	
694	0	32856	32823	32516	32765	32833	31891	32627	33110	
695	0	32892	32591	32518	32598	32815	32202	32703	33358	
696	0	32807	32551	32543	32604	32665	32229	32462	33447	
697	0	32863	32563	32691	32379	32118	32304	32372	32445	
698	0	32831	32610	32700	32615	32487	32233	32461	31638	
699	0	32773	32683	32724	32583	32951	32271	32447	31073	
700	0	32761	32675	32720	32499	33372	32198	32100	31199	
701	0	32813	32628	32699	32391	33723	31801	32407	31791	
702	0	32811	32637	32636	32411	34247	31776	32407	32923	
703	0	32861	32607	32438	32375	34115	32925	32486	32759	
704	0	32910	32471	32493	32223	33943	32503	32033	32388	
705	0	32793	32583	32508	32123	33299	30894	32407	32837	
706	0	32799	32603	32528	32388	30711	31959	33407	33842	
707	0	32683	32706	32711	32359	30303	32092	33919	34183	
708	0	32647	32736	32716	32439	30924	34263	33671	32837	
709	0	32681	32694	32703	32372	32693	33388	33255	32911	
710	0	32632	32725	32743	32509	33415	30119	33039	32720	
711	0	32615	32762	32783	32527	33339	29523	32818	31875	
712	0	32570	32915	32963	32646	33085	31709	32994	31431	
713	0	32655	32717	32771	32303	33095	32679	32511	31623	
714	0	32797	32477	32509	32425	32669	32559	32643	32295	
715	0	32784	32671	32559	32633	32583	32807	32677	32439	
716	0	32775	32827	32557	32711	32494	35569	32701	32359	
717	0	32680	33052	32630	33207	32969	36247	32594	32243	
718	0	32688	33191	32685	33409	33003	35655	32739	32099	
719	0	32688	33215	32721	33454	32901	35129	32852	32295	
720	0	32728	33117	32701	33059	32857	34263	32707	33117	
721	0	32753	33061	32698	32910	33110	33592	32635	33278	
722	0	32797	33001	32658	32903	32619	33727	32355	33799	
723	0	32797	32891	32753	32573	32253	33087	32467	34199	
724	0	32791	32810	32820	32815	32879	32058	32419	33671	
725	0	32708	32852	32773	32719	33445	32022	32795	32815	
726	0	32765	32735	32634	32767	33063	32132	32327	32487	
727	0	32839	32763	32775	32599	32947	32179	32335	32351	
728	0	32803	32679	32758	32603	32704	32514	33092	32199	
729	0	32735	32798	32719	32850	32999	32579	33050	32156	
730	0	32759	32743	32622	32775	32759	32471	32879	32321	
731	0	32756	32660	32689	32621	31767	32850	32615	32501	
732	0	32788	32639	32566	32414	32531	32424	32903	32669	
733	0	32739	32711	32503	32527	33063	31317	32758	32824	
734	0	32782	32565	32532	32435	32815	30727	32833	32549	
735	0	32719	32726	32609	32287	33345	30493	32407	32861	
736	0	32692	32625	32629	32357	32365	31965	32583	32899	
737	0	32757	32669	32663	32223	32015	32055	32613	33119	
738	0	32728	32629	32519	32181	32221	32125	32588	33879	
739	0	32645	32689	32615	31801	33757	32206	32698	33300	
740	0	32754	32602	32601	31836	33097	34884	32813	32732	
741	0	32748	32629	32555	31999	31935	36347	32785	33799	
742	0	32764	32517	32701	32017	32219	34751	32349	33137	
743	0	32725	32566	32767	32388	32623	31918	33015	30535	
744	0	32672	32783	33019	32821	33380	29058	33131	29473	
745	0	32688	32733	33011	32937	33294	30201	33340	30158	
746	0	32802	32813	33097	33412	33065	33311	33151	31110	
747	0	32836	32959	33095	33591	33287	33575	33105	32702	
748	0	32900	32959	32891	33439	33125	34849	33495	33135	
749	0	32821	33031	32951	33746	33319	34991	33308	33227	
750	0	32897	33132	32623	33827	33318	33997	32699	32967	
751	0	33023	33123	32567	33586	32517	33783	31657	33499	
752	0	32942	33031	32612	33634	32211	34247	31826	33215	
753	0	32885	32911	32783	33399	32397	34771	31975	32967	
754	0	32870	32967	32701	33405	32881	33159	31879	33069	
755	0	32846	32999	32599	33063	32995	31879	31492	33315	
756	0	32779	32903	32671	32879	33951	31219	32287	33735	
757	0	32737	32927	32740	32703	34515	31354	31831	33633	
758	0	32743	32932	32741	32613	33111	31927	33480	32743	
759	0	32620	32951	32756	32542	32060	32293	33959	33231	
760	0	32582	32908	32775	32482	30773	32160	35093	33255	
761	0	32623	32860	32658	32300	30321	31916	34935	32245	
762	0	32678	32847	32609	32447	30687	30980	34251	31815	
763	0	32701	32703	32583	32349	32000	30452	33306	31759	
764	0	32680	32660	32580	32116	32847	31829	32587	31794	
765	0	32727	32583	32607	31945	33095	31381	31933	32509	
766	0	32676	32523	32665	31751	33005	32135	32078	31969	
767	0	32719	32519	32731	31465	33330	32876	31986	34182	
768	0	32730	32457	32743	31559	32865	34254	31943	35940	
769	0	32742	32467	32567	31569	32206	34651	32023	33647	
770	0	32739	32629	32631	31961	32589	34007	32289	32111	
771	0	32785	32673	32743	32103	33519	32365	31845	33214	
772	0	32749	32588	32631	32247	33574	33173	32422	33294	
773	0	32698	32607	32647	32262	33415	33903	32943	31775	
774	0	32645	32734	32738	32295	33487	35898	32903	30851	
775	0	32663	32799	32711	32663	33569	36047	32879	32549	
776	0	32791	32901	32659	32899	33130	33234	33303	32839	
777	0	32657	33005	32823	33091	32063	32848	33783	32831	
778	0	32751	33103	32719	33501	32583	33151	33025	32476	
779	0	32743	33036	32735	33576	32685	33494	32659	31469	
780	0	32974	32894	32818	33740	31763	31947	32252	32060	
781	0	32871	32837	32806	33455	32739	29764	30988	33559	
782	0	32759	32903	32727	33541	33235	31261	30357	32602	
783	0	32835	32966	32700	33468	33783	31681	32229	32615	
784	0	32895	32861	32757	33026	33798	32471	33298	32599	
785	0	32974	32827	32831	33045	33461	31359	33115	32967	
786	0	32865	32891	32895	32977	33915	31989	33381	32535	
787	0	32732	32892	33023	32877	33490	34093	34370	30061	
788	0	32674	32980	32996	33127	30798	33743	34684	29211	
789	0	32780	32855	32815	32919	31857	33810	33532	31279	
790	0	32863	32676	32713	32693	32647	33444	32774	32836	
791	0	32855	32695	32719	32799	32539	32469	32574	33202	
792	0	32677	32821	32719	32839	32333	31531	32310	32991	
793	0	32711	32791	32671	32367	32109	29463	32868	33415	
794	0	32892	32410	32459	31980	31553	29004	32721	34039	
795	0	33007	32145	32356	31644	31407	30956	32263	34471	
796	0	33005	32194	32380	31717	32607	31362	32246	33959	
797	0	32925	32212	32389	31538	33631	32818	32737	33223	
798	0	32724	32546	32595	31943	33645	35655	33372	31041	
799	0	32508	32811	32710	32442	33597	33703	33215	31975	
800	0	32548	32919	32655	32807	34087	32593	33503	32981	
801	0	32586	32983	32541	32807	33383	33769	33173	33203	
802	0	32527	33091	32487	33159	33524	36471	32722	32574	
803	0	32564	33062	32518	33047	33529	37199	32092	32231	
804	0	32551	33086	32647	32935	32594	36067	32102	32642	
805	0	32559	33077	32866	33097	32391	34754	31750	33155	
806	0	32647	32980	32877	33005	31827	33987	30935	33831	
807	0	32671	32877	32960	32845	31583	33093	30479	33511	
808	0	32607	32915	33070	32559	31247	32405	32407	32807	
809	0	32493	32983	33017	32763	30802	32180	34119	32823	
810	0	32598	32974	32707	32607	30917	31997	34235	32615	
811	0	32820	32836	32318	32518	31987	31359	33671	32690	
812	0	33016	32829	32384	32485	33601	31207	33231	32541	
813	0	33204	32615	32591	32243	34311	31653	32823	32631	
814	0	33172	32549	32815	32531	33730	31767	32727	32213	
815	0	33078	32501	32897	32487	33339	32287	32612	32435	
816	0	32976	32587	32914	32615	33455	32015	32637	32663	
817	0	32837	32654	32899	32387	33511	32023	33239	32316	
818	0	32773	32679	32847	32594	33223	31589	33405	32165	
819	0	32824	32479	32739	32398	32869	31847	32775	31871	
820	0	32807	32493	32767	32274	32663	33197	32514	31615	
821	0	32838	32391	32574	31991	32583	33959	32615	32468	
822	0	32854	32349	32575	31980	32295	33470	32679	32855	
823	0	32781	32449	32644	32215	32913	30883	32527	32442	
824	0	32668	32706	32522	32275	33175	29319	32423	32159	
825	0	32573	32735	32561	32361	32695	30071	32538	33877	
826	0	32554	32827	32658	32766	32809	30671	32965	33487	
827	0	32582	32967	32775	33119	33559	30855	33298	31059	
828	0	32593	32970	32775	33023	32871	32607	32711	31983	
829	0	32647	32871	32807	32991	33355	33629	32677	33294	
830	0	32775	32898	32769	33119	34325	34951	32429	33879	
831	0	32740	32982	32871	33335	34127	34175	31879	34439	
832	0	32727	33151	32875	33559	33223	35124	31763	33707	
833	0	32636	33367	32935	33471	31975	35239	32604	33043	
834	0	32629	33223	32823	33548	32917	35125	32871	32964	
835	0	32615	33095	32843	33415	31766	34977	32514	33639	
836	0	32700	32830	32717	33031	30767	34589	32463	33917	
837	0	32743	32821	32783	32988	30693	33300	33191	32482	
838	0	32806	32738	32655	32775	31938	33019	33127	31199	
839	0	32767	32772	32559	32667	32585	31994	34119	31126	
840	0	32844	32786	32679	32425	33572	30983	34079	31589	
841	0	32741	32835	32727	32785	34711	30648	32228	31751	
842	0	32647	32863	32775	32730	33063	30323	32493	32261	
843	0	32686	32815	32688	32623	31030	29599	33097	34085	
844	0	32815	32412	32391	31723	31343	28500	32389	34521	
845	0	32847	32060	32321	31246	32551	30819	31521	33543	
846	0	32820	32211	32623	31449	33255	33030	31873	32126	
847	0	32813	32477	32730	31934	32231	35334	33190	31660	
848	0	32694	32623	32789	32135	32132	36759	33234	30875	
849	0	32709	32699	32813	32135	32359	36452	33303	30510	
850	0	32742	32803	32763	32484	32771	34479	33199	32582	
851	0	32733	32911	32877	32935	32358	34103	32413	34203	
852	0	32612	33191	32879	33395	34007	34204	32932	32713	
853	0	32703	33203	32899	33287	33997	34567	32263	32431	
854	0	32859	33087	32739	33109	34047	33195	31649	32875	
855	0	32804	33172	32647	33263	34479	33222	33325	32882	
856	0	32842	33017	32711	33053	33357	33437	33319	32961	
857	0	32769	32958	32641	32871	32515	33303	33055	32123	
858	0	32814	32804	32711	32799	32013	32295	33407	31623	
859	0	32866	32647	32699	32639	31951	31973	33079	31774	
860	0	32825	32663	32578	32391	32354	31675	32871	31815	
861	0	32805	32695	32583	32607	32231	31434	32769	32775	
862	0	32775	32743	32647	32535	32719	30895	32626	33727	
863	0	32918	32613	32690	32415	32687	31327	32732	34635	
864	0	32743	32484	32895	32013	32947	31610	32767	33812	
865	0	32775	32278	33059	31831	32479	33456	32105	32919	
866	0	32783	32199	32802	31190	32351	33656	32172	31515	
867	0	32660	32190	32679	31063	32050	31411	32473	31145	
868	0	32652	32401	32349	31613	32333	30178	32717	31866	
869	0	32625	32735	32263	32391	32999	31111	32845	32135	
870	0	32476	33011	32381	32847	33229	32934	33181	31623	
871	0	32623	32946	32827	33442	33479	31829	32710	32263	
872	0	32751	33069	32793	33620	33895	30845	32322	33407	
873	0	32962	33089	32503	33613	33101	31583	32215	33187	
874	0	32992	33058	32413	33705	32765	33517	32603	33363	
875	0	32981	33138	32421	33980	32071	35483	33570	33463	
876	0	32943	33111	32725	34212	32669	36373	33013	34054	
877	0	32828	33308	32759	34217	33579	34502	32319	33391	
878	0	32726	33334	32876	34109	32487	33879	33181	32855	
879	0	32781	33165	32707	33883	31299	33867	33717	32900	
880	0	32791	33106	32679	33539	31589	33383	33939	32476	
881	0	32749	33007	32835	33559	32497	32738	32524	32683	
882	0	32844	32844	32761	33204	33655	31938	31879	32823	
883	0	32857	32817	32825	32703	33741	31127	32341	32279	
884	0	32790	32743	32775	32711	34407	31277	31589	33369	
885	0	32741	32661	32695	32726	34239	31393	31503	33487	
886	0	32786	32495	32666	32259	33327	32473	30284	33257	
887	0	32841	32454	32519	32107	32669	32893	30970	33178	
888	0	32724	32711	32467	32263	33031	32459	31927	33031	
889	0	32674	32566	32502	31943	31641	34436	32795	32804	
890	0	32633	32690	32626	31956	30587	32535	34093	32203	
891	0	32592	32627	32631	31965	31775	31239	34551	31815	
892	0	32608	32571	32790	31879	31399	31839	35271	29747	
893	0	32590	32595	32711	31971	32164	30209	34439	30663	
894	0	32652	32446	32918	31911	33383	30876	34371	32694	
895	0	32676	32637	33028	31810	33061	34285	33275	33033	
896	0	32630	32647	33184	31911	33263	35404	32948	32540	
897	0	32879	32447	32978	31607	32346	35105	32601	33591	
898	0	32921	32367	33067	31610	33077	34063	32271	33639	
899	0	32903	32581	33095	31732	33157	33355	32391	32828	
900	0	32775	32834	32955	31874	33153	33109	32551	31775	
901	0	32623	32941	33037	32086	33766	32879	32135	33351	
902	0	32668	33036	32827	32613	32101	33447	32647	34143	
903	0	32757	32790	32851	32815	31747	33807	32855	32755	
904	0	32801	32895	32707	33207	32491	33270	33283	31191	
905	0	32948	32775	32665	33109	33069	32769	32519	31005	
906	0	33047	32789	32477	33359	33108	32903	31491	31961	
907	0	32884	32948	32615	33518	32948	33023	31943	32807	
908	0	32893	33060	32461	33519	33723	32877	32597	32962	
909	0	32948	32915	32391	33351	34277	31687	31891	34661	
910	0	33022	32715	32277	33250	34781	32095	31684	34001	
911	0	32885	32725	32391	33230	32973	30913	31937	31775	
912	0	32727	32895	32321	33015	33655	30153	32181	31813	
913	0	32615	32883	32551	32879	31801	30658	33254	33439	
914	0	32613	32949	32602	33085	30495	30895	33300	33831	
915	0	32643	32823	32724	33069	31695	33143	32751	32045	
916	0	32598	32933	32647	32986	32883	34788	34531	31315	
917	0	32685	32732	32707	32502	32143	36123	35108	31318	
918	0	32692	32785	32725	32613	30855	34135	34199	31845	
919	0	32759	32631	32759	32420	30123	33502	33421	31879	
920	0	32671	32717	32679	32500	32033	32969	31742	32031	
921	0	32647	32711	32903	32379	34027	33039	32001	33181	
922	0	32694	32719	32741	32391	33287	33532	32271	34541	
923	0	32791	32543	32775	32203	33603	33603	32595	33511	
924	0	32740	32737	32723	32181	33799	33332	32551	33010	
925	0	32767	32719	32655	32413	33193	33127	32854	32311	
926	0	32725	32811	32807	32479	33627	32607	32703	32391	
927	0	32690	32901	32706	32423	33031	32807	32263	33099	
928	0	32745	32747	32775	32533	32342	31879	31815	32949	
929	0	32805	32719	32703	32711	32385	31227	31799	32807	
930	0	32869	32695	32647	32623	32195	31924	32305	32871	
931	0	32832	32667	32807	32846	32519	31671	32315	32799	
932	0	32793	32759	32739	32945	32409	32927	32915	32317	
933	0	32825	32671	32762	32799	33503	32719	33377	31739	
934	0	32716	32727	32620	32959	35039	31522	32591	32108	
935	0	32815	32647	32662	32854	34421	30993	32330	32429	
936	0	32795	32607	32599	32511	32903	31895	32340	32674	
937	0	32951	32535	32491	32481	32775	33123	32681	32974	
938	0	32868	32519	32667	32541	33127	33951	33120	33119	
939	0	32677	32823	32677	32751	31957	33782	32985	33534	
940	0	32543	33047	32855	32940	32297	33683	33231	33655	
941	0	32524	32966	32877	32889	31885	35236	34105	33751	
942	0	32585	33030	32871	32686	30586	32575	34535	33997	
943	0	32672	32966	32801	32823	30855	29258	33236	32809	
944	0	32721	32941	32860	32790	32347	29667	31663	31783	
945	0	32710	32937	32759	32551	32997	33510	31821	31927	
946	0	32641	32999	32948	32861	31799	35231	34021	32459	
947	0	32629	32967	32935	32799	32387	35009	33949	32223	
948	0	32797	32823	32612	32621	33751	32941	33347	31879	
949	0	32827	32804	32711	32689	33681	32006	32541	32020	
950	0	32850	32764	32703	32383	33469	31807	32372	33598	
951	0	32887	32570	32516	32245	33031	32369	32559	33455	
952	0	32762	32551	32567	31879	32802	32511	32929	31728	
953	0	32805	32483	32470	31649	32935	32279	32807	31407	
954	0	32817	32319	32500	31543	33351	31063	32559	32541	
955	0	32831	32515	32726	31567	33466	31983	32703	31723	
956	0	32937	32570	32711	31973	33351	32092	32599	30892	
957	0	32994	32386	32787	32175	33287	31440	32922	31268	
958	0	33028	32571	32671	32303	32676	31675	32870	32391	
959	0	32927	32741	32775	33082	32182	31911	32197	32839	
960	0	32772	33079	32830	33413	32771	34001	32075	31887	
961	0	32672	33133	32685	33370	32679	37341	32193	33607	
962	0	32628	33069	32724	33713	33287	37415	32415	34923	
963	0	32632	33223	32636	33855	33491	35234	32379	34587	
964	0	32790	33107	32567	33559	33335	32847	31863	34853	
965	0	32788	33143	32599	33716	34151	32358	31158	35559	
966	0	32863	33028	32671	33484	33359	32039	31335	34509	
967	0	32845	32956	32427	33468	30392	33079	32912	33449	
968	0	32629	32975	32615	33223	29365	32647	34143	32637	
969	0	32623	33037	32525	33215	32927	31042	33551	32791	
970	0	32754	32849	32422	32909	34119	33569	33700	32033	
971	0	32767	32702	32559	32439	33239	35222	33635	30659	
972	0	32583	32811	32621	32453	30847	34389	34055	31120	
973	0	32409	32839	32787	32406	32875	32899	33821	30903	
974	0	32391	32789	32791	32231	32409	31879	33247	31094	
975	0	32469	32573	33031	31917	31491	31806	33799	31242	
976	0	32601	32479	33359	31423	32285	32991	31217	30765	
977	0	32694	32309	33447	31099	33095	31191	31005	30979	
978	0	32679	32327	33259	30879	32804	30700	31391	32486	
979	0	32694	32286	33056	30795	32571	32013	31991	34025	
980	0	32673	32447	32848	30803	33014	32055	32730	33102	
981	0	32799	32551	32293	31443	32997	31766	32228	33139	
982	0	32902	32707	31957	32077	33513	30842	32175	34204	
983	0	33136	32759	31879	32297	33522	31554	32484	34455	
984	0	33199	32969	32551	33029	32759	32765	32901	33499	
985	0	33228	32999	32870	33655	33077	31744	33021	32299	
986	0	33165	33071	33029	34266	33551	34271	33348	31691	
987	0	33098	32895	32831	34615	33081	34719	33179	31897	
988	0	32951	32903	32859	34477	32346	33927	32882	33080	
989	0	32832	32823	32715	34719	32199	33940	32541	33539	
990	0	32632	33052	32695	34399	33159	33287	32582	33575	
991	0	32635	32895	32501	34127	32770	33457	32871	33263	
992	0	32654	33045	32647	33821	33237	33055	32866	32599	
993	0	32672	33037	32591	33860	32735	32573	32668	32179	
994	0	32715	33028	32543	33567	32263	32314	32916	32287	
995	0	32780	32733	32411	32903	32210	32284	32709	32389	
996	0	32732	32703	32541	32647	32663	31347	32553	32305	
997	0	32742	32631	32451	32461	32709	31181	32551	33101	
998	0	32766	32516	32535	32319	33795	31428	32079	33427	
999	0	32684	32709	32593	32071	34923	30823	32356	32293	
1000	0	32727	32639	32615	32055	34648	31239	32239	32257	
1001	0	32858	32551	32639	32054	32654	31996	33327	31266	
1002	0	32780	32519	32718	31828	31399	32254	33842	31111	
1003	0	32825	32458	32667	31836	31668	32754	33519	32645	
1004	0	32748	32583	32759	32031	32724	31495	33391	31734	
1005	0	32562	32708	32927	31898	33280	30150	33543	33455	
1006	0	32497	33005	32955	32188	32237	31783	34391	36255	
1007	0	32568	32951	33108	32260	31478	33961	34373	34724	
1008	0	32679	33005	32895	32269	32004	36859	32979	33308	
1009	0	32714	32951	32843	32433	32895	35463	31642	32799	
1010	0	32663	32997	32758	32514	32943	35607	31428	33645	
1011	0	32713	33058	32879	32901	33035	36673	31780	31874	
1012	0	32600	33245	32799	33031	33351	35406	32493	31961	
1013	0	32647	33064	32807	32975	32572	34651	33075	31460	
1014	0	32756	32891	32619	32719	31623	34751	33579	31171	
1015	0	32865	32807	32666	32516	31969	34533	32837	31650	
1016	0	32841	32637	32733	32415	32706	33995	31879	32036	
1017	0	32822	32705	32875	32667	33147	32595	32324	32183	
1018	0	32759	32575	32663	32595	32748	31971	32637	31470	
1019	0	32773	32658	32551	32508	32103	31666	32611	32370	
1020	0	32774	32475	32363	32743	32596	31430	32577	33087	
1021	0	32876	32637	32548	32708	32934	30745	32724	32431	
1022	0	32858	32647	32495	32677	33415	30599	33489	31291	
1023	0	33036	32535	32430	32524	32745	30988	33641	31983	
1024	0	32982	32687	32551	32692	33107	30495	33295	33127	
1025	0	32912	32683	32527	32535	33533	31999	33266	34043	
1026	0	32968	32591	32623	32489	33349	34111	32756	34549	
1027	0	32909	32568	32453	32527	32645	32846	32599	34132	
1028	0	32855	32623	32519	32525	33703	31799	30405	33400	
1029	0	32727	32639	32683	32229	33859	31569	30140	33812	
1030	0	32472	32826	32863	32451	33348	33259	30658	33182	
1031	0	32468	32860	33083	32342	30001	34049	30705	31910	
1032	0	32525	32885	32899	32279	29097	34231	32621	31553	
1033	0	32576	32791	32951	32325	30749	31356	33959	32939	
1034	0	32636	32948	32910	32640	33717	29463	34962	33151	
1035	0	32564	32919	32957	32724	34707	28788	34759	33685	
1036	0	32687	32989	33049	32596	33949	31087	33789	32959	
1037	0	32767	32727	32862	32671	32903	35458	33101	31655	
1038	0	32850	32679	32839	32673	32822	35983	33055	31887	
1039	0	32846	32759	32613	32661	32827	35225	33159	31653	
1040	0	32930	32919	32551	32834	32570	35780	32552	31447	
1041	0	32882	32993	32535	33019	32495	35167	33007	31311	
1042	0	32880	33015	32653	33151	32378	33693	33077	33029	
1043	0	32823	32903	32631	32869	32903	32917	32295	33363	
1044	0	32871	32843	32679	32901	32830	32501	32341	32530	
1045	0	32714	32757	32585	32853	32972	32278	32087	32262	
1046	0	32719	32751	32725	32987	34311	31423	32231	32077	
1047	0	32712	32811	32583	32703	34415	31351	33171	32135	
1048	0	32790	32699	32722	32691	34238	31126	33415	32095	
1049	0	32789	32753	32647	32549	34389	30884	32941	32098	
1050	0	32893	32481	32573	32026	33585	31919	31551	33047	
1051	0	32856	32559	32611	32091	31930	32884	30909	32961	
1052	0	32856	32563	32514	32127	31127	33647	30503	34285	
1053	0	32816	32684	32655	32353	32002	31381	33658	34420	
1054	0	32815	32727	32711	32325	33121	30967	34471	33372	
1055	0	32594	32799	32858	32343	31020	33004	34951	31919	
1056	0	32646	32713	32830	32607	30892	33825	33249	33031	
1057	0	32631	32815	32845	32621	31451	31686	31681	33545	
1058	0	32645	32843	32935	32537	31742	31831	33516	32745	
1059	0	32649	32925	32884	32763	32093	33881	34275	33017	
1060	0	32602	33086	32855	33037	32045	35089	34042	32787	
1061	0	32616	32943	32743	32765	33439	33817	32815	32199	
1062	0	32706	32852	32677	32669	32876	33283	32263	32605	
1063	0	32820	32853	32512	32531	32775	33218	31935	32687	
1064	0	32862	32876	32482	32852	32743	33863	32225	32439	
1065	0	32746	32847	32605	32767	33890	33443	32235	32361	
1066	0	32764	32695	32511	32476	33303	33486	32223	33271	
1067	0	32799	32675	32655	32647	32767	32845	32319	33975	
1068	0	32817	32775	32703	32580	33159	31543	32577	32787	
1069	0	32804	32685	32702	32491	33287	31779	33071	31687	
1070	0	32827	32647	32605	32612	33143	31743	33075	31092	
1071	0	32794	32621	32645	32725	33079	31157	33045	31111	
1072	0	32783	32725	32677	32717	33394	32061	32982	31463	
1073	0	32679	32935	32671	33004	33685	32807	33071	31419	
1074	0	32757	32763	32695	32771	33593	31397	32877	31810	
1075	0	32903	32512	32423	32390	32765	31703	31829	32847	
1076	0	32909	32532	32435	32519	32148	32557	31963	32743	
1077	0	32790	32647	32497	32431	32514	34790	31837	31623	
1078	0	32764	32525	32364	32199	31794	34595	31462	31623	
1079	0	32647	32772	32593	32203	32355	34585	31799	32483	
1080	0	32677	32805	32615	32400	34535	29191	31540	36316	
1081	0	32598	32938	32823	32590	33973	29263	30439	38147	
1082	0	32423	33133	33126	32738	32788	30909	33039	35052	
1083	0	32415	33116	33386	32806	32799	32941	33756	32988	
1084	0	32647	32783	32933	32644	31169	37879	34685	32122	
1085	0	32846	32599	32766	32327	30705	37965	35035	32141	
1086	0	32846	32727	32727	32771	31122	36475	34574	31421	
1087	0	32783	32993	32919	33151	31284	36045	33991	31487	
1088	0	32791	33016	32915	33405	31875	33903	33413	31207	
1089	0	32927	33065	32887	33271	33669	33023	33017	31925	
1090	0	32929	32989	32844	33503	33355	32749	32463	32767	
1091	0	32916	32959	32991	33287	33111	32103	32342	32599	
1092	0	32828	32799	32468	33155	32885	32080	32503	32357	
1093	0	32873	32810	32151	33077	32655	32173	32839	32455	
1094	0	32912	32854	32015	33018	33391	31062	32516	32450	
1095	0	32858	32629	32219	32765	34209	30781	33021	32199	
1096	0	32801	32738	32551	33021	33827	30563	33037	32453	
1097	0	32745	32647	32735	32981	33589	31604	32231	32617	
1098	0	32759	32647	32721	32631	32329	31373	32713	31599	
1099	0	32668	32858	32783	33019	32895	29809	32431	31738	
1100	0	32663	32635	32841	32687	32962	31407	32017	34222	
1101	0	32567	32773	32913	32460	32381	33570	33531	33735	
1102	0	32657	32729	32610	32407	32131	34039	33531	33375	
1103	0	32776	32507	32460	32203	32123	33659	32795	31670	
1104	0	32647	32757	32415	32061	32237	33201	32399	31603	
1105	0	32703	32807	32610	32317	32413	34695	32671	32391	
1106	0	32885	32677	32535	32020	32165	35085	32735	33031	
1107	0	32807	32829	32706	31964	33335	31866	32609	32879	
1108	0	32806	32730	32708	31781	33871	30058	31463	32925	
1109	0	32810	32563	32913	31751	34517	30005	29655	32964	
1110	0	32737	32699	33028	32077	34727	31822	30239	33159	
1111	0	32671	32708	33011	32239	33151	32708	32341	32841	
1112	0	32733	32715	32743	32655	31854	33142	32677	33493	
1113	0	32723	32807	32989	33037	32451	33228	32527	33117	
1114	0	32683	32875	32911	33076	32503	33911	32071	33105	
1115	0	32719	32913	33022	32964	30586	33787	33727	32564	
1116	0	32644	33027	32975	33457	29974	33363	35847	33081	
1117	0	32621	32967	32929	33215	31129	32628	35008	33079	
1118	0	32751	32903	32871	33143	31734	33037	33823	32260	
1119	0	32788	32851	32575	32927	33299	33575	32963	32447	
1120	0	32932	32703	32460	32796	33639	33101	33073	33215	
1121	0	32843	32805	32628	33131	35221	31543	33166	32749	
1122	0	32935	32798	32554	33099	34509	31137	32796	32871	
1123	0	32996	32707	32471	32991	32795	31945	32375	34484	
1124	0	32783	32812	32564	32838	31175	35463	33893	34759	
1125	0	32716	32679	32683	32599	32067	36591	33909	33267	
1126	0	32871	32502	32499	32231	32783	34926	32676	32178	
1127	0	32985	32315	32431	31578	32356	34426	32723	31487	
1128	0	33016	32091	32391	31575	31994	32013	32733	31357	
1129	0	32988	32153	32575	31503	32263	28619	31195	31036	
1130	0	32661	32594	32717	32079	32978	27108	31182	31211	
1131	0	32438	32941	32940	32727	33864	26815	31455	31047	
1132	0	32503	33212	32917	32877	34264	28329	32207	31318	
1133	0	32512	33028	32771	32847	33223	34213	33203	32168	
1134	0	32487	33111	32918	33047	33131	36447	32763	32686	
1135	0	32679	33095	32813	33427	32923	36207	32751	33212	
1136	0	32711	33055	32668	33575	32965	35975	32711	32501	
1137	0	32691	33091	32564	33415	33107	37171	33084	31111	
1138	0	32615	33057	32767	33538	32586	36437	33330	31818	
1139	0	32769	32983	32817	33383	32743	34761	33117	33223	
1140	0	32760	32943	32903	33771	32880	33223	33235	33837	
1141	0	32706	33199	32929	33682	32375	32903	33083	33311	
1142	0	32792	33031	32978	33551	31463	34021	32941	33316	
1143	0	32732	32983	32775	33212	32171	33519	33223	33306	
1144	0	32757	32667	32647	33157	33059	31764	33111	32950	
1145	0	32855	32615	32382	32791	33367	30623	33183	32919	
1146	0	32879	32607	32551	32636	33517	30658	33209	32739	
1147	0	32863	32605	32534	32365	33059	31188	32903	32847	
1148	0	32958	32575	32583	32099	32573	31425	32373	32723	
1149	0	32884	32636	32535	32300	31823	31575	32596	32827	
1150	0	32854	32609	32614	32364	31965	32007	31911	32987	
1151	0	32839	32543	32764	31997	32325	31849	30599	33325	
1152	0	32743	32599	32820	32173	32598	31310	30391	33159	
1153	0	32630	32815	32881	32247	34844	30770	31839	32052	
1154	0	32647	32796	32821	32127	35125	31347	32831	31514	
1155	0	32708	32631	32617	32145	32570	33703	33346	31251	
1156	0	32796	32573	32725	32068	31747	34299	33471	32623	
1157	0	32844	32492	32663	31835	31564	34087	33671	33603	
1158	0	32763	32502	32633	31991	32039	33063	33711	33543	
1159	0	32690	32671	32679	32111	32620	31311	33429	33743	
1160	0	32742	32710	32695	32135	32031	31687	32700	32967	
1161	0	32700	32799	32621	32171	31595	31878	32468	33383	
1162	0	32681	32847	32646	32263	31595	32587	32391	34511	
1163	0	32772	32775	32583	32167	32228	33746	32081	34255	
1164	0	32786	32710	32511	32431	33607	33403	31805	32613	
1165	0	32866	32639	32385	32283	34396	33327	31991	31862	
1166	0	32751	32787	32567	32328	34223	33907	32613	30759	
1167	0	32615	32887	32627	32247	36076	30892	31741	31359	
1168	0	32639	32900	32738	32573	34578	31039	32551	32114	
1169	0	32679	32826	32711	32563	32547	32870	33303	31337	
1170	0	32838	32675	32687	32469	32887	33595	32175	31367	
1171	0	32835	32727	32726	32439	32181	32575	33259	33279	
1172	0	32743	32871	32925	32668	31813	32980	34233	33823	
1173	0	32769	32775	33078	32773	33391	32291	32739	32497	
1174	0	32748	32941	33060	33167	32585	32289	32523	33407	
1175	0	32751	33133	33082	33256	30034	34166	36050	33035	
1176	0	32716	33014	33065	33367	29184	34279	36933	31378	
1177	0	32901	32866	32835	33287	29977	35365	34351	31655	
1178	0	32827	32957	32826	32993	31837	34391	32799	32895	
1179	0	32765	33047	32858	33223	32887	34072	32619	32941	
1180	0	32775	33071	32623	33327	32331	34639	32105	32836	
1181	0	32722	32951	32623	33153	32903	33506	31433	32726	
1182	0	32702	32821	32481	32873	34523	32557	32182	33060	
1183	0	32668	32629	32511	32811	34273	31891	32239	33213	
1184	0	32761	32679	32383	32839	33641	30831	32543	33315	
1185	0	32749	32583	32557	32515	33157	30687	32524	32132	
1186	0	32788	32559	32334	32519	32479	32958	32489	31807	
1187	0	32854	32505	32383	32514	33735	32698	32190	32169	
1188	0	32892	32398	32327	32285	33113	32262	31751	32671	
1189	0	32924	32451	32311	32332	32591	31463	32239	32236	
1190	0	32911	32583	32637	32485	33383	30748	32195	31887	
1191	0	32743	32834	32972	32807	33407	31383	32469	32023	
1192	0	32748	32903	33082	33081	33143	34013	33212	33047	
1193	0	32881	32791	33123	32903	33543	33284	34039	32841	
1194	0	32910	32714	33010	32883	33367	31850	33811	32573	
1195	0	32872	32695	32903	33076	32475	32299	33145	33037	
1196	0	32976	32847	32795	33018	31997	36026	31196	32625	
1197	0	32736	33011	32814	33143	32709	34429	30055	32737	
1198	0	32647	33047	32839	33183	33631	32043	30855	33499	
1199	0	32703	33019	32686	32919	32127	33796	32409	34093	
1200	0	32788	32884	32817	32766	31767	35515	33766	33124	
1201	0	32773	32919	32551	32663	32773	33313	33671	32711	
1202	0	32699	32835	32583	32509	32591	32495	33191	32343	
1203	0	32711	32773	32445	32698	31559	32803	33261	32581	
1204	0	32628	32773	32516	32471	31063	33182	32937	32997	
1205	0	32735	32723	32629	32331	32933	31886	32631	32695	
1206	0	32836	32707	32564	32668	33625	30725	31777	32695	
1207	0	32745	32695	32663	32561	33701	31843	32103	32508	
1208	0	32652	32839	32838	32570	33255	32223	32532	32064	
1209	0	32732	32703	32811	32458	33508	28147	32167	32271	
1210	0	32732	32499	32425	32325	33117	28583	32186	31231	
1211	0	32826	32479	32407	32415	32548	32380	32221	31996	
1212	0	32832	32427	32457	32255	32179	34619	32798	34743	
1213	0	32775	32638	32727	32763	32541	34818	34601	34841	
1214	0	32636	33046	32894	33211	32083	35494	34356	33799	
1215	0	32657	33116	33026	33388	32677	36140	33311	33569	
1216	0	32698	33191	32809	33029	32241	34893	31762	32857	
1217	0	32761	32998	32791	32979	32534	33911	32263	32318	
1218	0	32660	32991	32769	32757	34277	33125	32931	32215	
1219	0	32682	32901	32742	32707	33663	32967	33301	31943	
1220	0	32754	32711	32787	32838	32543	32169	33501	32231	
1221	0	32753	32751	32620	32659	32033	31046	33302	32125	
1222	0	32780	32686	32706	32319	33888	29831	32289	31484	
1223	0	32796	32605	32517	32413	33938	32719	32177	31951	
1224	0	32772	32635	32615	32582	33853	34743	32557	32441	
1225	0	32652	32677	32595	32653	33998	32738	32706	32719	
1226	0	32816	32653	32469	32813	34509	31747	32197	32669	
1227	0	32938	32487	32492	32573	32834	31591	32231	32263	
1228	0	32954	32503	32657	32169	31053	32228	32658	31351	
1229	0	32750	32674	32863	32343	30669	33943	31943	31693	
1230	0	32607	32770	32918	32375	30066	34427	33735	32530	
1231	0	32535	32819	33130	32448	31121	32462	33134	33389	
1232	0	32660	32733	32843	32349	32543	32828	31956	34119	
1233	0	32617	32829	32567	32411	32995	33469	31700	33108	
1234	0	32581	32788	32579	32685	32421	33060	30775	32281	
1235	0	32764	32828	32405	32900	32289	32086	31553	32221	
1236	0	32834	32809	32699	33243	32182	31010	32695	33079	
1237	0	32892	32974	32849	33397	31013	31738	34626	33108	
1238	0	32861	33010	32839	33538	31391	32399	35758	33337	
1239	0	32863	32983	32732	33735	33083	32835	35007	33063	
1240	0	32840	33127	32733	33814	33023	33346	34323	33305	
1241	0	32929	32941	32753	33523	33135	33465	33860	32881	
1242	0	33042	32815	32526	33375	35002	32903	32559	32443	
1243	0	32946	32743	32751	33281	34231	33028	32879	31879	
1244	0	32926	32839	32855	33159	33679	33447	32605	31642	
1245	0	32865	32773	33133	33142	34103	32197	32543	31751	
1246	0	32823	32783	33055	32775	32767	32637	33221	32083	
1247	0	32761	32623	32743	32461	33022	32911	33939	31854	
1248	0	32697	32742	32802	32452	33773	32229	33415	31572	
1249	0	32725	32765	32614	32451	33523	30903	32819	31005	
1250	0	32703	32727	32647	32455	32659	31321	31989	32011	
1251	0	32730	32658	32551	32175	31977	31737	31446	33558	
1252	0	32751	32543	32631	32039	31645	30666	31294	34330	
1253	0	32842	32487	32477	31879	31367	30955	30934	35109	
1254	0	32805	32511	32519	31925	32019	31843	30805	36326	
1255	0	32775	32562	32533	31537	33115	32311	31851	37351	
1256	0	32708	32487	32557	31657	32461	34866	32823	34281	
1257	0	32621	32831	32783	31895	32594	34925	33479	32191	
1258	0	32420	32933	32847	32012	33053	36346	33172	30979	
1259	0	32409	32917	32879	32320	34430	33485	32391	29533	
1260	0	32287	33143	32978	32623	34011	30964	31862	30215	
1261	0	32437	33079	32865	32540	33191	31797	31869	32087	
1262	0	32581	32785	32775	32546	32685	33501	32839	31859	
1263	0	32752	32633	32637	32335	32994	34277	33479	32171	
1264	0	32980	32647	32700	32439	32335	35308	33186	33063	
1265	0	32967	32719	32647	32511	32607	35527	33075	34038	
1266	0	32974	32727	32667	32637	32346	36531	33207	32855	
1267	0	32937	32929	32745	32805	32161	34887	33343	32529	
1268	0	32804	33023	32740	33011	32495	33713	33311	32239	
1269	0	32735	33049	32613	33135	32599	33039	32819	32236	
1270	0	32781	33041	32646	33197	32122	32023	32326	32823	
1271	0	32687	32988	32629	32924	32050	31405	32507	31990	
1272	0	32722	32935	32609	33138	32135	30725	32559	32129	
1273	0	32736	33013	32451	33319	32263	31478	32539	32818	
1274	0	32749	32935	32443	33174	32317	31692	32785	33526	
1275	0	32782	33058	32647	33165	33074	31735	33393	33644	
1276	0	32789	32979	32615	32819	33597	31543	33703	32903	
1277	0	32681	32899	32669	32577	33223	32644	33373	31727	
1278	0	32692	32667	32663	32409	33129	32929	32502	32740	
1279	0	32711	32647	32586	32270	33662	32279	32270	32173	
1280	0	32687	32503	32783	32039	34837	30447	31637	32897	
1281	0	32754	32498	32805	31853	34582	30598	30373	32859	
1282	0	32742	32506	32869	31911	33028	33882	28689	32327	
1283	0	32794	32411	32695	31915	33062	33951	30249	32705	
1284	0	32820	32285	32724	31887	32401	31985	32543	33515	
1285	0	32727	32551	32762	32223	32591	31234	33051	33453	
1286	0	32701	32699	33006	32157	30507	32977	35055	33487	
1287	0	32523	32831	33059	32475	28515	32125	36636	33437	
1288	0	32502	32915	33142	32737	27991	31831	35783	32127	
1289	0	32532	32967	33106	32615	32091	33602	33531	30567	
1290	0	32594	32863	33231	32439	33069	33874	33607	30956	
1291	0	32679	32647	32921	32308	33619	32833	33091	31186	
1292	0	32749	32415	32903	31997	32815	32879	32662	33170	
1293	0	32815	32455	32761	32145	32987	32783	32893	33876	
1294	0	32930	32351	32738	32263	33494	31308	33275	33230	
1295	0	32943	32461	32583	32366	33595	32551	32725	33389	
1296	0	32809	32543	32771	32677	33154	33639	32258	33833	
1297	0	32801	32659	32701	32495	32485	34079	31771	34465	
1298	0	32773	32541	32775	32677	32316	34071	31908	33921	
1299	0	32663	32658	32647	32691	32895	35892	32217	30970	
1300	0	32698	32735	32684	32827	33719	34874	32055	30061	
1301	0	32708	32679	32533	32705	33739	34551	31045	30327	
1302	0	32781	32674	32562	33063	33861	33637	31876	32133	
1303	0	32820	32757	32548	33157	34041	31716	33215	32458	
1304	0	32875	32797	32485	33267	33679	30422	33372	32259	
1305	0	32799	33109	32539	33495	33399	30651	33327	32676	
1306	0	32848	33015	32623	33639	33991	31356	33087	32495	
1307	0	32957	33191	32582	33893	33747	31678	33627	32303	
1308	0	33024	33119	32642	33671	32849	33346	33637	32323	
1309	0	33215	33159	32642	33751	31666	33501	33831	32486	
1310	0	33275	33173	32590	33489	31675	32923	33919	32673	
1311	0	33327	32999	32589	33147	31919	32956	33503	32732	
1312	0	33328	32963	32417	33058	32454	32796	33250	32509	
1313	0	33205	33069	32485	33108	33055	32519	33103	32615	
1314	0	33086	33047	32249	33047	32903	32436	32830	32837	
1315	0	33055	32999	32173	32762	32863	32159	32727	32979	
1316	0	33073	33001	32054	32943	33481	32045	32867	33019	
1317	0	33075	32919	32295	33021	33735	32033	32941	33471	
1318	0	32988	32802	32405	32603	33627	32359	33083	32923	
1319	0	32998	32500	32365	32519	33015	32389	32830	33455	
1320	0	32939	32335	32502	32241	32467	32319	32229	34468	
1321	0	32846	32431	32483	32237	32191	31721	32159	33359	
1322	0	32785	32447	32719	32286	31459	32057	32023	33413	
1323	0	32709	32571	32823	32389	32783	30108	31955	33037	
1324	0	32652	32557	32677	32339	33618	27917	31645	31062	
1325	0	32489	32639	32877	32415	32839	32027	31535	29612	
1326	0	32506	32863	32851	32443	32095	35598	31286	31253	
1327	0	32518	32673	32927	32123	30541	36373	33209	32740	
1328	0	32476	32735	32801	32369	32284	34231	32942	34007	
1329	0	32374	33023	32711	32709	35065	33193	31247	34903	
1330	0	32270	33170	33063	32909	34819	34560	31921	33287	
1331	0	32107	33442	33172	33093	33372	36691	34781	32511	
1332	0	31903	33373	33365	32895	28987	36631	35436	32729	
1333	0	32071	33260	33359	32647	30013	35951	34415	32343	
1334	0	32202	32958	33316	32551	32637	33511	33133	31935	
1335	0	32463	32812	33035	32506	32391	31743	32524	33035	
1336	0	32647	32660	32866	32327	32811	30735	31869	33287	
1337	0	32583	32631	32809	32583	33137	30495	31866	33781	
1338	0	32782	32715	32839	32710	32413	31266	32463	34055	
1339	0	32935	32741	32747	32765	32079	31706	32119	34164	
1340	0	32932	32815	32693	32941	32763	31218	31191	33395	
1341	0	32843	32823	32839	32767	33324	31711	31959	32191	
1342	0	33028	32567	32743	32285	33927	31441	31987	33077	
1343	0	33047	32690	32607	32186	33883	31524	32445	32705	
1344	0	33061	32591	32695	32100	34139	34807	32915	31591	
1345	0	33007	32562	32695	32085	33223	35159	32943	31335	
1346	0	32858	32689	32866	31989	32310	31797	33193	31267	
1347	0	32732	32845	32716	32182	32679	29365	33343	33315	
1348	0	32724	32827	32759	32097	33519	31653	33799	32311	
1349	0	32775	32467	32420	31911	33181	32871	33412	31989	
1350	0	32679	32615	32463	32258	34060	32129	31775	32851	
1351	0	32796	32455	32455	32215	33375	33063	32054	33433	
1352	0	32838	32412	32553	32363	33087	34277	32459	32191	
1353	0	32704	32683	32513	32574	33054	34396	32999	31173	
1354	0	32611	32702	32587	32763	32233	34818	33453	32123	
1355	0	32684	32838	33031	33071	30252	35954	33247	31230	
1356	0	32670	32927	33168	33221	30043	35023	32503	32114	
1357	0	32655	33108	33095	33136	31788	34895	33223	31252	
1358	0	32487	33012	32948	33327	31170	34746	32948	32357	
1359	0	32438	32949	32382	33157	31303	33367	32107	33927	
1360	0	32784	32950	32143	33414	32335	32174	31675	34581	
1361	0	32881	33051	32037	33279	34238	31785	32255	33807	
1362	0	32893	32887	32440	33407	32759	32455	33345	32850	
1363	0	32855	32839	32668	33490	32471	32499	34006	31980	
1364	0	32945	32807	32775	33230	32314	31615	34183	32603	
1365	0	32876	32868	32679	33150	31671	31374	34610	32239	
1366	0	32919	32885	32663	32835	33305	31008	33991	31256	
1367	0	32858	32809	32851	33027	33967	29337	33321	32065	
1368	0	32996	32593	32817	32812	33709	30135	30716	33287	
1369	0	32973	32697	33023	32573	34231	31367	30979	32701	
1370	0	32949	32509	32662	32151	35025	32994	31278	31579	
1371	0	32793	32487	32577	31599	33546	33611	32155	32570	
1372	0	32744	32371	32481	31210	32582	33451	32367	34951	
1373	0	32738	32391	32410	31210	32188	32342	32825	36549	
1374	0	32604	32583	32828	31524	32737	32054	33647	34117	
1375	0	32635	32613	32999	31459	32066	31781	34118	32483	
1376	0	32674	32687	33125	31751	31965	34994	33507	31327	
1377	0	32654	32789	32861	31863	32441	34255	33095	31919	
1378	0	32647	32839	32573	32135	33330	32837	33759	31923	
1379	0	32491	33223	32461	32476	34230	29671	33522	31843	
1380	0	32632	33159	32246	32789	33611	29933	32723	32293	
1381	0	32948	32731	32045	32525	32902	33219	32591	32829	
1382	0	33046	32699	32479	32793	32810	33637	31995	32379	
1383	0	32993	32951	32839	33117	33429	33191	31665	32215	
1384	0	33012	33053	32998	33227	33191	33207	31273	33105	
1385	0	33063	32987	33019	33175	32815	34771	30063	33455	
1386	0	32828	32959	32932	33132	32295	35019	31239	33049	
1387	0	32844	32885	32919	33205	32391	33791	32555	33723	
1388	0	32786	32749	32758	33031	33503	32623	32183	33663	
1389	0	32703	32751	32835	33012	32655	33554	33199	32473	
1390	0	32838	32617	32609	32585	31655	32209	32591	32263	
1391	0	32645	32853	33031	32810	30815	31233	32725	32758	
1392	0	32655	32679	32850	32605	29490	31565	33479	33313	
1393	0	32628	32838	33005	32743	29461	33367	34425	32940	
1394	0	32717	32719	32658	32455	32049	35132	33744	32198	
1395	0	33042	32575	32461	32421	33685	33483	32994	31965	
1396	0	33182	32550	32342	32391	34401	32002	32881	31175	
1397	0	32938	32791	32631	32639	33255	34398	32703	31058	
1398	0	32813	32929	32660	32806	34042	35639	33229	30903	
1399	0	32692	32927	32783	33007	35813	34019	33016	31429	
1400	0	32742	32935	32734	32825	34933	32061	32555	32511	
1401	0	32636	32837	32703	32743	33044	31221	33759	32450	
1402	0	32615	32869	32658	32655	31123	31647	35613	31879	
1403	0	32707	32647	32647	32729	31950	32031	34797	32374	
1404	0	32714	32663	32514	32821	32879	32495	33723	32681	
1405	0	32647	32775	32647	32951	32852	32437	31933	33774	
1406	0	32623	32815	32661	32749	32667	31391	29394	34295	
1407	0	32557	32623	32719	32749	32657	30967	29935	34505	
1408	0	32615	32594	32771	32519	33199	31063	30975	35269	
1409	0	32639	32554	32803	32469	32703	31719	31799	34770	
1410	0	32781	32551	32615	31963	33135	31231	33115	34477	
1411	0	32724	32535	32720	32119	32112	31492	33975	33397	
1412	0	32702	32759	32660	32291	31775	32495	33635	31575	
1413	0	32611	33047	32712	32117	33157	32812	33587	30697	
1414	0	32637	32959	32747	32379	32609	33133	33919	31174	
1415	0	32815	32849	32791	32412	31893	33879	33151	32167	
1416	0	32825	32750	32799	32437	32564	34586	32911	32135	
1417	0	32940	32674	32767	32437	32391	35001	32981	31239	
1418	0	32839	32645	32788	32595	32724	34679	31967	31543	
1419	0	32788	32809	32807	32685	32391	34171	31623	32660	
1420	0	32713	32935	32839	33186	34279	33129	32023	32371	
1421	0	32788	32945	32732	33538	34951	31807	31399	32174	
1422	0	32878	32877	32677	33229	33766	31613	31719	33069	
1423	0	32864	32775	32574	33130	32474	31767	33345	32519	
1424	0	32843	32782	32647	33196	31145	32373	34375	31799	
1425	0	32965	32551	32365	32703	31458	32715	33034	32921	
1426	0	32988	32455	32407	32786	32679	30937	31062	34367	
1427	0	32833	32573	32685	32894	33340	32295	31708	34223	
1428	0	32606	33033	33015	33252	32085	36836	33143	31844	
1429	0	32524	33106	33099	33239	32103	35700	33879	31647	
1430	0	32589	33127	33073	33175	32925	32083	33313	34107	
1431	0	32647	32979	32956	32874	33747	32295	33011	33781	
1432	0	32679	32955	32873	32671	33015	33455	33678	32678	
1433	0	32719	32599	32543	32258	32839	31289	33625	33439	
1434	0	32779	32730	32453	32435	32999	31229	32787	32972	
1435	0	32722	32845	32278	32549	33868	31155	31762	31168	
1436	0	32729	32834	32355	32514	32341	32358	31847	31230	
1437	0	32753	32797	32333	32397	31958	32903	31623	32359	
1438	0	32733	32868	32677	32443	31326	33107	34594	32109	
1439	0	32731	32879	32714	32367	31031	33574	35191	32043	
1440	0	32695	32921	32813	32356	32212	33927	33655	33236	
1441	0	32773	32759	32759	32134	33567	33738	32903	32631	
1442	0	32843	32729	32694	32333	33692	33949	33212	32263	
1443	0	32892	32647	32449	32342	33437	32809	32959	32871	
1444	0	32926	32647	32437	32147	33319	32135	32191	33414	
1445	0	32966	32533	32476	31999	32871	32210	32463	33167	
1446	0	32903	32603	32687	32352	33383	32340	32431	33180	
1447	0	32868	32671	32701	32391	33554	31739	32191	33223	
1448	0	32852	32583	32923	32586	33055	31947	32327	33181	
1449	0	32884	32681	32799	32623	33252	31463	32503	32505	
1450	0	32886	32433	32895	32839	33015	30965	31980	31613	
1451	0	32832	32525	32783	32947	32020	31271	31931	30866	
1452	0	32829	32721	32795	33010	32067	32052	32131	31454	
1453	0	32814	32841	32595	33181	33325	32332	31539	32263	
1454	0	32732	32863	32765	33274	34847	31799	31332	33616	
1455	0	32566	33063	32775	33391	35334	31277	31826	35846	
1456	0	32669	32932	32585	33010	32292	35591	34081	36866	
1457	0	32652	32867	32629	32945	29527	38839	35335	35380	
1458	0	32534	32833	32988	32659	30398	35877	34767	32852	
1459	0	32326	33148	33229	32687	32448	32282	32303	29623	
1460	0	32405	33069	33030	32939	32130	30307	31590	29783	
1461	0	32329	32903	32949	33124	32775	30449	33444	30295	
1462	0	32501	32821	32871	33159	32767	31643	33467	31299	
1463	0	32767	32658	32655	33049	32708	31453	32791	32116	
1464	0	32786	32587	32709	32827	33423	32007	32519	32694	
1465	0	33019	32509	32789	32961	33217	33053	32173	33039	
1466	0	32919	32686	32903	33159	32676	34114	32774	33071	
1467	0	32857	32613	32863	33199	31701	34701	32709	33799	
1468	0	32860	32775	32695	33239	32903	34243	32500	33927	
1469	0	33191	32786	32583	33465	33321	34165	32378	33891	
1470	0	33122	32838	32527	33243	32541	33255	33259	32817	
1471	0	32956	32903	32669	33391	33115	30484	33615	32454	
1472	0	32903	32957	32453	33079	34039	30457	31855	32725	
1473	0	33069	32855	32463	32797	34065	32518	31789	32391	
1474	0	32868	32855	32402	32940	33750	34803	31179	33568	
1475	0	32703	32911	32541	32956	33461	36438	32390	32420	
1476	0	32764	33150	32583	32879	33226	35362	33941	31090	
1477	0	32814	33157	32815	33111	32455	35295	33511	31668	
1478	0	32802	33031	33019	33103	31494	33618	31967	32595	
1479	0	32745	32918	32795	32847	29823	33877	31983	32439	
1480	0	32723	32828	32877	32694	30388	32981	33730	31671	
1481	0	32774	32783	32863	32228	31593	29902	33718	34164	
1482	0	32871	32575	32819	31709	32845	31239	33463	33671	
1483	0	32695	32733	32668	31836	33311	30447	33147	32543	
1484	0	32748	32548	32679	31819	33489	30738	32913	31831	
1485	0	32647	32603	32482	31682	33005	30988	32839	33093	
1486	0	32481	32561	32566	31359	33615	30087	32681	32647	
1487	0	32384	32628	32757	31559	33465	28996	32150	32151	
1488	0	32318	32671	32930	31751	33671	29741	32598	32257	
1489	0	32479	32587	32827	31671	33591	32710	32385	32333	
1490	0	32642	32330	32387	31543	33097	33330	31751	32239	
1491	0	32983	32271	32204	31719	32390	34861	32151	32783	
1492	0	32987	32551	32668	32095	32615	35367	32902	32555	
1493	0	32966	32607	32887	31860	32211	37185	32711	32647	
1494	0	32998	32647	32567	32033	31931	37698	32647	33231	
1495	0	32974	32799	32707	32332	33221	35073	32978	34167	
1496	0	32867	32955	32873	32535	33819	30807	33539	34087	
1497	0	32893	32892	32603	32639	32829	33135	33871	32962	
1498	0	32924	33018	32751	32919	30715	33519	33940	32076	
1499	0	32876	32959	32541	33223	31111	32594	33755	31943	
1500	0	32903	33083	32927	33791	32286	32295	32805	31266	
1501	0	32859	33014	32903	34021	33387	31178	30724	32500	
1502	0	32771	33021	33001	34223	33542	31954	30299	33415	
1503	0	32592	33217	32963	34129	34343	31775	31126	33695	
1504	0	32518	33183	32855	34218	35195	32295	32706	32515	
1505	0	32641	32891	32607	33730	35236	33501	32935	32380	
1506	0	32727	32925	32633	33522	34807	32231	33031	32197	
1507	0	32784	32870	32595	33354	33445	31458	33236	32481	
1508	0	32765	32871	32701	33415	32857	30998	33547	32407	
1509	0	32797	32782	32571	33081	31237	32383	33790	32463	
1510	0	32742	32737	32690	32855	29362	32519	35519	32447	
1511	0	32679	32698	32663	32325	29618	32263	34895	32842	
1512	0	32681	32603	32775	32188	31661	32563	32207	33155	
1513	0	32646	32697	32754	32085	32423	33054	31362	33015	
1514	0	32719	32647	32685	31903	33155	32143	31806	32477	
1515	0	32828	32567	32507	31817	33927	31934	31809	32149	
1516	0	32876	32364	32423	31893	34218	32343	31191	32775	
1517	0	32903	32349	32476	31709	33825	32759	29215	35231	
1518	0	32698	32592	32543	31847	31977	31796	29631	35103	
1519	0	32718	32535	32645	31910	31397	30683	32642	32903	
1520	0	32751	32754	32657	31937	33437	31674	34924	32014	
1521	0	32576	32942	32873	32359	32302	35892	36425	30931	
1522	0	32463	33057	32993	32605	31449	37743	36788	29917	
1523	0	32615	32903	32815	32647	31685	35841	35581	29855	
1524	0	32557	32815	32855	32887	33158	31659	33206	31968	
1525	0	32764	32749	32587	32689	32199	33263	31247	32912	
1526	0	32807	32677	32677	32839	32242	33154	30975	33543	
1527	0	32775	32799	32758	32479	33186	32379	31524	32863	
1528	0	32726	32811	32935	32487	33367	33735	32634	32483	
1529	0	32834	32612	32689	32198	32239	32706	31702	33685	
1530	0	32754	32885	33055	32579	32327	33341	32460	33687	
1531	0	32692	32927	33271	32493	32879	33582	33644	32837	
1532	0	32631	32923	33187	32625	33079	33494	33787	32361	
1533	0	32851	32838	32723	32590	32995	33445	33135	33203	
1534	0	32972	32821	32695	32548	33317	33153	32797	33461	
1535	0	32951	32738	32703	32527	33084	33635	32797	33345	
1536	0	32843	32731	32706	32556	33399	32969	32767	32319	
1537	0	32916	32670	32775	32572	33029	32159	32309	32244	
1538	0	32838	32775	32775	32896	32030	32183	32443	31970	
1539	0	32743	32926	32959	33119	32706	30016	31878	32196	
1540	0	32824	32887	32743	33119	33122	31394	31317	31911	
1541	0	32749	32861	32531	33058	33051	32899	31527	32098	
1542	0	32674	32727	32567	32882	34207	32063	31004	33081	
1543	0	32599	32756	32448	32911	35079	32229	31359	33667	
1544	0	32775	32854	32295	33029	33862	32566	32465	33250	
1545	0	32867	32658	32221	32877	32258	32847	31977	32707	
1546	0	32767	32738	32427	32738	32324	32391	32475	32332	
1547	0	32689	32801	32579	32615	32595	31111	34746	31387	
1548	0	32596	33027	32755	32797	33046	31559	34751	31751	
1549	0	32685	32786	32714	32727	32833	32468	34791	32327	
1550	0	32716	32895	32951	32686	30757	33539	36367	33639	
1551	0	32796	32699	32583	32582	30332	33436	33874	34448	
1552	0	32874	32759	32807	32497	32100	32572	31085	33983	
1553	0	32838	32684	32940	32527	33871	31602	32335	33396	
1554	0	32829	32747	32943	32239	33453	31172	32634	33407	
1555	0	32696	32838	33015	32359	32759	31294	34639	31795	
1556	0	32887	32671	32999	31831	31765	32607	35940	31015	
1557	0	32924	32383	32612	31471	31479	32355	34055	32102	
1558	0	32964	32381	32699	31783	32581	31899	33268	33115	
1559	0	32772	32527	32775	32327	32711	32258	33159	33723	
1560	0	32782	32532	32658	32507	32847	31795	30751	33671	
1561	0	32624	32507	32657	32936	32560	34213	29229	33201	
1562	0	32474	32879	32715	33223	33071	35237	30237	32278	
1563	0	32552	33063	32643	33381	32871	35611	30679	32551	
1564	0	32660	33039	32575	33252	32845	34839	30599	31903	
1565	0	32731	33053	32239	33345	33023	32456	32177	31189	
1566	0	32714	33039	32527	33257	34041	33449	32729	30663	
1567	0	32756	32991	32655	33453	32333	35607	32367	32873	
1568	0	32622	33159	32773	33497	31785	35970	33622	32305	
1569	0	32754	33023	32427	33571	31986	33371	34306	32094	
1570	0	32978	33031	32449	33295	33387	29213	33375	32895	
1571	0	32861	32950	32795	33014	33145	31507	32839	33110	
1572	0	32751	33135	32855	33365	33625	32231	33501	32327	
1573	0	32878	32935	32836	33143	33763	32119	33206	33068	
1574	0	32982	32997	32757	33091	33427	34623	32903	33287	
1575	0	33039	32811	32817	32961	33263	36199	32279	33283	
1576	0	32957	32903	32594	32935	32212	35327	31503	33813	
1577	0	32917	32797	32495	32823	32335	33347	32614	33581	
1578	0	32855	32743	32571	32542	32923	32135	33110	33245	
1579	0	32742	32804	32721	32626	33471	30748	32462	33287	
1580	0	32614	32775	32812	32547	32303	31005	32519	32924	
1581	0	32524	32749	32831	32551	32452	30791	32245	32986	
1582	0	32639	32724	32713	32159	32676	31191	32851	32903	
1583	0	32765	32497	32684	32143	33215	30727	33449	32999	
1584	0	32807	32537	32609	32059	32615	32527	33531	32237	
1585	0	32735	32705	32899	32246	32492	33389	32801	32053	
1586	0	32668	32828	32927	32315	32087	33883	32837	32063	
1587	0	32813	32700	32701	32303	32526	33231	33823	30822	
1588	0	32888	32655	32507	32250	33017	32729	33262	31285	
1589	0	32728	32575	32679	32247	32189	34959	33260	31457	
1590	0	32717	32549	32589	32021	32634	35623	33007	31725	
1591	0	32558	32585	32522	32263	33355	32678	32293	31748	
1592	0	32526	32743	32471	32508	34282	29634	33311	31145	
1593	0	32553	32827	32545	32586	34481	29343	33458	30389	
1594	0	32670	32695	32764	32335	32308	29799	32484	32865	
1595	0	32978	32525	32655	32223	32057	28551	31357	34939	
1596	0	32932	32523	32707	32330	35069	27138	31191	34341	
1597	0	33082	32391	32551	32306	34439	28855	32417	36261	
1598	0	33083	32556	32643	32391	32911	31812	32773	36935	
1599	0	32886	32829	32847	32779	29983	34687	32355	36071	
1600	0	32780	33159	33099	32974	30725	38036	31933	34765	
1601	0	32816	33386	32955	33127	30983	42487	33870	30640	
1602	0	32867	33143	32841	32759	30753	40607	33482	29149	
1603	0	32859	32908	32605	32799	31865	33195	33113	29510	
1604	0	32793	32662	32763	32810	32845	29711	33129	31049	
1605	0	32738	32940	32689	33041	34287	31565	32485	33927	
1606	0	32801	32969	32758	33077	34123	34805	32871	34096	
1607	0	32749	32963	32582	33479	31671	37087	34031	32164	
1608	0	32647	32994	32699	33687	31999	35004	32378	31977	
1609	0	32735	32971	32639	33523	32586	33063	32506	32106	
1610	0	32628	33031	32327	33443	32902	31559	33494	32311	
1611	0	32564	33086	32771	33231	33895	30797	32349	32164	
1612	0	32663	32831	32687	33027	33829	31295	31225	32566	
1613	0	32866	32654	32567	32437	33183	32247	30825	32941	
1614	0	32834	32662	32647	32503	34684	30583	31230	32435	
1615	0	32799	32668	32725	32466	33725	29755	31981	32435	
1616	0	32847	32677	32593	32463	30615	29652	34256	32386	
1617	0	32647	32895	32918	32529	30706	30127	35455	31133	
1618	0	32657	32861	32720	32584	32884	31689	34535	31439	
1619	0	32764	32461	32796	32215	33127	33468	33787	33591	
1620	0	32773	32415	32689	32308	30514	35641	34799	34183	
1621	0	32629	32756	32647	32278	31250	34983	34693	33791	
1622	0	32636	32847	32624	32519	33405	34381	32019	33427	
1623	0	32625	32943	32814	32594	35183	34151	29958	33134	
1624	0	32684	32839	32839	32439	34043	33895	29999	32743	
1625	0	32773	32775	32691	32391	33634	33526	31170	32605	
1626	0	32873	32679	32644	32413	34137	32529	31489	32230	
1627	0	32869	32757	32443	32495	35235	31623	31887	31931	
1628	0	32925	32799	32639	32284	35023	31527	32412	32469	
1629	0	32948	32658	32477	32372	32843	32251	33972	32959	
1630	0	32996	32602	32514	32327	32135	32662	34095	32954	
1631	0	32958	32623	32515	32379	31747	33065	32958	33223	
1632	0	32762	32815	32607	32671	30846	33003	32707	33047	
1633	0	32627	32871	32743	32814	31537	32963	33125	32759	
1634	0	32679	32784	32690	32487	31999	33595	33005	32727	
1635	0	32700	32731	32713	32631	31521	34255	33538	33207	
1636	0	32829	32454	32590	32351	30151	34415	32746	33213	
1637	0	32855	32399	32614	32052	31796	31535	31071	33959	
1638	0	32789	32525	32864	32221	33439	28444	32292	33874	
1639	0	32550	32851	32973	32481	32807	26149	36197	31012	
1640	0	32472	33156	33272	32327	32188	31185	37065	29021	
1641	0	32365	33022	33126	32563	32804	32485	35047	30751	
1642	0	32583	32951	32946	32289	33031	32702	33127	31389	
1643	0	32610	32708	32919	32197	33143	32911	32982	33175	
1644	0	32707	32871	32935	32210	33204	33698	32735	33611	
1645	0	32747	32712	32936	32307	32892	33635	31245	33399	
1646	0	32726	32749	32767	32479	33150	34523	30663	32914	
1647	0	32876	32857	32671	32716	32964	35088	30871	33494	
1648	0	33012	32751	32595	32797	33347	34927	31687	33808	
1649	0	32962	32980	32671	33399	33685	34273	31943	33536	
1650	0	32973	32974	32839	33667	32804	34115	31570	33249	
1651	0	32911	33150	32775	33828	32635	33847	31951	32526	
1652	0	32913	33183	32743	33927	33171	33063	32167	32687	
1653	0	32903	33027	32559	33863	32930	32964	32181	32493	
1654	0	32924	32915	32509	33665	32263	32647	32113	32549	
1655	0	32793	32903	32724	33412	32892	31934	32799	32879	
1656	0	32714	32821	32787	33254	32565	31239	33239	33372	
1657	0	32711	32835	32751	33141	32642	31523	33071	33415	
1658	0	32708	32815	32647	33015	32523	32305	32775	33127	
1659	0	32715	32837	32615	32916	32369	33502	32711	31740	
1660	0	32658	32710	32611	32683	32898	32269	32967	30736	
1661	0	32773	32647	32775	32607	33563	30639	33299	30531	
1662	0	32765	32598	32858	32346	32941	30709	33223	32183	
1663	0	32860	32405	32762	32222	32858	31409	32813	34987	
1664	0	32748	32362	32464	31911	33452	31857	32551	33749	
1665	0	32827	32375	32305	31491	32522	32342	32079	32127	
1666	0	32828	32541	32357	31479	32162	32583	30756	34805	
1667	0	32590	32800	32790	31837	32818	39386	31009	33261	
1668	0	32463	32999	33115	32217	34386	37577	32695	29447	
1669	0	32383	33132	33014	32327	33575	32540	32775	32417	
1670	0	32422	32993	32631	32415	32839	32103	32893	32191	
1671	0	32740	32758	32420	32423	31007	29587	34647	32085	
1672	0	32926	32762	32356	32625	29093	33024	34391	32976	
1673	0	32940	32677	32647	32799	29863	35030	33613	32980	
1674	0	32881	32769	32823	33287	32126	34999	33127	32434	
1675	0	32925	32818	32767	33361	33543	34246	32539	31718	
1676	0	32962	32850	32858	33557	34601	33399	32459	31987	
1677	0	32909	32991	33001	33367	35387	31802	32991	32279	
1678	0	32903	32983	33079	33403	34335	31791	33390	32919	
1679	0	32838	32890	32995	33124	32823	32402	32982	33111	
1680	0	32828	32799	32825	33069	32014	32391	32663	33524	
1681	0	32845	32676	32800	33194	32273	32275	32815	32989	
1682	0	32799	32636	32538	33045	32927	32079	32647	32647	
1683	0	32867	32747	32567	32903	33255	31855	32430	32413	
1684	0	32750	32771	32479	32577	34047	31483	32800	32435	
1685	0	32771	32911	32659	32663	33326	31917	32853	32630	
1686	0	32681	32783	32583	32447	32175	32127	32633	32485	
1687	0	32768	32687	32631	32455	32319	32093	32625	32471	
1688	0	32698	32652	32675	32295	33791	30955	32434	32114	
1689	0	32736	32559	32619	32255	34881	30767	32007	33007	
1690	0	32753	32582	32583	32279	34799	31527	31967	32367	
1691	0	32700	32706	32599	32353	33557	32217	31575	33059	
1692	0	32666	32665	32583	32263	33307	32583	31319	33332	
1693	0	32738	32639	32518	32183	34383	33247	30831	32727	
1694	0	32607	32767	32661	32361	33709	33062	33926	33709	
1695	0	32549	32903	33031	32387	29695	34149	34807	33368	
1696	0	32564	32999	32902	32438	25735	36162	34855	34543	
1697	0	32530	32975	33023	32407	27165	33847	35638	33092	
1698	0	32749	32897	32847	32223	29359	32164	35199	32647	
1699	0	32663	32660	32845	31989	31071	32319	34471	32935	
1700	0	32644	32692	32583	31889	33088	30443	32695	32807	
1701	0	32709	32543	32389	31777	33726	31425	31908	32485	
1702	0	32763	32493	32398	31693	33119	34864	31951	31381	
1703	0	32638	32679	32431	31746	33140	35885	32555	31030	
1704	0	32562	32620	32527	32079	33779	34727	32263	31527	
1705	0	32665	32635	32615	32482	33964	33991	32054	31941	
1706	0	32786	32715	32676	33023	34343	33494	31220	31683	
1707	0	32785	32933	32769	33075	33858	32666	29963	32124	
1708	0	32754	32963	32919	33287	32933	33245	30703	33172	
1709	0	32822	33003	32893	33511	33199	32829	31861	33837	
1710	0	32983	32804	32759	33359	32022	31363	32591	33685	
1711	0	32936	32932	32743	33212	35796	31077	30418	33181	
1712	0	32868	32959	32935	33415	38487	31297	29597	33102	
1713	0	32876	33143	32855	33496	35700	33407	31836	32826	
1714	0	32952	32991	32919	33309	32412	32919	37233	32647	
1715	0	32885	33091	33097	33602	30439	31485	37528	31587	
1716	0	32900	32900	32941	33243	29384	31527	35394	32623	
1717	0	32913	32966	32784	32963	31378	32258	32665	34027	
1718	0	32903	32791	32791	32551	31759	34965	31865	33620	
1719	0	32831	32804	32711	32391	31887	33703	32761	33763	
1720	0	32869	32463	32629	32096	32727	32127	32935	33191	
1721	0	32709	32591	32583	32078	33724	34099	33031	31375	
1722	0	32605	32505	32647	32031	32799	33364	33654	29846	
1723	0	32646	32563	32471	31853	33311	30287	33967	29981	
1724	0	32591	32535	32525	31816	34695	29257	32999	29998	
1725	0	32541	32541	32861	31757	34073	29745	32775	29813	
1726	0	32615	32461	32910	31581	33403	32723	32315	31231	
1727	0	32728	32415	32676	31571	30613	35303	31509	34692	
1728	0	32726	32551	32683	31713	30631	35270	32057	37062	
1729	0	32570	32698	32695	32249	31827	33445	33213	35703	
1730	0	32540	32775	32780	32581	33525	31239	33380	34927	
1731	0	32671	32731	32519	32863	33912	31493	32813	35405	
1732	0	32768	32950	32590	33076	33258	28692	31751	33221	
1733	0	32738	33052	32711	33203	32583	31209	31469	31619	
1734	0	32747	33035	32313	33195	33097	34775	32007	31064	
1735	0	32785	32902	32309	33154	33415	36567	32377	32711	
1736	0	32836	32871	32735	33334	32967	34943	32622	32717	
1737	0	32796	33053	32903	33551	33259	33375	31127	32479	
1738	0	32806	33303	33245	33711	33235	33203	30748	31604	
1739	0	32628	33321	33625	34164	32356	34839	31958	30974	
1740	0	32699	33063	32855	34191	30599	35971	33445	29951	
1741	0	32927	32962	32676	34204	32467	35847	35073	30849	
1742	0	32985	32903	32583	33799	32375	35670	35167	32087	
1743	0	32868	32911	32870	33767	32919	33870	33603	33199	
1744	0	32751	32887	32971	33533	32526	32945	33063	33455	
1745	0	32704	32895	32851	33522	32924	31531	32684	33889	
1746	0	32874	32775	32623	32949	31794	31686	32263	34027	
1747	0	32881	32615	32554	32949	31925	32519	31812	34225	
1748	0	32856	32611	32529	32502	32706	32149	32981	33063	
1749	0	32990	32555	32565	32086	32745	31188	33043	31042	
1750	0	32841	32644	32687	32081	33863	29772	31735	31818	
1751	0	32687	32751	32725	31922	32972	31228	32508	32775	
1752	0	32611	32761	32675	31583	32391	34095	32923	31008	
1753	0	32518	32895	32748	31858	31141	32685	32731	31747	
1754	0	32647	32775	32684	32046	31703	30725	32501	33906	
1755	0	32738	32570	32550	31855	33349	31579	32531	35666	
1756	0	32767	32583	32587	32027	33295	32207	32189	37170	
1757	0	32599	32660	32663	32446	33959	32996	33142	34109	
1758	0	32733	32629	32676	32403	32933	34290	33347	33227	
1759	0	32646	32684	32573	32574	33309	32759	32947	32939	
1760	0	32607	32733	32647	32471	33683	31199	33201	31103	
1761	0	32762	32615	32628	32373	33119	30814	32676	31925	
1762	0	32742	32583	32839	32433	32859	31063	32423	32575	
1763	0	32685	32598	32787	32387	32595	31499	32747	31614	
1764	0	32724	32513	32903	31941	33039	32314	32543	30830	
1765	0	32692	32411	33013	31727	32785	33865	32335	30991	
1766	0	32775	32601	33135	31653	32679	33155	32345	31721	
1767	0	32998	32449	32895	31760	32306	32356	32837	33371	
1768	0	32891	32463	32815	31982	32280	32871	33679	33431	
1769	0	32884	32760	32594	32491	32887	32223	33238	32241	
1770	0	32817	32813	32604	32847	33287	32015	32775	31917	
1771	0	32700	32898	32241	33359	32540	33503	32575	31972	
1772	0	32778	33039	31912	33882	33206	32388	32103	32590	
1773	0	32786	33260	31979	34098	32983	31951	32031	33381	
1774	0	32879	33058	32158	34009	31719	32983	32399	32658	
1775	0	32873	32991	32196	33763	31047	33495	32247	32823	
1776	0	32786	33007	32455	33989	32161	34213	32628	31812	
1777	0	32684	33125	32854	33927	35228	34382	33373	30825	
1778	0	32719	33175	32965	33873	34174	35391	33783	31535	
1779	0	32696	33069	33037	33381	31461	35911	34328	31772	
1780	0	32647	33143	33013	33282	31636	33559	34556	33111	
1781	0	32668	32967	33013	33028	34677	31826	32911	34059	
1782	0	32672	32805	33178	32667	33644	32839	31338	34931	
1783	0	32714	32783	33055	32351	30921	33692	32660	34339	
1784	0	32765	32698	33055	32251	31462	32658	33127	34579	
1785	0	32850	32687	32913	32345	32809	32130	32698	33052	
1786	0	32949	32571	32867	32173	33061	31559	32578	31463	
1787	0	32931	32546	32865	32060	32731	32281	31679	32565	
1788	0	32873	32532	32812	31903	32271	33821	31655	33951	
1789	0	32864	32543	32739	32060	32035	31845	33093	33659	
1790	0	32807	32526	32766	32071	31737	32503	32798	32743	
1791	0	32804	32553	32738	31871	32311	34277	32466	31862	
1792	0	32802	32647	32663	32068	33349	34637	32551	30895	
1793	0	32705	32773	32805	32014	35159	29725	32821	30177	
1794	0	32850	32653	32671	31943	34765	28671	32507	31332	
1795	0	32813	32759	32612	31977	34053	30621	33175	33599	
1796	0	32758	32692	32673	32247	33106	32771	34009	34016	
1797	0	32725	32647	32529	32468	32327	33972	34213	31974	
1798	0	32791	32711	32673	32742	32543	33969	32407	31310	
1799	0	32840	32643	32631	32615	31234	33746	32437	32850	
1800	0	32850	32775	32630	32807	31441	33015	32759	33527	
1801	0	32751	32859	32727	33003	31666	32642	32985	33459	
1802	0	32722	32873	32723	32829	33117	31575	30643	33350	
1803	0	32710	32997	32727	32987	34930	31872	29959	33894	
1804	0	32602	33052	32814	33023	33582	32356	31276	34098	
1805	0	32614	32954	32749	32706	33399	31845	31131	32999	
1806	0	32766	32791	32575	32769	32359	32274	31751	32202	
1807	0	32795	32775	32559	32839	32359	33011	31786	32078	
1808	0	32647	32889	32687	32663	32959	32343	33191	31875	
1809	0	32646	32895	32760	32898	31292	34791	35515	31660	
1810	0	32700	32798	32775	32773	30025	36783	37255	31644	
1811	0	32686	32783	32659	32846	31111	34665	34707	33039	
1812	0	32756	32763	32807	32750	32207	32838	32837	33383	
1813	0	32684	32773	32807	32829	33109	32185	31909	32975	
1814	0	32686	32807	32841	32831	34151	32285	31363	33049	
1815	0	32647	32687	32790	32647	34058	32215	32213	32756	
1816	0	32842	32581	32666	32575	32999	32719	33429	32417	
1817	0	32881	32567	32575	32379	32797	33079	32986	32246	
1818	0	32847	32646	32575	32429	32755	32887	32903	32543	
1819	0	32853	32722	32671	32460	32603	32035	33516	32561	
1820	0	32879	32817	32685	32575	33021	31637	33405	32367	
1821	0	32887	32839	32622	32566	33263	31397	32391	32320	
1822	0	32850	32767	32532	32471	33213	31773	32647	32583	
1823	0	32854	32795	32598	32605	32495	32715	33543	32644	
1824	0	32831	32732	32574	32637	32415	32787	33719	32455	
1825	0	32836	32823	32431	32415	33007	32464	33315	32407	
1826	0	32807	32706	32595	32615	33484	32455	32836	32617	
1827	0	32735	32722	32550	32573	33159	32855	31689	32819	
1828	0	32647	32775	32563	32583	33403	31910	31031	32734	
1829	0	32692	32835	32737	32599	33274	32927	31727	32843	
1830	0	32692	32831	32804	32627	32487	33654	32451	32927	
1831	0	32684	32799	32797	32775	32647	33436	32149	32903	
1832	0	32709	32773	32705	32815	32830	33487	32647	32991	
1833	0	32787	32733	32805	32685	32420	33631	33847	32765	
1834	0	32769	32859	32983	32819	32815	33607	33767	32833	
1835	0	32765	32783	33151	32639	32405	33187	33175	32428	
1836	0	32815	32815	33069	32775	32893	32252	32263	32663	
1837	0	32789	32821	33036	32621	32675	31492	32036	32933	
1838	0	32783	32767	32821	32451	30377	31830	33090	33427	
1839	0	32758	32715	32753	32300	30913	33077	32715	33919	
1840	0	32735	32722	32687	32274	31827	33637	31747	34543	
1841	0	32765	32487	32519	31985	32645	31231	31613	34081	
1842	0	32903	32377	32287	31547	32850	29895	31435	33517	
1843	0	32775	32335	32609	31324	33551	29191	32061	31820	
1844	0	32604	32585	32687	31398	33015	32263	32237	30045	
1845	0	32577	32799	33003	31514	33783	33262	32839	29351	
1846	0	32647	32805	32859	31595	33391	33772	32645	30951	
1847	0	32718	32873	33051	32203	34919	33623	32663	32209	
1848	0	32750	33045	32991	32819	32934	36669	34242	31415	
1849	0	32885	33012	32958	33423	31953	37142	34345	32247	
1850	0	32972	33045	32629	33786	32277	33863	33207	32965	
1851	0	33052	33007	32545	34388	32407	34490	32868	33082	
1852	0	32900	33229	32512	34687	33039	33343	32020	33156	
1853	0	32800	33199	32638	34771	33210	33357	32647	33044	
1854	0	32823	33047	32454	34500	33275	33649	33467	33039	
1855	0	32719	33068	32465	34567	34273	32647	33300	32819	
1856	0	32703	33159	32471	34246	33604	32211	32895	32751	
1857	0	32669	33031	32647	34116	32131	32436	32373	32986	
1858	0	32685	33027	32659	33593	31615	32263	32980	32900	
1859	0	32711	32897	32831	33258	33346	31645	33549	32439	
1860	0	32732	32686	32679	32811	34398	31303	32911	32223	
1861	0	32786	32749	32610	32775	33431	31724	33043	31890	
1862	0	32836	32767	32595	32487	33799	31469	32585	31797	
1863	0	32784	32711	32668	32271	32218	31429	33863	30762	
1864	0	32749	32611	32820	31949	30247	31143	33383	31785	
1865	0	32818	32493	32775	31897	28847	31521	32749	33581	
1866	0	32823	32499	32733	31922	29746	32170	32995	35111	
1867	0	32967	32404	32577	31652	32243	32348	33055	36476	
1868	0	32902	32487	32593	31713	33451	31604	31725	37727	
1869	0	32836	32617	32658	31949	32427	31779	30129	37335	
1870	0	32652	32916	33007	32245	33629	35695	31435	36226	
1871	0	32647	32935	32980	32015	34436	36250	31939	32166	
1872	0	32701	32854	33039	32175	33586	32950	31910	28610	
1873	0	32698	32854	32879	32391	32730	33183	32975	27689	
1874	0	32775	32821	32715	32289	32391	33799	33305	27431	
1875	0	32677	32727	32662	32150	31887	32759	33734	30036	
1876	0	32647	32630	32630	32431	32245	33229	33250	31635	
1877	0	32704	32751	32357	32554	33921	33577	32310	31955	
1878	0	32852	32671	32382	32527	34321	33549	32463	31975	
1879	0	32901	32805	32410	32695	33667	33239	32575	33447	
1880	0	32903	32775	32659	32527	32738	33411	32335	35062	
1881	0	32839	32695	32903	32655	33231	33314	32076	33603	
1882	0	32841	32655	32947	32495	32839	32729	32751	32941	
1883	0	32838	32615	32853	32423	32902	31887	33239	32709	
1884	0	32800	32583	32919	32326	32499	32170	33351	32733	
1885	0	32637	32647	32719	32547	32229	32486	33122	33123	
1886	0	32727	32745	32742	32735	32051	32954	33494	32991	
1887	0	32743	32851	32738	32630	32229	33138	34563	32655	
1888	0	32644	32767	32727	32773	33557	32611	33991	32719	
1889	0	32714	32737	32523	32743	32887	31547	33343	33308	
1890	0	32617	32839	32495	32679	33458	30967	32582	33550	
1891	0	32626	32879	32431	32903	33367	31295	31299	33639	
1892	0	32705	32815	32303	32967	33245	31773	30215	33981	
1893	0	32775	32727	32475	32885	33543	32092	30895	32877	
1894	0	32760	32815	32655	32918	32791	31919	31735	31802	
1895	0	32802	32765	32479	33003	32063	32543	32399	31423	
1896	0	32918	32749	32605	32891	31049	33735	32161	32271	
1897	0	32769	32895	32813	32797	31643	34820	32887	32467	
1898	0	32711	32819	33106	32894	32615	33847	33279	32661	
1899	0	32672	32879	33063	32931	32070	32092	33973	32398	
1900	0	32641	32863	33113	32717	32887	31781	34324	32157	
1901	0	32692	32863	33117	32592	34155	32359	33333	31891	
1902	0	32796	32803	32991	32687	33087	32503	32527	32231	
1903	0	32909	32706	32839	32515	32258	32102	32260	33125	
1904	0	32855	32791	32903	32623	32563	32985	34371	33057	
1905	0	32773	32851	32725	32461	32857	34037	34894	32692	
1906	0	32808	32838	32655	32507	32323	33523	33338	32679	
1907	0	32829	32783	32634	32557	32687	32524	32343	32711	
1908	0	32799	32743	32702	32551	33159	32453	31747	33159	
1909	0	32786	32743	32689	32582	32775	32155	31827	33559	
1910	0	32740	32747	32609	32513	32899	32287	32430	33180	
1911	0	32742	32893	32601	32668	33607	33591	32429	32715	
1912	0	32647	32820	32706	32535	33138	32577	32915	32415	
1913	0	32654	32767	32547	32334	32951	31823	32476	33018	
1914	0	32683	32734	32547	32399	32903	32305	32293	33104	
1915	0	32764	32567	32493	31961	32669	33170	32445	32130	
1916	0	32767	32470	32477	31843	32627	33159	32135	32235	
1917	0	32753	32583	32519	32195	32424	33559	32117	31963	
1918	0	32781	32611	32500	32407	32767	33685	32501	31533	
1919	0	32775	32681	32549	32525	32873	33394	33035	31184	
1920	0	32737	32807	32679	32485	33397	30364	32915	32839	
1921	0	32658	33011	32708	32671	33117	31123	33396	34207	
1922	0	32764	32809	32715	32603	32105	32895	33324	32767	
1923	0	32806	32621	32733	32293	31639	34183	33065	32663	
1924	0	32761	32693	32815	32445	31999	33967	33131	33429	
1925	0	32770	32615	32875	32615	33525	33157	33147	33118	
1926	0	32709	32749	32793	32701	33437	33451	32717	32940	
1927	0	32698	32918	32830	33159	33099	33134	32455	32897	
1928	0	32727	32978	32578	33215	33096	32306	32867	31947	
1929	0	32617	33083	32473	33503	34505	30847	32231	32401	
1930	0	32892	33062	32551	33539	34659	32383	32226	32519	
1931	0	33026	33020	32571	33641	33925	34813	32346	32957	
1932	0	32933	32948	32431	33334	32002	35287	33271	33015	
1933	0	32759	33218	32519	33653	32588	35463	33458	31492	
1934	0	32674	33279	32543	33709	32481	33927	32391	31033	
1935	0	32700	33095	32646	33325	32106	32319	31719	32871	
1936	0	32622	33095	32839	33243	33102	31535	31591	33207	
1937	0	32647	33124	32919	33217	29317	31375	31306	32769	
1938	0	32652	33047	33183	33039	28235	32916	33187	33207	
1939	0	32647	32971	33149	32982	30199	33362	33091	33446	
1940	0	32565	32811	32927	32804	31462	33340	32821	32643	
1941	0	32598	32745	32657	32471	32373	32317	33107	32526	
1942	0	32773	32679	32671	32549	32953	32303	33630	32044	
1943	0	32892	32701	32655	32294	34111	32103	33335	32151	
1944	0	32963	32517	32632	32299	34343	32375	33091	32678	
1945	0	32987	32455	32609	32251	33871	32743	33245	32605	
1946	0	32975	32551	32748	32247	33623	31847	33235	33138	
1947	0	32847	32481	32775	32344	33030	31431	33495	32563	
1948	0	32852	32631	32647	32371	33445	31667	33255	32445	
1949	0	32814	32503	32513	32359	33405	33133	33215	32380	
1950	0	32723	32612	32487	32079	33565	32702	32575	33074	
1951	0	32733	32733	32535	32319	32951	32621	31671	33933	
1952	0	32559	32837	32817	32570	33231	32549	31399	33307	
1953	0	32673	32797	32599	32487	33243	31775	31223	33995	
1954	0	32767	32675	32543	32245	32759	30031	31635	34895	
1955	0	32799	32571	32523	32127	32212	30612	32727	34399	
1956	0	32749	32527	32641	32222	31741	34295	33502	32269	
1957	0	32647	32623	32943	32201	32001	34586	33079	30626	
1958	0	32663	32762	32979	32203	33415	33207	33381	31196	
1959	0	32685	32791	33076	32215	34183	31789	33255	32114	
1960	0	32679	32929	33372	32612	33671	31797	33223	31220	
1961	0	32727	32839	33233	32590	33111	32357	32731	31429	
1962	0	32821	32795	32811	32542	32623	33577	32302	32429	
1963	0	32957	32797	32723	32631	32295	32623	32303	32847	
1964	0	32968	32762	32583	32919	31441	33463	32197	32775	
1965	0	33036	32738	32551	32924	30549	35155	31868	32983	
1966	0	33006	32877	32425	33019	31375	37069	32677	32749	
1967	0	32927	32919	32343	33338	31999	36917	32611	32854	
1968	0	32924	33060	32464	33278	33967	34579	32271	33194	
1969	0	32771	32979	32629	33174	37191	33190	31687	32855	
1970	0	32642	32991	32719	32935	36429	32438	33426	32571	
1971	0	32579	32985	32839	33059	36269	31395	34469	32839	
1972	0	32655	32863	32871	32959	34535	31501	32605	32971	
1973	0	32684	32852	32773	32999	30771	31681	34535	33039	
1974	0	32737	32790	32757	32740	29073	31864	35713	32519	
1975	0	32718	32765	32703	32505	29391	31991	33767	31990	
1976	0	32738	32673	32591	32647	30477	32367	33093	32375	
1977	0	32788	32647	32639	32663	31871	32119	32555	32159	
1978	0	32764	32703	32614	32501	32479	31958	32487	32347	
1979	0	32758	32667	32615	32642	33303	31693	32195	32391	
1980	0	32759	32595	32598	32543	33331	31255	31653	32845	
1981	0	32743	32658	32647	32479	33666	31407	31964	32899	
1982	0	32703	32727	32587	32439	33903	32980	32695	32471	
1983	0	32710	32735	32447	32423	32873	34396	32674	32090	
1984	0	32721	32723	32540	32407	33081	33627	32773	31845	
1985	0	32730	32775	32603	32243	32786	33579	32658	34151	
1986	0	32740	32738	32673	32293	32135	32279	32535	34805	
1987	0	32711	32669	32669	32207	32388	31263	32807	34295	
1988	0	32732	32791	32722	32357	32498	31991	32244	34065	
1989	0	32782	32711	32665	32170	32575	32179	31603	33602	
1990	0	32893	32647	32717	32308	33061	32948	31420	32482	
1991	0	32814	32676	32903	32473	33671	33155	32687	31045	
1992	0	32756	32869	32871	32571	32759	32948	33324	31495	
1993	0	32724	32647	32611	32502	32533	32743	33301	31851	
1994	0	32816	32613	32767	32551	33300	32373	33005	32495	
1995	0	32716	32714	32778	32658	32687	33039	32005	32079	
1996	0	32695	32701	32698	32687	32367	34140	31845	31333	
1997	0	32787	32791	32718	32941	33358	34727	32157	30796	
1998	0	32839	32823	32647	32993	32885	34051	32935	32061	
1999	0	32751	32945	32644	33085	31335	33684	33543	32823	
2000	0	32647	33069	32638	33159	31708	33225	32971	32595	
2001	0	32675	33029	32749	33234	32575	33013	32557	32958	
2002	0	32723	32858	32834	33202	32660	32839	32831	32775	
2003	0	32719	32927	32899	33131	33788	32279	32295	32933	
2004	0	32634	33037	32964	33023	35155	32127	33086	33191	
2005	0	32692	32916	32903	32927	32771	32037	33607	32775	
2006	0	32719	33102	32841	32962	32199	31908	34246	32676	
2007	0	32739	32977	32647	32621	31787	31943	33927	32839	
2008	0	32870	32891	32663	32615	31901	32543	34115	32951	
2009	0	32918	32775	32518	32532	32045	32543	33517	33716	
2010	0	32855	32751	32646	32483	32439	32447	33093	33743	
2011	0	32903	32619	32629	32423	32887	32628	32861	33703	
2012	0	32894	32666	32722	32434	33353	31901	32177	33482	
2013	0	32927	32629	32524	32371	32694	31559	31920	33123	
2014	0	32975	32629	32571	32471	32407	31189	31901	32010	
2015	0	32921	32613	32567	32431	32489	32030	32013	31983	
2016	0	32847	32609	32679	32412	32597	32005	32599	32175	
2017	0	32760	32590	32700	32323	33318	32420	32289	32865	
2018	0	32807	32549	32660	32431	32935	34277	31717	32548	
2019	0	32652	32749	32735	32605	33375	34591	32486	31732	
2020	0	32615	32933	32903	32791	33423	35159	32673	31879	
2021	0	32652	32947	32811	32839	33085	35775	32695	31277	
2022	0	32743	32787	32643	32475	32151	33518	33011	31049	
2023	0	32743	32788	32719	32702	31994	32674	33415	30659	
2024	0	32720	32887	32715	32763	31215	33139	34015	31359	
2025	0	32702	32746	32815	32598	32399	32583	33173	32903	
2026	0	32738	32743	32793	32345	33900	29799	32453	34774	
2027	0	32741	32615	32707	32358	34051	28617	32387	35305	
2028	0	32738	32660	32775	32474	33575	31591	32391	34407	
2029	0	32743	32583	32783	32647	33455	33516	32450	32671	
2030	0	32788	32695	32841	32621	32861	33751	32594	32646	
2031	0	32695	32743	32621	32799	32387	33577	32220	33413	
2032	0	32602	32951	32615	32839	32559	33593	32271	32700	
2033	0	32694	32877	32289	32943	32475	33263	32391	32506	
2034	0	32687	32999	32252	32791	32516	32719	32893	32319	
2035	0	32713	32942	32402	32986	32387	33747	32802	32517	
2036	0	32750	32997	32751	33139	32770	33380	32615	32613	
2037	0	32775	32951	32715	33281	33492	31996	32831	32677	
2038	0	32785	33103	32807	33015	33863	31915	32503	32471	
2039	0	32842	32941	32631	33135	33775	32196	32801	31727	
2040	0	32934	32961	32715	33011	33299	32423	31869	32895	
2041	0	32948	32791	32556	32949	32583	33455	31585	34285	
2042	0	32973	32735	32621	32933	32220	33903	31879	33775	
2043	0	32887	32673	32614	32573	32382	34899	32545	32990	
2044	0	32786	32823	32821	32748	33549	34861	32276	33549	
2045	0	32700	32801	32823	32719	30244	33167	32497	33389	
2046	0	32549	33014	33062	32559	29801	31534	33532	33060	
2047	0	32484	33015	32999	32742	31081	32258	34331	32679	
2048	0	32582	32771	32965	32481	31879	32759	34193	32071	
2049	0	32596	32663	32791	32447	32700	32199	34399	32039	
2050	0	32695	32621	32775	32277	32803	32450	34103	32554	
2051	0	32743	32675	32727	32591	34045	31797	32931	31623	
2052	0	32748	32665	32756	32676	33831	31527	33010	31942	
2053	0	32660	32597	32717	32287	33039	32145	32775	32629	
2054	0	32734	32563	32732	32050	33063	32374	32557	32658	
2055	0	32721	32475	32647	32187	32850	32749	31991	32727	
2056	0	32704	32579	32767	32091	32577	32745	31687	32922	
2057	0	32660	32623	32732	32021	32551	32669	31939	32861	
2058	0	32673	32573	32863	32271	32559	32589	32133	32775	
2059	0	32642	32629	32775	32197	33005	32598	32611	32260	
2060	0	32631	32598	33012	32275	32903	32765	32754	32022	
2061	0	32639	32711	32903	32543	32487	32903	32498	32045	
2062	0	32704	32477	32942	32405	32591	32999	32604	32000	
2063	0	32729	32557	32860	32375	32707	33233	32495	31959	
2064	0	32830	32559	32821	32311	32429	33445	32423	32205	
2065	0	32743	32575	32693	32533	33239	32745	32647	31771	
2066	0	32735	32601	32828	32615	33726	32612	33255	32135	
2067	0	32696	32701	32787	32538	33885	32263	33453	32071	
2068	0	32759	32676	32821	32557	33339	31575	32687	33707	
2069	0	32806	32727	32703	32647	31887	32202	33159	33511	
2070	0	32875	32754	32555	32562	31751	32978	33509	32015	
2071	0	32868	32775	32641	32831	32831	32903	32601	32199	
2072	0	32967	32661	32511	32757	32679	33903	32274	31982	
2073	0	32829	32815	32663	32717	33061	32757	33047	32519	
2074	0	32745	33069	32717	33157	33505	32399	33397	33069	
2075	0	32903	32945	32551	33094	35063	33861	32742	33431	
2076	0	32903	33031	32503	33397	33589	33031	32213	33499	
2077	0	32968	32989	32549	33171	31079	32147	32783	34396	
2078	0	33036	32947	32428	33231	32007	32221	33415	33486	
2079	0	33012	32863	32479	33053	33248	34764	33700	31239	
2080	0	33074	33021	32468	33063	32835	33829	33385	30983	
2081	0	33159	32981	32215	33053	32565	31917	33334	31978	
2082	0	33221	32846	32323	32802	32027	32295	33703	32919	
2083	0	33221	32718	32273	32741	33005	31815	34157	33111	
2084	0	33215	32578	32287	32609	33214	31887	33367	33207	
2085	0	33167	32733	32167	32689	33229	31871	32463	32967	
2086	0	33221	32701	32335	32841	32690	32191	32263	32111	
2087	0	33159	32790	32146	33047	33147	32535	32007	31610	
2088	0	33077	32791	32363	33031	33145	32359	31995	31822	
2089	0	32996	32883	32483	32886	33139	32101	32321	32301	
2090	0	32836	32818	32583	32687	33539	31521	32699	32814	
2091	0	32720	32892	32621	32849	34243	30775	33235	33526	
2092	0	32584	33005	32846	32933	32715	33631	32951	33796	
2093	0	32495	33061	32863	32747	31675	34662	33522	33627	
2094	0	32482	32999	32999	32791	32119	34742	33353	32855	
2095	0	32525	32773	32783	32471	32845	34126	32802	32843	
2096	0	32452	32803	32956	32293	32159	33831	32863	32805	
2097	0	32459	32791	32933	32669	32563	33679	31911	32935	
2098	0	32458	32807	32831	32553	32786	34263	31413	32931	
2099	0	32482	32757	32860	32250	32359	34399	30733	33365	
2100	0	32423	32773	32852	32391	32311	34002	30823	33506	
2101	0	32385	32838	33007	32487	32644	33625	32515	32708	
2102	0	32474	32730	32867	32543	31671	32924	33127	32711	
2103	0	32467	32827	32986	32479	32569	31055	32754	32755	
2104	0	32457	32902	32978	32593	33047	30695	33396	32663	
2105	0	32534	32771	33023	32623	32676	33429	33301	32237	
2106	0	32480	32871	32869	32567	32717	33639	32836	32565	
2107	0	32549	32863	32879	32711	32070	32309	32655	32823	
2108	0	32537	32811	32871	32606	31565	32078	32805	32094	
2109	0	32625	32814	32939	32559	32085	31751	32831	31807	
2110	0	32647	32823	32723	32591	32130	31387	32527	32355	
2111	0	32647	32819	32789	32553	32937	31699	32187	32923	
2112	0	32706	32757	32786	32576	33133	32109	32101	32884	
2113	0	32677	32859	32748	32691	32759	33257	32258	32964	
2114	0	32703	32775	32743	32541	32503	33634	31791	33191	
2115	0	32869	32691	32480	32297	32509	33515	32042	34099	
2116	0	32903	32645	32637	32403	32949	32244	33413	33483	
2117	0	32871	32723	32461	32462	32903	32993	33089	31567	
2118	0	32734	32774	32677	32679	33277	32485	33356	29975	
2119	0	32818	32870	32683	32482	33225	30109	33142	30669	
2120	0	32873	32757	32545	32631	33097	30387	32370	34125	
2121	0	32890	32681	32687	32607	33428	31109	32607	35066	
2122	0	32856	32659	32679	32686	33723	32647	32825	33399	
2123	0	32818	32685	32726	32855	33231	32951	32952	31785	
2124	0	32805	32719	32720	32578	34183	32314	32402	31960	
2125	0	32815	32692	32719	32719	33629	34886	32117	32911	
2126	0	32855	32793	32583	32999	32721	36428	32557	33815	
2127	0	32789	32895	32787	32975	32723	34557	33300	32253	
2128	0	32827	32934	32711	32932	31578	33647	33597	32860	
2129	0	32847	32765	32679	32815	31064	33318	33019	33170	
2130	0	32834	32775	32727	32639	33058	32903	32399	31836	
2131	0	32807	32838	32817	32850	33601	32818	33379	31105	
2132	0	32797	32820	32627	32879	31835	33287	32899	31908	
2133	0	32769	32893	32718	32653	33207	33983	31827	32334	
2134	0	32775	32773	32623	32765	33641	33247	31783	32319	
2135	0	32763	32818	32686	32692	33584	32041	31874	32851	
2136	0	32800	32762	32724	32626	32415	32351	32533	32813	
2137	0	32787	32726	32754	32545	31866	32274	33796	32893	
2138	0	32640	32839	32839	32513	30677	32373	35573	32621	
2139	0	32677	32855	32673	32587	30879	32725	35634	32660	
2140	0	32716	32871	32787	32443	32769	32535	33589	32730	
2141	0	32712	32724	32607	32447	34205	32445	32482	32815	
2142	0	32762	32727	32719	32734	33207	32462	32587	32564	
2143	0	32775	32707	32551	32716	32282	32258	32670	32647	
2144	0	32834	32743	32631	32493	32711	32287	32932	32423	
2145	0	32749	32727	32615	32583	33078	32191	33069	32558	
2146	0	32749	32698	32759	32555	33331	31974	32503	32483	
2147	0	32770	32735	32711	32346	33111	31794	32645	31783	
