# OpenSignals Text File Format
# {"00:07:80:3B:46:38": {"sensor": ["CUSTOM/0.5/1.0/V", "CUSTOM/0.5/1.0/V", "CUSTOM/0.5/1.0/V", "CUSTOM/0.5/1.0/V", "CUSTOM/0.5/1.0/V", "CUSTOM/0.5/1.0/V", "CUSTOM/0.5/1.0/V", "CUSTOM/0.5/1.0/V"], "device name": "EMGs", "column": ["nSeq", "DI", "RA_L", "RA_R", "OE_L", "OE:R", "IL_L", "IL_R", "MF_L", "MF_R"], "sync interval": 2, "time": "17:44:34.648", "comments": "", "device connection": "BTH00:07:80:3B:46:38", "channels": [1, 2, 3, 4, 5, 6, 7, 8], "date": "2017-6-1", "mode": 0, "digital IO": [0, 1], "firmware version": 772, "device": "biosignalsplux", "position": 0, "sampling rate": 1000, "label": ["RA_L", "RA_R", "OE_L", "OE:R", "IL_L", "IL_R", "MF_L", "MF_R"], "resolution": [16, 16, 16, 16, 16, 16, 16, 16], "special": [{}, {}, {}, {}, {}, {}, {}, {}]}}
# EndOfHeader
0	0	32774	32591	32711	32539	0	0	0	0	
1	0	32775	32719	32735	32703	0	0	0	0	
2	0	32742	32811	32711	32621	0	0	0	0	
3	0	32775	32879	32775	32678	0	0	0	0	
4	0	32742	32775	32721	32583	0	0	0	0	
5	0	32739	32769	32727	32831	0	0	0	0	
6	0	32781	32834	32613	32882	0	0	0	0	
7	0	32854	32773	32743	32802	0	0	0	0	
8	0	32808	32743	32703	32858	0	0	0	0	
9	0	32734	32737	32774	32670	0	0	0	0	
10	0	32761	32859	32655	32431	0	0	0	0	
11	0	32784	32855	32729	32507	0	0	0	0	
12	0	32732	32768	32738	32506	0	0	0	0	
13	0	32728	32755	32707	32591	0	0	0	0	
14	0	32701	32739	32738	32686	0	0	0	0	
15	0	32824	32757	32744	32682	0	0	0	0	
16	0	32775	32799	32644	32575	0	0	0	0	
17	0	32732	32914	32658	32671	0	0	0	0	
18	0	32754	32775	32766	32706	0	0	0	0	
19	0	32756	32766	32805	32724	0	0	0	0	
20	0	32752	32711	32775	32696	0	0	0	0	
21	0	32746	32647	32647	32636	0	0	0	0	
22	0	32644	32611	32646	32850	0	0	0	0	
23	0	32660	32690	32750	32879	0	0	0	0	
24	0	32711	32711	32705	32599	0	0	0	0	
25	0	32775	32609	32733	32725	0	0	0	0	
26	0	32708	32645	32759	32620	0	0	0	0	
27	0	32736	32723	32686	32583	0	0	0	0	
28	0	32797	32695	32769	32447	0	0	0	0	
29	0	32775	32675	32699	32480	0	0	0	0	
30	0	32742	32775	32714	32658	0	0	0	0	
31	0	32796	32775	32647	32647	0	0	0	0	
32	0	32763	32671	32766	32769	0	0	0	0	
33	0	32720	32695	32799	32647	0	0	0	0	
34	0	32770	32701	32725	32750	0	0	0	0	
35	0	32715	32711	32775	32722	0	0	0	0	
36	0	32720	32755	32706	32719	0	0	0	0	
37	0	32769	32765	32742	32495	0	0	0	0	
38	0	32789	32752	32719	32647	0	0	0	0	
39	0	32772	32658	32704	32722	0	0	0	0	
40	0	32848	32673	32711	32715	0	0	0	0	
41	0	32848	32743	32589	32530	0	0	0	0	
42	0	32852	32705	32749	32761	0	0	0	0	
43	0	32803	32775	32721	32637	0	0	0	0	
44	0	32834	32775	32722	32594	0	0	0	0	
45	0	32775	32801	32635	32666	0	0	0	0	
46	0	32782	32787	32711	32491	0	0	0	0	
47	0	32801	32797	32708	32673	0	0	0	0	
48	0	32796	32755	32774	32604	0	0	0	0	
49	0	32746	32738	32715	32710	0	0	0	0	
50	0	32744	32703	32711	32567	0	0	0	0	
51	0	32760	32745	32823	32914	0	0	0	0	
52	0	32763	32691	32830	32867	0	0	0	0	
53	0	32804	32727	32731	32828	0	0	0	0	
54	0	32825	32804	32574	32859	0	0	0	0	
55	0	32730	32723	32610	32627	0	0	0	0	
56	0	32694	32775	32640	32806	0	0	0	0	
57	0	32690	32775	32662	32743	0	0	0	0	
58	0	32770	32827	32711	32559	0	0	0	0	
59	0	32720	32839	32797	32811	0	0	0	0	
60	0	32770	32647	32735	32722	0	0	0	0	
61	0	32769	32704	32773	32754	0	0	0	0	
62	0	32775	32617	32807	32583	0	0	0	0	
63	0	32754	32719	32833	32775	0	0	0	0	
64	0	32751	32655	32763	32720	0	0	0	0	
65	0	32726	32710	32728	32733	0	0	0	0	
66	0	32741	32734	32715	32567	0	0	0	0	
67	0	32731	32738	32775	32427	0	0	0	0	
68	0	32720	32799	32775	32630	0	0	0	0	
69	0	32807	32767	32647	32635	0	0	0	0	
70	0	32761	32726	32647	32674	0	0	0	0	
71	0	32792	32673	32686	32510	0	0	0	0	
72	0	32796	32711	32708	32725	0	0	0	0	
73	0	32784	32709	32606	32671	0	0	0	0	
74	0	32786	32569	32670	32711	0	0	0	0	
75	0	32760	32694	32775	32511	0	0	0	0	
76	0	32804	32626	32749	32722	0	0	0	0	
77	0	32798	32643	32724	32655	0	0	0	0	
78	0	32812	32707	32767	32545	0	0	0	0	
79	0	32874	32745	32748	32676	0	0	0	0	
80	0	32834	32799	32696	32721	0	0	0	0	
81	0	32820	32817	32709	32751	0	0	0	0	
82	0	32792	32805	32677	32619	0	0	0	0	
83	0	32794	32775	32742	32631	0	0	0	0	
84	0	32794	32803	32690	32735	0	0	0	0	
85	0	32764	32775	32737	32775	0	0	0	0	
86	0	32819	32731	32721	32588	0	0	0	0	
87	0	32775	32727	32663	32775	0	0	0	0	
88	0	32762	32711	32736	32807	0	0	0	0	
89	0	32744	32775	32807	32647	0	0	0	0	
90	0	32747	32710	32641	32771	0	0	0	0	
91	0	32698	32767	32668	32711	0	0	0	0	
92	0	32762	32731	32685	32685	0	0	0	0	
93	0	32790	32775	32682	32539	0	0	0	0	
94	0	32726	32759	32759	32766	0	0	0	0	
95	0	32759	32743	32675	32751	0	0	0	0	
96	0	32717	32740	32669	32729	0	0	0	0	
97	0	32711	32733	32709	32594	0	0	0	0	
98	0	32702	32711	32666	32730	0	0	0	0	
99	0	32702	32655	32769	32687	0	0	0	0	
100	0	32684	32711	32710	32643	0	0	0	0	
101	0	32756	32775	32679	32523	0	0	0	0	
102	0	32741	32803	32627	32420	0	0	0	0	
103	0	32828	32694	32768	32744	0	0	0	0	
104	0	32821	32719	32775	32733	0	0	0	0	
105	0	32790	32675	32759	32583	0	0	0	0	
106	0	32775	32802	32813	32587	0	0	0	0	
107	0	32739	32806	32661	32484	0	0	0	0	
108	0	32711	32755	32717	32593	0	0	0	0	
109	0	32722	32913	32758	32476	0	0	0	0	
110	0	32730	32751	32829	32641	0	0	0	0	
111	0	32740	32799	32736	32609	0	0	0	0	
112	0	32774	32667	32765	32402	0	0	0	0	
113	0	32775	32647	32813	32631	0	0	0	0	
114	0	32794	32760	32850	32641	0	0	0	0	
115	0	32808	32866	32802	32523	0	0	0	0	
116	0	32794	32807	32711	32879	0	0	0	0	
117	0	32774	32759	32667	32960	0	0	0	0	
118	0	32736	32710	32655	32803	0	0	0	0	
119	0	32748	32567	32642	33071	0	0	0	0	
120	0	32750	32630	32775	33051	0	0	0	0	
121	0	32750	32635	32711	32919	0	0	0	0	
122	0	32775	32575	32725	32869	0	0	0	0	
123	0	32844	32631	32756	32902	0	0	0	0	
124	0	32775	32687	32675	32871	0	0	0	0	
125	0	32780	32703	32775	32699	0	0	0	0	
126	0	32756	32663	32795	32487	0	0	0	0	
127	0	32817	32754	32871	32614	0	0	0	0	
128	0	32806	32775	32737	32607	0	0	0	0	
129	0	32800	32775	32671	32562	0	0	0	0	
130	0	32796	32883	32745	32353	0	0	0	0	
131	0	32718	32793	32655	32405	0	0	0	0	
132	0	32734	32929	32663	32611	0	0	0	0	
133	0	32688	32826	32755	32635	0	0	0	0	
134	0	32681	32724	32827	32641	0	0	0	0	
135	0	32725	32742	32831	32647	0	0	0	0	
136	0	32821	32791	32728	32495	0	0	0	0	
137	0	32796	32775	32698	32647	0	0	0	0	
138	0	32887	32763	32745	32623	0	0	0	0	
139	0	32887	32743	32775	32756	0	0	0	0	
140	0	32842	32742	32810	32594	0	0	0	0	
141	0	32898	32659	32598	32834	0	0	0	0	
142	0	32880	32621	32599	32732	0	0	0	0	
143	0	32872	32679	32705	32809	0	0	0	0	
144	0	32800	32666	32635	32617	0	0	0	0	
145	0	32775	32599	32696	32647	0	0	0	0	
146	0	32736	32591	32670	32795	0	0	0	0	
147	0	32711	32647	32775	32771	0	0	0	0	
148	0	32698	32631	32775	32869	0	0	0	0	
149	0	32623	32731	32702	32557	0	0	0	0	
150	0	32626	32756	32695	32647	0	0	0	0	
151	0	32681	32720	32643	32633	0	0	0	0	
152	0	32742	32839	32709	32550	0	0	0	0	
153	0	32711	32858	32731	32543	0	0	0	0	
154	0	32696	32830	32695	32372	0	0	0	0	
155	0	32720	32835	32614	32535	0	0	0	0	
156	0	32756	32737	32615	32699	0	0	0	0	
157	0	32773	32823	32707	32681	0	0	0	0	
158	0	32796	32795	32635	32736	0	0	0	0	
159	0	32770	32822	32710	32815	0	0	0	0	
160	0	32816	32775	32750	32647	0	0	0	0	
161	0	32820	32775	32794	32658	0	0	0	0	
162	0	32824	32823	32743	32627	0	0	0	0	
163	0	32775	32766	32630	32638	0	0	0	0	
164	0	32768	32789	32658	32496	0	0	0	0	
165	0	32821	32751	32710	32690	0	0	0	0	
166	0	32795	32720	32738	32742	0	0	0	0	
167	0	32859	32727	32734	32540	0	0	0	0	
168	0	32751	32739	32759	32706	0	0	0	0	
169	0	32798	32731	32758	32567	0	0	0	0	
170	0	32742	32775	32598	32598	0	0	0	0	
171	0	32699	32682	32765	32534	0	0	0	0	
172	0	32713	32669	32775	32775	0	0	0	0	
173	0	32732	32753	32749	32771	0	0	0	0	
174	0	32756	32739	32630	32789	0	0	0	0	
175	0	32766	32751	32698	32637	0	0	0	0	
176	0	32795	32747	32719	32551	0	0	0	0	
177	0	32745	32766	32759	32721	0	0	0	0	
178	0	32754	32732	32667	32832	0	0	0	0	
179	0	32792	32775	32815	32754	0	0	0	0	
180	0	32797	32715	32848	32697	0	0	0	0	
181	0	32763	32647	32691	32775	0	0	0	0	
182	0	32745	32637	32632	32627	0	0	0	0	
183	0	32742	32635	32727	32669	0	0	0	0	
184	0	32696	32675	32662	32697	0	0	0	0	
185	0	32714	32771	32572	32605	0	0	0	0	
186	0	32745	32902	32557	32641	0	0	0	0	
187	0	32769	32893	32655	32551	0	0	0	0	
188	0	32736	32894	32687	32483	0	0	0	0	
189	0	32786	32846	32695	32567	0	0	0	0	
190	0	32768	32899	32738	32659	0	0	0	0	
191	0	32815	32858	32733	32647	0	0	0	0	
192	0	32800	32743	32703	32486	0	0	0	0	
193	0	32740	32851	32695	32633	0	0	0	0	
194	0	32784	32820	32691	32775	0	0	0	0	
195	0	32751	32775	32751	32813	0	0	0	0	
196	0	32704	32709	32775	32944	0	0	0	0	
197	0	32714	32695	32647	32790	0	0	0	0	
198	0	32775	32746	32647	32667	0	0	0	0	
199	0	32810	32730	32724	32807	0	0	0	0	
200	0	32754	32734	32708	32775	0	0	0	0	
201	0	32795	32694	32738	32689	0	0	0	0	
202	0	32753	32789	32703	32703	0	0	0	0	
203	0	32676	32739	32673	32619	0	0	0	0	
204	0	32730	32695	32660	32719	0	0	0	0	
205	0	32804	32721	32821	32544	0	0	0	0	
206	0	32780	32775	32839	32705	0	0	0	0	
207	0	32818	32807	32867	32639	0	0	0	0	
208	0	32805	32811	32709	32622	0	0	0	0	
209	0	32846	32721	32815	32687	0	0	0	0	
210	0	32834	32710	32749	32541	0	0	0	0	
211	0	32857	32806	32775	32715	0	0	0	0	
212	0	32740	32711	32646	32703	0	0	0	0	
213	0	32718	32711	32711	32690	0	0	0	0	
214	0	32744	32754	32758	32643	0	0	0	0	
215	0	32732	32795	32727	32564	0	0	0	0	
216	0	32751	32706	32679	32568	0	0	0	0	
217	0	32818	32750	32736	32719	0	0	0	0	
218	0	32750	32793	32738	32711	0	0	0	0	
219	0	32746	32734	32807	32647	0	0	0	0	
220	0	32815	32666	32679	32547	0	0	0	0	
221	0	32754	32767	32683	32697	0	0	0	0	
222	0	32710	32819	32733	32637	0	0	0	0	
223	0	32729	32839	32707	32679	0	0	0	0	
224	0	32760	32809	32589	32711	0	0	0	0	
225	0	32797	32775	32642	32582	0	0	0	0	
226	0	32775	32731	32775	32624	0	0	0	0	
227	0	32775	32838	32813	32677	0	0	0	0	
228	0	32800	32806	32755	32711	0	0	0	0	
229	0	32788	32693	32727	32766	0	0	0	0	
230	0	32772	32667	32773	32554	0	0	0	0	
231	0	32804	32660	32731	32722	0	0	0	0	
232	0	32847	32702	32679	32681	0	0	0	0	
233	0	32802	32671	32637	32855	0	0	0	0	
234	0	32838	32723	32767	32692	0	0	0	0	
235	0	32865	32799	32827	32763	0	0	0	0	
236	0	32788	32683	32797	32602	0	0	0	0	
237	0	32694	32731	32692	32627	0	0	0	0	
238	0	32775	32767	32622	32434	0	0	0	0	
239	0	32796	32749	32711	32545	0	0	0	0	
240	0	32735	32703	32749	32663	0	0	0	0	
241	0	32730	32679	32690	32704	0	0	0	0	
242	0	32726	32691	32711	32807	0	0	0	0	
243	0	32775	32675	32711	32623	0	0	0	0	
244	0	32763	32702	32676	32683	0	0	0	0	
245	0	32720	32663	32647	32685	0	0	0	0	
246	0	32820	32691	32583	32620	0	0	0	0	
247	0	32836	32662	32683	32571	0	0	0	0	
248	0	32804	32797	32679	32658	0	0	0	0	
249	0	32843	32773	32655	32671	0	0	0	0	
250	0	32728	32740	32680	32735	0	0	0	0	
251	0	32775	32698	32566	32583	0	0	0	0	
252	0	32696	32711	32623	32800	0	0	0	0	
253	0	32691	32711	32662	32722	0	0	0	0	
254	0	32770	32733	32658	32634	0	0	0	0	
255	0	32738	32775	32563	32499	0	0	0	0	
256	0	32781	32711	32538	32611	0	0	0	0	
257	0	32698	32687	32664	32647	0	0	0	0	
258	0	32706	32763	32662	32851	0	0	0	0	
259	0	32738	32695	32679	32623	0	0	0	0	
260	0	32758	32679	32671	32812	0	0	0	0	
261	0	32797	32687	32831	32861	0	0	0	0	
262	0	32780	32727	32855	32859	0	0	0	0	
263	0	32775	32692	32941	32922	0	0	0	0	
264	0	32792	32711	32807	32617	0	0	0	0	
265	0	32775	32667	32870	32646	0	0	0	0	
266	0	32767	32687	32799	32597	0	0	0	0	
267	0	32808	32619	32851	32669	0	0	0	0	
268	0	32775	32647	32760	32495	0	0	0	0	
269	0	32818	32679	32787	32673	0	0	0	0	
270	0	32716	32711	32837	32643	0	0	0	0	
271	0	32700	32685	32764	32539	0	0	0	0	
272	0	32642	32739	32756	32547	0	0	0	0	
273	0	32668	32766	32647	32646	0	0	0	0	
274	0	32734	32806	32666	32663	0	0	0	0	
275	0	32739	32819	32667	32547	0	0	0	0	
276	0	32746	32767	32664	32639	0	0	0	0	
277	0	32775	32763	32690	32695	0	0	0	0	
278	0	32788	32723	32736	32711	0	0	0	0	
279	0	32738	32759	32667	32587	0	0	0	0	
280	0	32772	32834	32626	32811	0	0	0	0	
281	0	32823	32771	32699	32834	0	0	0	0	
282	0	32825	32727	32800	32796	0	0	0	0	
283	0	32722	32631	32751	32759	0	0	0	0	
284	0	32790	32691	32800	32702	0	0	0	0	
285	0	32784	32647	32765	32671	0	0	0	0	
286	0	32828	32718	32666	32447	0	0	0	0	
287	0	32824	32775	32723	32614	0	0	0	0	
288	0	32792	32808	32759	32591	0	0	0	0	
289	0	32784	32818	32728	32617	0	0	0	0	
290	0	32794	32851	32691	32541	0	0	0	0	
291	0	32714	32807	32738	32442	0	0	0	0	
292	0	32620	32748	32748	32595	0	0	0	0	
293	0	32628	32731	32743	32682	0	0	0	0	
294	0	32696	32739	32710	32811	0	0	0	0	
295	0	32704	32775	32647	32736	0	0	0	0	
296	0	32713	32775	32762	32758	0	0	0	0	
297	0	32745	32730	32691	32845	0	0	0	0	
298	0	32714	32639	32775	32822	0	0	0	0	
299	0	32775	32674	32643	32791	0	0	0	0	
300	0	32811	32753	32759	32551	0	0	0	0	
301	0	32788	32723	32775	32679	0	0	0	0	
302	0	32775	32690	32690	32738	0	0	0	0	
303	0	32801	32711	32731	32641	0	0	0	0	
304	0	32800	32727	32800	32591	0	0	0	0	
305	0	32775	32710	32707	32466	0	0	0	0	
306	0	32740	32702	32720	32614	0	0	0	0	
307	0	32775	32775	32575	32606	0	0	0	0	
308	0	32795	32803	32727	32731	0	0	0	0	
309	0	32787	32711	32706	32576	0	0	0	0	
310	0	32743	32757	32690	32762	0	0	0	0	
311	0	32775	32775	32738	32720	0	0	0	0	
312	0	32796	32794	32583	32758	0	0	0	0	
313	0	32764	32673	32715	32582	0	0	0	0	
314	0	32820	32621	32751	32754	0	0	0	0	
315	0	32775	32667	32708	32684	0	0	0	0	
316	0	32730	32645	32748	32758	0	0	0	0	
317	0	32715	32669	32727	32565	0	0	0	0	
318	0	32796	32691	32775	32534	0	0	0	0	
319	0	32839	32711	32759	32755	0	0	0	0	
320	0	32840	32671	32668	32767	0	0	0	0	
321	0	32796	32619	32631	32756	0	0	0	0	
322	0	32832	32775	32677	32608	0	0	0	0	
323	0	32755	32695	32629	32665	0	0	0	0	
324	0	32796	32775	32738	32718	0	0	0	0	
325	0	32738	32761	32647	32670	0	0	0	0	
326	0	32758	32835	32763	32687	0	0	0	0	
327	0	32756	32825	32715	32509	0	0	0	0	
328	0	32795	32903	32671	32379	0	0	0	0	
329	0	32800	32775	32700	32658	0	0	0	0	
330	0	32806	32710	32735	32705	0	0	0	0	
331	0	32838	32742	32751	32647	0	0	0	0	
332	0	32842	32751	32647	32690	0	0	0	0	
333	0	32786	32775	32790	32627	0	0	0	0	
334	0	32743	32751	32850	32697	0	0	0	0	
335	0	32702	32775	32876	32678	0	0	0	0	
336	0	32738	32735	32740	32621	0	0	0	0	
337	0	32712	32807	32773	32636	0	0	0	0	
338	0	32792	32718	32706	32571	0	0	0	0	
339	0	32752	32743	32571	32645	0	0	0	0	
340	0	32816	32815	32551	32823	0	0	0	0	
341	0	32771	32690	32539	32943	0	0	0	0	
342	0	32804	32677	32632	32775	0	0	0	0	
343	0	32801	32614	32671	32918	0	0	0	0	
344	0	32738	32595	32686	32921	0	0	0	0	
345	0	32756	32597	32659	32807	0	0	0	0	
346	0	32828	32681	32682	32583	0	0	0	0	
347	0	32772	32666	32742	32531	0	0	0	0	
348	0	32744	32819	32691	32583	0	0	0	0	
349	0	32792	32839	32706	32599	0	0	0	0	
350	0	32792	32831	32691	32364	0	0	0	0	
351	0	32772	32725	32756	32566	0	0	0	0	
352	0	32683	32870	32757	32611	0	0	0	0	
353	0	32756	32815	32734	32526	0	0	0	0	
354	0	32787	32797	32716	32555	0	0	0	0	
355	0	32810	32751	32810	32803	0	0	0	0	
356	0	32732	32815	32746	32811	0	0	0	0	
357	0	32774	32837	32711	32682	0	0	0	0	
358	0	32672	32677	32802	32710	0	0	0	0	
359	0	32658	32670	32711	32831	0	0	0	0	
360	0	32694	32624	32689	32775	0	0	0	0	
361	0	32740	32614	32753	32621	0	0	0	0	
362	0	32706	32610	32738	32599	0	0	0	0	
363	0	32709	32627	32627	32623	0	0	0	0	
364	0	32742	32685	32571	32576	0	0	0	0	
365	0	32742	32772	32694	32485	0	0	0	0	
366	0	32768	32735	32711	32750	0	0	0	0	
367	0	32755	32803	32695	32819	0	0	0	0	
368	0	32720	32775	32623	32827	0	0	0	0	
369	0	32738	32791	32797	32803	0	0	0	0	
370	0	32798	32756	32707	32719	0	0	0	0	
371	0	32822	32839	32679	32647	0	0	0	0	
372	0	32769	32887	32775	32537	0	0	0	0	
373	0	32775	32858	32743	32492	0	0	0	0	
374	0	32775	32815	32799	32530	0	0	0	0	
375	0	32804	32827	32720	32443	0	0	0	0	
376	0	32800	32803	32830	32640	0	0	0	0	
377	0	32792	32802	32711	32631	0	0	0	0	
378	0	32848	32723	32775	32731	0	0	0	0	
379	0	32824	32710	32679	32609	0	0	0	0	
380	0	32804	32702	32620	32775	0	0	0	0	
381	0	32828	32741	32775	32692	0	0	0	0	
382	0	32775	32743	32731	32773	0	0	0	0	
383	0	32775	32721	32775	32623	0	0	0	0	
384	0	32768	32823	32775	32707	0	0	0	0	
385	0	32769	32775	32709	32671	0	0	0	0	
386	0	32804	32743	32762	32663	0	0	0	0	
387	0	32775	32775	32735	32525	0	0	0	0	
388	0	32762	32754	32659	32615	0	0	0	0	
389	0	32674	32751	32763	32743	0	0	0	0	
390	0	32708	32739	32630	32694	0	0	0	0	
391	0	32711	32735	32688	32742	0	0	0	0	
392	0	32718	32748	32603	32534	0	0	0	0	
393	0	32748	32801	32667	32758	0	0	0	0	
394	0	32796	32717	32728	32679	0	0	0	0	
395	0	32817	32681	32733	32711	0	0	0	0	
396	0	32856	32833	32709	32519	0	0	0	0	
397	0	32873	32811	32791	32590	0	0	0	0	
398	0	32816	32687	32663	32731	0	0	0	0	
399	0	32804	32775	32707	32731	0	0	0	0	
400	0	32770	32663	32647	32767	0	0	0	0	
401	0	32747	32715	32746	32837	0	0	0	0	
402	0	32764	32770	32714	32606	0	0	0	0	
403	0	32698	32709	32763	32711	0	0	0	0	
404	0	32682	32763	32756	32647	0	0	0	0	
405	0	32775	32754	32694	32589	0	0	0	0	
406	0	32720	32699	32731	32560	0	0	0	0	
407	0	32736	32679	32798	32719	0	0	0	0	
408	0	32786	32647	32775	32759	0	0	0	0	
409	0	32763	32707	32867	32765	0	0	0	0	
410	0	32740	32735	32695	32637	0	0	0	0	
411	0	32742	32749	32751	32612	0	0	0	0	
412	0	32798	32738	32707	32719	0	0	0	0	
413	0	32718	32658	32720	32674	0	0	0	0	
414	0	32748	32710	32627	32662	0	0	0	0	
415	0	32801	32739	32758	32486	0	0	0	0	
416	0	32724	32765	32718	32662	0	0	0	0	
417	0	32752	32814	32755	32711	0	0	0	0	
418	0	32820	32754	32607	32775	0	0	0	0	
419	0	32789	32747	32731	32720	0	0	0	0	
420	0	32754	32839	32658	32634	0	0	0	0	
421	0	32775	32867	32623	32642	0	0	0	0	
422	0	32812	32749	32667	32605	0	0	0	0	
423	0	32808	32698	32683	32583	0	0	0	0	
424	0	32813	32735	32725	32534	0	0	0	0	
425	0	32839	32772	32815	32462	0	0	0	0	
426	0	32802	32801	32775	32586	0	0	0	0	
427	0	32751	32775	32822	32687	0	0	0	0	
428	0	32803	32767	32775	32751	0	0	0	0	
429	0	32800	32775	32722	32796	0	0	0	0	
430	0	32808	32749	32603	32599	0	0	0	0	
431	0	32756	32813	32739	32817	0	0	0	0	
432	0	32770	32979	32647	32630	0	0	0	0	
433	0	32711	32836	32738	32603	0	0	0	0	
434	0	32732	32727	32719	32591	0	0	0	0	
435	0	32775	32704	32775	32475	0	0	0	0	
436	0	32769	32615	32717	32663	0	0	0	0	
437	0	32724	32639	32748	32706	0	0	0	0	
438	0	32770	32635	32623	32702	0	0	0	0	
439	0	32826	32624	32701	32711	0	0	0	0	
440	0	32796	32775	32701	32669	0	0	0	0	
441	0	32788	32747	32643	32533	0	0	0	0	
442	0	32796	32756	32703	32655	0	0	0	0	
443	0	32786	32727	32711	32751	0	0	0	0	
444	0	32774	32735	32610	32730	0	0	0	0	
445	0	32754	32727	32663	32768	0	0	0	0	
446	0	32762	32827	32631	32635	0	0	0	0	
447	0	32810	32815	32861	32719	0	0	0	0	
448	0	32811	32749	32847	32751	0	0	0	0	
449	0	32775	32869	32807	32499	0	0	0	0	
450	0	32728	32803	32711	32702	0	0	0	0	
451	0	32678	32775	32767	32675	0	0	0	0	
452	0	32704	32747	32711	32843	0	0	0	0	
453	0	32757	32659	32679	32711	0	0	0	0	
454	0	32755	32755	32601	32743	0	0	0	0	
455	0	32728	32671	32717	32959	0	0	0	0	
456	0	32708	32694	32733	32899	0	0	0	0	
457	0	32795	32727	32791	32866	0	0	0	0	
458	0	32766	32759	32683	32735	0	0	0	0	
459	0	32714	32711	32739	32438	0	0	0	0	
460	0	32702	32811	32770	32514	0	0	0	0	
461	0	32720	32903	32824	32533	0	0	0	0	
462	0	32734	32763	32660	32447	0	0	0	0	
463	0	32824	32743	32630	32525	0	0	0	0	
464	0	32792	32718	32624	32624	0	0	0	0	
465	0	32768	32739	32663	32640	0	0	0	0	
466	0	32797	32787	32663	32639	0	0	0	0	
467	0	32756	32642	32827	32744	0	0	0	0	
468	0	32775	32675	32706	32546	0	0	0	0	
469	0	32825	32662	32711	32751	0	0	0	0	
470	0	32805	32646	32711	32811	0	0	0	0	
471	0	32826	32671	32753	32798	0	0	0	0	
472	0	32847	32630	32702	32809	0	0	0	0	
473	0	32712	32663	32703	32615	0	0	0	0	
474	0	32720	32683	32679	32669	0	0	0	0	
475	0	32700	32775	32751	32638	0	0	0	0	
476	0	32775	32710	32807	32703	0	0	0	0	
477	0	32702	32663	32769	32615	0	0	0	0	
478	0	32695	32687	32771	32483	0	0	0	0	
479	0	32711	32716	32754	32497	0	0	0	0	
480	0	32775	32819	32663	32611	0	0	0	0	
481	0	32764	32790	32775	32591	0	0	0	0	
482	0	32832	32822	32742	32647	0	0	0	0	
483	0	32792	32691	32775	32621	0	0	0	0	
484	0	32766	32647	32616	32615	0	0	0	0	
485	0	32854	32667	32711	32719	0	0	0	0	
486	0	32856	32563	32731	32767	0	0	0	0	
487	0	32845	32583	32775	32775	0	0	0	0	
488	0	32843	32663	32745	32863	0	0	0	0	
489	0	32818	32671	32808	32571	0	0	0	0	
490	0	32786	32612	32698	32641	0	0	0	0	
491	0	32775	32602	32629	32729	0	0	0	0	
492	0	32820	32691	32595	32751	0	0	0	0	
493	0	32832	32639	32642	32698	0	0	0	0	
494	0	32863	32607	32600	32751	0	0	0	0	
495	0	32775	32633	32519	32678	0	0	0	0	
496	0	32753	32647	32719	32505	0	0	0	0	
497	0	32720	32669	32703	32609	0	0	0	0	
498	0	32714	32647	32723	32692	0	0	0	0	
499	0	32689	32647	32684	32746	0	0	0	0	
500	0	32752	32647	32624	32611	0	0	0	0	
501	0	32738	32703	32751	32543	0	0	0	0	
502	0	32700	32791	32749	32819	0	0	0	0	
503	0	32739	32801	32775	32775	0	0	0	0	
504	0	32794	32703	32739	32808	0	0	0	0	
505	0	32736	32539	32831	32895	0	0	0	0	
506	0	32690	32577	32903	32791	0	0	0	0	
507	0	32702	32623	32743	32636	0	0	0	0	
508	0	32742	32662	32759	32827	0	0	0	0	
509	0	32690	32739	32887	32794	0	0	0	0	
510	0	32751	32751	32890	32730	0	0	0	0	
511	0	32724	32791	32859	32502	0	0	0	0	
512	0	32732	32711	32775	32635	0	0	0	0	
513	0	32678	32687	32573	32573	0	0	0	0	
514	0	32760	32775	32647	32607	0	0	0	0	
515	0	32767	32863	32619	32583	0	0	0	0	
516	0	32765	32875	32711	32375	0	0	0	0	
517	0	32784	32775	32598	32422	0	0	0	0	
518	0	32808	32691	32752	32759	0	0	0	0	
519	0	32788	32599	32725	32871	0	0	0	0	
520	0	32816	32686	32738	32879	0	0	0	0	
521	0	32760	32658	32614	32979	0	0	0	0	
522	0	32716	32727	32642	32717	0	0	0	0	
523	0	32742	32759	32621	32599	0	0	0	0	
524	0	32772	32794	32675	32550	0	0	0	0	
525	0	32784	32839	32774	32461	0	0	0	0	
526	0	32829	32837	32756	32179	0	0	0	0	
527	0	32832	32885	32667	32359	0	0	0	0	
528	0	32792	32834	32689	32426	0	0	0	0	
529	0	32766	32815	32775	32567	0	0	0	0	
530	0	32746	32758	32767	32701	0	0	0	0	
531	0	32705	32677	32687	32589	0	0	0	0	
532	0	32681	32677	32694	32823	0	0	0	0	
533	0	32656	32677	32711	32833	0	0	0	0	
534	0	32714	32677	32762	32879	0	0	0	0	
535	0	32715	32687	32615	32667	0	0	0	0	
536	0	32700	32647	32707	32615	0	0	0	0	
537	0	32768	32679	32850	32797	0	0	0	0	
538	0	32791	32666	32811	32823	0	0	0	0	
539	0	32775	32722	32674	32829	0	0	0	0	
540	0	32699	32743	32774	32800	0	0	0	0	
541	0	32811	32775	32634	32807	0	0	0	0	
542	0	32792	32775	32675	32562	0	0	0	0	
543	0	32768	32839	32603	32640	0	0	0	0	
544	0	32813	32771	32763	32719	0	0	0	0	
545	0	32786	32763	32694	32679	0	0	0	0	
546	0	32746	32707	32613	32774	0	0	0	0	
547	0	32796	32623	32754	32775	0	0	0	0	
548	0	32834	32659	32775	32463	0	0	0	0	
549	0	32768	32726	32685	32638	0	0	0	0	
550	0	32828	32658	32838	32794	0	0	0	0	
551	0	32813	32562	32871	32711	0	0	0	0	
552	0	32844	32630	32883	32801	0	0	0	0	
553	0	32784	32671	32773	32775	0	0	0	0	
554	0	32738	32570	32775	32775	0	0	0	0	
555	0	32679	32538	32806	32805	0	0	0	0	
556	0	32658	32531	32855	32887	0	0	0	0	
557	0	32722	32562	32729	32801	0	0	0	0	
558	0	32720	32615	32723	32579	0	0	0	0	
559	0	32679	32747	32759	32769	0	0	0	0	
560	0	32672	32726	32775	32703	0	0	0	0	
561	0	32667	32799	32627	32658	0	0	0	0	
562	0	32681	32763	32575	32503	0	0	0	0	
563	0	32670	32775	32455	32626	0	0	0	0	
564	0	32674	32743	32513	32550	0	0	0	0	
565	0	32653	32773	32470	32615	0	0	0	0	
566	0	32659	32755	32571	32640	0	0	0	0	
567	0	32636	32796	32449	32391	0	0	0	0	
568	0	32654	32835	32418	32556	0	0	0	0	
569	0	32640	32901	32455	32511	0	0	0	0	
570	0	32638	32903	32455	32391	0	0	0	0	
571	0	32711	32859	32318	32455	0	0	0	0	
572	0	32729	32935	32337	32224	0	0	0	0	
573	0	32762	32967	32455	32283	0	0	0	0	
574	0	32805	32877	32403	32426	0	0	0	0	
575	0	32810	32839	32447	32423	0	0	0	0	
576	0	32802	32839	32306	32289	0	0	0	0	
577	0	32796	32941	32351	32071	0	0	0	0	
578	0	32802	32850	32470	32183	0	0	0	0	
579	0	32838	32838	32518	32279	0	0	0	0	
580	0	32850	32815	32423	32339	0	0	0	0	
581	0	32792	32827	32514	32361	0	0	0	0	
582	0	32866	32835	32643	32327	0	0	0	0	
583	0	32896	32858	32675	32546	0	0	0	0	
584	0	32906	32739	32723	32767	0	0	0	0	
585	0	32880	32609	32627	32983	0	0	0	0	
586	0	32829	32666	32815	32950	0	0	0	0	
587	0	32870	32711	32959	32791	0	0	0	0	
588	0	32887	32609	32959	32971	0	0	0	0	
589	0	32864	32614	32967	33106	0	0	0	0	
590	0	32850	32615	33086	32959	0	0	0	0	
591	0	32853	32617	33106	32986	0	0	0	0	
592	0	32904	32500	33250	33012	0	0	0	0	
593	0	33033	32551	33595	33142	0	0	0	0	
594	0	33101	32647	33659	33039	0	0	0	0	
595	0	33185	32647	33671	33235	0	0	0	0	
596	0	33152	32655	33799	33128	0	0	0	0	
597	0	33211	32615	33615	33167	0	0	0	0	
598	0	33129	32617	33575	33127	0	0	0	0	
599	0	33062	32598	33570	33302	0	0	0	0	
600	0	32952	32647	33447	33245	0	0	0	0	
601	0	32970	32707	33235	33206	0	0	0	0	
602	0	32874	32579	33106	32943	0	0	0	0	
603	0	32685	32503	32951	32979	0	0	0	0	
604	0	32684	32554	32827	32870	0	0	0	0	
605	0	32585	32646	32791	32767	0	0	0	0	
606	0	32610	32705	32674	32578	0	0	0	0	
607	0	32562	32723	32619	32627	0	0	0	0	
608	0	32530	32773	32553	32479	0	0	0	0	
609	0	32572	32823	32354	32353	0	0	0	0	
610	0	32604	32708	32166	32511	0	0	0	0	
611	0	32580	32667	32282	32531	0	0	0	0	
612	0	32614	32702	32250	32533	0	0	0	0	
613	0	32550	32741	32255	32645	0	0	0	0	
614	0	32555	32711	32258	32424	0	0	0	0	
615	0	32568	32646	32295	32594	0	0	0	0	
616	0	32608	32769	32479	32487	0	0	0	0	
617	0	32610	32882	32423	32322	0	0	0	0	
618	0	32623	32854	32391	32375	0	0	0	0	
619	0	32592	32808	32410	32487	0	0	0	0	
620	0	32631	32826	32484	32542	0	0	0	0	
621	0	32643	32795	32479	32391	0	0	0	0	
622	0	32694	32770	32694	32564	0	0	0	0	
623	0	32775	32647	32658	32481	0	0	0	0	
624	0	32742	32626	32596	32549	0	0	0	0	
625	0	32751	32636	32687	32374	0	0	0	0	
626	0	32780	32711	32603	32623	0	0	0	0	
627	0	32800	32847	32626	32553	0	0	0	0	
628	0	32805	32854	32736	32627	0	0	0	0	
629	0	32810	32754	32775	32528	0	0	0	0	
630	0	32822	32850	32735	32749	0	0	0	0	
631	0	32797	32803	32769	32775	0	0	0	0	
632	0	32756	32655	32694	32711	0	0	0	0	
633	0	32758	32646	32613	32720	0	0	0	0	
634	0	32750	32647	32656	32811	0	0	0	0	
635	0	32770	32658	32623	32711	0	0	0	0	
636	0	32799	32695	32688	32815	0	0	0	0	
637	0	32775	32695	32635	32801	0	0	0	0	
638	0	32788	32698	32711	32551	0	0	0	0	
639	0	32789	32775	32794	32711	0	0	0	0	
640	0	32773	32743	32732	32698	0	0	0	0	
641	0	32775	32803	32655	32655	0	0	0	0	
642	0	32806	32835	32647	32634	0	0	0	0	
643	0	32805	32727	32673	32551	0	0	0	0	
644	0	32799	32796	32759	32583	0	0	0	0	
645	0	32852	32803	32647	32639	0	0	0	0	
646	0	32820	32727	32719	32750	0	0	0	0	
647	0	32775	32727	32763	32643	0	0	0	0	
648	0	32747	32870	32711	32699	0	0	0	0	
649	0	32788	32814	32739	32519	0	0	0	0	
650	0	32756	32839	32831	32557	0	0	0	0	
651	0	32696	32800	32768	32631	0	0	0	0	
652	0	32684	32829	32611	32576	0	0	0	0	
653	0	32642	32757	32590	32639	0	0	0	0	
654	0	32744	32747	32677	32486	0	0	0	0	
655	0	32770	32799	32722	32539	0	0	0	0	
656	0	32756	32751	32859	32824	0	0	0	0	
657	0	32832	32754	32962	32902	0	0	0	0	
658	0	32775	32743	32851	32962	0	0	0	0	
659	0	32804	32727	32839	32891	0	0	0	0	
660	0	32834	32675	32770	32775	0	0	0	0	
661	0	32818	32702	32658	32775	0	0	0	0	
662	0	32810	32734	32810	32691	0	0	0	0	
663	0	32818	32811	32735	32489	0	0	0	0	
664	0	32826	32811	32719	32487	0	0	0	0	
665	0	32756	32805	32655	32718	0	0	0	0	
666	0	32743	32775	32615	32672	0	0	0	0	
667	0	32743	32885	32749	32688	0	0	0	0	
668	0	32810	32727	32655	32598	0	0	0	0	
669	0	32854	32635	32647	32742	0	0	0	0	
670	0	32868	32571	32553	32683	0	0	0	0	
671	0	32772	32727	32588	32454	0	0	0	0	
672	0	32750	32799	32711	32327	0	0	0	0	
673	0	32686	32853	32738	32439	0	0	0	0	
674	0	32716	32791	32835	32511	0	0	0	0	
675	0	32750	32762	32734	32608	0	0	0	0	
676	0	32687	32771	32775	32640	0	0	0	0	
677	0	32694	32813	32773	32663	0	0	0	0	
678	0	32702	32733	32795	32933	0	0	0	0	
679	0	32745	32741	32631	33051	0	0	0	0	
680	0	32708	32687	32739	32973	0	0	0	0	
681	0	32761	32711	32685	32923	0	0	0	0	
682	0	32810	32736	32775	32614	0	0	0	0	
683	0	32852	32748	32794	32683	0	0	0	0	
684	0	32888	32659	32759	32656	0	0	0	0	
685	0	32870	32659	32811	32754	0	0	0	0	
686	0	32716	32699	32623	32487	0	0	0	0	
687	0	32739	32706	32638	32598	0	0	0	0	
688	0	32748	32741	32654	32540	0	0	0	0	
689	0	32800	32809	32574	32381	0	0	0	0	
690	0	32738	32793	32552	32555	0	0	0	0	
691	0	32809	32775	32671	32733	0	0	0	0	
692	0	32763	32822	32735	32727	0	0	0	0	
693	0	32743	32799	32853	32773	0	0	0	0	
694	0	32794	32703	32631	32683	0	0	0	0	
695	0	32775	32665	32749	32860	0	0	0	0	
696	0	32728	32662	32674	32851	0	0	0	0	
697	0	32724	32635	32797	32719	0	0	0	0	
698	0	32748	32747	32694	32707	0	0	0	0	
699	0	32771	32615	32739	32503	0	0	0	0	
700	0	32756	32594	32699	32711	0	0	0	0	
701	0	32647	32676	32663	32579	0	0	0	0	
702	0	32723	32641	32588	32603	0	0	0	0	
703	0	32784	32592	32848	32414	0	0	0	0	
704	0	32794	32658	32821	32410	0	0	0	0	
705	0	32762	32675	32833	32554	0	0	0	0	
706	0	32760	32711	32691	32621	0	0	0	0	
707	0	32774	32775	32726	32578	0	0	0	0	
708	0	32742	32767	32719	32519	0	0	0	0	
709	0	32722	32807	32704	32551	0	0	0	0	
710	0	32784	32855	32721	32875	0	0	0	0	
711	0	32861	32818	32762	32955	0	0	0	0	
712	0	32884	32864	32804	32751	0	0	0	0	
713	0	32786	32847	32775	32706	0	0	0	0	
714	0	32826	32791	32686	32795	0	0	0	0	
715	0	32775	32811	32719	32871	0	0	0	0	
716	0	32804	32763	32661	32835	0	0	0	0	
717	0	32768	32675	32699	32771	0	0	0	0	
718	0	32762	32619	32647	32847	0	0	0	0	
719	0	32836	32607	32815	32711	0	0	0	0	
720	0	32839	32701	32763	32511	0	0	0	0	
721	0	32772	32719	32647	32736	0	0	0	0	
722	0	32745	32738	32762	32717	0	0	0	0	
723	0	32650	32775	32674	32834	0	0	0	0	
724	0	32625	32751	32745	32632	0	0	0	0	
725	0	32710	32735	32695	32763	0	0	0	0	
726	0	32742	32678	32610	32739	0	0	0	0	
727	0	32720	32775	32569	32543	0	0	0	0	
728	0	32728	32753	32680	32695	0	0	0	0	
729	0	32775	32647	32637	32715	0	0	0	0	
730	0	32756	32572	32719	32653	0	0	0	0	
731	0	32749	32647	32704	32743	0	0	0	0	
732	0	32696	32755	32623	32553	0	0	0	0	
733	0	32738	32749	32663	32403	0	0	0	0	
734	0	32787	32775	32727	32317	0	0	0	0	
735	0	32772	32830	32722	32439	0	0	0	0	
736	0	32796	32742	32727	32450	0	0	0	0	
737	0	32809	32763	32856	32311	0	0	0	0	
738	0	32798	32723	32775	32547	0	0	0	0	
739	0	32803	32852	32720	32663	0	0	0	0	
740	0	32775	32871	32674	32512	0	0	0	0	
741	0	32738	32720	32558	32599	0	0	0	0	
742	0	32806	32766	32727	32775	0	0	0	0	
743	0	32840	32818	32811	32616	0	0	0	0	
744	0	32773	32706	32809	32862	0	0	0	0	
745	0	32768	32679	32775	32890	0	0	0	0	
746	0	32816	32623	32639	32875	0	0	0	0	
747	0	32769	32608	32599	32862	0	0	0	0	
748	0	32738	32679	32707	32933	0	0	0	0	
749	0	32754	32691	32705	32834	0	0	0	0	
750	0	32793	32671	32745	32523	0	0	0	0	
751	0	32824	32692	32775	32703	0	0	0	0	
752	0	32846	32743	32749	32727	0	0	0	0	
753	0	32864	32699	32804	32647	0	0	0	0	
754	0	32819	32727	32722	32527	0	0	0	0	
755	0	32775	32715	32723	32501	0	0	0	0	
756	0	32791	32774	32589	32639	0	0	0	0	
757	0	32772	32801	32639	32663	0	0	0	0	
758	0	32816	32679	32637	32519	0	0	0	0	
759	0	32804	32705	32663	32617	0	0	0	0	
760	0	32729	32634	32745	32703	0	0	0	0	
761	0	32696	32775	32742	32751	0	0	0	0	
762	0	32764	32862	32647	32623	0	0	0	0	
763	0	32775	32795	32674	32676	0	0	0	0	
764	0	32752	32687	32680	32807	0	0	0	0	
765	0	32702	32615	32695	32775	0	0	0	0	
766	0	32692	32519	32706	32836	0	0	0	0	
767	0	32760	32511	32757	32935	0	0	0	0	
768	0	32791	32571	32759	32663	0	0	0	0	
769	0	32789	32679	32797	32647	0	0	0	0	
770	0	32754	32730	32859	32647	0	0	0	0	
771	0	32678	32721	32794	32445	0	0	0	0	
772	0	32681	32738	32855	32295	0	0	0	0	
773	0	32699	32775	32615	32167	0	0	0	0	
774	0	32717	32871	32709	32479	0	0	0	0	
775	0	32768	32855	32711	32503	0	0	0	0	
776	0	32790	32797	32685	32567	0	0	0	0	
777	0	32764	32836	32560	32647	0	0	0	0	
778	0	32792	32726	32675	32549	0	0	0	0	
779	0	32804	32745	32699	32929	0	0	0	0	
780	0	32871	32755	32757	32925	0	0	0	0	
781	0	32920	32876	32647	32899	0	0	0	0	
782	0	32870	32833	32663	32640	0	0	0	0	
783	0	32836	32775	32735	32788	0	0	0	0	
784	0	32834	32668	32711	32863	0	0	0	0	
785	0	32686	32735	32476	32897	0	0	0	0	
786	0	32694	32821	32674	32742	0	0	0	0	
787	0	32699	32733	32662	32643	0	0	0	0	
788	0	32732	32705	32808	32647	0	0	0	0	
789	0	32708	32743	32855	32701	0	0	0	0	
790	0	32671	32739	32750	32467	0	0	0	0	
791	0	32713	32687	32769	32633	0	0	0	0	
792	0	32691	32707	32739	32723	0	0	0	0	
793	0	32716	32667	32727	32790	0	0	0	0	
794	0	32790	32793	32798	32677	0	0	0	0	
795	0	32744	32739	32771	32759	0	0	0	0	
796	0	32734	32758	32811	32775	0	0	0	0	
797	0	32762	32829	32773	32734	0	0	0	0	
798	0	32744	32695	32603	32655	0	0	0	0	
799	0	32775	32643	32567	32647	0	0	0	0	
800	0	32772	32702	32587	32647	0	0	0	0	
801	0	32749	32865	32711	32647	0	0	0	0	
802	0	32775	32797	32758	32502	0	0	0	0	
803	0	32783	32699	32870	32459	0	0	0	0	
804	0	32789	32771	32796	32578	0	0	0	0	
805	0	32770	32709	32770	32531	0	0	0	0	
806	0	32803	32689	32770	32587	0	0	0	0	
807	0	32736	32658	32693	32487	0	0	0	0	
808	0	32736	32721	32667	32679	0	0	0	0	
809	0	32792	32711	32623	32679	0	0	0	0	
810	0	32770	32711	32642	32796	0	0	0	0	
811	0	32791	32718	32701	32681	0	0	0	0	
812	0	32760	32711	32641	32582	0	0	0	0	
813	0	32732	32839	32583	32555	0	0	0	0	
814	0	32720	32892	32765	32630	0	0	0	0	
815	0	32713	32765	32711	32599	0	0	0	0	
816	0	32775	32763	32839	32967	0	0	0	0	
817	0	32762	32616	32679	32666	0	0	0	0	
818	0	32775	32678	32695	32685	0	0	0	0	
819	0	32745	32711	32647	32711	0	0	0	0	
820	0	32812	32727	32679	32626	0	0	0	0	
821	0	32837	32839	32669	32709	0	0	0	0	
822	0	32774	32811	32759	32645	0	0	0	0	
823	0	32775	32741	32703	32589	0	0	0	0	
824	0	32806	32635	32703	32631	0	0	0	0	
825	0	32834	32705	32711	32583	0	0	0	0	
826	0	32764	32659	32619	32466	0	0	0	0	
827	0	32838	32703	32667	32578	0	0	0	0	
828	0	32854	32775	32763	32775	0	0	0	0	
829	0	32838	32743	32726	32804	0	0	0	0	
830	0	32754	32814	32748	32735	0	0	0	0	
831	0	32717	32763	32667	32742	0	0	0	0	
832	0	32708	32799	32631	32727	0	0	0	0	
833	0	32706	32611	32734	32799	0	0	0	0	
834	0	32739	32702	32720	32637	0	0	0	0	
835	0	32802	32757	32754	32581	0	0	0	0	
836	0	32810	32752	32762	32706	0	0	0	0	
837	0	32802	32740	32863	32717	0	0	0	0	
838	0	32824	32623	32897	32647	0	0	0	0	
839	0	32854	32647	32772	32719	0	0	0	0	
840	0	32896	32743	32661	32543	0	0	0	0	
841	0	32874	32679	32702	32727	0	0	0	0	
842	0	32804	32769	32770	32775	0	0	0	0	
843	0	32726	32773	32675	32637	0	0	0	0	
844	0	32728	32667	32579	32467	0	0	0	0	
845	0	32710	32635	32598	32687	0	0	0	0	
846	0	32701	32595	32647	32727	0	0	0	0	
847	0	32682	32731	32667	32638	0	0	0	0	
848	0	32672	32751	32678	32706	0	0	0	0	
849	0	32751	32641	32598	32867	0	0	0	0	
850	0	32764	32722	32722	32791	0	0	0	0	
851	0	32720	32799	32731	32634	0	0	0	0	
852	0	32724	32617	32711	32660	0	0	0	0	
853	0	32716	32623	32663	32699	0	0	0	0	
854	0	32802	32775	32822	32551	0	0	0	0	
855	0	32814	32809	32748	32567	0	0	0	0	
856	0	32744	32763	32795	32614	0	0	0	0	
857	0	32825	32729	32751	32626	0	0	0	0	
858	0	32839	32707	32687	32720	0	0	0	0	
859	0	32786	32694	32699	32615	0	0	0	0	
860	0	32784	32725	32745	32821	0	0	0	0	
861	0	32717	32740	32727	32771	0	0	0	0	
862	0	32768	32711	32793	32558	0	0	0	0	
863	0	32732	32704	32681	32735	0	0	0	0	
864	0	32769	32727	32595	32795	0	0	0	0	
865	0	32818	32695	32698	32685	0	0	0	0	
866	0	32775	32679	32775	32804	0	0	0	0	
867	0	32716	32763	32662	32775	0	0	0	0	
868	0	32775	32766	32707	32578	0	0	0	0	
869	0	32784	32817	32731	32647	0	0	0	0	
870	0	32773	32812	32667	32639	0	0	0	0	
871	0	32840	32811	32611	32765	0	0	0	0	
872	0	32790	32629	32750	32537	0	0	0	0	
873	0	32725	32635	32727	32615	0	0	0	0	
874	0	32764	32711	32761	32604	0	0	0	0	
875	0	32788	32795	32770	32717	0	0	0	0	
876	0	32782	32693	32769	32647	0	0	0	0	
877	0	32756	32775	32739	32544	0	0	0	0	
878	0	32786	32773	32769	32688	0	0	0	0	
879	0	32773	32797	32817	32658	0	0	0	0	
880	0	32768	32703	32873	32463	0	0	0	0	
881	0	32729	32678	32799	32527	0	0	0	0	
882	0	32738	32775	32735	32681	0	0	0	0	
883	0	32698	32722	32671	32728	0	0	0	0	
884	0	32683	32692	32655	32765	0	0	0	0	
885	0	32775	32737	32656	32549	0	0	0	0	
886	0	32786	32727	32647	32677	0	0	0	0	
887	0	32738	32736	32726	32662	0	0	0	0	
888	0	32775	32751	32762	32530	0	0	0	0	
889	0	32721	32647	32775	32731	0	0	0	0	
890	0	32768	32733	32865	32750	0	0	0	0	
891	0	32754	32887	32775	32719	0	0	0	0	
892	0	32745	32838	32881	32544	0	0	0	0	
893	0	32770	32871	32738	32699	0	0	0	0	
894	0	32806	32775	32671	32682	0	0	0	0	
895	0	32768	32775	32688	32519	0	0	0	0	
896	0	32802	32873	32767	32679	0	0	0	0	
897	0	32738	32839	32674	32660	0	0	0	0	
898	0	32784	32687	32658	32727	0	0	0	0	
899	0	32710	32679	32621	32563	0	0	0	0	
900	0	32749	32674	32576	32663	0	0	0	0	
901	0	32745	32694	32743	32711	0	0	0	0	
902	0	32742	32775	32711	32766	0	0	0	0	
903	0	32647	32759	32657	32686	0	0	0	0	
904	0	32700	32735	32734	32885	0	0	0	0	
905	0	32732	32699	32674	32822	0	0	0	0	
906	0	32754	32653	32775	32930	0	0	0	0	
907	0	32799	32583	32900	32630	0	0	0	0	
908	0	32764	32657	32846	32721	0	0	0	0	
909	0	32743	32615	32687	32708	0	0	0	0	
910	0	32788	32647	32617	32408	0	0	0	0	
911	0	32787	32835	32634	32545	0	0	0	0	
912	0	32727	32863	32750	32497	0	0	0	0	
913	0	32784	32803	32763	32446	0	0	0	0	
914	0	32772	32763	32780	32455	0	0	0	0	
915	0	32827	32775	32689	32605	0	0	0	0	
916	0	32836	32679	32739	32699	0	0	0	0	
917	0	32797	32647	32693	32912	0	0	0	0	
918	0	32706	32662	32775	32749	0	0	0	0	
919	0	32775	32732	32647	32957	0	0	0	0	
920	0	32759	32715	32614	32833	0	0	0	0	
921	0	32812	32775	32662	32867	0	0	0	0	
922	0	32756	32666	32701	32766	0	0	0	0	
923	0	32768	32675	32637	32607	0	0	0	0	
924	0	32792	32619	32732	32685	0	0	0	0	
925	0	32752	32775	32686	32574	0	0	0	0	
926	0	32743	32829	32695	32559	0	0	0	0	
927	0	32795	32743	32731	32448	0	0	0	0	
928	0	32731	32614	32695	32623	0	0	0	0	
929	0	32754	32663	32739	32686	0	0	0	0	
930	0	32738	32735	32733	32699	0	0	0	0	
931	0	32730	32763	32595	32799	0	0	0	0	
932	0	32775	32871	32628	32656	0	0	0	0	
933	0	32780	32819	32626	32887	0	0	0	0	
934	0	32794	32708	32710	32775	0	0	0	0	
935	0	32786	32747	32669	32673	0	0	0	0	
936	0	32756	32759	32767	32511	0	0	0	0	
937	0	32806	32791	32688	32387	0	0	0	0	
938	0	32794	32663	32540	32470	0	0	0	0	
939	0	32698	32704	32683	32567	0	0	0	0	
940	0	32731	32583	32665	32621	0	0	0	0	
941	0	32724	32775	32685	32419	0	0	0	0	
942	0	32680	32747	32609	32639	0	0	0	0	
943	0	32766	32727	32598	32576	0	0	0	0	
944	0	32752	32791	32678	32743	0	0	0	0	
945	0	32787	32746	32775	32626	0	0	0	0	
946	0	32743	32685	32929	32807	0	0	0	0	
947	0	32801	32623	32935	32711	0	0	0	0	
948	0	32801	32723	32775	32683	0	0	0	0	
949	0	32794	32679	32775	32687	0	0	0	0	
950	0	32762	32797	32845	32749	0	0	0	0	
951	0	32758	32767	32775	32801	0	0	0	0	
952	0	32732	32763	32731	32551	0	0	0	0	
953	0	32711	32807	32786	32568	0	0	0	0	
954	0	32716	32807	32662	32692	0	0	0	0	
955	0	32772	32769	32759	32772	0	0	0	0	
956	0	32688	32775	32640	32539	0	0	0	0	
957	0	32760	32647	32647	32823	0	0	0	0	
958	0	32718	32599	32631	32827	0	0	0	0	
959	0	32756	32567	32742	32820	0	0	0	0	
960	0	32786	32719	32731	32599	0	0	0	0	
961	0	32726	32603	32638	32775	0	0	0	0	
962	0	32745	32663	32770	32702	0	0	0	0	
963	0	32698	32695	32639	32635	0	0	0	0	
964	0	32748	32663	32661	32483	0	0	0	0	
965	0	32769	32647	32733	32469	0	0	0	0	
966	0	32834	32865	32744	32562	0	0	0	0	
967	0	32896	32855	32681	32439	0	0	0	0	
968	0	32850	32871	32718	32481	0	0	0	0	
969	0	32867	32839	32711	32423	0	0	0	0	
970	0	32769	32743	32670	32451	0	0	0	0	
971	0	32727	32805	32665	32665	0	0	0	0	
972	0	32821	32806	32695	32715	0	0	0	0	
973	0	32820	32805	32678	32758	0	0	0	0	
974	0	32834	32731	32711	32875	0	0	0	0	
975	0	32784	32731	32835	32707	0	0	0	0	
976	0	32810	32839	32831	32903	0	0	0	0	
977	0	32764	32773	32761	32839	0	0	0	0	
978	0	32759	32727	32699	32878	0	0	0	0	
979	0	32734	32621	32735	32701	0	0	0	0	
980	0	32721	32579	32742	32557	0	0	0	0	
981	0	32718	32675	32621	32799	0	0	0	0	
982	0	32705	32725	32775	32775	0	0	0	0	
983	0	32756	32761	32754	32878	0	0	0	0	
984	0	32818	32775	32795	32705	0	0	0	0	
985	0	32770	32679	32619	32759	0	0	0	0	
986	0	32738	32635	32735	32950	0	0	0	0	
987	0	32743	32663	32647	32695	0	0	0	0	
988	0	32790	32644	32690	32775	0	0	0	0	
989	0	32780	32675	32690	32547	0	0	0	0	
990	0	32801	32743	32699	32775	0	0	0	0	
991	0	32790	32804	32723	32683	0	0	0	0	
992	0	32763	32631	32685	32710	0	0	0	0	
993	0	32793	32688	32615	32475	0	0	0	0	
994	0	32756	32834	32595	32639	0	0	0	0	
995	0	32740	32806	32699	32466	0	0	0	0	
996	0	32720	32827	32720	32523	0	0	0	0	
997	0	32756	32775	32626	32499	0	0	0	0	
998	0	32810	32795	32741	32361	0	0	0	0	
999	0	32803	32815	32690	32540	0	0	0	0	
1000	0	32760	32813	32738	32493	0	0	0	0	
1001	0	32803	32734	32615	32615	0	0	0	0	
1002	0	32795	32775	32797	32589	0	0	0	0	
1003	0	32806	32689	32766	32527	0	0	0	0	
1004	0	32820	32646	32793	32745	0	0	0	0	
1005	0	32739	32663	32679	32727	0	0	0	0	
1006	0	32806	32671	32668	32567	0	0	0	0	
1007	0	32775	32743	32733	32726	0	0	0	0	
1008	0	32720	32775	32752	32735	0	0	0	0	
1009	0	32756	32791	32757	32799	0	0	0	0	
1010	0	32804	32843	32695	32646	0	0	0	0	
1011	0	32706	32751	32687	32875	0	0	0	0	
1012	0	32715	32691	32811	32775	0	0	0	0	
1013	0	32764	32637	32775	32627	0	0	0	0	
1014	0	32775	32726	32647	32719	0	0	0	0	
1015	0	32749	32711	32743	32727	0	0	0	0	
1016	0	32837	32742	32711	32771	0	0	0	0	
1017	0	32818	32771	32750	32895	0	0	0	0	
1018	0	32808	32631	32771	32699	0	0	0	0	
1019	0	32786	32591	32583	32914	0	0	0	0	
1020	0	32766	32609	32663	32766	0	0	0	0	
1021	0	32744	32583	32775	32647	0	0	0	0	
1022	0	32775	32717	32731	32549	0	0	0	0	
1023	0	32833	32754	32819	32551	0	0	0	0	
1024	0	32854	32762	32747	32343	0	0	0	0	
1025	0	32752	32711	32615	32311	0	0	0	0	
1026	0	32751	32772	32643	32471	0	0	0	0	
1027	0	32680	32775	32645	32432	0	0	0	0	
1028	0	32762	32726	32749	32301	0	0	0	0	
1029	0	32674	32662	32715	32478	0	0	0	0	
1030	0	32756	32735	32624	32506	0	0	0	0	
1031	0	32750	32825	32775	32431	0	0	0	0	
1032	0	32772	32919	32734	32551	0	0	0	0	
1033	0	32767	32857	32775	32815	0	0	0	0	
1034	0	32745	32885	32701	32868	0	0	0	0	
1035	0	32754	32855	32740	32751	0	0	0	0	
1036	0	32747	32848	32807	32903	0	0	0	0	
1037	0	32710	32683	32743	32996	0	0	0	0	
1038	0	32736	32607	32692	32957	0	0	0	0	
1039	0	32658	32711	32657	32773	0	0	0	0	
1040	0	32764	32706	32647	32631	0	0	0	0	
1041	0	32825	32813	32694	32791	0	0	0	0	
1042	0	32800	32743	32725	32790	0	0	0	0	
1043	0	32806	32582	32635	32853	0	0	0	0	
1044	0	32786	32675	32726	32831	0	0	0	0	
1045	0	32760	32639	32743	32729	0	0	0	0	
1046	0	32742	32759	32717	32769	0	0	0	0	
1047	0	32718	32767	32673	32695	0	0	0	0	
1048	0	32691	32732	32769	32455	0	0	0	0	
1049	0	32784	32722	32795	32557	0	0	0	0	
1050	0	32775	32694	32775	32615	0	0	0	0	
1051	0	32711	32697	32692	32659	0	0	0	0	
1052	0	32775	32671	32694	32391	0	0	0	0	
1053	0	32889	32708	32743	32391	0	0	0	0	
1054	0	32844	32722	32795	32511	0	0	0	0	
1055	0	32800	32677	32600	32551	0	0	0	0	
1056	0	32809	32740	32711	32760	0	0	0	0	
1057	0	32775	32819	32734	32485	0	0	0	0	
1058	0	32732	32869	32720	32543	0	0	0	0	
1059	0	32753	32723	32615	32673	0	0	0	0	
1060	0	32748	32719	32674	32775	0	0	0	0	
1061	0	32730	32749	32715	32827	0	0	0	0	
1062	0	32694	32730	32673	32838	0	0	0	0	
1063	0	32748	32643	32737	32755	0	0	0	0	
1064	0	32772	32689	32673	32652	0	0	0	0	
1065	0	32832	32735	32694	32711	0	0	0	0	
1066	0	32848	32775	32751	32711	0	0	0	0	
1067	0	32802	32679	32754	32692	0	0	0	0	
1068	0	32752	32791	32701	32735	0	0	0	0	
1069	0	32832	32798	32826	32673	0	0	0	0	
1070	0	32755	32770	32719	32567	0	0	0	0	
1071	0	32771	32681	32647	32666	0	0	0	0	
1072	0	32838	32691	32671	32851	0	0	0	0	
1073	0	32775	32835	32617	32719	0	0	0	0	
1074	0	32775	32812	32665	32646	0	0	0	0	
1075	0	32775	32747	32607	32519	0	0	0	0	
1076	0	32702	32723	32632	32751	0	0	0	0	
1077	0	32735	32555	32719	32721	0	0	0	0	
1078	0	32748	32613	32643	32810	0	0	0	0	
1079	0	32720	32743	32775	32511	0	0	0	0	
1080	0	32772	32721	32726	32680	0	0	0	0	
1081	0	32711	32747	32759	32666	0	0	0	0	
1082	0	32688	32698	32773	32717	0	0	0	0	
1083	0	32752	32557	32747	32502	0	0	0	0	
1084	0	32805	32655	32711	32463	0	0	0	0	
1085	0	32854	32775	32751	32498	0	0	0	0	
1086	0	32811	32829	32762	32647	0	0	0	0	
1087	0	32839	32771	32775	32629	0	0	0	0	
1088	0	32762	32667	32877	32647	0	0	0	0	
1089	0	32758	32771	32819	32699	0	0	0	0	
1090	0	32698	32690	32731	32497	0	0	0	0	
1091	0	32787	32679	32674	32647	0	0	0	0	
1092	0	32712	32647	32709	32573	0	0	0	0	
1093	0	32763	32656	32699	32647	0	0	0	0	
1094	0	32771	32739	32703	32666	0	0	0	0	
1095	0	32800	32799	32671	32725	0	0	0	0	
1096	0	32773	32798	32726	32859	0	0	0	0	
1097	0	32768	32883	32770	32766	0	0	0	0	
1098	0	32752	32701	32641	32835	0	0	0	0	
1099	0	32810	32807	32711	32801	0	0	0	0	
1100	0	32813	32795	32736	32615	0	0	0	0	
1101	0	32799	32787	32663	32542	0	0	0	0	
1102	0	32816	32775	32711	32720	0	0	0	0	
1103	0	32846	32711	32663	32698	0	0	0	0	
1104	0	32775	32725	32726	32810	0	0	0	0	
1105	0	32793	32828	32659	32623	0	0	0	0	
1106	0	32770	32679	32775	32743	0	0	0	0	
1107	0	32804	32775	32775	32848	0	0	0	0	
1108	0	32768	32583	32687	32703	0	0	0	0	
1109	0	32745	32642	32789	32641	0	0	0	0	
1110	0	32786	32751	32762	32443	0	0	0	0	
1111	0	32769	32775	32647	32438	0	0	0	0	
1112	0	32717	32641	32659	32583	0	0	0	0	
1113	0	32710	32594	32646	32685	0	0	0	0	
1114	0	32732	32595	32647	32539	0	0	0	0	
1115	0	32754	32751	32606	32554	0	0	0	0	
1116	0	32788	32775	32702	32361	0	0	0	0	
1117	0	32832	32738	32661	32391	0	0	0	0	
1118	0	32812	32643	32663	32551	0	0	0	0	
1119	0	32838	32751	32732	32726	0	0	0	0	
1120	0	32775	32659	32749	32711	0	0	0	0	
1121	0	32800	32791	32658	32746	0	0	0	0	
1122	0	32754	32706	32726	32687	0	0	0	0	
1123	0	32768	32666	32694	32767	0	0	0	0	
1124	0	32772	32818	32734	32861	0	0	0	0	
1125	0	32772	32769	32743	32805	0	0	0	0	
1126	0	32775	32733	32727	32943	0	0	0	0	
1127	0	32680	32711	32719	32831	0	0	0	0	
1128	0	32652	32807	32661	32769	0	0	0	0	
1129	0	32679	32767	32711	32738	0	0	0	0	
1130	0	32758	32647	32738	32894	0	0	0	0	
1131	0	32708	32669	32692	32831	0	0	0	0	
1132	0	32746	32791	32710	32763	0	0	0	0	
1133	0	32719	32743	32719	32647	0	0	0	0	
1134	0	32747	32847	32609	32420	0	0	0	0	
1135	0	32775	32694	32760	32399	0	0	0	0	
1136	0	32730	32639	32711	32566	0	0	0	0	
1137	0	32742	32603	32672	32673	0	0	0	0	
1138	0	32775	32711	32739	32466	0	0	0	0	
1139	0	32857	32739	32676	32595	0	0	0	0	
1140	0	32792	32743	32775	32567	0	0	0	0	
1141	0	32734	32757	32775	32533	0	0	0	0	
1142	0	32718	32716	32705	32518	0	0	0	0	
1143	0	32722	32687	32667	32375	0	0	0	0	
1144	0	32826	32775	32729	32543	0	0	0	0	
1145	0	32794	32903	32669	32576	0	0	0	0	
1146	0	32787	32839	32804	32683	0	0	0	0	
1147	0	32765	32803	32720	32499	0	0	0	0	
1148	0	32813	32975	32711	32797	0	0	0	0	
1149	0	32824	32860	32723	32791	0	0	0	0	
1150	0	32774	32839	32742	32751	0	0	0	0	
1151	0	32735	32774	32747	32846	0	0	0	0	
1152	0	32731	32631	32681	32867	0	0	0	0	
1153	0	32758	32641	32647	33007	0	0	0	0	
1154	0	32768	32743	32727	32755	0	0	0	0	
1155	0	32838	32775	32797	32983	0	0	0	0	
1156	0	32783	32685	32728	33015	0	0	0	0	
1157	0	32796	32691	32775	32983	0	0	0	0	
1158	0	32784	32646	32767	32769	0	0	0	0	
1159	0	32806	32603	32798	32723	0	0	0	0	
1160	0	32839	32621	32694	32859	0	0	0	0	
1161	0	32792	32647	32762	32735	0	0	0	0	
1162	0	32816	32731	32698	32639	0	0	0	0	
1163	0	32846	32743	32629	32565	0	0	0	0	
1164	0	32775	32615	32711	32426	0	0	0	0	
1165	0	32804	32639	32703	32441	0	0	0	0	
1166	0	32752	32775	32608	32459	0	0	0	0	
1167	0	32772	32759	32635	32515	0	0	0	0	
1168	0	32676	32718	32749	32511	0	0	0	0	
1169	0	32686	32694	32802	32349	0	0	0	0	
1170	0	32719	32775	32707	32364	0	0	0	0	
1171	0	32711	32807	32742	32375	0	0	0	0	
1172	0	32775	32635	32738	32443	0	0	0	0	
1173	0	32768	32642	32631	32451	0	0	0	0	
1174	0	32745	32721	32813	32541	0	0	0	0	
1175	0	32729	32839	32754	32423	0	0	0	0	
1176	0	32813	32799	32645	32467	0	0	0	0	
1177	0	32837	32814	32694	32685	0	0	0	0	
1178	0	32792	32722	32711	32755	0	0	0	0	
1179	0	32842	32739	32681	32898	0	0	0	0	
1180	0	32775	32671	32608	32929	0	0	0	0	
1181	0	32806	32759	32615	32764	0	0	0	0	
1182	0	32872	32771	32735	32979	0	0	0	0	
1183	0	32814	32680	32747	32930	0	0	0	0	
1184	0	32794	32858	32715	32803	0	0	0	0	
1185	0	32775	32675	32656	32747	0	0	0	0	
1186	0	32818	32691	32773	32863	0	0	0	0	
1187	0	32805	32759	32723	32675	0	0	0	0	
1188	0	32756	32759	32646	32605	0	0	0	0	
1189	0	32775	32834	32759	32500	0	0	0	0	
1190	0	32808	32725	32738	32468	0	0	0	0	
1191	0	32740	32655	32708	32742	0	0	0	0	
1192	0	32748	32695	32647	32775	0	0	0	0	
1193	0	32746	32695	32661	32598	0	0	0	0	
1194	0	32752	32807	32695	32628	0	0	0	0	
1195	0	32775	32794	32676	32755	0	0	0	0	
1196	0	32811	32791	32755	32917	0	0	0	0	
1197	0	32868	32742	32703	32742	0	0	0	0	
1198	0	32857	32734	32724	32799	0	0	0	0	
1199	0	32814	32599	32799	32716	0	0	0	0	
1200	0	32821	32631	32667	32724	0	0	0	0	
1201	0	32784	32694	32563	32607	0	0	0	0	
1202	0	32747	32747	32631	32507	0	0	0	0	
1203	0	32722	32691	32662	32590	0	0	0	0	
1204	0	32656	32731	32692	32543	0	0	0	0	
1205	0	32640	32615	32602	32658	0	0	0	0	
1206	0	32665	32679	32722	32495	0	0	0	0	
1207	0	32745	32775	32711	32460	0	0	0	0	
1208	0	32722	32898	32681	32599	0	0	0	0	
1209	0	32734	32755	32767	32799	0	0	0	0	
1210	0	32692	32706	32758	32799	0	0	0	0	
1211	0	32703	32775	32738	32829	0	0	0	0	
1212	0	32720	32834	32710	32720	0	0	0	0	
1213	0	32740	32837	32739	32894	0	0	0	0	
1214	0	32692	32749	32750	33031	0	0	0	0	
1215	0	32818	32691	32694	32980	0	0	0	0	
1216	0	32788	32619	32725	32893	0	0	0	0	
1217	0	32852	32722	32775	32690	0	0	0	0	
1218	0	32800	32799	32801	32679	0	0	0	0	
1219	0	32775	32834	32647	32570	0	0	0	0	
1220	0	32763	32775	32741	32539	0	0	0	0	
1221	0	32719	32799	32823	32324	0	0	0	0	
1222	0	32781	32775	32813	32331	0	0	0	0	
1223	0	32726	32647	32631	32390	0	0	0	0	
1224	0	32730	32678	32711	32517	0	0	0	0	
1225	0	32767	32769	32797	32658	0	0	0	0	
1226	0	32804	32583	32617	32667	0	0	0	0	
1227	0	32775	32681	32722	32686	0	0	0	0	
1228	0	32836	32727	32702	32707	0	0	0	0	
1229	0	32791	32754	32621	32663	0	0	0	0	
1230	0	32788	32706	32663	32531	0	0	0	0	
1231	0	32749	32723	32691	32519	0	0	0	0	
1232	0	32757	32743	32631	32761	0	0	0	0	
1233	0	32797	32741	32687	32893	0	0	0	0	
1234	0	32790	32716	32708	32829	0	0	0	0	
1235	0	32794	32757	32683	32681	0	0	0	0	
1236	0	32828	32815	32743	32515	0	0	0	0	
1237	0	32771	32747	32775	32711	0	0	0	0	
1238	0	32768	32768	32807	32790	0	0	0	0	
1239	0	32762	32743	32742	32695	0	0	0	0	
1240	0	32713	32711	32795	32775	0	0	0	0	
1241	0	32817	32662	32711	32615	0	0	0	0	
1242	0	32838	32743	32715	32690	0	0	0	0	
1243	0	32856	32699	32699	32829	0	0	0	0	
1244	0	32814	32725	32743	32743	0	0	0	0	
1245	0	32728	32706	32709	32709	0	0	0	0	
1246	0	32728	32763	32613	32635	0	0	0	0	
1247	0	32728	32839	32743	32324	0	0	0	0	
1248	0	32714	32878	32772	32429	0	0	0	0	
1249	0	32742	32839	32775	32507	0	0	0	0	
1250	0	32743	32759	32711	32358	0	0	0	0	
1251	0	32834	32758	32685	32587	0	0	0	0	
1252	0	32792	32795	32680	32599	0	0	0	0	
1253	0	32792	32734	32761	32825	0	0	0	0	
1254	0	32760	32725	32738	32640	0	0	0	0	
1255	0	32753	32743	32771	32762	0	0	0	0	
1256	0	32756	32775	32647	32727	0	0	0	0	
1257	0	32748	32734	32628	32634	0	0	0	0	
1258	0	32748	32726	32658	32760	0	0	0	0	
1259	0	32808	32823	32765	32711	0	0	0	0	
1260	0	32829	32711	32701	32703	0	0	0	0	
1261	0	32758	32775	32723	32720	0	0	0	0	
1262	0	32786	32679	32655	32869	0	0	0	0	
1263	0	32716	32647	32751	33014	0	0	0	0	
1264	0	32742	32647	32711	32931	0	0	0	0	
1265	0	32716	32691	32699	32915	0	0	0	0	
1266	0	32761	32722	32692	32738	0	0	0	0	
1267	0	32731	32790	32773	32663	0	0	0	0	
1268	0	32775	32742	32775	32791	0	0	0	0	
1269	0	32740	32775	32621	32631	0	0	0	0	
1270	0	32764	32791	32774	32743	0	0	0	0	
1271	0	32787	32738	32684	32702	0	0	0	0	
1272	0	32746	32793	32615	32478	0	0	0	0	
1273	0	32749	32763	32707	32668	0	0	0	0	
1274	0	32808	32667	32832	32620	0	0	0	0	
1275	0	32735	32711	32727	32715	0	0	0	0	
1276	0	32764	32703	32730	32507	0	0	0	0	
1277	0	32738	32681	32595	32602	0	0	0	0	
1278	0	32775	32641	32775	32667	0	0	0	0	
1279	0	32818	32636	32743	32631	0	0	0	0	
1280	0	32752	32635	32583	32569	0	0	0	0	
1281	0	32722	32583	32742	32647	0	0	0	0	
1282	0	32730	32601	32683	32400	0	0	0	0	
1283	0	32718	32643	32677	32654	0	0	0	0	
1284	0	32762	32606	32647	32682	0	0	0	0	
1285	0	32816	32613	32817	32775	0	0	0	0	
1286	0	32756	32617	32742	32534	0	0	0	0	
1287	0	32791	32731	32742	32591	0	0	0	0	
1288	0	32878	32671	32871	32851	0	0	0	0	
1289	0	32850	32663	32866	32767	0	0	0	0	
1290	0	32824	32647	32911	32690	0	0	0	0	
1291	0	32834	32631	32775	32611	0	0	0	0	
1292	0	32802	32733	32903	32852	0	0	0	0	
1293	0	32710	32691	32815	32815	0	0	0	0	
1294	0	32624	32606	32822	32839	0	0	0	0	
1295	0	32669	32679	32705	32631	0	0	0	0	
1296	0	32644	32738	32724	32475	0	0	0	0	
1297	0	32646	32743	32687	32563	0	0	0	0	
1298	0	32578	32739	32579	32710	0	0	0	0	
1299	0	32643	32632	32605	32682	0	0	0	0	
1300	0	32617	32687	32639	32610	0	0	0	0	
1301	0	32640	32743	32475	32598	0	0	0	0	
1302	0	32652	32838	32487	32460	0	0	0	0	
1303	0	32620	32867	32379	32263	0	0	0	0	
1304	0	32648	32903	32397	32339	0	0	0	0	
1305	0	32768	32757	32559	32530	0	0	0	0	
1306	0	32808	32815	32432	32567	0	0	0	0	
1307	0	32722	32749	32305	32544	0	0	0	0	
1308	0	32792	32835	32451	32561	0	0	0	0	
1309	0	32824	32943	32463	32611	0	0	0	0	
1310	0	32784	32896	32399	32289	0	0	0	0	
1311	0	32768	32839	32351	32317	0	0	0	0	
1312	0	32755	32820	32358	32368	0	0	0	0	
1313	0	32710	32839	32419	32226	0	0	0	0	
1314	0	32692	32863	32279	32293	0	0	0	0	
1315	0	32809	32839	32388	32293	0	0	0	0	
1316	0	32814	32940	32430	32257	0	0	0	0	
1317	0	32832	32895	32427	32307	0	0	0	0	
1318	0	32856	32775	32587	32391	0	0	0	0	
1319	0	32832	32826	32604	32487	0	0	0	0	
1320	0	32874	32973	32694	32599	0	0	0	0	
1321	0	32854	32870	32593	32579	0	0	0	0	
1322	0	32850	32798	32774	32820	0	0	0	0	
1323	0	32934	32742	32887	33095	0	0	0	0	
1324	0	32983	32727	32979	33063	0	0	0	0	
1325	0	32888	32647	33119	33118	0	0	0	0	
1326	0	32854	32582	33190	33125	0	0	0	0	
1327	0	32882	32526	33127	33041	0	0	0	0	
1328	0	32924	32553	33351	33007	0	0	0	0	
1329	0	33078	32557	33478	32893	0	0	0	0	
1330	0	33148	32621	33499	32955	0	0	0	0	
1331	0	33229	32629	33647	33105	0	0	0	0	
1332	0	33152	32669	33591	33234	0	0	0	0	
1333	0	33156	32548	33651	33363	0	0	0	0	
1334	0	33040	32487	33551	33303	0	0	0	0	
1335	0	32952	32370	33567	33303	0	0	0	0	
1336	0	32908	32391	33426	33308	0	0	0	0	
1337	0	32775	32455	33215	33083	0	0	0	0	
1338	0	32786	32658	33095	32903	0	0	0	0	
1339	0	32756	32623	33020	32951	0	0	0	0	
1340	0	32702	32687	32832	32825	0	0	0	0	
1341	0	32620	32681	32791	32619	0	0	0	0	
1342	0	32626	32807	32685	32535	0	0	0	0	
1343	0	32594	32844	32487	32658	0	0	0	0	
1344	0	32522	32843	32507	32578	0	0	0	0	
1345	0	32620	32775	32475	32615	0	0	0	0	
1346	0	32632	32791	32355	32631	0	0	0	0	
1347	0	32580	32734	32391	32463	0	0	0	0	
1348	0	32577	32730	32327	32479	0	0	0	0	
1349	0	32622	32775	32318	32551	0	0	0	0	
1350	0	32570	32819	32319	32519	0	0	0	0	
1351	0	32581	32855	32259	32571	0	0	0	0	
1352	0	32620	32803	32359	32471	0	0	0	0	
1353	0	32579	32875	32424	32634	0	0	0	0	
1354	0	32566	32819	32327	32589	0	0	0	0	
1355	0	32554	32766	32398	32594	0	0	0	0	
1356	0	32580	32742	32466	32729	0	0	0	0	
1357	0	32658	32719	32485	32603	0	0	0	0	
1358	0	32695	32723	32487	32514	0	0	0	0	
1359	0	32620	32748	32615	32564	0	0	0	0	
1360	0	32608	32804	32631	32550	0	0	0	0	
1361	0	32690	32798	32551	32530	0	0	0	0	
1362	0	32775	32738	32647	32404	0	0	0	0	
1363	0	32794	32704	32679	32282	0	0	0	0	
1364	0	32848	32707	32720	32578	0	0	0	0	
1365	0	32864	32791	32559	32639	0	0	0	0	
1366	0	32813	32808	32694	32711	0	0	0	0	
1367	0	32726	32753	32775	32555	0	0	0	0	
1368	0	32775	32775	32688	32644	0	0	0	0	
1369	0	32739	32882	32763	32699	0	0	0	0	
1370	0	32784	32805	32743	32699	0	0	0	0	
1371	0	32790	32806	32671	32559	0	0	0	0	
1372	0	32873	32769	32721	32637	0	0	0	0	
1373	0	32809	32748	32759	32690	0	0	0	0	
1374	0	32810	32758	32647	32755	0	0	0	0	
1375	0	32816	32687	32705	32490	0	0	0	0	
1376	0	32790	32665	32698	32645	0	0	0	0	
1377	0	32768	32673	32775	32707	0	0	0	0	
1378	0	32854	32787	32685	32761	0	0	0	0	
1379	0	32844	32755	32715	32886	0	0	0	0	
1380	0	32764	32807	32743	32789	0	0	0	0	
1381	0	32744	32775	32772	32759	0	0	0	0	
1382	0	32799	32773	32638	32885	0	0	0	0	
1383	0	32850	32775	32723	32816	0	0	0	0	
1384	0	32869	32774	32729	32775	0	0	0	0	
1385	0	32793	32765	32646	32570	0	0	0	0	
1386	0	32775	32725	32775	32459	0	0	0	0	
1387	0	32896	32771	32755	32469	0	0	0	0	
1388	0	32784	32763	32703	32445	0	0	0	0	
1389	0	32758	32867	32773	32455	0	0	0	0	
1390	0	32783	32819	32775	32427	0	0	0	0	
1391	0	32743	32759	32727	32576	0	0	0	0	
1392	0	32748	32747	32681	32429	0	0	0	0	
1393	0	32736	32737	32807	32467	0	0	0	0	
1394	0	32767	32775	32726	32519	0	0	0	0	
1395	0	32708	32805	32742	32539	0	0	0	0	
1396	0	32787	32824	32739	32727	0	0	0	0	
1397	0	32802	32775	32775	32647	0	0	0	0	
1398	0	32775	32725	32763	32557	0	0	0	0	
1399	0	32770	32727	32647	32577	0	0	0	0	
1400	0	32766	32755	32647	32847	0	0	0	0	
1401	0	32746	32719	32655	32981	0	0	0	0	
1402	0	32872	32822	32594	32855	0	0	0	0	
1403	0	32850	32775	32694	32887	0	0	0	0	
1404	0	32859	32771	32731	32754	0	0	0	0	
1405	0	32815	32765	32615	32759	0	0	0	0	
1406	0	32810	32739	32639	32834	0	0	0	0	
1407	0	32753	32742	32695	32801	0	0	0	0	
1408	0	32750	32734	32711	32800	0	0	0	0	
1409	0	32775	32659	32671	32439	0	0	0	0	
1410	0	32767	32635	32627	32418	0	0	0	0	
1411	0	32690	32839	32630	32537	0	0	0	0	
1412	0	32688	32818	32807	32598	0	0	0	0	
1413	0	32775	32766	32679	32534	0	0	0	0	
1414	0	32799	32775	32775	32674	0	0	0	0	
1415	0	32816	32727	32775	32559	0	0	0	0	
1416	0	32734	32773	32647	32431	0	0	0	0	
1417	0	32810	32769	32655	32660	0	0	0	0	
1418	0	32839	32794	32657	32773	0	0	0	0	
1419	0	32822	32739	32677	32775	0	0	0	0	
1420	0	32775	32674	32727	32769	0	0	0	0	
1421	0	32736	32725	32733	32827	0	0	0	0	
1422	0	32706	32759	32763	32551	0	0	0	0	
1423	0	32677	32765	32659	32694	0	0	0	0	
1424	0	32674	32731	32709	32691	0	0	0	0	
1425	0	32700	32658	32771	32763	0	0	0	0	
1426	0	32708	32767	32759	32679	0	0	0	0	
1427	0	32764	32775	32606	32694	0	0	0	0	
1428	0	32728	32711	32667	32832	0	0	0	0	
1429	0	32738	32709	32685	32770	0	0	0	0	
1430	0	32668	32727	32690	32859	0	0	0	0	
1431	0	32686	32686	32630	32801	0	0	0	0	
1432	0	32742	32694	32709	32878	0	0	0	0	
1433	0	32796	32749	32702	32882	0	0	0	0	
1434	0	32775	32751	32733	32851	0	0	0	0	
1435	0	32716	32771	32690	32665	0	0	0	0	
1436	0	32738	32747	32823	32571	0	0	0	0	
1437	0	32768	32647	32810	32599	0	0	0	0	
1438	0	32744	32659	32716	32564	0	0	0	0	
1439	0	32764	32679	32722	32463	0	0	0	0	
1440	0	32811	32677	32727	32447	0	0	0	0	
1441	0	32758	32687	32695	32391	0	0	0	0	
1442	0	32763	32749	32647	32336	0	0	0	0	
1443	0	32775	32627	32699	32635	0	0	0	0	
1444	0	32754	32683	32751	32643	0	0	0	0	
1445	0	32726	32725	32691	32726	0	0	0	0	
1446	0	32768	32813	32670	32628	0	0	0	0	
1447	0	32816	32863	32787	32513	0	0	0	0	
1448	0	32775	32934	32759	32660	0	0	0	0	
1449	0	32769	32923	32670	32629	0	0	0	0	
1450	0	32784	32850	32730	32699	0	0	0	0	
1451	0	32767	32786	32727	32722	0	0	0	0	
1452	0	32763	32797	32743	32658	0	0	0	0	
1453	0	32775	32754	32695	32775	0	0	0	0	
1454	0	32788	32595	32680	32829	0	0	0	0	
1455	0	32784	32640	32775	32851	0	0	0	0	
1456	0	32818	32657	32720	32679	0	0	0	0	
1457	0	32768	32639	32761	32734	0	0	0	0	
1458	0	32708	32639	32767	32691	0	0	0	0	
1459	0	32775	32613	32716	32431	0	0	0	0	
1460	0	32797	32671	32775	32641	0	0	0	0	
1461	0	32716	32750	32763	32559	0	0	0	0	
1462	0	32753	32883	32746	32689	0	0	0	0	
1463	0	32711	32818	32593	32591	0	0	0	0	
1464	0	32727	32745	32617	32739	0	0	0	0	
1465	0	32750	32723	32681	32685	0	0	0	0	
1466	0	32806	32765	32658	32583	0	0	0	0	
1467	0	32746	32855	32711	32507	0	0	0	0	
1468	0	32716	32790	32681	32500	0	0	0	0	
1469	0	32839	32820	32722	32667	0	0	0	0	
1470	0	32832	32766	32637	32690	0	0	0	0	
1471	0	32796	32723	32751	32647	0	0	0	0	
1472	0	32762	32670	32707	32834	0	0	0	0	
1473	0	32775	32699	32711	32839	0	0	0	0	
1474	0	32752	32721	32735	32827	0	0	0	0	
1475	0	32782	32667	32720	32890	0	0	0	0	
1476	0	32745	32629	32638	32679	0	0	0	0	
1477	0	32730	32659	32623	32687	0	0	0	0	
1478	0	32694	32675	32687	32646	0	0	0	0	
1479	0	32728	32694	32796	32637	0	0	0	0	
1480	0	32746	32689	32694	32705	0	0	0	0	
1481	0	32772	32647	32796	32582	0	0	0	0	
1482	0	32832	32742	32823	32567	0	0	0	0	
1483	0	32873	32795	32737	32687	0	0	0	0	
1484	0	32871	32815	32663	32615	0	0	0	0	
1485	0	32832	32721	32773	32711	0	0	0	0	
1486	0	32792	32745	32719	32543	0	0	0	0	
1487	0	32771	32715	32791	32711	0	0	0	0	
1488	0	32754	32820	32735	32679	0	0	0	0	
1489	0	32775	32671	32775	32811	0	0	0	0	
1490	0	32789	32687	32706	32634	0	0	0	0	
1491	0	32862	32690	32771	32583	0	0	0	0	
1492	0	32887	32738	32671	32679	0	0	0	0	
1493	0	32796	32764	32723	32729	0	0	0	0	
1494	0	32820	32739	32722	32770	0	0	0	0	
1495	0	32832	32677	32722	32873	0	0	0	0	
1496	0	32827	32709	32775	32791	0	0	0	0	
1497	0	32765	32775	32711	32707	0	0	0	0	
1498	0	32784	32771	32603	32855	0	0	0	0	
1499	0	32736	32839	32717	32763	0	0	0	0	
1500	0	32741	32854	32711	32796	0	0	0	0	
1501	0	32686	32775	32755	32615	0	0	0	0	
1502	0	32672	32822	32658	32480	0	0	0	0	
1503	0	32696	32865	32658	32581	0	0	0	0	
1504	0	32688	32803	32762	32558	0	0	0	0	
1505	0	32765	32804	32562	32606	0	0	0	0	
1506	0	32820	32775	32701	32381	0	0	0	0	
1507	0	32793	32751	32773	32473	0	0	0	0	
1508	0	32775	32758	32627	32439	0	0	0	0	
1509	0	32806	32815	32819	32339	0	0	0	0	
1510	0	32767	32822	32843	32418	0	0	0	0	
1511	0	32775	32831	32702	32415	0	0	0	0	
1512	0	32800	32839	32759	32397	0	0	0	0	
1513	0	32824	32823	32683	32773	0	0	0	0	
1514	0	32833	32793	32702	32872	0	0	0	0	
1515	0	32801	32802	32679	32733	0	0	0	0	
1516	0	32832	32775	32668	32864	0	0	0	0	
1517	0	32806	32732	32749	33015	0	0	0	0	
1518	0	32766	32622	32594	33082	0	0	0	0	
1519	0	32764	32699	32701	32953	0	0	0	0	
1520	0	32720	32630	32593	32903	0	0	0	0	
1521	0	32696	32695	32743	32871	0	0	0	0	
1522	0	32742	32662	32748	32757	0	0	0	0	
1523	0	32736	32699	32720	32711	0	0	0	0	
1524	0	32713	32682	32678	32555	0	0	0	0	
1525	0	32698	32635	32771	32555	0	0	0	0	
1526	0	32739	32695	32743	32674	0	0	0	0	
1527	0	32728	32737	32638	32669	0	0	0	0	
1528	0	32696	32642	32711	32677	0	0	0	0	
1529	0	32754	32690	32681	32547	0	0	0	0	
1530	0	32760	32683	32738	32740	0	0	0	0	
1531	0	32742	32879	32639	32693	0	0	0	0	
1532	0	32784	32820	32635	32642	0	0	0	0	
1533	0	32794	32745	32735	32468	0	0	0	0	
1534	0	32746	32699	32760	32690	0	0	0	0	
1535	0	32713	32686	32645	32609	0	0	0	0	
1536	0	32791	32673	32711	32551	0	0	0	0	
1537	0	32688	32694	32754	32455	0	0	0	0	
1538	0	32711	32739	32687	32602	0	0	0	0	
1539	0	32749	32688	32691	32698	0	0	0	0	
1540	0	32730	32758	32732	32767	0	0	0	0	
1541	0	32770	32798	32690	32738	0	0	0	0	
1542	0	32740	32748	32775	32769	0	0	0	0	
1543	0	32800	32733	32707	32860	0	0	0	0	
1544	0	32826	32725	32680	32555	0	0	0	0	
1545	0	32798	32736	32647	32641	0	0	0	0	
1546	0	32734	32666	32680	32771	0	0	0	0	
1547	0	32717	32679	32695	32647	0	0	0	0	
1548	0	32677	32739	32670	32703	0	0	0	0	
1549	0	32708	32849	32709	32417	0	0	0	0	
1550	0	32711	32711	32775	32507	0	0	0	0	
1551	0	32736	32695	32759	32597	0	0	0	0	
1552	0	32712	32775	32626	32551	0	0	0	0	
1553	0	32710	32730	32724	32579	0	0	0	0	
1554	0	32754	32731	32647	32610	0	0	0	0	
1555	0	32732	32755	32743	32775	0	0	0	0	
1556	0	32762	32697	32743	32704	0	0	0	0	
1557	0	32800	32771	32839	32695	0	0	0	0	
1558	0	32859	32823	32775	32485	0	0	0	0	
1559	0	32893	32866	32750	32655	0	0	0	0	
1560	0	32880	32767	32642	32613	0	0	0	0	
1561	0	32834	32791	32727	32742	0	0	0	0	
1562	0	32848	32727	32702	32655	0	0	0	0	
1563	0	32788	32675	32775	32855	0	0	0	0	
1564	0	32866	32647	32738	32854	0	0	0	0	
1565	0	32744	32689	32675	32738	0	0	0	0	
1566	0	32775	32775	32790	32669	0	0	0	0	
1567	0	32773	32807	32717	32619	0	0	0	0	
1568	0	32775	32722	32743	32597	0	0	0	0	
1569	0	32728	32740	32655	32454	0	0	0	0	
1570	0	32745	32671	32634	32735	0	0	0	0	
1571	0	32802	32662	32663	32643	0	0	0	0	
1572	0	32771	32752	32695	32679	0	0	0	0	
1573	0	32788	32747	32726	32551	0	0	0	0	
1574	0	32814	32739	32742	32611	0	0	0	0	
1575	0	32814	32731	32815	32690	0	0	0	0	
1576	0	32775	32754	32794	32718	0	0	0	0	
1577	0	32742	32791	32766	32599	0	0	0	0	
1578	0	32764	32767	32790	32766	0	0	0	0	
1579	0	32790	32743	32741	32860	0	0	0	0	
1580	0	32801	32695	32637	32717	0	0	0	0	
1581	0	32850	32629	32823	32799	0	0	0	0	
1582	0	32858	32623	32726	32869	0	0	0	0	
1583	0	32825	32662	32742	32808	0	0	0	0	
1584	0	32815	32643	32711	32830	0	0	0	0	
1585	0	32775	32635	32753	32578	0	0	0	0	
1586	0	32736	32679	32769	32723	0	0	0	0	
1587	0	32698	32719	32766	32731	0	0	0	0	
1588	0	32722	32740	32727	32662	0	0	0	0	
1589	0	32742	32597	32742	32658	0	0	0	0	
1590	0	32758	32611	32691	32409	0	0	0	0	
1591	0	32760	32662	32655	32455	0	0	0	0	
1592	0	32775	32748	32595	32642	0	0	0	0	
1593	0	32805	32791	32734	32647	0	0	0	0	
1594	0	32812	32795	32685	32623	0	0	0	0	
1595	0	32813	32817	32741	32519	0	0	0	0	
1596	0	32736	32755	32811	32717	0	0	0	0	
1597	0	32704	32775	32658	32695	0	0	0	0	
1598	0	32702	32775	32775	32711	0	0	0	0	
1599	0	32718	32814	32755	32575	0	0	0	0	
1600	0	32726	32867	32706	32695	0	0	0	0	
1601	0	32726	32754	32594	32730	0	0	0	0	
1602	0	32734	32722	32627	32627	0	0	0	0	
1603	0	32732	32554	32698	32703	0	0	0	0	
1604	0	32767	32673	32655	32821	0	0	0	0	
1605	0	32747	32702	32672	32743	0	0	0	0	
1606	0	32658	32707	32674	32658	0	0	0	0	
1607	0	32712	32690	32786	32472	0	0	0	0	
1608	0	32784	32683	32795	32634	0	0	0	0	
1609	0	32704	32647	32685	32770	0	0	0	0	
1610	0	32809	32706	32796	32694	0	0	0	0	
1611	0	32768	32711	32786	32775	0	0	0	0	
1612	0	32782	32692	32711	32759	0	0	0	0	
1613	0	32782	32726	32811	32647	0	0	0	0	
1614	0	32839	32682	32919	32583	0	0	0	0	
1615	0	32790	32775	32727	32658	0	0	0	0	
1616	0	32768	32682	32759	32626	0	0	0	0	
1617	0	32748	32711	32747	32659	0	0	0	0	
1618	0	32722	32747	32747	32668	0	0	0	0	
1619	0	32790	32815	32710	32642	0	0	0	0	
1620	0	32729	32871	32658	32530	0	0	0	0	
1621	0	32680	32775	32722	32578	0	0	0	0	
1622	0	32686	32773	32733	32742	0	0	0	0	
1623	0	32738	32775	32702	32683	0	0	0	0	
1624	0	32843	32758	32591	32741	0	0	0	0	
1625	0	32748	32850	32751	32724	0	0	0	0	
1626	0	32792	32727	32733	32587	0	0	0	0	
1627	0	32770	32861	32635	32758	0	0	0	0	
1628	0	32784	32871	32765	32820	0	0	0	0	
1629	0	32827	32839	32725	32747	0	0	0	0	
1630	0	32839	32903	32718	32681	0	0	0	0	
1631	0	32808	32791	32763	32640	0	0	0	0	
1632	0	32800	32687	32765	32694	0	0	0	0	
1633	0	32762	32735	32706	32863	0	0	0	0	
1634	0	32802	32629	32725	32839	0	0	0	0	
1635	0	32806	32631	32694	32800	0	0	0	0	
1636	0	32806	32647	32738	32647	0	0	0	0	
1637	0	32813	32677	32647	32486	0	0	0	0	
1638	0	32808	32711	32684	32539	0	0	0	0	
1639	0	32814	32687	32675	32507	0	0	0	0	
1640	0	32775	32775	32701	32509	0	0	0	0	
1641	0	32775	32723	32807	32551	0	0	0	0	
1642	0	32773	32754	32744	32690	0	0	0	0	
1643	0	32775	32795	32624	32519	0	0	0	0	
1644	0	32788	32775	32759	32454	0	0	0	0	
1645	0	32754	32717	32679	32555	0	0	0	0	
1646	0	32748	32675	32641	32690	0	0	0	0	
1647	0	32788	32707	32791	32722	0	0	0	0	
1648	0	32793	32683	32763	32811	0	0	0	0	
1649	0	32839	32775	32711	32817	0	0	0	0	
1650	0	32775	32727	32731	32685	0	0	0	0	
1651	0	32686	32775	32677	32640	0	0	0	0	
1652	0	32730	32846	32735	32735	0	0	0	0	
1653	0	32727	32903	32551	32690	0	0	0	0	
1654	0	32716	32834	32695	32486	0	0	0	0	
1655	0	32710	32879	32710	32590	0	0	0	0	
1656	0	32813	32775	32711	32703	0	0	0	0	
1657	0	32820	32807	32662	32694	0	0	0	0	
1658	0	32795	32763	32769	32767	0	0	0	0	
1659	0	32690	32763	32731	32593	0	0	0	0	
1660	0	32709	32730	32685	32683	0	0	0	0	
1661	0	32766	32686	32671	32670	0	0	0	0	
1662	0	32753	32711	32755	32638	0	0	0	0	
1663	0	32768	32699	32666	32570	0	0	0	0	
1664	0	32775	32671	32775	32583	0	0	0	0	
1665	0	32822	32726	32647	32704	0	0	0	0	
1666	0	32935	32727	32769	32698	0	0	0	0	
1667	0	32832	32703	32735	32859	0	0	0	0	
1668	0	32800	32687	32791	32697	0	0	0	0	
1669	0	32794	32658	32775	32631	0	0	0	0	
1670	0	32708	32673	32751	32555	0	0	0	0	
1671	0	32731	32663	32683	32683	0	0	0	0	
1672	0	32724	32631	32711	32799	0	0	0	0	
1673	0	32729	32546	32687	32816	0	0	0	0	
1674	0	32724	32583	32642	32856	0	0	0	0	
1675	0	32796	32598	32775	32670	0	0	0	0	
1676	0	32765	32642	32725	32479	0	0	0	0	
1677	0	32688	32617	32798	32567	0	0	0	0	
1678	0	32786	32637	32660	32491	0	0	0	0	
1679	0	32731	32637	32711	32473	0	0	0	0	
1680	0	32726	32583	32711	32463	0	0	0	0	
1681	0	32742	32811	32647	32553	0	0	0	0	
1682	0	32698	32743	32711	32535	0	0	0	0	
1683	0	32736	32745	32675	32747	0	0	0	0	
1684	0	32745	32811	32742	32775	0	0	0	0	
1685	0	32792	32773	32709	32762	0	0	0	0	
1686	0	32850	32727	32754	32943	0	0	0	0	
1687	0	32806	32611	32711	32819	0	0	0	0	
1688	0	32754	32628	32607	32851	0	0	0	0	
1689	0	32752	32663	32699	32894	0	0	0	0	
1690	0	32775	32681	32735	32734	0	0	0	0	
1691	0	32808	32674	32655	32647	0	0	0	0	
1692	0	32784	32685	32734	32615	0	0	0	0	
1693	0	32698	32743	32772	32381	0	0	0	0	
1694	0	32714	32773	32681	32390	0	0	0	0	
1695	0	32832	32807	32769	32470	0	0	0	0	
1696	0	32788	32765	32739	32637	0	0	0	0	
1697	0	32694	32735	32699	32757	0	0	0	0	
1698	0	32754	32765	32637	32732	0	0	0	0	
1699	0	32692	32621	32727	32711	0	0	0	0	
1700	0	32690	32663	32726	32646	0	0	0	0	
1701	0	32741	32635	32640	32628	0	0	0	0	
1702	0	32773	32617	32725	32672	0	0	0	0	
1703	0	32758	32647	32775	32647	0	0	0	0	
1704	0	32812	32659	32700	32607	0	0	0	0	
1705	0	32814	32594	32702	32703	0	0	0	0	
1706	0	32824	32571	32742	32735	0	0	0	0	
1707	0	32819	32551	32647	32547	0	0	0	0	
1708	0	32800	32647	32801	32635	0	0	0	0	
1709	0	32793	32592	32751	32743	0	0	0	0	
1710	0	32738	32607	32749	32583	0	0	0	0	
1711	0	32704	32695	32719	32575	0	0	0	0	
1712	0	32711	32707	32658	32567	0	0	0	0	
1713	0	32706	32663	32635	32379	0	0	0	0	
1714	0	32736	32626	32668	32575	0	0	0	0	
1715	0	32710	32670	32685	32580	0	0	0	0	
1716	0	32820	32689	32634	32629	0	0	0	0	
1717	0	32795	32717	32727	32626	0	0	0	0	
1718	0	32810	32749	32726	32698	0	0	0	0	
1719	0	32738	32831	32617	32725	0	0	0	0	
1720	0	32748	32871	32724	32874	0	0	0	0	
1721	0	32726	32851	32739	32711	0	0	0	0	
1722	0	32706	32839	32674	32803	0	0	0	0	
1723	0	32780	32775	32671	32965	0	0	0	0	
1724	0	32796	32865	32689	32923	0	0	0	0	
1725	0	32717	32871	32591	32816	0	0	0	0	
1726	0	32792	32831	32757	32898	0	0	0	0	
1727	0	32846	32711	32794	32788	0	0	0	0	
1728	0	32802	32711	32683	32583	0	0	0	0	
1729	0	32826	32647	32807	32562	0	0	0	0	
1730	0	32842	32665	32809	32528	0	0	0	0	
1731	0	32819	32662	32711	32510	0	0	0	0	
1732	0	32802	32609	32754	32672	0	0	0	0	
1733	0	32773	32615	32775	32593	0	0	0	0	
1734	0	32775	32574	32775	32637	0	0	0	0	
1735	0	32788	32607	32631	32831	0	0	0	0	
1736	0	32775	32602	32727	32790	0	0	0	0	
1737	0	32730	32575	32671	32695	0	0	0	0	
1738	0	32748	32695	32596	32738	0	0	0	0	
1739	0	32707	32702	32684	32492	0	0	0	0	
1740	0	32680	32698	32768	32570	0	0	0	0	
1741	0	32727	32729	32786	32645	0	0	0	0	
1742	0	32717	32719	32673	32685	0	0	0	0	
1743	0	32706	32767	32767	32647	0	0	0	0	
1744	0	32740	32754	32670	32671	0	0	0	0	
1745	0	32772	32643	32563	32425	0	0	0	0	
1746	0	32839	32790	32775	32375	0	0	0	0	
1747	0	32824	32715	32738	32514	0	0	0	0	
1748	0	32885	32719	32726	32475	0	0	0	0	
1749	0	32884	32706	32678	32535	0	0	0	0	
1750	0	32784	32723	32764	32531	0	0	0	0	
1751	0	32724	32723	32751	32468	0	0	0	0	
1752	0	32732	32791	32711	32663	0	0	0	0	
1753	0	32744	32674	32698	32626	0	0	0	0	
1754	0	32775	32675	32823	32736	0	0	0	0	
1755	0	32861	32683	32736	32790	0	0	0	0	
1756	0	32829	32731	32743	32711	0	0	0	0	
1757	0	32802	32799	32666	32707	0	0	0	0	
1758	0	32737	32746	32807	32919	0	0	0	0	
1759	0	32720	32693	32759	32914	0	0	0	0	
1760	0	32685	32583	32732	32937	0	0	0	0	
1761	0	32740	32603	32775	32868	0	0	0	0	
1762	0	32719	32511	32647	32830	0	0	0	0	
1763	0	32714	32581	32647	32570	0	0	0	0	
1764	0	32748	32657	32751	32402	0	0	0	0	
1765	0	32696	32683	32745	32515	0	0	0	0	
1766	0	32771	32675	32690	32517	0	0	0	0	
1767	0	32712	32747	32751	32638	0	0	0	0	
1768	0	32738	32735	32659	32690	0	0	0	0	
1769	0	32699	32743	32675	32647	0	0	0	0	
1770	0	32846	32721	32615	32586	0	0	0	0	
1771	0	32808	32811	32711	32719	0	0	0	0	
1772	0	32861	32751	32775	32769	0	0	0	0	
1773	0	32886	32791	32702	32811	0	0	0	0	
1774	0	32802	32741	32743	32717	0	0	0	0	
1775	0	32819	32738	32769	32767	0	0	0	0	
1776	0	32798	32771	32706	32663	0	0	0	0	
1777	0	32750	32819	32773	32327	0	0	0	0	
1778	0	32752	32715	32698	32297	0	0	0	0	
1779	0	32772	32834	32755	32358	0	0	0	0	
1780	0	32808	32775	32623	32479	0	0	0	0	
1781	0	32735	32727	32694	32679	0	0	0	0	
1782	0	32769	32687	32766	32663	0	0	0	0	
1783	0	32711	32703	32682	32723	0	0	0	0	
1784	0	32726	32683	32775	32911	0	0	0	0	
1785	0	32722	32759	32679	32959	0	0	0	0	
1786	0	32717	32711	32724	32973	0	0	0	0	
1787	0	32775	32727	32811	33082	0	0	0	0	
1788	0	32784	32739	32711	33031	0	0	0	0	
1789	0	32775	32803	32647	32927	0	0	0	0	
1790	0	32775	32631	32631	32891	0	0	0	0	
1791	0	32808	32583	32536	32743	0	0	0	0	
1792	0	32802	32663	32727	32615	0	0	0	0	
1793	0	32803	32646	32775	32495	0	0	0	0	
1794	0	32730	32662	32671	32571	0	0	0	0	
1795	0	32745	32647	32775	32662	0	0	0	0	
1796	0	32709	32635	32775	32596	0	0	0	0	
1797	0	32764	32647	32775	32614	0	0	0	0	
1798	0	32760	32674	32732	32435	0	0	0	0	
1799	0	32742	32659	32801	32556	0	0	0	0	
1800	0	32752	32623	32686	32630	0	0	0	0	
1801	0	32759	32563	32647	32600	0	0	0	0	
1802	0	32722	32626	32731	32543	0	0	0	0	
1803	0	32752	32658	32701	32471	0	0	0	0	
1804	0	32794	32705	32670	32419	0	0	0	0	
1805	0	32800	32834	32655	32523	0	0	0	0	
1806	0	32852	32856	32729	32565	0	0	0	0	
1807	0	32836	32867	32719	32797	0	0	0	0	
1808	0	32800	32871	32593	32675	0	0	0	0	
1809	0	32748	32831	32656	32662	0	0	0	0	
1810	0	32774	32775	32703	32850	0	0	0	0	
1811	0	32754	32799	32771	32683	0	0	0	0	
1812	0	32843	32759	32655	32622	0	0	0	0	
1813	0	32810	32769	32807	32615	0	0	0	0	
1814	0	32784	32791	32794	32528	0	0	0	0	
1815	0	32820	32727	32723	32709	0	0	0	0	
1816	0	32775	32717	32608	32863	0	0	0	0	
1817	0	32774	32755	32726	32850	0	0	0	0	
1818	0	32750	32738	32743	32858	0	0	0	0	
1819	0	32743	32743	32635	32722	0	0	0	0	
1820	0	32768	32819	32688	32455	0	0	0	0	
1821	0	32741	32775	32745	32433	0	0	0	0	
1822	0	32724	32769	32662	32599	0	0	0	0	
1823	0	32680	32615	32696	32597	0	0	0	0	
1824	0	32658	32605	32687	32646	0	0	0	0	
1825	0	32698	32647	32721	32419	0	0	0	0	
1826	0	32733	32835	32706	32263	0	0	0	0	
1827	0	32728	32838	32717	32301	0	0	0	0	
1828	0	32775	32770	32627	32576	0	0	0	0	
1829	0	32823	32695	32748	32647	0	0	0	0	
1830	0	32816	32683	32720	32807	0	0	0	0	
1831	0	32834	32765	32683	32855	0	0	0	0	
1832	0	32756	32747	32775	32838	0	0	0	0	
1833	0	32766	32765	32731	32849	0	0	0	0	
1834	0	32732	32694	32771	32647	0	0	0	0	
1835	0	32720	32718	32631	32807	0	0	0	0	
1836	0	32668	32688	32727	32775	0	0	0	0	
1837	0	32796	32673	32738	32823	0	0	0	0	
1838	0	32802	32655	32652	32976	0	0	0	0	
1839	0	32806	32623	32711	32745	0	0	0	0	
1840	0	32802	32583	32729	32811	0	0	0	0	
1841	0	32760	32628	32765	32773	0	0	0	0	
1842	0	32758	32557	32647	32759	0	0	0	0	
1843	0	32793	32475	32647	32671	0	0	0	0	
1844	0	32845	32519	32757	32359	0	0	0	0	
1845	0	32832	32627	32806	32487	0	0	0	0	
1846	0	32773	32627	32711	32420	0	0	0	0	
1847	0	32688	32703	32847	32496	0	0	0	0	
1848	0	32699	32751	32729	32482	0	0	0	0	
1849	0	32754	32751	32691	32485	0	0	0	0	
1850	0	32794	32799	32736	32626	0	0	0	0	
1851	0	32810	32847	32758	32804	0	0	0	0	
1852	0	32790	32775	32763	32838	0	0	0	0	
1853	0	32816	32669	32775	32887	0	0	0	0	
1854	0	32804	32694	32819	32951	0	0	0	0	
1855	0	32751	32743	32839	32751	0	0	0	0	
1856	0	32786	32710	32668	32813	0	0	0	0	
1857	0	32854	32704	32800	32691	0	0	0	0	
1858	0	32802	32754	32705	32672	0	0	0	0	
1859	0	32775	32802	32739	32515	0	0	0	0	
1860	0	32792	32647	32647	32672	0	0	0	0	
1861	0	32753	32684	32662	32878	0	0	0	0	
1862	0	32711	32617	32642	32870	0	0	0	0	
1863	0	32790	32711	32617	32751	0	0	0	0	
1864	0	32724	32733	32631	32646	0	0	0	0	
1865	0	32738	32730	32756	32711	0	0	0	0	
1866	0	32690	32791	32750	32656	0	0	0	0	
1867	0	32739	32799	32660	32665	0	0	0	0	
1868	0	32804	32839	32571	32498	0	0	0	0	
1869	0	32748	32738	32582	32647	0	0	0	0	
1870	0	32754	32727	32728	32775	0	0	0	0	
1871	0	32847	32711	32733	32775	0	0	0	0	
1872	0	32819	32548	32675	32671	0	0	0	0	
1873	0	32903	32669	32615	32658	0	0	0	0	
1874	0	32850	32613	32647	32775	0	0	0	0	
1875	0	32808	32641	32660	32775	0	0	0	0	
1876	0	32752	32634	32635	32806	0	0	0	0	
1877	0	32808	32665	32666	32846	0	0	0	0	
1878	0	32726	32706	32711	32445	0	0	0	0	
1879	0	32732	32767	32757	32514	0	0	0	0	
1880	0	32759	32791	32679	32565	0	0	0	0	
1881	0	32709	32819	32762	32583	0	0	0	0	
1882	0	32696	32729	32770	32707	0	0	0	0	
1883	0	32704	32645	32734	32754	0	0	0	0	
1884	0	32656	32708	32839	32555	0	0	0	0	
1885	0	32698	32655	32757	32228	0	0	0	0	
1886	0	32788	32695	32662	32349	0	0	0	0	
1887	0	32834	32773	32734	32303	0	0	0	0	
1888	0	32868	32787	32775	32293	0	0	0	0	
1889	0	32826	32807	32710	32279	0	0	0	0	
1890	0	32833	32791	32807	32219	0	0	0	0	
1891	0	32796	32891	32716	32438	0	0	0	0	
1892	0	32768	32874	32763	32565	0	0	0	0	
1893	0	32732	32839	32674	32734	0	0	0	0	
1894	0	32682	32823	32681	32711	0	0	0	0	
1895	0	32658	32755	32727	33009	0	0	0	0	
1896	0	32692	32711	32743	33111	0	0	0	0	
1897	0	32763	32647	32631	33173	0	0	0	0	
1898	0	32692	32671	32695	32930	0	0	0	0	
1899	0	32676	32634	32743	32909	0	0	0	0	
1900	0	32730	32658	32711	32895	0	0	0	0	
1901	0	32768	32750	32659	32754	0	0	0	0	
1902	0	32797	32711	32759	32749	0	0	0	0	
1903	0	32761	32688	32677	32655	0	0	0	0	
1904	0	32753	32655	32615	32455	0	0	0	0	
1905	0	32724	32671	32751	32583	0	0	0	0	
1906	0	32670	32627	32687	32689	0	0	0	0	
1907	0	32730	32679	32741	32604	0	0	0	0	
1908	0	32739	32659	32617	32629	0	0	0	0	
1909	0	32711	32710	32805	32486	0	0	0	0	
1910	0	32711	32822	32699	32570	0	0	0	0	
1911	0	32758	32770	32736	32563	0	0	0	0	
1912	0	32828	32831	32583	32735	0	0	0	0	
1913	0	32773	32890	32679	32647	0	0	0	0	
1914	0	32717	32822	32727	32769	0	0	0	0	
1915	0	32738	32767	32726	32890	0	0	0	0	
1916	0	32812	32719	32615	32839	0	0	0	0	
1917	0	32800	32677	32725	32902	0	0	0	0	
1918	0	32870	32638	32647	32885	0	0	0	0	
1919	0	32882	32665	32731	32711	0	0	0	0	
1920	0	32850	32679	32605	32758	0	0	0	0	
1921	0	32828	32751	32647	32735	0	0	0	0	
1922	0	32800	32703	32719	32798	0	0	0	0	
1923	0	32760	32673	32748	32979	0	0	0	0	
1924	0	32774	32621	32635	32647	0	0	0	0	
1925	0	32754	32647	32743	32757	0	0	0	0	
1926	0	32743	32703	32834	32567	0	0	0	0	
1927	0	32768	32766	32837	32519	0	0	0	0	
1928	0	32786	32751	32745	32311	0	0	0	0	
1929	0	32819	32759	32854	32221	0	0	0	0	
1930	0	32844	32743	32807	32279	0	0	0	0	
1931	0	32786	32815	32647	32327	0	0	0	0	
1932	0	32775	32684	32711	32426	0	0	0	0	
1933	0	32810	32679	32767	32607	0	0	0	0	
1934	0	32821	32699	32726	32743	0	0	0	0	
1935	0	32822	32679	32711	32519	0	0	0	0	
1936	0	32775	32871	32751	32531	0	0	0	0	
1937	0	32764	32775	32742	32807	0	0	0	0	
1938	0	32772	32807	32683	32775	0	0	0	0	
1939	0	32812	32812	32755	32864	0	0	0	0	
1940	0	32846	32645	32775	32991	0	0	0	0	
1941	0	32811	32611	32695	33031	0	0	0	0	
1942	0	32722	32637	32743	32823	0	0	0	0	
1943	0	32740	32677	32769	32749	0	0	0	0	
1944	0	32731	32696	32743	32699	0	0	0	0	
1945	0	32748	32690	32705	32711	0	0	0	0	
1946	0	32686	32730	32807	32807	0	0	0	0	
1947	0	32755	32647	32767	32806	0	0	0	0	
1948	0	32710	32603	32706	32767	0	0	0	0	
1949	0	32728	32588	32724	32626	0	0	0	0	
1950	0	32742	32734	32653	32513	0	0	0	0	
1951	0	32808	32731	32775	32263	0	0	0	0	
1952	0	32796	32834	32773	32527	0	0	0	0	
1953	0	32838	32963	32676	32505	0	0	0	0	
1954	0	32804	32866	32770	32496	0	0	0	0	
1955	0	32771	32827	32682	32577	0	0	0	0	
1956	0	32752	32759	32634	32612	0	0	0	0	
1957	0	32786	32726	32735	32627	0	0	0	0	
1958	0	32728	32629	32730	32878	0	0	0	0	
1959	0	32718	32538	32679	32898	0	0	0	0	
1960	0	32739	32627	32635	32885	0	0	0	0	
1961	0	32720	32591	32711	32937	0	0	0	0	
1962	0	32728	32626	32647	32903	0	0	0	0	
1963	0	32756	32730	32663	32799	0	0	0	0	
1964	0	32784	32743	32739	32617	0	0	0	0	
1965	0	32775	32735	32611	32619	0	0	0	0	
1966	0	32706	32679	32694	32593	0	0	0	0	
1967	0	32801	32742	32684	32509	0	0	0	0	
1968	0	32728	32751	32751	32511	0	0	0	0	
1969	0	32706	32837	32730	32465	0	0	0	0	
1970	0	32710	32851	32654	32433	0	0	0	0	
1971	0	32746	32775	32687	32462	0	0	0	0	
1972	0	32813	32823	32755	32467	0	0	0	0	
1973	0	32766	32755	32775	32560	0	0	0	0	
1974	0	32752	32721	32679	32771	0	0	0	0	
1975	0	32802	32734	32827	32704	0	0	0	0	
1976	0	32763	32727	32806	32629	0	0	0	0	
1977	0	32803	32773	32727	32499	0	0	0	0	
1978	0	32848	32854	32669	32674	0	0	0	0	
1979	0	32864	32830	32767	32720	0	0	0	0	
1980	0	32873	32770	32815	32775	0	0	0	0	
1981	0	32861	32671	32723	32595	0	0	0	0	
1982	0	32826	32628	32639	32717	0	0	0	0	
1983	0	32825	32826	32739	32703	0	0	0	0	
1984	0	32816	32775	32719	32903	0	0	0	0	
1985	0	32806	32694	32667	32753	0	0	0	0	
1986	0	32729	32767	32535	32775	0	0	0	0	
1987	0	32677	32647	32656	32740	0	0	0	0	
1988	0	32704	32631	32703	32641	0	0	0	0	
1989	0	32710	32597	32639	32642	0	0	0	0	
1990	0	32701	32717	32701	32527	0	0	0	0	
1991	0	32762	32806	32770	32775	0	0	0	0	
1992	0	32775	32802	32690	32769	0	0	0	0	
1993	0	32810	32732	32775	32827	0	0	0	0	
1994	0	32830	32775	32711	32439	0	0	0	0	
1995	0	32784	32695	32823	32451	0	0	0	0	
1996	0	32745	32739	32768	32407	0	0	0	0	
1997	0	32745	32791	32791	32571	0	0	0	0	
1998	0	32742	32832	32727	32689	0	0	0	0	
1999	0	32710	32773	32720	32705	0	0	0	0	
2000	0	32694	32775	32743	32775	0	0	0	0	
2001	0	32742	32815	32683	32813	0	0	0	0	
2002	0	32764	32711	32775	32795	0	0	0	0	
2003	0	32752	32735	32801	32831	0	0	0	0	
2004	0	32718	32646	32805	32607	0	0	0	0	
2005	0	32794	32745	32607	32791	0	0	0	0	
2006	0	32736	32738	32754	32743	0	0	0	0	
2007	0	32810	32719	32698	32759	0	0	0	0	
2008	0	32874	32719	32694	32624	0	0	0	0	
2009	0	32818	32671	32591	32605	0	0	0	0	
2010	0	32765	32635	32556	32775	0	0	0	0	
2011	0	32690	32623	32695	32903	0	0	0	0	
2012	0	32702	32719	32725	32886	0	0	0	0	
2013	0	32742	32744	32699	32731	0	0	0	0	
2014	0	32791	32691	32750	32719	0	0	0	0	
2015	0	32775	32531	32771	32823	0	0	0	0	
2016	0	32801	32535	32745	32684	0	0	0	0	
2017	0	32795	32647	32679	32727	0	0	0	0	
2018	0	32787	32727	32703	32588	0	0	0	0	
2019	0	32743	32759	32693	32513	0	0	0	0	
2020	0	32764	32819	32642	32671	0	0	0	0	
2021	0	32726	32794	32655	32570	0	0	0	0	
2022	0	32732	32763	32710	32434	0	0	0	0	
2023	0	32757	32887	32666	32116	0	0	0	0	
2024	0	32718	32925	32607	32325	0	0	0	0	
2025	0	32785	32804	32639	32506	0	0	0	0	
2026	0	32837	32791	32739	32615	0	0	0	0	
2027	0	32760	32879	32747	32530	0	0	0	0	
2028	0	32744	32775	32725	32509	0	0	0	0	
2029	0	32773	32691	32642	32726	0	0	0	0	
2030	0	32762	32860	32775	32756	0	0	0	0	
2031	0	32766	32772	32731	32845	0	0	0	0	
2032	0	32756	32815	32769	32775	0	0	0	0	
2033	0	32710	32683	32758	32689	0	0	0	0	
2034	0	32752	32647	32821	32943	0	0	0	0	
2035	0	32710	32549	32808	32917	0	0	0	0	
2036	0	32707	32667	32701	32942	0	0	0	0	
2037	0	32726	32695	32817	32680	0	0	0	0	
2038	0	32688	32775	32773	32602	0	0	0	0	
2039	0	32750	32679	32695	32849	0	0	0	0	
2040	0	32854	32619	32635	32739	0	0	0	0	
2041	0	32720	32609	32751	32758	0	0	0	0	
2042	0	32725	32705	32849	32519	0	0	0	0	
2043	0	32775	32759	32695	32487	0	0	0	0	
2044	0	32806	32699	32745	32732	0	0	0	0	
2045	0	32774	32609	32763	32711	0	0	0	0	
2046	0	32758	32631	32682	32638	0	0	0	0	
2047	0	32792	32566	32760	32767	0	0	0	0	
2048	0	32836	32727	32727	32480	0	0	0	0	
2049	0	32775	32695	32610	32535	0	0	0	0	
2050	0	32775	32739	32699	32721	0	0	0	0	
2051	0	32750	32883	32706	32737	0	0	0	0	
2052	0	32824	32874	32701	32823	0	0	0	0	
2053	0	32841	32775	32641	32484	0	0	0	0	
2054	0	32770	32807	32726	32673	0	0	0	0	
2055	0	32826	32735	32811	32641	0	0	0	0	
2056	0	32775	32704	32723	32722	0	0	0	0	
2057	0	32804	32719	32671	32445	0	0	0	0	
2058	0	32752	32711	32758	32667	0	0	0	0	
2059	0	32734	32775	32740	32599	0	0	0	0	
2060	0	32760	32742	32680	32676	0	0	0	0	
2061	0	32740	32831	32647	32591	0	0	0	0	
2062	0	32764	32767	32727	32486	0	0	0	0	
2063	0	32816	32767	32753	32719	0	0	0	0	
2064	0	32773	32775	32615	32718	0	0	0	0	
2065	0	32792	32775	32759	32716	0	0	0	0	
2066	0	32783	32775	32815	32813	0	0	0	0	
2067	0	32835	32617	32687	32646	0	0	0	0	
2068	0	32746	32595	32694	32723	0	0	0	0	
2069	0	32773	32762	32734	32751	0	0	0	0	
2070	0	32764	32751	32762	32631	0	0	0	0	
2071	0	32799	32735	32627	32795	0	0	0	0	
2072	0	32802	32711	32751	32767	0	0	0	0	
2073	0	32840	32679	32753	32622	0	0	0	0	
2074	0	32856	32755	32773	32704	0	0	0	0	
2075	0	32775	32735	32807	32775	0	0	0	0	
2076	0	32775	32733	32819	32738	0	0	0	0	
2077	0	32784	32617	32731	32721	0	0	0	0	
2078	0	32775	32747	32658	32691	0	0	0	0	
2079	0	32744	32759	32679	32542	0	0	0	0	
2080	0	32710	32839	32631	32463	0	0	0	0	
2081	0	32644	32775	32678	32614	0	0	0	0	
2082	0	32756	32694	32790	32631	0	0	0	0	
2083	0	32711	32867	32726	32602	0	0	0	0	
2084	0	32750	32765	32767	32667	0	0	0	0	
2085	0	32728	32642	32736	32723	0	0	0	0	
2086	0	32770	32775	32738	32591	0	0	0	0	
2087	0	32770	32751	32693	32751	0	0	0	0	
2088	0	32784	32727	32671	32871	0	0	0	0	
2089	0	32775	32775	32562	32808	0	0	0	0	
2090	0	32823	32611	32692	32851	0	0	0	0	
2091	0	32828	32598	32786	32666	0	0	0	0	
2092	0	32775	32639	32711	32765	0	0	0	0	
2093	0	32816	32683	32839	32673	0	0	0	0	
2094	0	32728	32867	32903	32711	0	0	0	0	
2095	0	32794	32816	32839	32738	0	0	0	0	
2096	0	32718	32659	32809	32646	0	0	0	0	
2097	0	32636	32692	32808	32533	0	0	0	0	
2098	0	32647	32682	32711	32586	0	0	0	0	
2099	0	32678	32710	32819	32621	0	0	0	0	
2100	0	32644	32703	32749	32684	0	0	0	0	
2101	0	32752	32626	32630	32519	0	0	0	0	
2102	0	32742	32741	32690	32598	0	0	0	0	
2103	0	32723	32727	32607	32711	0	0	0	0	
2104	0	32674	32638	32610	32827	0	0	0	0	
2105	0	32710	32604	32511	32717	0	0	0	0	
2106	0	32682	32647	32591	32698	0	0	0	0	
2107	0	32696	32703	32531	32775	0	0	0	0	
2108	0	32636	32675	32437	32657	0	0	0	0	
2109	0	32644	32731	32516	32590	0	0	0	0	
2110	0	32640	32829	32551	32695	0	0	0	0	
2111	0	32640	32861	32506	32710	0	0	0	0	
2112	0	32728	32943	32555	32453	0	0	0	0	
2113	0	32708	32899	32525	32359	0	0	0	0	
2114	0	32788	32967	32290	32443	0	0	0	0	
2115	0	32826	32979	32391	32401	0	0	0	0	
2116	0	32796	32899	32411	32378	0	0	0	0	
2117	0	32764	32946	32318	32391	0	0	0	0	
2118	0	32709	32995	32343	32384	0	0	0	0	
2119	0	32775	32967	32338	32262	0	0	0	0	
2120	0	32736	32941	32412	32407	0	0	0	0	
2121	0	32738	32999	32440	32566	0	0	0	0	
2122	0	32784	32960	32423	32574	0	0	0	0	
2123	0	32839	33025	32422	32403	0	0	0	0	
2124	0	32834	32967	32541	32401	0	0	0	0	
2125	0	32832	32951	32543	32365	0	0	0	0	
2126	0	32844	32868	32519	32411	0	0	0	0	
2127	0	32858	32795	32682	32541	0	0	0	0	
2128	0	32928	32653	32775	32723	0	0	0	0	
2129	0	32876	32591	33043	32822	0	0	0	0	
2130	0	32932	32629	33039	32903	0	0	0	0	
2131	0	32872	32647	33159	32955	0	0	0	0	
2132	0	32903	32605	33158	32823	0	0	0	0	
2133	0	32971	32593	33181	33157	0	0	0	0	
2134	0	32976	32643	33283	33115	0	0	0	0	
2135	0	33054	32631	33439	33191	0	0	0	0	
2136	0	33143	32578	33495	33122	0	0	0	0	
2137	0	33152	32493	33597	32997	0	0	0	0	
2138	0	33112	32415	33635	33223	0	0	0	0	
2139	0	33140	32451	33592	33221	0	0	0	0	
2140	0	33120	32573	33505	33223	0	0	0	0	
2141	0	33001	32596	33415	32929	0	0	0	0	
2142	0	32874	32590	33367	33135	0	0	0	0	
2143	0	32750	32626	33196	33120	0	0	0	0	
2144	0	32726	32623	33083	33271	0	0	0	0	
2145	0	32645	32678	32943	33107	0	0	0	0	
2146	0	32642	32603	32859	32774	0	0	0	0	
2147	0	32534	32615	32687	32711	0	0	0	0	
2148	0	32470	32615	32605	32727	0	0	0	0	
2149	0	32491	32747	32575	32634	0	0	0	0	
2150	0	32522	32743	32508	32583	0	0	0	0	
2151	0	32538	32749	32429	32727	0	0	0	0	
2152	0	32582	32762	32435	32598	0	0	0	0	
2153	0	32572	32754	32325	32612	0	0	0	0	
2154	0	32571	32733	32246	32666	0	0	0	0	
2155	0	32583	32647	32351	32611	0	0	0	0	
2156	0	32538	32687	32359	32533	0	0	0	0	
2157	0	32569	32722	32291	32534	0	0	0	0	
2158	0	32600	32647	32327	32594	0	0	0	0	
2159	0	32628	32647	32343	32535	0	0	0	0	
2160	0	32640	32667	32438	32467	0	0	0	0	
2161	0	32640	32594	32475	32373	0	0	0	0	
2162	0	32647	32631	32419	32301	0	0	0	0	
2163	0	32690	32679	32563	32410	0	0	0	0	
2164	0	32748	32737	32663	32367	0	0	0	0	
2165	0	32760	32731	32551	32311	0	0	0	0	
2166	0	32734	32611	32702	32413	0	0	0	0	
2167	0	32744	32707	32687	32305	0	0	0	0	
2168	0	32775	32626	32609	32512	0	0	0	0	
2169	0	32792	32647	32659	32483	0	0	0	0	
2170	0	32752	32631	32717	32656	0	0	0	0	
2171	0	32775	32795	32703	32535	0	0	0	0	
2172	0	32805	32814	32711	32679	0	0	0	0	
2173	0	32814	32689	32711	32738	0	0	0	0	
2174	0	32800	32711	32736	32807	0	0	0	0	
2175	0	32824	32694	32722	32793	0	0	0	0	
2176	0	32828	32671	32691	32791	0	0	0	0	
2177	0	32818	32647	32735	32711	0	0	0	0	
2178	0	32818	32723	32775	32519	0	0	0	0	
2179	0	32796	32685	32647	32739	0	0	0	0	
2180	0	32775	32844	32748	32647	0	0	0	0	
2181	0	32818	32887	32759	32370	0	0	0	0	
2182	0	32888	32850	32755	32478	0	0	0	0	
2183	0	32800	32822	32707	32729	0	0	0	0	
2184	0	32836	32802	32683	32839	0	0	0	0	
2185	0	32838	32809	32707	32811	0	0	0	0	
2186	0	32752	32858	32685	32719	0	0	0	0	
2187	0	32774	32791	32775	32410	0	0	0	0	
2188	0	32721	32831	32722	32296	0	0	0	0	
2189	0	32720	32729	32775	32579	0	0	0	0	
2190	0	32792	32710	32657	32630	0	0	0	0	
2191	0	32824	32807	32823	32634	0	0	0	0	
2192	0	32796	32775	32775	32795	0	0	0	0	
2193	0	32775	32626	32642	32903	0	0	0	0	
2194	0	32782	32631	32711	32853	0	0	0	0	
2195	0	32773	32642	32704	32983	0	0	0	0	
2196	0	32809	32563	32647	33067	0	0	0	0	
2197	0	32761	32631	32723	32946	0	0	0	0	
2198	0	32749	32647	32677	32895	0	0	0	0	
2199	0	32772	32708	32647	32877	0	0	0	0	
2200	0	32761	32775	32724	32775	0	0	0	0	
2201	0	32750	32691	32730	32742	0	0	0	0	
2202	0	32748	32663	32742	32694	0	0	0	0	
2203	0	32720	32621	32646	32738	0	0	0	0	
2204	0	32722	32675	32702	32750	0	0	0	0	
2205	0	32758	32679	32684	32647	0	0	0	0	
2206	0	32710	32676	32664	32423	0	0	0	0	
2207	0	32656	32684	32765	32503	0	0	0	0	
2208	0	32720	32728	32704	32583	0	0	0	0	
2209	0	32739	32746	32687	32613	0	0	0	0	
2210	0	32800	32674	32711	32691	0	0	0	0	
2211	0	32771	32609	32775	32731	0	0	0	0	
2212	0	32734	32694	32789	32827	0	0	0	0	
2213	0	32758	32683	32818	32640	0	0	0	0	
2214	0	32802	32720	32717	32580	0	0	0	0	
2215	0	32745	32717	32749	32567	0	0	0	0	
2216	0	32760	32666	32747	32555	0	0	0	0	
2217	0	32772	32631	32661	32519	0	0	0	0	
2218	0	32765	32807	32647	32439	0	0	0	0	
2219	0	32742	32821	32703	32391	0	0	0	0	
2220	0	32787	32839	32683	32215	0	0	0	0	
2221	0	32788	32809	32683	32535	0	0	0	0	
2222	0	32812	32789	32591	32708	0	0	0	0	
2223	0	32794	32802	32672	32707	0	0	0	0	
2224	0	32821	32839	32695	32848	0	0	0	0	
2225	0	32830	32827	32655	32793	0	0	0	0	
2226	0	32748	32743	32689	32810	0	0	0	0	
2227	0	32748	32733	32727	32875	0	0	0	0	
2228	0	32752	32803	32703	32775	0	0	0	0	
2229	0	32814	32831	32663	32413	0	0	0	0	
2230	0	32770	32631	32784	32311	0	0	0	0	
2231	0	32773	32655	32755	32575	0	0	0	0	
2232	0	32724	32775	32795	32471	0	0	0	0	
2233	0	32718	32826	32721	32637	0	0	0	0	
2234	0	32766	32787	32747	32677	0	0	0	0	
2235	0	32804	32741	32654	32733	0	0	0	0	
2236	0	32816	32745	32775	32632	0	0	0	0	
2237	0	32842	32797	32722	32675	0	0	0	0	
2238	0	32850	32835	32613	32765	0	0	0	0	
2239	0	32775	32839	32681	32735	0	0	0	0	
2240	0	32784	32775	32647	32775	0	0	0	0	
2241	0	32788	32679	32732	32561	0	0	0	0	
2242	0	32756	32741	32687	32717	0	0	0	0	
2243	0	32782	32775	32643	32719	0	0	0	0	
2244	0	32752	32787	32742	32799	0	0	0	0	
2245	0	32742	32683	32687	32903	0	0	0	0	
2246	0	32742	32699	32770	32690	0	0	0	0	
2247	0	32824	32715	32711	32654	0	0	0	0	
2248	0	32771	32627	32635	32813	0	0	0	0	
2249	0	32802	32667	32659	32831	0	0	0	0	
2250	0	32722	32687	32742	32865	0	0	0	0	
2251	0	32786	32717	32693	32569	0	0	0	0	
2252	0	32715	32624	32775	32643	0	0	0	0	
2253	0	32801	32702	32775	32623	0	0	0	0	
2254	0	32738	32673	32699	32495	0	0	0	0	
2255	0	32736	32801	32738	32665	0	0	0	0	
2256	0	32752	32745	32809	32711	0	0	0	0	
2257	0	32790	32739	32771	32722	0	0	0	0	
2258	0	32760	32789	32675	32688	0	0	0	0	
2259	0	32798	32775	32726	32891	0	0	0	0	
2260	0	32837	32734	32751	32914	0	0	0	0	
2261	0	32784	32775	32703	32789	0	0	0	0	
2262	0	32740	32818	32682	32679	0	0	0	0	
2263	0	32746	32755	32760	32443	0	0	0	0	
2264	0	32715	32711	32655	32370	0	0	0	0	
2265	0	32736	32699	32736	32455	0	0	0	0	
2266	0	32769	32671	32710	32483	0	0	0	0	
2267	0	32763	32685	32646	32435	0	0	0	0	
2268	0	32718	32607	32707	32578	0	0	0	0	
2269	0	32748	32671	32699	32547	0	0	0	0	
2270	0	32736	32797	32669	32431	0	0	0	0	
2271	0	32716	32882	32775	32706	0	0	0	0	
2272	0	32720	32839	32731	32663	0	0	0	0	
2273	0	32764	32807	32669	32839	0	0	0	0	
2274	0	32775	32863	32677	32694	0	0	0	0	
2275	0	32794	32899	32690	32860	0	0	0	0	
2276	0	32750	32775	32711	33053	0	0	0	0	
2277	0	32738	32710	32805	32960	0	0	0	0	
2278	0	32769	32677	32755	33025	0	0	0	0	
2279	0	32688	32647	32786	32805	0	0	0	0	
2280	0	32786	32695	32717	32867	0	0	0	0	
2281	0	32685	32658	32832	32919	0	0	0	0	
2282	0	32810	32647	32824	32951	0	0	0	0	
2283	0	32760	32719	32706	32743	0	0	0	0	
2284	0	32829	32831	32719	32439	0	0	0	0	
2285	0	32816	32767	32709	32435	0	0	0	0	
2286	0	32813	32663	32631	32391	0	0	0	0	
2287	0	32800	32623	32753	32263	0	0	0	0	
2288	0	32874	32663	32742	32588	0	0	0	0	
2289	0	32834	32647	32630	32583	0	0	0	0	
2290	0	32788	32755	32759	32695	0	0	0	0	
2291	0	32758	32847	32710	32579	0	0	0	0	
2292	0	32752	32775	32756	32610	0	0	0	0	
2293	0	32711	32742	32667	32662	0	0	0	0	
2294	0	32746	32695	32758	32525	0	0	0	0	
2295	0	32797	32791	32711	32413	0	0	0	0	
2296	0	32810	32722	32621	32637	0	0	0	0	
2297	0	32760	32775	32727	32572	0	0	0	0	
2298	0	32712	32724	32771	32675	0	0	0	0	
2299	0	32721	32679	32658	32610	0	0	0	0	
2300	0	32751	32653	32773	32699	0	0	0	0	
2301	0	32721	32670	32759	32881	0	0	0	0	
2302	0	32710	32629	32711	32711	0	0	0	0	
2303	0	32751	32791	32768	32734	0	0	0	0	
2304	0	32797	32615	32747	32765	0	0	0	0	
2305	0	32788	32647	32749	32683	0	0	0	0	
2306	0	32775	32695	32885	32683	0	0	0	0	
2307	0	32764	32595	32739	32710	0	0	0	0	
2308	0	32834	32663	32675	32699	0	0	0	0	
2309	0	32824	32839	32775	32638	0	0	0	0	
2310	0	32765	32775	32835	32479	0	0	0	0	
2311	0	32761	32771	32642	32614	0	0	0	0	
2312	0	32748	32762	32766	32462	0	0	0	0	
2313	0	32738	32751	32731	32703	0	0	0	0	
2314	0	32799	32735	32743	32711	0	0	0	0	
2315	0	32808	32695	32658	32878	0	0	0	0	
2316	0	32816	32819	32718	32711	0	0	0	0	
2317	0	32782	32806	32821	32811	0	0	0	0	
2318	0	32726	32767	32683	32897	0	0	0	0	
2319	0	32688	32717	32731	32763	0	0	0	0	
2320	0	32769	32711	32634	32674	0	0	0	0	
2321	0	32826	32724	32711	32435	0	0	0	0	
2322	0	32775	32679	32676	32417	0	0	0	0	
2323	0	32828	32682	32732	32485	0	0	0	0	
2324	0	32824	32705	32769	32583	0	0	0	0	
2325	0	32807	32755	32711	32695	0	0	0	0	
2326	0	32775	32823	32807	32563	0	0	0	0	
2327	0	32756	32799	32703	32790	0	0	0	0	
2328	0	32790	32788	32674	32775	0	0	0	0	
2329	0	32730	32822	32630	32716	0	0	0	0	
2330	0	32718	32874	32745	32482	0	0	0	0	
2331	0	32802	32866	32708	32711	0	0	0	0	
2332	0	32800	32615	32687	32681	0	0	0	0	
2333	0	32830	32673	32707	32748	0	0	0	0	
2334	0	32831	32707	32707	32829	0	0	0	0	
2335	0	32809	32679	32751	32743	0	0	0	0	
2336	0	32803	32711	32627	32787	0	0	0	0	
2337	0	32767	32759	32773	32812	0	0	0	0	
2338	0	32760	32670	32708	32845	0	0	0	0	
2339	0	32704	32799	32638	32845	0	0	0	0	
2340	0	32775	32773	32685	32574	0	0	0	0	
2341	0	32674	32647	32690	32775	0	0	0	0	
2342	0	32702	32670	32711	32813	0	0	0	0	
2343	0	32732	32623	32605	32682	0	0	0	0	
2344	0	32706	32669	32605	32623	0	0	0	0	
2345	0	32786	32607	32769	32502	0	0	0	0	
2346	0	32740	32709	32731	32475	0	0	0	0	
2347	0	32697	32711	32745	32279	0	0	0	0	
2348	0	32646	32831	32647	32573	0	0	0	0	
2349	0	32678	32775	32775	32573	0	0	0	0	
2350	0	32742	32807	32765	32553	0	0	0	0	
2351	0	32759	32742	32759	32725	0	0	0	0	
2352	0	32739	32786	32692	32730	0	0	0	0	
2353	0	32775	32719	32809	32811	0	0	0	0	
2354	0	32763	32775	32764	32673	0	0	0	0	
2355	0	32793	32693	32698	32751	0	0	0	0	
2356	0	32789	32720	32795	32643	0	0	0	0	
2357	0	32769	32749	32763	32543	0	0	0	0	
2358	0	32762	32707	32786	32774	0	0	0	0	
2359	0	32792	32743	32711	32797	0	0	0	0	
2360	0	32766	32723	32775	32835	0	0	0	0	
2361	0	32828	32767	32624	32524	0	0	0	0	
2362	0	32824	32815	32631	32567	0	0	0	0	
2363	0	32806	32804	32644	32491	0	0	0	0	
2364	0	32822	32855	32669	32583	0	0	0	0	
2365	0	32845	32764	32607	32630	0	0	0	0	
2366	0	32840	32861	32569	32742	0	0	0	0	
2367	0	32728	32839	32740	32815	0	0	0	0	
2368	0	32716	32823	32619	32647	0	0	0	0	
2369	0	32772	32647	32711	32791	0	0	0	0	
2370	0	32733	32754	32713	32749	0	0	0	0	
2371	0	32742	32682	32769	32703	0	0	0	0	
2372	0	32740	32711	32759	32510	0	0	0	0	
2373	0	32807	32663	32793	32847	0	0	0	0	
2374	0	32827	32647	32612	32731	0	0	0	0	
2375	0	32832	32732	32576	32671	0	0	0	0	
2376	0	32772	32739	32681	32877	0	0	0	0	
2377	0	32768	32723	32657	32831	0	0	0	0	
2378	0	32668	32727	32599	32743	0	0	0	0	
2379	0	32690	32738	32556	32641	0	0	0	0	
2380	0	32624	32743	32659	32611	0	0	0	0	
2381	0	32704	32787	32695	32495	0	0	0	0	
2382	0	32689	32681	32667	32515	0	0	0	0	
2383	0	32676	32775	32647	32373	0	0	0	0	
2384	0	32647	32806	32743	32515	0	0	0	0	
2385	0	32694	32823	32751	32498	0	0	0	0	
2386	0	32767	32749	32768	32599	0	0	0	0	
2387	0	32840	32671	32704	32668	0	0	0	0	
2388	0	32886	32621	32766	32694	0	0	0	0	
2389	0	32818	32703	32662	32570	0	0	0	0	
2390	0	32774	32751	32804	32647	0	0	0	0	
2391	0	32795	32775	32827	32647	0	0	0	0	
2392	0	32818	32810	32759	32546	0	0	0	0	
2393	0	32856	32745	32855	32538	0	0	0	0	
2394	0	32794	32803	32827	32663	0	0	0	0	
2395	0	32760	32704	32754	32660	0	0	0	0	
2396	0	32731	32737	32735	32582	0	0	0	0	
2397	0	32760	32763	32729	32631	0	0	0	0	
2398	0	32656	32754	32706	32959	0	0	0	0	
2399	0	32686	32767	32727	33135	0	0	0	0	
2400	0	32742	32711	32639	33076	0	0	0	0	
2401	0	32714	32679	32703	32954	0	0	0	0	
2402	0	32854	32775	32703	32843	0	0	0	0	
2403	0	32872	32746	32747	32626	0	0	0	0	
2404	0	32802	32791	32707	32574	0	0	0	0	
2405	0	32716	32723	32695	32530	0	0	0	0	
2406	0	32800	32679	32727	32435	0	0	0	0	
2407	0	32775	32711	32801	32487	0	0	0	0	
2408	0	32760	32721	32701	32663	0	0	0	0	
2409	0	32766	32738	32703	32634	0	0	0	0	
2410	0	32740	32731	32715	32717	0	0	0	0	
2411	0	32770	32659	32769	32554	0	0	0	0	
2412	0	32775	32711	32755	32483	0	0	0	0	
2413	0	32720	32679	32791	32662	0	0	0	0	
2414	0	32730	32659	32764	32797	0	0	0	0	
2415	0	32746	32681	32710	32718	0	0	0	0	
2416	0	32760	32743	32802	32768	0	0	0	0	
2417	0	32823	32751	32766	32510	0	0	0	0	
2418	0	32764	32799	32677	32756	0	0	0	0	
2419	0	32760	32759	32727	32878	0	0	0	0	
2420	0	32868	32723	32748	32918	0	0	0	0	
2421	0	32836	32767	32773	32866	0	0	0	0	
2422	0	32715	32657	32775	32818	0	0	0	0	
2423	0	32708	32683	32686	32827	0	0	0	0	
2424	0	32786	32810	32749	32879	0	0	0	0	
2425	0	32802	32830	32659	32864	0	0	0	0	
2426	0	32792	32829	32683	32671	0	0	0	0	
2427	0	32804	32798	32719	32448	0	0	0	0	
2428	0	32836	32799	32662	32607	0	0	0	0	
2429	0	32813	32773	32802	32678	0	0	0	0	
2430	0	32811	32775	32738	32508	0	0	0	0	
2431	0	32797	32711	32682	32509	0	0	0	0	
2432	0	32816	32729	32703	32487	0	0	0	0	
2433	0	32844	32750	32775	32338	0	0	0	0	
2434	0	32806	32775	32687	32416	0	0	0	0	
2435	0	32706	32753	32759	32509	0	0	0	0	
2436	0	32808	32742	32791	32547	0	0	0	0	
2437	0	32794	32749	32583	32623	0	0	0	0	
2438	0	32760	32759	32759	32579	0	0	0	0	
2439	0	32700	32801	32763	32627	0	0	0	0	
2440	0	32688	32671	32613	32698	0	0	0	0	
2441	0	32724	32702	32746	32903	0	0	0	0	
2442	0	32707	32677	32729	32932	0	0	0	0	
2443	0	32732	32631	32621	33001	0	0	0	0	
2444	0	32747	32626	32686	33025	0	0	0	0	
2445	0	32720	32643	32699	32720	0	0	0	0	
2446	0	32708	32647	32595	32722	0	0	0	0	
2447	0	32775	32684	32691	32679	0	0	0	0	
2448	0	32754	32803	32667	32545	0	0	0	0	
2449	0	32788	32823	32726	32276	0	0	0	0	
2450	0	32800	32815	32758	32406	0	0	0	0	
2451	0	32775	32797	32878	32425	0	0	0	0	
2452	0	32711	32765	32775	32382	0	0	0	0	
2453	0	32701	32775	32636	32381	0	0	0	0	
2454	0	32716	32739	32679	32575	0	0	0	0	
2455	0	32772	32759	32677	32531	0	0	0	0	
2456	0	32796	32839	32659	32935	0	0	0	0	
2457	0	32804	32851	32804	32844	0	0	0	0	
2458	0	32764	32878	32711	32851	0	0	0	0	
2459	0	32794	32807	32699	32918	0	0	0	0	
2460	0	32715	32722	32775	32775	0	0	0	0	
2461	0	32725	32693	32775	32820	0	0	0	0	
2462	0	32822	32775	32676	32775	0	0	0	0	
2463	0	32756	32764	32768	32834	0	0	0	0	
2464	0	32761	32754	32717	32966	0	0	0	0	
2465	0	32797	32669	32706	32747	0	0	0	0	
2466	0	32744	32647	32615	32723	0	0	0	0	
2467	0	32810	32663	32769	32503	0	0	0	0	
2468	0	32784	32759	32677	32487	0	0	0	0	
2469	0	32708	32789	32591	32615	0	0	0	0	
2470	0	32701	32759	32624	32363	0	0	0	0	
2471	0	32695	32664	32699	32455	0	0	0	0	
2472	0	32698	32726	32790	32463	0	0	0	0	
2473	0	32722	32807	32737	32543	0	0	0	0	
2474	0	32694	32775	32851	32503	0	0	0	0	
2475	0	32738	32722	32861	32534	0	0	0	0	
2476	0	32756	32755	32775	32806	0	0	0	0	
2477	0	32824	32695	32816	32787	0	0	0	0	
2478	0	32828	32752	32771	32919	0	0	0	0	
2479	0	32817	32766	32713	32947	0	0	0	0	
2480	0	32795	32755	32773	32743	0	0	0	0	
2481	0	32870	32747	32690	32775	0	0	0	0	
2482	0	32839	32711	32694	32803	0	0	0	0	
2483	0	32805	32747	32583	32830	0	0	0	0	
2484	0	32775	32791	32659	32791	0	0	0	0	
2485	0	32766	32802	32723	32745	0	0	0	0	
2486	0	32766	32743	32643	32823	0	0	0	0	
2487	0	32793	32817	32758	32809	0	0	0	0	
2488	0	32768	32898	32835	32829	0	0	0	0	
2489	0	32772	32839	32749	32805	0	0	0	0	
2490	0	32730	32723	32766	32583	0	0	0	0	
2491	0	32730	32808	32759	32543	0	0	0	0	
2492	0	32764	32859	32679	32400	0	0	0	0	
2493	0	32784	32863	32605	32487	0	0	0	0	
2494	0	32768	32823	32659	32555	0	0	0	0	
2495	0	32768	32775	32624	32447	0	0	0	0	
2496	0	32720	32767	32662	32562	0	0	0	0	
2497	0	32703	32749	32635	32587	0	0	0	0	
2498	0	32759	32766	32681	32621	0	0	0	0	
2499	0	32796	32769	32595	32619	0	0	0	0	
2500	0	32770	32687	32729	32541	0	0	0	0	
2501	0	32775	32663	32821	32655	0	0	0	0	
2502	0	32802	32764	32709	32743	0	0	0	0	
2503	0	32773	32647	32768	32810	0	0	0	0	
2504	0	32786	32708	32711	32802	0	0	0	0	
2505	0	32784	32705	32639	32847	0	0	0	0	
2506	0	32829	32869	32695	32564	0	0	0	0	
2507	0	32790	32738	32684	32620	0	0	0	0	
2508	0	32734	32739	32642	32723	0	0	0	0	
2509	0	32683	32727	32786	32807	0	0	0	0	
2510	0	32699	32647	32703	32877	0	0	0	0	
2511	0	32738	32659	32677	32679	0	0	0	0	
2512	0	32750	32775	32653	32737	0	0	0	0	
2513	0	32748	32727	32691	32699	0	0	0	0	
2514	0	32804	32734	32641	32613	0	0	0	0	
2515	0	32752	32851	32587	32421	0	0	0	0	
2516	0	32773	32867	32615	32492	0	0	0	0	
2517	0	32827	32867	32706	32633	0	0	0	0	
2518	0	32858	32839	32698	32594	0	0	0	0	
2519	0	32878	32823	32666	32559	0	0	0	0	
2520	0	32864	32766	32839	32567	0	0	0	0	
2521	0	32886	32731	32807	32594	0	0	0	0	
2522	0	32854	32759	32775	32799	0	0	0	0	
2523	0	32800	32667	32771	32839	0	0	0	0	
2524	0	32816	32736	32768	32859	0	0	0	0	
2525	0	32742	32814	32827	32819	0	0	0	0	
2526	0	32736	32813	32735	32759	0	0	0	0	
2527	0	32676	32725	32706	32903	0	0	0	0	
2528	0	32662	32775	32759	32866	0	0	0	0	
2529	0	32708	32759	32668	32839	0	0	0	0	
2530	0	32725	32791	32797	32647	0	0	0	0	
2531	0	32760	32738	32739	32595	0	0	0	0	
2532	0	32744	32742	32711	32619	0	0	0	0	
2533	0	32775	32835	32733	32483	0	0	0	0	
2534	0	32756	32722	32764	32327	0	0	0	0	
2535	0	32767	32739	32703	32207	0	0	0	0	
2536	0	32804	32631	32729	32438	0	0	0	0	
2537	0	32774	32662	32711	32525	0	0	0	0	
2538	0	32747	32721	32747	32637	0	0	0	0	
2539	0	32824	32719	32847	32836	0	0	0	0	
2540	0	32872	32763	32663	32687	0	0	0	0	
2541	0	32834	32747	32803	32887	0	0	0	0	
2542	0	32808	32727	32711	32811	0	0	0	0	
2543	0	32784	32657	32711	32775	0	0	0	0	
2544	0	32787	32673	32631	32658	0	0	0	0	
2545	0	32769	32611	32679	32669	0	0	0	0	
2546	0	32769	32663	32670	32820	0	0	0	0	
2547	0	32736	32685	32607	32800	0	0	0	0	
2548	0	32704	32775	32634	32688	0	0	0	0	
2549	0	32736	32711	32677	32719	0	0	0	0	
2550	0	32706	32667	32719	32869	0	0	0	0	
2551	0	32748	32739	32747	32754	0	0	0	0	
2552	0	32775	32763	32711	32615	0	0	0	0	
2553	0	32816	32791	32832	32583	0	0	0	0	
2554	0	32784	32807	32743	32679	0	0	0	0	
2555	0	32775	32759	32743	32630	0	0	0	0	
2556	0	32801	32792	32623	32567	0	0	0	0	
2557	0	32767	32731	32775	32420	0	0	0	0	
2558	0	32754	32589	32743	32397	0	0	0	0	
2559	0	32775	32549	32671	32529	0	0	0	0	
2560	0	32775	32595	32751	32647	0	0	0	0	
2561	0	32727	32709	32775	32691	0	0	0	0	
2562	0	32756	32627	32671	32720	0	0	0	0	
2563	0	32678	32583	32807	32647	0	0	0	0	
2564	0	32644	32667	32694	32583	0	0	0	0	
2565	0	32694	32591	32671	32583	0	0	0	0	
2566	0	32730	32738	32595	32623	0	0	0	0	
2567	0	32760	32775	32622	32711	0	0	0	0	
2568	0	32839	32854	32689	32495	0	0	0	0	
2569	0	32886	32871	32688	32700	0	0	0	0	
2570	0	32897	32807	32695	32690	0	0	0	0	
2571	0	32818	32766	32707	32741	0	0	0	0	
2572	0	32832	32763	32775	32677	0	0	0	0	
2573	0	32754	32804	32807	32683	0	0	0	0	
2574	0	32764	32834	32621	32903	0	0	0	0	
2575	0	32723	32803	32679	32931	0	0	0	0	
2576	0	32784	32815	32679	32883	0	0	0	0	
2577	0	32698	32847	32671	32903	0	0	0	0	
2578	0	32706	32809	32799	32723	0	0	0	0	
2579	0	32728	32847	32771	32639	0	0	0	0	
2580	0	32774	32775	32711	32583	0	0	0	0	
2581	0	32770	32769	32815	32447	0	0	0	0	
2582	0	32783	32775	32769	32450	0	0	0	0	
2583	0	32832	32691	32684	32519	0	0	0	0	
2584	0	32850	32647	32870	32454	0	0	0	0	
2585	0	32866	32723	32727	32611	0	0	0	0	
2586	0	32832	32645	32721	32720	0	0	0	0	
2587	0	32772	32679	32647	32859	0	0	0	0	
2588	0	32711	32678	32677	32738	0	0	0	0	
2589	0	32688	32695	32697	32827	0	0	0	0	
2590	0	32690	32647	32802	32839	0	0	0	0	
2591	0	32680	32758	32647	32910	0	0	0	0	
2592	0	32775	32766	32795	32741	0	0	0	0	
2593	0	32839	32838	32733	32813	0	0	0	0	
2594	0	32800	32775	32679	32854	0	0	0	0	
2595	0	32858	32761	32671	32832	0	0	0	0	
2596	0	32804	32829	32690	32758	0	0	0	0	
2597	0	32744	32727	32749	32518	0	0	0	0	
2598	0	32732	32731	32679	32640	0	0	0	0	
2599	0	32716	32763	32659	32589	0	0	0	0	
2600	0	32733	32821	32719	32507	0	0	0	0	
2601	0	32739	32765	32629	32551	0	0	0	0	
2602	0	32848	32820	32726	32358	0	0	0	0	
2603	0	32746	32871	32699	32530	0	0	0	0	
2604	0	32680	32839	32696	32594	0	0	0	0	
2605	0	32724	32735	32684	32615	0	0	0	0	
2606	0	32732	32619	32679	32662	0	0	0	0	
2607	0	32702	32678	32685	32662	0	0	0	0	
2608	0	32698	32702	32598	32726	0	0	0	0	
2609	0	32690	32681	32602	32560	0	0	0	0	
2610	0	32775	32711	32644	32690	0	0	0	0	
2611	0	32816	32775	32726	32709	0	0	0	0	
2612	0	32790	32835	32705	32640	0	0	0	0	
2613	0	32823	32751	32717	32439	0	0	0	0	
2614	0	32823	32725	32707	32519	0	0	0	0	
2615	0	32807	32626	32839	32751	0	0	0	0	
2616	0	32816	32634	32802	32833	0	0	0	0	
2617	0	32764	32643	32704	32775	0	0	0	0	
2618	0	32736	32583	32843	32825	0	0	0	0	
2619	0	32716	32666	32747	32654	0	0	0	0	
2620	0	32717	32743	32751	32596	0	0	0	0	
2621	0	32752	32727	32775	32731	0	0	0	0	
2622	0	32752	32722	32829	32667	0	0	0	0	
2623	0	32840	32683	32882	32695	0	0	0	0	
2624	0	32848	32727	32735	32615	0	0	0	0	
2625	0	32760	32811	32731	32756	0	0	0	0	
2626	0	32719	32746	32770	32775	0	0	0	0	
2627	0	32836	32759	32739	32809	0	0	0	0	
2628	0	32792	32819	32583	32773	0	0	0	0	
2629	0	32730	32855	32634	32555	0	0	0	0	
2630	0	32690	32806	32711	32711	0	0	0	0	
2631	0	32710	32747	32671	32773	0	0	0	0	
2632	0	32708	32751	32736	32583	0	0	0	0	
2633	0	32705	32765	32607	32566	0	0	0	0	
2634	0	32723	32610	32592	32709	0	0	0	0	
2635	0	32734	32631	32625	32705	0	0	0	0	
2636	0	32741	32599	32738	32497	0	0	0	0	
2637	0	32736	32743	32747	32370	0	0	0	0	
2638	0	32740	32834	32683	32495	0	0	0	0	
2639	0	32754	32910	32834	32519	0	0	0	0	
2640	0	32767	32883	32796	32566	0	0	0	0	
2641	0	32738	32759	32759	32518	0	0	0	0	
2642	0	32750	32775	32679	32619	0	0	0	0	
2643	0	32782	32667	32799	32697	0	0	0	0	
2644	0	32822	32662	32775	32640	0	0	0	0	
2645	0	32891	32775	32638	32548	0	0	0	0	
2646	0	32830	32829	32723	32506	0	0	0	0	
2647	0	32818	32735	32628	32612	0	0	0	0	
2648	0	32818	32711	32607	32884	0	0	0	0	
2649	0	32804	32738	32605	32815	0	0	0	0	
2650	0	32784	32775	32598	32773	0	0	0	0	
2651	0	32676	32807	32728	32751	0	0	0	0	
2652	0	32712	32755	32787	33026	0	0	0	0	
2653	0	32793	32751	32709	32959	0	0	0	0	
2654	0	32774	32765	32803	32829	0	0	0	0	
2655	0	32773	32751	32722	32854	0	0	0	0	
2656	0	32829	32791	32611	32603	0	0	0	0	
2657	0	32818	32833	32750	32441	0	0	0	0	
2658	0	32863	32775	32691	32598	0	0	0	0	
2659	0	32805	32771	32615	32551	0	0	0	0	
2660	0	32826	32767	32711	32672	0	0	0	0	
2661	0	32764	32805	32691	32679	0	0	0	0	
2662	0	32677	32839	32721	32691	0	0	0	0	
2663	0	32710	32823	32677	32903	0	0	0	0	
2664	0	32708	32762	32701	32871	0	0	0	0	
2665	0	32733	32695	32752	32798	0	0	0	0	
2666	0	32757	32611	32765	32825	0	0	0	0	
2667	0	32677	32611	32775	32758	0	0	0	0	
2668	0	32663	32687	32681	32773	0	0	0	0	
2669	0	32706	32623	32775	32647	0	0	0	0	
2670	0	32733	32658	32800	32775	0	0	0	0	
2671	0	32742	32743	32743	32638	0	0	0	0	
2672	0	32698	32719	32770	32487	0	0	0	0	
2673	0	32756	32827	32658	32418	0	0	0	0	
2674	0	32736	32802	32607	32607	0	0	0	0	
2675	0	32742	32773	32659	32706	0	0	0	0	
2676	0	32775	32751	32711	32662	0	0	0	0	
2677	0	32758	32775	32643	32535	0	0	0	0	
2678	0	32862	32807	32759	32407	0	0	0	0	
2679	0	32872	32863	32839	32679	0	0	0	0	
2680	0	32858	32851	32818	32647	0	0	0	0	
2681	0	32800	32799	32759	32711	0	0	0	0	
2682	0	32846	32767	32647	32438	0	0	0	0	
2683	0	32852	32695	32730	32583	0	0	0	0	
2684	0	32866	32670	32803	32638	0	0	0	0	
2685	0	32804	32643	32763	32647	0	0	0	0	
2686	0	32760	32638	32732	32689	0	0	0	0	
2687	0	32784	32640	32685	32804	0	0	0	0	
2688	0	32764	32623	32684	32683	0	0	0	0	
2689	0	32730	32621	32677	32663	0	0	0	0	
2690	0	32774	32747	32744	32791	0	0	0	0	
2691	0	32708	32839	32562	32695	0	0	0	0	
2692	0	32775	32871	32734	32595	0	0	0	0	
2693	0	32798	32763	32647	32681	0	0	0	0	
2694	0	32676	32774	32708	32544	0	0	0	0	
2695	0	32756	32903	32597	32518	0	0	0	0	
2696	0	32768	32871	32767	32479	0	0	0	0	
2697	0	32848	32767	32683	32595	0	0	0	0	
2698	0	32834	32697	32751	32546	0	0	0	0	
2699	0	32794	32670	32695	32695	0	0	0	0	
2700	0	32789	32702	32766	32717	0	0	0	0	
2701	0	32775	32669	32751	32809	0	0	0	0	
2702	0	32738	32571	32690	32607	0	0	0	0	
2703	0	32736	32609	32743	32829	0	0	0	0	
2704	0	32750	32635	32673	32823	0	0	0	0	
2705	0	32770	32794	32741	32789	0	0	0	0	
2706	0	32749	32634	32632	32503	0	0	0	0	
2707	0	32810	32722	32711	32633	0	0	0	0	
2708	0	32716	32738	32628	32607	0	0	0	0	
2709	0	32760	32766	32667	32647	0	0	0	0	
2710	0	32764	32769	32801	32775	0	0	0	0	
2711	0	32708	32701	32672	32819	0	0	0	0	
2712	0	32727	32639	32795	32949	0	0	0	0	
2713	0	32784	32791	32640	32823	0	0	0	0	
2714	0	32768	32671	32803	32962	0	0	0	0	
2715	0	32839	32551	32742	32918	0	0	0	0	
2716	0	32853	32673	32719	32827	0	0	0	0	
2717	0	32808	32673	32714	32807	0	0	0	0	
2718	0	32802	32775	32749	32630	0	0	0	0	
2719	0	32770	32759	32745	32551	0	0	0	0	
2720	0	32775	32857	32647	32455	0	0	0	0	
2721	0	32763	32807	32763	32257	0	0	0	0	
2722	0	32764	32679	32639	32515	0	0	0	0	
2723	0	32852	32811	32587	32500	0	0	0	0	
2724	0	32841	32868	32685	32406	0	0	0	0	
2725	0	32748	32893	32722	32742	0	0	0	0	
2726	0	32798	32871	32726	32663	0	0	0	0	
2727	0	32813	32851	32686	32691	0	0	0	0	
2728	0	32798	32723	32606	32758	0	0	0	0	
2729	0	32815	32671	32643	32868	0	0	0	0	
2730	0	32817	32678	32679	32859	0	0	0	0	
2731	0	32786	32711	32711	32991	0	0	0	0	
2732	0	32802	32791	32775	32861	0	0	0	0	
2733	0	32745	32631	32710	32816	0	0	0	0	
2734	0	32707	32590	32634	32537	0	0	0	0	
2735	0	32711	32724	32723	32512	0	0	0	0	
2736	0	32715	32703	32735	32263	0	0	0	0	
2737	0	32704	32767	32759	32339	0	0	0	0	
2738	0	32647	32715	32797	32448	0	0	0	0	
2739	0	32665	32668	32680	32631	0	0	0	0	
2740	0	32678	32583	32798	32577	0	0	0	0	
2741	0	32752	32555	32795	32663	0	0	0	0	
2742	0	32800	32679	32858	32491	0	0	0	0	
2743	0	32744	32811	32756	32803	0	0	0	0	
2744	0	32756	32847	32663	32751	0	0	0	0	
2745	0	32746	32866	32735	32915	0	0	0	0	
2746	0	32722	32895	32752	32647	0	0	0	0	
2747	0	32733	32859	32628	32662	0	0	0	0	
2748	0	32728	32724	32567	32647	0	0	0	0	
2749	0	32650	32815	32717	32617	0	0	0	0	
2750	0	32670	32805	32705	32435	0	0	0	0	
2751	0	32728	32839	32695	32711	0	0	0	0	
2752	0	32692	32751	32642	32697	0	0	0	0	
2753	0	32694	32775	32735	32672	0	0	0	0	
2754	0	32796	32697	32759	32534	0	0	0	0	
2755	0	32861	32681	32799	32759	0	0	0	0	
2756	0	32846	32715	32669	32756	0	0	0	0	
2757	0	32826	32631	32775	32730	0	0	0	0	
2758	0	32802	32643	32795	32839	0	0	0	0	
2759	0	32840	32775	32679	32873	0	0	0	0	
2760	0	32850	32663	32755	32659	0	0	0	0	
2761	0	32790	32655	32676	32769	0	0	0	0	
2762	0	32743	32642	32671	32663	0	0	0	0	
2763	0	32729	32647	32795	32603	0	0	0	0	
2764	0	32750	32743	32722	32679	0	0	0	0	
2765	0	32788	32739	32647	32532	0	0	0	0	
2766	0	32789	32775	32583	32517	0	0	0	0	
2767	0	32748	32699	32589	32659	0	0	0	0	
2768	0	32759	32775	32695	32688	0	0	0	0	
2769	0	32770	32764	32603	32595	0	0	0	0	
2770	0	32694	32738	32674	32742	0	0	0	0	
2771	0	32738	32667	32551	32755	0	0	0	0	
2772	0	32764	32692	32663	32601	0	0	0	0	
2773	0	32792	32739	32739	32763	0	0	0	0	
2774	0	32806	32739	32755	32547	0	0	0	0	
2775	0	32726	32683	32743	32532	0	0	0	0	
2776	0	32740	32617	32699	32415	0	0	0	0	
2777	0	32742	32631	32702	32617	0	0	0	0	
2778	0	32800	32775	32862	32699	0	0	0	0	
2779	0	32808	32850	32796	32639	0	0	0	0	
2780	0	32793	32960	32790	32550	0	0	0	0	
2781	0	32796	32937	32629	32679	0	0	0	0	
2782	0	32812	32879	32687	32797	0	0	0	0	
2783	0	32794	32831	32680	32793	0	0	0	0	
2784	0	32836	32829	32743	33023	0	0	0	0	
2785	0	32836	32799	32803	32995	0	0	0	0	
2786	0	32784	32799	32706	32883	0	0	0	0	
2787	0	32765	32623	32862	33003	0	0	0	0	
2788	0	32802	32647	32839	32903	0	0	0	0	
2789	0	32818	32599	32834	32803	0	0	0	0	
2790	0	32810	32547	32635	32567	0	0	0	0	
2791	0	32821	32615	32629	32535	0	0	0	0	
2792	0	32760	32551	32711	32488	0	0	0	0	
2793	0	32711	32629	32755	32367	0	0	0	0	
2794	0	32692	32711	32644	32407	0	0	0	0	
2795	0	32680	32642	32766	32247	0	0	0	0	
2796	0	32684	32675	32716	32374	0	0	0	0	
2797	0	32732	32711	32729	32495	0	0	0	0	
2798	0	32747	32747	32636	32407	0	0	0	0	
2799	0	32746	32761	32741	32450	0	0	0	0	
2800	0	32764	32739	32725	32642	0	0	0	0	
2801	0	32766	32750	32731	32673	0	0	0	0	
2802	0	32809	32675	32736	32823	0	0	0	0	
2803	0	32775	32605	32605	32607	0	0	0	0	
2804	0	32694	32631	32611	32823	0	0	0	0	
2805	0	32769	32735	32647	32877	0	0	0	0	
2806	0	32822	32775	32727	32643	0	0	0	0	
2807	0	32765	32867	32685	32655	0	0	0	0	
2808	0	32770	32775	32710	32694	0	0	0	0	
2809	0	32760	32727	32711	32751	0	0	0	0	
2810	0	32740	32814	32727	32823	0	0	0	0	
2811	0	32742	32811	32745	32695	0	0	0	0	
2812	0	32767	32807	32694	32725	0	0	0	0	
2813	0	32749	32850	32823	32791	0	0	0	0	
2814	0	32744	32862	32758	32831	0	0	0	0	
2815	0	32750	32871	32771	32736	0	0	0	0	
2816	0	32745	32871	32671	32591	0	0	0	0	
2817	0	32811	32796	32823	32815	0	0	0	0	
2818	0	32790	32757	32791	32834	0	0	0	0	
2819	0	32736	32763	32679	32735	0	0	0	0	
2820	0	32775	32855	32711	32683	0	0	0	0	
2821	0	32768	32578	32727	32482	0	0	0	0	
2822	0	32812	32583	32669	32363	0	0	0	0	
2823	0	32827	32552	32647	32551	0	0	0	0	
2824	0	32818	32627	32687	32669	0	0	0	0	
2825	0	32832	32627	32711	32615	0	0	0	0	
2826	0	32805	32662	32630	32690	0	0	0	0	
2827	0	32735	32690	32611	32503	0	0	0	0	
2828	0	32742	32727	32727	32687	0	0	0	0	
2829	0	32718	32903	32691	32666	0	0	0	0	
2830	0	32740	32894	32803	32627	0	0	0	0	
2831	0	32790	32839	32717	32810	0	0	0	0	
2832	0	32869	32771	32839	32704	0	0	0	0	
2833	0	32817	32750	32811	32850	0	0	0	0	
2834	0	32841	32647	32743	32674	0	0	0	0	
2835	0	32859	32613	32775	32866	0	0	0	0	
2836	0	32732	32582	32775	32839	0	0	0	0	
2837	0	32724	32638	32738	32645	0	0	0	0	
2838	0	32676	32717	32864	32583	0	0	0	0	
2839	0	32647	32751	32755	32739	0	0	0	0	
2840	0	32705	32803	32673	32608	0	0	0	0	
2841	0	32716	32775	32679	32580	0	0	0	0	
2842	0	32747	32711	32711	32319	0	0	0	0	
2843	0	32785	32791	32718	32426	0	0	0	0	
2844	0	32733	32869	32674	32493	0	0	0	0	
2845	0	32740	32743	32671	32525	0	0	0	0	
2846	0	32765	32627	32641	32519	0	0	0	0	
2847	0	32800	32743	32679	32765	0	0	0	0	
2848	0	32808	32775	32710	32795	0	0	0	0	
2849	0	32809	32818	32599	32866	0	0	0	0	
2850	0	32786	32663	32583	32801	0	0	0	0	
2851	0	32775	32639	32675	32767	0	0	0	0	
2852	0	32775	32725	32679	32919	0	0	0	0	
2853	0	32763	32605	32605	33015	0	0	0	0	
2854	0	32722	32699	32724	32803	0	0	0	0	
2855	0	32720	32690	32762	32606	0	0	0	0	
2856	0	32656	32687	32694	32489	0	0	0	0	
2857	0	32696	32767	32773	32477	0	0	0	0	
2858	0	32708	32735	32741	32583	0	0	0	0	
2859	0	32720	32771	32690	32643	0	0	0	0	
2860	0	32728	32819	32791	32607	0	0	0	0	
2861	0	32728	32775	32767	32607	0	0	0	0	
2862	0	32819	32711	32659	32647	0	0	0	0	
2863	0	32903	32727	32763	32495	0	0	0	0	
2864	0	32903	32659	32745	32764	0	0	0	0	
2865	0	32802	32691	32724	32850	0	0	0	0	
2866	0	32804	32687	32788	32635	0	0	0	0	
2867	0	32754	32722	32788	32615	0	0	0	0	
2868	0	32796	32743	32759	32419	0	0	0	0	
2869	0	32754	32775	32691	32441	0	0	0	0	
2870	0	32780	32839	32754	32615	0	0	0	0	
2871	0	32800	32765	32738	32679	0	0	0	0	
2872	0	32816	32746	32610	32763	0	0	0	0	
2873	0	32836	32851	32680	32607	0	0	0	0	
2874	0	32848	32832	32711	32598	0	0	0	0	
2875	0	32828	32807	32580	32791	0	0	0	0	
2876	0	32775	32805	32593	32775	0	0	0	0	
2877	0	32723	32774	32691	32848	0	0	0	0	
2878	0	32704	32769	32689	32818	0	0	0	0	
2879	0	32694	32583	32731	32855	0	0	0	0	
2880	0	32716	32574	32683	32818	0	0	0	0	
2881	0	32756	32619	32743	32491	0	0	0	0	
2882	0	32757	32695	32749	32675	0	0	0	0	
2883	0	32751	32855	32739	32580	0	0	0	0	
2884	0	32766	32903	32775	32679	0	0	0	0	
2885	0	32775	32836	32647	32427	0	0	0	0	
2886	0	32773	32815	32741	32647	0	0	0	0	
2887	0	32739	32717	32726	32879	0	0	0	0	
2888	0	32700	32745	32682	32786	0	0	0	0	
2889	0	32748	32799	32751	32723	0	0	0	0	
2890	0	32736	32839	32695	32500	0	0	0	0	
2891	0	32704	32903	32763	32539	0	0	0	0	
2892	0	32708	32813	32639	32723	0	0	0	0	
2893	0	32706	32775	32725	32675	0	0	0	0	
2894	0	32726	32727	32617	32671	0	0	0	0	
2895	0	32726	32731	32635	32829	0	0	0	0	
2896	0	32724	32822	32607	32639	0	0	0	0	
2897	0	32787	32811	32742	32742	0	0	0	0	
2898	0	32800	32763	32775	32775	0	0	0	0	
2899	0	32769	32707	32634	32775	0	0	0	0	
2900	0	32871	32745	32675	32635	0	0	0	0	
2901	0	32834	32775	32811	32762	0	0	0	0	
2902	0	32856	32734	32766	32775	0	0	0	0	
2903	0	32795	32599	32807	32583	0	0	0	0	
2904	0	32734	32571	32788	32642	0	0	0	0	
2905	0	32742	32437	32815	32731	0	0	0	0	
2906	0	32816	32495	32855	32751	0	0	0	0	
2907	0	32808	32613	32821	32538	0	0	0	0	
2908	0	32811	32627	32885	32347	0	0	0	0	
2909	0	32768	32647	32775	32205	0	0	0	0	
2910	0	32806	32611	32755	32345	0	0	0	0	
2911	0	32761	32662	32723	32214	0	0	0	0	
2912	0	32736	32658	32830	32470	0	0	0	0	
2913	0	32738	32647	32775	32678	0	0	0	0	
2914	0	32698	32679	32583	32771	0	0	0	0	
2915	0	32729	32699	32586	32955	0	0	0	0	
2916	0	32775	32750	32663	33133	0	0	0	0	
2917	0	32664	32799	32539	33015	0	0	0	0	
2918	0	32720	32791	32448	33031	0	0	0	0	
2919	0	32704	32807	32455	32815	0	0	0	0	
2920	0	32696	32829	32557	32967	0	0	0	0	
2921	0	32723	32810	32485	32899	0	0	0	0	
2922	0	32704	32757	32468	32594	0	0	0	0	
2923	0	32720	32726	32470	32575	0	0	0	0	
2924	0	32775	32735	32420	32561	0	0	0	0	
2925	0	32800	32738	32532	32514	0	0	0	0	
2926	0	32758	32643	32469	32495	0	0	0	0	
2927	0	32698	32755	32455	32263	0	0	0	0	
2928	0	32720	32885	32343	32445	0	0	0	0	
2929	0	32677	33023	32447	32277	0	0	0	0	
2930	0	32754	33015	32431	32199	0	0	0	0	
2931	0	32764	33023	32400	31971	0	0	0	0	
2932	0	32808	32975	32340	32154	0	0	0	0	
2933	0	32775	32967	32343	32135	0	0	0	0	
2934	0	32756	32958	32424	32023	0	0	0	0	
2935	0	32831	33039	32455	32007	0	0	0	0	
2936	0	32787	33047	32534	32183	0	0	0	0	
2937	0	32745	33041	32551	32417	0	0	0	0	
2938	0	32752	32851	32681	32727	0	0	0	0	
2939	0	32849	32814	32775	32819	0	0	0	0	
2940	0	32839	32615	32885	33047	0	0	0	0	
2941	0	32870	32553	32941	33104	0	0	0	0	
2942	0	32806	32467	33159	33200	0	0	0	0	
2943	0	32818	32453	33123	33011	0	0	0	0	
2944	0	32852	32480	33172	32993	0	0	0	0	
2945	0	32993	32439	33223	33097	0	0	0	0	
2946	0	33016	32555	33392	32997	0	0	0	0	
2947	0	33125	32679	33436	32705	0	0	0	0	
2948	0	33100	32631	33505	32871	0	0	0	0	
2949	0	33212	32671	33619	32943	0	0	0	0	
2950	0	33134	32613	33471	33119	0	0	0	0	
2951	0	33038	32624	33413	32977	0	0	0	0	
2952	0	32944	32559	33386	33285	0	0	0	0	
2953	0	32842	32469	33331	33287	0	0	0	0	
2954	0	32728	32486	33179	33245	0	0	0	0	
2955	0	32686	32529	32989	32952	0	0	0	0	
2956	0	32697	32647	32963	33121	0	0	0	0	
2957	0	32694	32683	32927	33030	0	0	0	0	
2958	0	32682	32701	32730	33129	0	0	0	0	
2959	0	32634	32711	32767	32935	0	0	0	0	
2960	0	32640	32731	32583	33083	0	0	0	0	
2961	0	32612	32685	32580	32995	0	0	0	0	
2962	0	32490	32647	32567	32759	0	0	0	0	
2963	0	32542	32583	32443	32647	0	0	0	0	
2964	0	32641	32647	32495	32496	0	0	0	0	
2965	0	32611	32775	32348	32455	0	0	0	0	
2966	0	32621	32751	32391	32239	0	0	0	0	
2967	0	32632	32775	32417	32358	0	0	0	0	
2968	0	32591	32854	32358	32366	0	0	0	0	
2969	0	32610	32835	32297	32471	0	0	0	0	
2970	0	32637	32791	32327	32182	0	0	0	0	
2971	0	32620	32839	32459	32190	0	0	0	0	
2972	0	32640	32813	32547	32225	0	0	0	0	
2973	0	32696	32771	32599	32256	0	0	0	0	
2974	0	32730	32688	32565	32244	0	0	0	0	
2975	0	32728	32707	32635	32415	0	0	0	0	
2976	0	32801	32667	32536	32495	0	0	0	0	
2977	0	32800	32791	32560	32562	0	0	0	0	
2978	0	32798	32742	32557	32672	0	0	0	0	
2979	0	32886	32710	32677	32711	0	0	0	0	
2980	0	32818	32662	32577	32855	0	0	0	0	
2981	0	32836	32743	32737	32603	0	0	0	0	
2982	0	32769	32830	32671	32695	0	0	0	0	
2983	0	32768	32757	32741	32677	0	0	0	0	
2984	0	32749	32775	32694	32637	0	0	0	0	
2985	0	32794	32729	32629	32850	0	0	0	0	
2986	0	32836	32809	32774	32797	0	0	0	0	
2987	0	32852	32693	32815	32647	0	0	0	0	
2988	0	32848	32839	32826	32887	0	0	0	0	
2989	0	32814	32816	32814	32797	0	0	0	0	
2990	0	32822	32791	32738	32609	0	0	0	0	
2991	0	32831	32826	32679	32647	0	0	0	0	
2992	0	32798	32801	32680	32774	0	0	0	0	
2993	0	32706	32839	32631	32694	0	0	0	0	
2994	0	32694	32811	32583	32565	0	0	0	0	
2995	0	32736	32775	32666	32671	0	0	0	0	
2996	0	32704	32610	32698	32587	0	0	0	0	
2997	0	32800	32621	32670	32691	0	0	0	0	
2998	0	32738	32619	32684	32643	0	0	0	0	
2999	0	32716	32627	32762	32647	0	0	0	0	
3000	0	32760	32723	32691	32555	0	0	0	0	
3001	0	32752	32839	32811	32541	0	0	0	0	
3002	0	32758	32831	32685	32603	0	0	0	0	
3003	0	32766	32690	32623	32666	0	0	0	0	
3004	0	32775	32623	32602	32677	0	0	0	0	
3005	0	32813	32687	32666	32771	0	0	0	0	
3006	0	32756	32749	32734	32559	0	0	0	0	
