# OpenSignals Text File Format
# {"00:07:80:3B:46:38": {"sensor": ["CUSTOM/0.5/1.0/V", "CUSTOM/0.5/1.0/V", "CUSTOM/0.5/1.0/V", "CUSTOM/0.5/1.0/V", "CUSTOM/0.5/1.0/V", "CUSTOM/0.5/1.0/V", "CUSTOM/0.5/1.0/V", "CUSTOM/0.5/1.0/V"], "device name": "EMGs", "column": ["nSeq", "DI", "RA_L", "RA_R", "OE_L", "OE:R", "IL_L", "IL_R", "MF_L", "MF_R"], "sync interval": 2, "time": "16:44:59.472", "comments": "", "device connection": "BTH00:07:80:3B:46:38", "channels": [1, 2, 3, 4, 5, 6, 7, 8], "date": "2017-6-1", "mode": 0, "digital IO": [0, 1], "firmware version": 772, "device": "biosignalsplux", "position": 0, "sampling rate": 1000, "label": ["RA_L", "RA_R", "OE_L", "OE:R", "IL_L", "IL_R", "MF_L", "MF_R"], "resolution": [16, 16, 16, 16, 16, 16, 16, 16], "special": [{}, {}, {}, {}, {}, {}, {}, {}]}}
# EndOfHeader
0	0	32799	32827	32677	32695	32785	32878	32659	32713	
1	0	32770	32691	32749	32523	32735	32579	32628	32762	
2	0	32739	32815	32695	32763	32843	32775	32739	32684	
3	0	32751	32742	32767	32750	32815	32598	32467	32687	
4	0	32775	32877	32759	32535	32835	32683	32591	32666	
5	0	32768	32719	32647	32631	32767	32871	32507	32758	
6	0	32759	32743	32759	32615	32773	32585	32627	32775	
7	0	32791	32734	32627	32639	32833	32786	32638	32783	
8	0	32779	32839	32647	32665	32739	32743	32749	32687	
9	0	32714	32865	32734	32511	32769	32573	32583	32673	
10	0	32775	32757	32693	32621	32721	32807	32695	32647	
11	0	32772	32847	32702	32558	32775	32755	32563	32668	
12	0	32775	32726	32701	32791	32731	32818	32692	32647	
13	0	32743	32828	32687	32743	32741	32827	32722	32607	
14	0	32780	32759	32715	32605	32802	32631	32685	32671	
15	0	32791	32867	32719	32702	32819	32759	32727	32811	
16	0	32742	32819	32683	32771	32713	32534	32607	32807	
17	0	32780	32813	32731	32668	32799	32749	32613	32765	
18	0	32764	32795	32699	32738	32847	32733	32484	32775	
19	0	32823	32797	32782	32511	32815	32567	32674	32815	
20	0	32746	32695	32775	32698	32746	32767	32508	32723	
21	0	32769	32892	32679	32699	32803	32583	32685	32655	
22	0	32713	32791	32793	32551	32801	32821	32733	32775	
23	0	32713	32823	32828	32703	32754	32685	32675	32757	
24	0	32775	32705	32647	32748	32749	32799	32751	32735	
25	0	32703	32810	32753	32711	32775	32804	32738	32743	
26	0	32770	32775	32669	32674	32763	32679	32685	32687	
27	0	32807	32763	32711	32690	32757	32851	32698	32690	
28	0	32784	32837	32719	32645	32854	32839	32749	32719	
29	0	32799	32735	32717	32511	32703	32591	32683	32734	
30	0	32780	32775	32751	32687	32786	32783	32695	32626	
31	0	32742	32751	32775	32725	32814	32679	32533	32647	
32	0	32725	32865	32647	32564	32737	32767	32635	32694	
33	0	32775	32765	32695	32687	32774	32628	32575	32707	
34	0	32756	32810	32707	32775	32845	32711	32703	32762	
35	0	32780	32703	32645	32702	32775	32775	32572	32731	
36	0	32769	32735	32743	32727	32726	32759	32693	32695	
37	0	32809	32775	32695	32591	32759	32786	32511	32677	
38	0	32831	32892	32773	32660	32713	32724	32639	32591	
39	0	32768	32884	32731	32534	32719	32692	32578	32615	
40	0	32743	32722	32641	32743	32817	32803	32659	32658	
41	0	32733	32799	32655	32635	32751	32647	32583	32673	
42	0	32760	32767	32655	32701	32773	32759	32595	32755	
43	0	32703	32818	32785	32707	32835	32866	32567	32757	
44	0	32739	32863	32775	32563	32797	32668	32718	32767	
45	0	32741	32763	32641	32663	32795	32755	32541	32757	
46	0	32747	32791	32743	32537	32767	32811	32633	32774	
47	0	32716	32815	32740	32692	32823	32662	32574	32771	
48	0	32763	32799	32756	32611	32807	32765	32599	32772	
49	0	32749	32773	32749	32719	32775	32751	32522	32703	
50	0	32740	32811	32548	32675	32819	32607	32646	32623	
51	0	32739	32807	32742	32583	32743	32811	32613	32641	
52	0	32690	32807	32812	32742	32823	32751	32647	32582	
53	0	32724	32839	32767	32662	32857	32769	32767	32703	
54	0	32771	32719	32729	32700	32789	32823	32745	32626	
55	0	32804	32775	32635	32662	32847	32670	32646	32722	
56	0	32758	32870	32699	32679	32735	32802	32691	32765	
57	0	32757	32831	32673	32659	32718	32854	32727	32703	
58	0	32790	32835	32681	32489	32823	32569	32668	32814	
59	0	32740	32871	32767	32719	32751	32759	32610	32807	
60	0	32816	32839	32707	32775	32733	32660	32555	32727	
61	0	32747	32733	32738	32642	32751	32789	32703	32619	
62	0	32775	32804	32758	32684	32762	32603	32692	32647	
63	0	32754	32793	32676	32723	32767	32775	32535	32759	
64	0	32736	32727	32677	32567	32719	32646	32618	32676	
65	0	32705	32813	32739	32733	32797	32765	32682	32642	
66	0	32647	32751	32733	32621	32715	32827	32590	32641	
67	0	32762	32791	32655	32685	32719	32765	32647	32617	
68	0	32714	32785	32717	32770	32775	32743	32733	32662	
69	0	32720	32899	32717	32662	32831	32734	32540	32735	
70	0	32757	32783	32714	32691	32735	32759	32761	32742	
71	0	32755	32799	32751	32559	32740	32815	32707	32755	
72	0	32751	32807	32711	32703	32767	32599	32711	32759	
73	0	32830	32789	32643	32719	32829	32751	32739	32687	
74	0	32755	32839	32791	32645	32783	32815	32699	32647	
75	0	32775	32743	32695	32749	32751	32707	32759	32617	
76	0	32758	32823	32797	32715	32739	32599	32727	32647	
77	0	32782	32641	32767	32679	32773	32846	32583	32647	
78	0	32839	32803	32754	32663	32851	32863	32591	32676	
79	0	32811	32825	32727	32711	32813	32637	32565	32647	
80	0	32852	32750	32663	32606	32775	32799	32700	32701	
81	0	32859	32863	32743	32684	32759	32844	32823	32730	
82	0	32823	32727	32711	32598	32789	32581	32717	32731	
83	0	32784	32775	32757	32739	32807	32749	32589	32762	
84	0	32724	32791	32731	32559	32815	32797	32605	32754	
85	0	32775	32726	32743	32726	32855	32745	32491	32711	
86	0	32736	32751	32643	32615	32903	32551	32725	32765	
87	0	32742	32890	32735	32703	32814	32775	32751	32669	
88	0	32711	32719	32639	32750	32759	32801	32639	32601	
89	0	32775	32766	32708	32607	32775	32891	32621	32614	
90	0	32751	32837	32647	32607	32722	32711	32613	32642	
91	0	32682	32711	32684	32503	32775	32813	32735	32691	
92	0	32775	32743	32721	32671	32749	32714	32635	32695	
93	0	32775	32771	32727	32639	32783	32769	32695	32687	
94	0	32721	32815	32671	32772	32761	32854	32698	32713	
95	0	32753	32805	32775	32669	32804	32607	32742	32643	
96	0	32726	32799	32775	32711	32813	32759	32691	32659	
97	0	32779	32699	32735	32629	32763	32823	32590	32587	
98	0	32775	32797	32754	32775	32763	32679	32593	32615	
99	0	32791	32747	32739	32515	32812	32903	32615	32741	
100	0	32804	32775	32853	32703	32871	32845	32733	32759	
101	0	32775	32759	32851	32647	32791	32637	32604	32751	
102	0	32710	32791	32703	32675	32743	32775	32675	32818	
103	0	32735	32699	32722	32708	32813	32587	32771	32746	
104	0	32797	32817	32647	32719	32843	32707	32700	32743	
105	0	32786	32859	32726	32729	32807	32815	32495	32755	
106	0	32696	32731	32694	32663	32747	32711	32687	32703	
107	0	32758	32756	32767	32747	32766	32791	32647	32735	
108	0	32792	32722	32771	32735	32715	32836	32766	32659	
109	0	32819	32767	32668	32791	32775	32770	32627	32679	
110	0	32804	32839	32711	32567	32759	32775	32604	32647	
111	0	32787	32813	32791	32757	32837	32866	32559	32694	
112	0	32757	32835	32722	32767	32740	32531	32655	32813	
113	0	32789	32739	32727	32759	32743	32663	32485	32775	
114	0	32775	32710	32734	32611	32681	32723	32688	32675	
115	0	32742	32755	32707	32663	32831	32573	32575	32699	
116	0	32756	32786	32690	32647	32738	32804	32711	32695	
117	0	32749	32760	32727	32478	32775	32807	32559	32702	
118	0	32731	32775	32639	32637	32749	32543	32655	32795	
119	0	32739	32759	32749	32535	32759	32665	32711	32807	
120	0	32732	32698	32727	32685	32827	32823	32703	32759	
121	0	32795	32772	32623	32623	32799	32583	32729	32682	
122	0	32775	32718	32692	32767	32723	32796	32673	32719	
123	0	32804	32763	32703	32583	32717	32797	32663	32711	
124	0	32808	32866	32797	32775	32811	32625	32621	32735	
125	0	32762	32815	32759	32740	32820	32775	32655	32742	
126	0	32802	32831	32679	32679	32723	32869	32741	32735	
127	0	32789	32711	32701	32703	32771	32631	32675	32663	
128	0	32782	32799	32785	32631	32787	32813	32667	32655	
129	0	32792	32694	32687	32673	32839	32607	32557	32679	
130	0	32789	32789	32759	32751	32735	32703	32639	32773	
131	0	32725	32703	32695	32570	32738	32623	32527	32807	
132	0	32748	32798	32687	32707	32823	32743	32685	32759	
133	0	32738	32895	32767	32570	32813	32739	32507	32751	
134	0	32756	32807	32706	32711	32735	32630	32669	32715	
135	0	32730	32795	32749	32699	32775	32769	32545	32719	
136	0	32749	32773	32715	32591	32762	32819	32719	32711	
137	0	32770	32873	32667	32665	32804	32767	32758	32738	
138	0	32774	32791	32763	32511	32819	32740	32679	32705	
139	0	32769	32853	32701	32703	32771	32767	32635	32772	
140	0	32698	32749	32826	32615	32802	32623	32711	32751	
141	0	32827	32773	32693	32723	32793	32783	32767	32751	
142	0	32743	32865	32661	32697	32796	32743	32684	32663	
143	0	32738	32775	32731	32591	32758	32775	32706	32613	
144	0	32775	32819	32667	32663	32775	32771	32519	32631	
145	0	32745	32743	32818	32557	32807	32671	32679	32661	
146	0	32738	32823	32763	32631	32855	32751	32509	32754	
147	0	32772	32743	32642	32695	32751	32879	32647	32739	
148	0	32740	32775	32692	32739	32761	32612	32530	32689	
149	0	32759	32730	32695	32716	32727	32802	32709	32718	
150	0	32786	32794	32643	32631	32815	32747	32773	32765	
151	0	32797	32893	32710	32663	32765	32767	32703	32773	
152	0	32726	32743	32669	32496	32783	32756	32720	32739	
153	0	32732	32769	32759	32643	32740	32834	32586	32719	
154	0	32775	32795	32750	32613	32790	32563	32647	32711	
155	0	32796	32722	32794	32739	32847	32719	32621	32715	
156	0	32766	32823	32837	32765	32791	32703	32643	32655	
157	0	32738	32727	32723	32634	32742	32708	32532	32707	
158	0	32727	32775	32647	32756	32831	32751	32643	32748	
159	0	32799	32807	32738	32772	32717	32725	32647	32751	
160	0	32831	32899	32640	32694	32743	32865	32503	32775	
161	0	32759	32767	32738	32731	32769	32614	32679	32791	
162	0	32773	32847	32736	32634	32807	32798	32715	32687	
163	0	32757	32743	32799	32666	32759	32627	32598	32583	
164	0	32748	32807	32734	32647	32799	32773	32659	32621	
165	0	32728	32771	32735	32611	32863	32695	32659	32743	
166	0	32775	32775	32647	32723	32799	32749	32647	32727	
167	0	32762	32786	32738	32729	32763	32803	32623	32773	
168	0	32685	32727	32756	32743	32839	32645	32634	32759	
169	0	32754	32809	32614	32695	32801	32775	32548	32766	
170	0	32775	32739	32638	32617	32735	32876	32690	32717	
171	0	32750	32775	32585	32700	32735	32603	32539	32663	
172	0	32764	32739	32642	32587	32791	32798	32644	32675	
173	0	32704	32731	32729	32631	32867	32734	32574	32559	
174	0	32738	32795	32735	32535	32875	32587	32634	32591	
175	0	32793	32870	32758	32685	32783	32789	32607	32611	
176	0	32774	32773	32695	32511	32751	32975	32698	32591	
177	0	32718	32783	32751	32677	32799	32686	32671	32615	
178	0	32775	32734	32714	32615	32873	32785	32658	32765	
179	0	32816	32812	32700	32695	32719	32579	32675	32763	
180	0	32775	32791	32727	32718	32751	32605	32755	32775	
181	0	32718	32751	32631	32711	32775	32797	32699	32807	
182	0	32713	32807	32735	32749	32769	32807	32624	32791	
183	0	32774	32711	32715	32709	32755	32679	32731	32799	
184	0	32725	32805	32749	32735	32811	32773	32719	32805	
185	0	32747	32763	32799	32669	32730	32647	32706	32775	
186	0	32801	32847	32705	32719	32710	32590	32592	32759	
187	0	32775	32795	32743	32714	32758	32839	32669	32735	
188	0	32743	32666	32674	32759	32775	32855	32715	32795	
189	0	32747	32722	32722	32605	32804	32758	32647	32630	
190	0	32794	32799	32690	32724	32815	32722	32773	32646	
191	0	32742	32815	32717	32503	32775	32698	32687	32647	
192	0	32786	32802	32695	32692	32807	32557	32762	32679	
193	0	32766	32771	32691	32571	32824	32804	32695	32623	
194	0	32817	32787	32836	32718	32803	32668	32613	32635	
195	0	32760	32714	32795	32719	32773	32804	32717	32775	
196	0	32695	32795	32671	32543	32759	32877	32775	32710	
197	0	32775	32775	32727	32647	32775	32639	32655	32715	
198	0	32734	32827	32731	32607	32841	32739	32604	32763	
199	0	32736	32722	32665	32668	32747	32679	32705	32627	
200	0	32719	32819	32732	32679	32771	32743	32574	32647	
201	0	32747	32759	32703	32550	32859	32839	32714	32642	
202	0	32782	32807	32691	32687	32759	32615	32670	32668	
203	0	32766	32795	32775	32791	32812	32747	32607	32785	
204	0	32769	32811	32687	32495	32791	32701	32602	32767	
205	0	32757	32795	32675	32634	32787	32759	32507	32772	
206	0	32742	32847	32719	32630	32741	32863	32671	32729	
207	0	32774	32757	32673	32575	32786	32851	32602	32607	
208	0	32816	32799	32726	32671	32837	32871	32701	32678	
209	0	32806	32755	32599	32759	32763	32613	32723	32795	
210	0	32764	32846	32775	32621	32759	32749	32747	32759	
211	0	32832	32758	32727	32659	32758	32711	32729	32775	
212	0	32727	32835	32689	32569	32833	32575	32647	32759	
213	0	32712	32815	32737	32711	32871	32765	32519	32803	
214	0	32754	32756	32674	32621	32791	32642	32671	32818	
215	0	32716	32783	32719	32645	32775	32775	32703	32659	
216	0	32758	32795	32694	32684	32748	32543	32541	32691	
217	0	32742	32821	32775	32699	32735	32687	32623	32763	
218	0	32736	32791	32711	32528	32855	32598	32766	32775	
219	0	32730	32690	32695	32771	32775	32757	32667	32629	
220	0	32791	32804	32775	32703	32741	32679	32665	32654	
221	0	32729	32727	32748	32599	32807	32775	32677	32637	
222	0	32773	32791	32726	32647	32811	32863	32679	32722	
223	0	32815	32759	32775	32719	32759	32727	32526	32717	
224	0	32751	32807	32743	32775	32871	32805	32699	32723	
225	0	32773	32737	32639	32679	32787	32580	32535	32647	
226	0	32749	32823	32703	32580	32775	32775	32628	32613	
227	0	32754	32719	32669	32675	32855	32615	32773	32647	
228	0	32822	32759	32657	32675	32719	32772	32691	32739	
229	0	32813	32711	32733	32559	32813	32802	32719	32671	
230	0	32733	32807	32666	32734	32839	32767	32659	32723	
231	0	32809	32787	32599	32727	32813	32831	32739	32732	
232	0	32735	32767	32758	32551	32763	32635	32691	32743	
233	0	32775	32855	32751	32687	32775	32743	32711	32630	
234	0	32796	32807	32705	32695	32825	32755	32539	32703	
235	0	32765	32775	32725	32637	32729	32738	32647	32694	
236	0	32754	32797	32692	32663	32791	32819	32511	32711	
237	0	32742	32716	32691	32717	32718	32775	32687	32727	
238	0	32861	32810	32647	32559	32743	32843	32707	32806	
239	0	32768	32852	32762	32725	32844	32839	32525	32703	
240	0	32750	32786	32775	32678	32807	32855	32647	32647	
241	0	32743	32817	32628	32647	32703	32575	32759	32775	
242	0	32736	32727	32655	32607	32775	32882	32655	32727	
243	0	32716	32871	32722	32723	32755	32796	32645	32754	
244	0	32734	32822	32715	32679	32862	32801	32615	32645	
245	0	32799	32787	32755	32691	32731	32711	32587	32837	
246	0	32749	32799	32644	32495	32805	32708	32611	32727	
247	0	32772	32807	32679	32671	32727	32807	32725	32653	
248	0	32711	32839	32764	32655	32763	32799	32671	32698	
249	0	32767	32843	32791	32543	32807	32715	32716	32647	
250	0	32748	32755	32685	32699	32767	32877	32567	32671	
251	0	32829	32775	32751	32661	32783	32613	32610	32764	
252	0	32771	32727	32775	32519	32836	32775	32499	32748	
253	0	32775	32775	32666	32742	32775	32662	32685	32711	
254	0	32788	32711	32766	32675	32803	32803	32617	32715	
255	0	32785	32795	32743	32610	32850	32719	32666	32679	
256	0	32717	32767	32753	32705	32760	32758	32727	32677	
257	0	32764	32819	32660	32688	32755	32806	32566	32786	
258	0	32775	32785	32687	32565	32855	32562	32611	32775	
259	0	32740	32839	32711	32742	32818	32754	32524	32709	
260	0	32785	32807	32725	32747	32770	32655	32621	32735	
261	0	32844	32839	32775	32661	32783	32816	32623	32758	
262	0	32767	32813	32773	32647	32808	32743	32679	32647	
263	0	32725	32861	32694	32577	32679	32819	32623	32598	
264	0	32738	32743	32735	32775	32743	32868	32746	32676	
265	0	32733	32850	32666	32699	32793	32607	32595	32678	
266	0	32739	32718	32751	32660	32802	32763	32677	32659	
267	0	32703	32773	32727	32667	32722	32838	32546	32763	
268	0	32796	32715	32605	32638	32755	32749	32642	32699	
269	0	32773	32819	32734	32687	32818	32745	32547	32702	
270	0	32799	32703	32647	32554	32823	32715	32674	32745	
271	0	32768	32788	32743	32687	32799	32605	32629	32738	
272	0	32749	32689	32803	32597	32757	32775	32678	32743	
273	0	32743	32807	32662	32742	32799	32626	32527	32743	
274	0	32799	32743	32699	32757	32826	32790	32695	32693	
275	0	32786	32822	32699	32597	32751	32771	32475	32611	
276	0	32798	32726	32623	32775	32740	32727	32621	32668	
277	0	32830	32748	32734	32727	32775	32843	32494	32673	
278	0	32801	32749	32775	32623	32843	32549	32647	32805	
279	0	32726	32805	32659	32690	32758	32801	32671	32751	
280	0	32801	32791	32711	32514	32692	32690	32645	32775	
281	0	32797	32775	32823	32683	32807	32761	32663	32708	
282	0	32729	32759	32758	32726	32821	32831	32674	32658	
283	0	32679	32820	32711	32645	32775	32551	32715	32643	
284	0	32734	32903	32669	32703	32707	32751	32615	32719	
285	0	32745	32807	32583	32483	32822	32699	32647	32698	
286	0	32735	32871	32717	32673	32755	32737	32620	32787	
287	0	32733	32775	32790	32635	32775	32715	32683	32751	
288	0	32766	32787	32701	32756	32874	32613	32626	32760	
289	0	32756	32657	32711	32726	32854	32811	32711	32743	
290	0	32734	32850	32719	32509	32839	32647	32623	32767	
291	0	32774	32751	32647	32663	32762	32839	32726	32647	
292	0	32738	32879	32691	32575	32775	32839	32642	32684	
293	0	32759	32791	32611	32742	32766	32615	32691	32707	
294	0	32756	32826	32725	32679	32834	32691	32735	32692	
295	0	32775	32719	32756	32685	32819	32583	32711	32698	
296	0	32813	32786	32749	32727	32787	32740	32540	32661	
297	0	32750	32733	32757	32575	32740	32898	32643	32705	
298	0	32775	32811	32692	32647	32775	32678	32547	32730	
299	0	32745	32723	32738	32758	32803	32845	32626	32687	
300	0	32699	32770	32663	32653	32743	32581	32637	32727	
301	0	32790	32681	32655	32679	32786	32684	32671	32758	
302	0	32743	32803	32759	32567	32815	32743	32709	32647	
303	0	32742	32755	32715	32678	32804	32671	32553	32705	
304	0	32716	32829	32647	32711	32756	32789	32679	32681	
305	0	32820	32695	32754	32595	32739	32646	32634	32671	
306	0	32785	32815	32709	32687	32767	32775	32703	32731	
307	0	32748	32755	32647	32687	32775	32668	32539	32705	
308	0	32773	32831	32594	32546	32711	32803	32748	32599	
309	0	32795	32795	32694	32644	32821	32677	32740	32565	
310	0	32791	32863	32751	32647	32822	32775	32663	32647	
311	0	32766	32731	32645	32775	32755	32855	32714	32671	
312	0	32822	32830	32703	32759	32739	32615	32647	32775	
313	0	32769	32691	32711	32587	32783	32739	32763	32743	
314	0	32788	32791	32775	32715	32827	32722	32703	32667	
315	0	32799	32738	32743	32643	32785	32749	32679	32684	
316	0	32819	32773	32679	32705	32789	32822	32639	32775	
317	0	32683	32717	32749	32727	32829	32576	32695	32792	
318	0	32769	32823	32753	32614	32873	32743	32711	32671	
319	0	32716	32703	32691	32679	32748	32673	32718	32722	
320	0	32763	32799	32723	32647	32759	32755	32541	32683	
321	0	32742	32719	32666	32583	32807	32825	32679	32711	
322	0	32788	32758	32733	32691	32801	32694	32617	32773	
323	0	32743	32783	32743	32562	32835	32715	32711	32775	
324	0	32750	32807	32589	32707	32717	32775	32631	32766	
325	0	32754	32782	32646	32677	32809	32541	32615	32719	
326	0	32719	32815	32703	32559	32831	32765	32551	32719	
327	0	32754	32743	32642	32692	32759	32615	32583	32577	
328	0	32690	32853	32583	32659	32758	32799	32629	32679	
329	0	32727	32850	32766	32739	32795	32608	32693	32775	
330	0	32823	32831	32775	32660	32791	32795	32739	32783	
331	0	32819	32799	32647	32673	32814	32713	32575	32763	
332	0	32807	32862	32749	32605	32861	32703	32612	32759	
333	0	32775	32807	32854	32743	32758	32805	32506	32686	
334	0	32775	32846	32723	32669	32719	32554	32658	32679	
335	0	32736	32759	32731	32543	32786	32807	32587	32751	
336	0	32717	32756	32709	32598	32719	32700	32699	32769	
337	0	32769	32781	32663	32609	32773	32745	32749	32791	
338	0	32783	32867	32711	32663	32834	32871	32632	32687	
339	0	32742	32734	32734	32469	32733	32823	32685	32665	
340	0	32810	32757	32715	32787	32775	32850	32673	32707	
341	0	32767	32670	32735	32745	32815	32567	32711	32681	
342	0	32751	32815	32809	32663	32791	32758	32668	32641	
343	0	32753	32714	32819	32583	32814	32673	32605	32585	
344	0	32764	32763	32717	32695	32820	32775	32756	32555	
345	0	32784	32691	32726	32539	32763	32861	32717	32619	
346	0	32775	32751	32693	32729	32721	32703	32727	32658	
347	0	32731	32871	32619	32620	32735	32767	32647	32631	
348	0	32786	32833	32731	32709	32822	32903	32693	32735	
349	0	32739	32771	32707	32718	32743	32519	32487	32749	
350	0	32775	32802	32695	32647	32791	32735	32605	32783	
351	0	32730	32750	32717	32722	32866	32575	32615	32735	
352	0	32716	32846	32767	32687	32702	32731	32703	32689	
353	0	32798	32743	32804	32615	32751	32708	32671	32695	
354	0	32757	32819	32691	32709	32827	32754	32615	32733	
355	0	32724	32735	32755	32694	32719	32833	32647	32669	
356	0	32816	32823	32793	32557	32733	32578	32461	32698	
357	0	32775	32726	32661	32721	32775	32745	32639	32718	
358	0	32817	32839	32723	32757	32802	32677	32586	32747	
359	0	32823	32809	32716	32479	32738	32784	32687	32635	
360	0	32791	32751	32758	32706	32813	32715	32743	32627	
361	0	32781	32775	32687	32695	32886	32707	32695	32636	
362	0	32770	32807	32647	32672	32817	32733	32773	32715	
363	0	32742	32707	32700	32710	32799	32707	32692	32683	
364	0	32773	32747	32767	32679	32751	32633	32559	32631	
365	0	32759	32831	32711	32653	32734	32791	32685	32642	
366	0	32725	32803	32645	32487	32767	32770	32535	32775	
367	0	32709	32839	32727	32709	32761	32789	32643	32719	
368	0	32764	32827	32754	32719	32775	32875	32722	32791	
369	0	32764	32767	32677	32535	32893	32695	32614	32789	
370	0	32801	32839	32773	32671	32803	32711	32699	32748	
371	0	32702	32775	32707	32621	32747	32660	32703	32627	
372	0	32768	32742	32703	32711	32823	32823	32647	32615	
373	0	32740	32759	32692	32695	32796	32774	32519	32607	
374	0	32748	32775	32730	32509	32727	32645	32679	32754	
375	0	32738	32727	32785	32703	32807	32817	32647	32751	
376	0	32739	32819	32709	32606	32771	32734	32727	32667	
377	0	32799	32727	32687	32756	32791	32763	32639	32709	
378	0	32725	32775	32716	32685	32765	32811	32731	32815	
379	0	32742	32719	32647	32640	32726	32517	32695	32797	
380	0	32771	32743	32687	32743	32783	32749	32642	32799	
381	0	32705	32783	32647	32647	32827	32827	32726	32847	
382	0	32729	32743	32711	32679	32775	32594	32671	32765	
383	0	32760	32775	32765	32558	32745	32757	32742	32805	
384	0	32734	32759	32687	32690	32783	32827	32681	32686	
385	0	32683	32799	32711	32590	32827	32595	32599	32643	
386	0	32751	32694	32743	32813	32741	32855	32703	32759	
387	0	32720	32887	32726	32671	32835	32743	32632	32736	
388	0	32795	32791	32713	32703	32726	32871	32532	32726	
389	0	32731	32811	32731	32581	32751	32835	32690	32612	
390	0	32799	32835	32591	32666	32806	32891	32743	32633	
391	0	32730	32809	32717	32543	32839	32665	32695	32611	
392	0	32755	32775	32671	32630	32750	32771	32699	32588	
393	0	32801	32723	32670	32655	32823	32606	32511	32708	
394	0	32778	32786	32701	32493	32830	32720	32626	32731	
395	0	32814	32723	32732	32646	32742	32898	32588	32809	
396	0	32735	32811	32686	32547	32695	32541	32642	32855	
397	0	32791	32740	32815	32737	32795	32723	32615	32798	
398	0	32718	32775	32786	32725	32807	32719	32647	32767	
399	0	32686	32827	32695	32775	32775	32575	32623	32737	
400	0	32791	32767	32703	32726	32756	32775	32743	32677	
401	0	32742	32797	32677	32663	32775	32863	32641	32679	
402	0	32814	32775	32798	32775	32759	32639	32710	32711	
403	0	32780	32791	32727	32613	32754	32767	32714	32662	
404	0	32785	32823	32579	32647	32828	32865	32727	32619	
405	0	32836	32794	32647	32566	32767	32595	32715	32583	
406	0	32759	32895	32655	32742	32734	32763	32715	32647	
407	0	32775	32799	32735	32594	32762	32743	32595	32631	
408	0	32774	32797	32738	32732	32775	32565	32702	32663	
409	0	32705	32755	32647	32644	32822	32755	32668	32663	
410	0	32784	32863	32827	32668	32775	32647	32694	32751	
411	0	32797	32747	32815	32655	32765	32783	32583	32709	
412	0	32749	32852	32679	32516	32844	32869	32710	32695	
413	0	32722	32765	32815	32707	32761	32623	32444	32801	
414	0	32743	32753	32805	32743	32795	32822	32715	32655	
415	0	32694	32802	32631	32577	32788	32708	32715	32603	
416	0	32733	32857	32727	32725	32799	32759	32532	32725	
417	0	32788	32815	32739	32713	32701	32775	32697	32733	
418	0	32785	32855	32742	32591	32769	32725	32803	32775	
419	0	32754	32811	32607	32693	32775	32801	32731	32765	
420	0	32812	32789	32769	32791	32699	32545	32714	32791	
421	0	32787	32839	32695	32647	32727	32775	32623	32766	
422	0	32748	32783	32677	32719	32809	32843	32735	32807	
423	0	32797	32795	32797	32583	32799	32561	32535	32693	
424	0	32775	32775	32747	32690	32775	32751	32607	32701	
425	0	32766	32732	32719	32719	32775	32671	32715	32629	
426	0	32731	32808	32726	32566	32815	32751	32669	32605	
427	0	32688	32849	32757	32692	32903	32786	32731	32595	
428	0	32739	32763	32686	32553	32791	32668	32663	32711	
429	0	32825	32857	32711	32691	32786	32815	32647	32663	
430	0	32687	32827	32739	32671	32831	32933	32495	32754	
431	0	32799	32825	32839	32551	32748	32655	32738	32754	
432	0	32710	32725	32607	32679	32775	32813	32759	32737	
433	0	32743	32789	32735	32758	32773	32692	32679	32759	
434	0	32805	32663	32786	32588	32791	32727	32662	32763	
435	0	32724	32771	32700	32667	32767	32775	32603	32775	
436	0	32745	32799	32724	32519	32709	32667	32679	32689	
437	0	32756	32775	32685	32715	32743	32745	32642	32706	
438	0	32773	32796	32614	32735	32764	32847	32658	32743	
439	0	32815	32775	32655	32745	32847	32559	32647	32647	
440	0	32728	32799	32670	32767	32803	32775	32549	32612	
441	0	32800	32692	32711	32599	32706	32887	32647	32767	
442	0	32733	32837	32719	32709	32763	32619	32529	32637	
443	0	32768	32738	32717	32543	32759	32759	32677	32748	
444	0	32711	32775	32758	32677	32835	32807	32539	32801	
445	0	32694	32799	32765	32514	32850	32463	32594	32784	
446	0	32667	32668	32749	32692	32791	32687	32689	32717	
447	0	32805	32756	32703	32628	32791	32817	32753	32679	
448	0	32767	32791	32701	32696	32734	32687	32687	32659	
449	0	32781	32749	32725	32713	32815	32838	32690	32695	
450	0	32770	32823	32699	32719	32826	32807	32711	32707	
451	0	32750	32791	32643	32663	32731	32769	32679	32747	
452	0	32832	32819	32707	32551	32773	32835	32679	32759	
453	0	32852	32767	32655	32683	32759	32516	32683	32742	
454	0	32847	32847	32631	32617	32759	32759	32551	32678	
455	0	32876	32771	32743	32711	32768	32709	32636	32702	
456	0	32769	32855	32683	32711	32762	32815	32723	32615	
457	0	32764	32807	32631	32511	32879	32647	32543	32670	
458	0	32765	32845	32741	32660	32767	32764	32590	32663	
459	0	32738	32707	32723	32554	32703	32831	32559	32663	
460	0	32799	32813	32638	32694	32782	32567	32671	32798	
461	0	32762	32719	32787	32675	32814	32763	32582	32711	
462	0	32759	32837	32739	32523	32733	32619	32754	32719	
463	0	32788	32743	32715	32702	32731	32786	32775	32747	
464	0	32751	32815	32745	32645	32775	32764	32647	32711	
465	0	32759	32759	32733	32593	32773	32798	32687	32603	
466	0	32707	32759	32733	32679	32827	32871	32799	32645	
467	0	32701	32710	32597	32711	32835	32658	32623	32759	
468	0	32740	32771	32807	32548	32809	32797	32662	32759	
469	0	32786	32754	32770	32742	32705	32748	32455	32711	
470	0	32787	32831	32683	32687	32786	32813	32628	32719	
471	0	32765	32787	32663	32539	32789	32710	32643	32730	
472	0	32771	32815	32735	32631	32775	32751	32605	32631	
473	0	32775	32787	32749	32727	32759	32807	32748	32661	
474	0	32688	32807	32671	32511	32819	32775	32665	32686	
475	0	32732	32747	32677	32695	32758	32854	32511	32739	
476	0	32782	32854	32722	32607	32815	32660	32631	32727	
477	0	32707	32839	32747	32683	32775	32791	32639	32711	
478	0	32734	32831	32647	32671	32724	32707	32679	32639	
479	0	32738	32775	32739	32508	32775	32719	32727	32578	
480	0	32752	32775	32751	32738	32788	32715	32667	32705	
481	0	32756	32763	32743	32742	32743	32519	32718	32745	
482	0	32788	32791	32775	32721	32749	32647	32605	32795	
483	0	32769	32807	32775	32719	32829	32676	32687	32858	
484	0	32705	32731	32754	32542	32819	32690	32587	32826	
485	0	32753	32711	32676	32668	32772	32823	32703	32743	
486	0	32766	32775	32632	32486	32756	32695	32811	32707	
487	0	32828	32703	32690	32765	32791	32763	32655	32642	
488	0	32721	32852	32660	32775	32895	32836	32683	32677	
489	0	32799	32791	32735	32681	32799	32675	32699	32687	
490	0	32716	32811	32647	32711	32717	32795	32573	32799	
491	0	32780	32769	32726	32647	32773	32915	32673	32698	
492	0	32773	32761	32691	32739	32772	32597	32591	32775	
493	0	32700	32775	32719	32679	32847	32707	32647	32710	
494	0	32684	32767	32719	32789	32852	32775	32661	32759	
495	0	32720	32804	32598	32707	32829	32685	32751	32773	
496	0	32775	32799	32679	32678	32737	32694	32630	32774	
497	0	32708	32706	32727	32621	32731	32849	32731	32734	
498	0	32722	32821	32691	32679	32791	32620	32679	32647	
499	0	32756	32711	32763	32583	32711	32799	32711	32655	
500	0	32802	32823	32799	32702	32766	32614	32519	32745	
501	0	32730	32790	32677	32631	32829	32783	32683	32775	
502	0	32735	32855	32799	32615	32775	32679	32719	32759	
503	0	32758	32742	32818	32709	32731	32567	32751	32719	
504	0	32774	32803	32659	32622	32739	32725	32739	32751	
505	0	32839	32731	32727	32722	32727	32615	32646	32711	
506	0	32727	32797	32707	32661	32811	32731	32683	32721	
507	0	32774	32807	32742	32575	32770	32833	32551	32743	
508	0	32758	32786	32693	32710	32708	32647	32690	32719	
509	0	32763	32900	32671	32559	32655	32754	32532	32676	
510	0	32804	32739	32748	32732	32809	32879	32647	32629	
511	0	32765	32827	32605	32699	32828	32587	32555	32692	
512	0	32794	32685	32727	32735	32790	32767	32718	32692	
513	0	32694	32722	32674	32775	32775	32775	32677	32684	
514	0	32678	32795	32607	32775	32775	32601	32769	32715	
515	0	32698	32643	32660	32647	32733	32749	32647	32751	
516	0	32772	32675	32733	32669	32767	32759	32559	32831	
517	0	32727	32678	32609	32646	32737	32743	32724	32773	
518	0	32659	32678	32695	32685	32795	32690	32594	32775	
519	0	32618	32491	32739	32686	32822	32627	32647	32842	
520	0	32598	32541	32635	32802	32816	32695	32427	32903	
521	0	32550	32495	32775	32701	32855	32767	32487	32806	
522	0	32570	32595	32711	32555	32871	32543	32391	32807	
523	0	32575	32555	32855	32703	32964	32762	32502	32783	
524	0	32464	32691	32845	32606	32879	32838	32479	32791	
525	0	32541	32690	32695	32671	32869	32613	32580	32766	
526	0	32569	32814	32815	32677	32837	32811	32503	32759	
527	0	32589	32775	32871	32535	32912	32809	32556	32673	
528	0	32636	32911	32743	32562	32848	32819	32471	32635	
529	0	32598	32939	32854	32552	32767	32963	32539	32711	
530	0	32666	33065	32871	32532	32843	32677	32423	32759	
531	0	32676	32959	32861	32519	32919	32848	32583	32762	
532	0	32711	33159	32964	32285	32885	32833	32615	32775	
533	0	32775	33213	32922	32309	32893	32975	32387	32727	
534	0	32790	33207	32899	32413	32799	32743	32553	32679	
535	0	32865	33379	32845	32474	32887	32976	32675	32737	
536	0	32923	33415	32949	32375	32951	32879	32647	32797	
537	0	32988	33367	32916	32423	32817	32975	32699	32721	
538	0	33012	33351	32854	32295	32749	32999	32719	32597	
539	0	33034	33285	32877	32509	32775	32895	32775	32595	
540	0	33110	33185	32831	32597	32734	33025	32667	32541	
541	0	33095	33204	32627	32425	32675	32751	32783	32475	
542	0	33059	33081	32703	32647	32692	32799	32789	32511	
543	0	33078	33153	32713	32711	32775	32862	32903	32500	
544	0	33017	32991	32667	32539	32687	32809	32703	32485	
545	0	32976	33067	32614	32627	32613	32811	32887	32615	
546	0	32915	32931	32551	32591	32640	32755	32785	32535	
547	0	32980	32901	32669	32811	32630	32621	33035	32467	
548	0	32962	32839	32627	32807	32557	32762	33159	32428	
549	0	32938	32671	32466	33011	32511	32511	33183	32429	
550	0	32949	32554	32439	33063	32509	32599	33270	32351	
551	0	33009	32503	32351	32914	32519	32767	33275	32309	
552	0	33082	32543	32438	33043	32511	32663	33277	32316	
553	0	33099	32381	32412	33037	32431	32669	33178	32355	
554	0	33121	32411	32247	33231	32477	32425	33210	32331	
555	0	33175	32290	32326	33197	32531	32655	33107	32299	
556	0	33091	32159	32327	33143	32415	32466	33197	32322	
557	0	33026	32095	32246	33243	32495	32613	33119	32571	
558	0	32865	32199	32407	33151	32586	32619	32742	32633	
559	0	32641	32251	32565	33047	32743	32525	32711	32827	
560	0	32583	32239	32687	32759	32859	32261	32673	32893	
561	0	32518	32244	32671	32823	32839	32625	32455	32901	
562	0	32443	32373	32661	32807	32860	32442	32367	33111	
563	0	32401	32375	32715	32647	33023	32647	32373	33129	
564	0	32404	32417	32834	32686	32879	32546	32087	33135	
565	0	32390	32445	32741	32523	32967	32725	32207	33083	
566	0	32384	32535	32826	32593	33027	32615	32135	32972	
567	0	32388	32506	32845	32539	32923	32658	32239	32953	
568	0	32484	32627	32821	32461	32950	32709	32217	32954	
569	0	32510	32606	32802	32647	32983	32538	32357	32903	
570	0	32513	32687	32775	32607	32978	32731	32457	32951	
571	0	32543	32725	32775	32587	32956	32805	32359	32978	
572	0	32575	32743	32788	32613	32943	32612	32439	32839	
573	0	32581	32833	32733	32558	32861	32758	32391	32935	
574	0	32623	32796	32785	32559	32892	32743	32458	32863	
575	0	32658	32917	32707	32449	32932	32749	32608	32847	
576	0	32674	32847	32703	32571	32791	32815	32523	32813	
577	0	32729	32911	32783	32535	32804	32748	32543	32695	
578	0	32754	32867	32870	32547	32871	32902	32535	32713	
579	0	32728	32951	32717	32599	32687	32573	32679	32687	
580	0	32781	32815	32743	32611	32773	32850	32724	32725	
581	0	32720	32899	32725	32591	32823	32836	32645	32811	
582	0	32741	32839	32782	32739	32759	32807	32717	32751	
583	0	32809	32910	32755	32647	32749	32903	32530	32758	
584	0	32748	32811	32775	32662	32799	32631	32685	32727	
585	0	32767	32877	32692	32587	32791	32882	32783	32681	
586	0	32794	32831	32839	32571	32774	32599	32679	32617	
587	0	32844	32861	32807	32719	32788	32791	32749	32591	
588	0	32838	32950	32715	32655	32830	32775	32715	32567	
589	0	32786	32861	32785	32706	32733	32797	32749	32556	
590	0	32800	32911	32717	32723	32710	32900	32730	32627	
591	0	32764	32797	32727	32621	32713	32711	32663	32593	
592	0	32767	32879	32695	32695	32743	32890	32775	32706	
593	0	32796	32757	32685	32610	32789	32631	32727	32615	
594	0	32823	32874	32679	32751	32783	32767	32553	32723	
595	0	32839	32767	32717	32627	32805	32747	32630	32663	
596	0	32835	32813	32681	32475	32823	32814	32679	32671	
597	0	32823	32775	32687	32590	32726	32863	32751	32587	
598	0	32769	32855	32711	32495	32767	32631	32759	32642	
599	0	32714	32795	32773	32631	32775	32763	32639	32726	
600	0	32751	32835	32761	32693	32751	32561	32706	32847	
601	0	32759	32746	32671	32719	32730	32719	32540	32733	
602	0	32750	32895	32711	32706	32847	32863	32647	32711	
603	0	32774	32709	32733	32575	32798	32577	32647	32737	
604	0	32812	32759	32642	32620	32775	32797	32727	32775	
605	0	32729	32847	32675	32658	32717	32647	32739	32743	
606	0	32706	32823	32785	32715	32759	32786	32719	32767	
607	0	32742	32847	32686	32685	32775	32811	32723	32695	
608	0	32731	32857	32749	32642	32817	32673	32695	32690	
609	0	32684	32851	32691	32711	32811	32841	32743	32655	
610	0	32780	32791	32730	32519	32811	32839	32533	32590	
611	0	32770	32839	32743	32679	32835	32851	32647	32575	
612	0	32786	32770	32711	32679	32823	32797	32527	32715	
613	0	32788	32818	32813	32711	32737	32375	32722	32803	
614	0	32792	32743	32746	32676	32775	32605	32599	32822	
615	0	32822	32820	32741	32675	32774	32727	32654	32755	
616	0	32756	32793	32767	32711	32765	32578	32587	32655	
617	0	32766	32807	32699	32475	32817	32860	32671	32711	
618	0	32795	32755	32705	32723	32765	32647	32508	32670	
619	0	32743	32903	32720	32702	32814	32731	32655	32723	
620	0	32769	32790	32733	32535	32751	32711	32548	32716	
621	0	32823	32791	32647	32660	32743	32855	32687	32655	
622	0	32700	32767	32703	32743	32755	32727	32749	32545	
623	0	32728	32809	32690	32773	32798	32751	32687	32639	
624	0	32757	32775	32732	32790	32799	32691	32571	32623	
625	0	32740	32795	32719	32679	32813	32551	32683	32615	
626	0	32711	32731	32687	32715	32759	32716	32703	32647	
627	0	32741	32799	32687	32575	32775	32855	32678	32617	
628	0	32737	32803	32647	32705	32775	32628	32695	32663	
629	0	32754	32790	32722	32694	32739	32860	32703	32751	
630	0	32735	32811	32679	32556	32747	32677	32711	32730	
631	0	32757	32719	32655	32660	32791	32785	32677	32647	
632	0	32716	32807	32707	32564	32774	32882	32730	32681	
633	0	32766	32783	32691	32676	32775	32647	32687	32735	
634	0	32762	32735	32805	32551	32826	32767	32749	32757	
635	0	32775	32743	32773	32679	32855	32803	32711	32743	
636	0	32775	32783	32634	32571	32774	32567	32701	32731	
637	0	32817	32743	32738	32739	32741	32775	32671	32786	
638	0	32730	32791	32647	32731	32815	32871	32531	32945	
639	0	32746	32835	32708	32705	32783	32591	32687	32991	
640	0	32786	32797	32635	32742	32874	32791	32663	32987	
641	0	32735	32799	32684	32754	32783	32767	32727	32941	
642	0	32790	32789	32629	32630	32799	32852	32641	32773	
643	0	32705	32759	32823	32647	32802	32784	32607	32791	
644	0	32807	32807	32765	32741	32806	32807	32683	32775	
645	0	32738	32717	32749	32607	32829	32695	32543	32736	
646	0	32711	32826	32717	32695	32829	32562	32655	32715	
647	0	32754	32790	32647	32534	32771	32707	32573	32711	
648	0	32685	32858	32775	32659	32725	32748	32623	32723	
649	0	32751	32827	32795	32671	32767	32582	32574	32660	
650	0	32810	32838	32693	32687	32801	32797	32711	32663	
651	0	32751	32810	32790	32659	32815	32663	32729	32673	
652	0	32747	32719	32805	32569	32767	32790	32691	32603	
653	0	32740	32839	32631	32736	32823	32843	32730	32565	
654	0	32748	32818	32709	32663	32827	32620	32551	32715	
655	0	32823	32819	32685	32503	32763	32775	32677	32647	
656	0	32773	32756	32594	32702	32723	32773	32669	32702	
657	0	32793	32775	32745	32550	32738	32578	32763	32695	
658	0	32703	32717	32821	32644	32783	32746	32759	32747	
659	0	32770	32791	32743	32723	32797	32836	32626	32716	
660	0	32775	32866	32631	32783	32751	32717	32663	32703	
661	0	32799	32775	32586	32687	32711	32718	32773	32765	
662	0	32775	32839	32660	32527	32711	32822	32735	32764	
663	0	32778	32847	32775	32675	32775	32633	32731	32761	
664	0	32769	32890	32775	32555	32843	32775	32621	32711	
665	0	32725	32763	32727	32607	32813	32834	32607	32647	
666	0	32783	32835	32638	32710	32807	32615	32594	32599	
667	0	32711	32775	32847	32583	32749	32742	32501	32647	
668	0	32726	32791	32919	32695	32895	32775	32581	32623	
669	0	32726	32726	32743	32727	32891	32647	32559	32655	
670	0	32788	32749	32699	32690	32775	32783	32705	32647	
671	0	32804	32679	32634	32621	32818	32875	32667	32710	
672	0	32788	32760	32643	32735	32773	32743	32574	32717	
673	0	32724	32743	32689	32706	32775	32759	32695	32679	
674	0	32806	32807	32639	32722	32747	32693	32646	32711	
675	0	32812	32771	32619	32551	32759	32783	32666	32771	
676	0	32808	32811	32661	32757	32807	32903	32455	32647	
677	0	32759	32718	32647	32735	32742	32586	32613	32759	
678	0	32808	32775	32643	32530	32759	32703	32550	32770	
679	0	32773	32739	32720	32647	32759	32755	32615	32727	
680	0	32761	32799	32719	32477	32807	32537	32531	32660	
681	0	32700	32859	32775	32671	32791	32700	32639	32796	
682	0	32723	32787	32751	32743	32750	32741	32550	32787	
683	0	32771	32786	32706	32551	32767	32745	32633	32644	
684	0	32775	32817	32807	32638	32850	32799	32485	32694	
685	0	32719	32798	32734	32605	32803	32570	32643	32742	
686	0	32769	32835	32658	32636	32706	32863	32527	32659	
687	0	32743	32823	32751	32679	32743	32767	32666	32647	
688	0	32702	32881	32743	32583	32836	32557	32775	32726	
689	0	32735	32858	32683	32703	32819	32708	32729	32789	
690	0	32791	32681	32685	32711	32749	32766	32790	32641	
691	0	32727	32773	32630	32697	32707	32638	32694	32587	
692	0	32774	32831	32733	32701	32795	32811	32629	32688	
693	0	32806	32775	32699	32631	32767	32850	32735	32733	
694	0	32729	32787	32647	32679	32823	32754	32555	32739	
695	0	32796	32795	32745	32646	32748	32871	32635	32645	
696	0	32756	32735	32771	32738	32791	32567	32555	32727	
697	0	32719	32858	32786	32727	32850	32735	32684	32767	
698	0	32790	32759	32775	32535	32841	32815	32772	32603	
699	0	32783	32807	32835	32714	32775	32804	32655	32711	
700	0	32743	32734	32727	32745	32813	32875	32742	32705	
701	0	32775	32811	32723	32619	32731	32598	32615	32735	
702	0	32769	32830	32647	32679	32809	32787	32715	32657	
703	0	32717	32711	32733	32551	32743	32767	32498	32735	
704	0	32751	32775	32724	32687	32791	32763	32562	32802	
705	0	32722	32731	32684	32687	32823	32891	32591	32663	
706	0	32734	32844	32647	32615	32775	32582	32663	32727	
707	0	32791	32822	32731	32711	32710	32775	32739	32759	
708	0	32868	32758	32739	32711	32763	32623	32726	32647	
709	0	32767	32775	32643	32505	32839	32767	32567	32663	
710	0	32774	32867	32727	32663	32775	32893	32639	32746	
711	0	32793	32811	32721	32707	32796	32623	32567	32724	
712	0	32727	32725	32686	32538	32851	32796	32715	32623	
713	0	32758	32795	32717	32583	32756	32596	32707	32740	
714	0	32759	32731	32694	32775	32735	32727	32628	32743	
715	0	32747	32800	32722	32658	32789	32799	32684	32711	
716	0	32780	32727	32715	32726	32855	32740	32615	32775	
717	0	32827	32823	32707	32567	32755	32743	32700	32812	
718	0	32775	32786	32622	32751	32731	32718	32647	32720	
719	0	32829	32775	32694	32738	32758	32767	32767	32647	
720	0	32746	32838	32711	32679	32807	32855	32725	32731	
721	0	32761	32827	32647	32655	32764	32671	32510	32742	
722	0	32711	32855	32815	32485	32807	32743	32638	32659	
723	0	32719	32827	32735	32646	32773	32841	32615	32635	
724	0	32742	32819	32732	32511	32775	32611	32614	32698	
725	0	32714	32774	32810	32647	32789	32743	32671	32847	
726	0	32755	32685	32638	32530	32819	32751	32679	32735	
727	0	32728	32795	32694	32631	32804	32836	32599	32735	
728	0	32774	32794	32727	32543	32715	32556	32603	32703	
729	0	32798	32807	32706	32729	32748	32773	32539	32612	
730	0	32734	32749	32611	32665	32743	32703	32657	32749	
731	0	32767	32758	32707	32775	32807	32571	32659	32731	
732	0	32828	32751	32767	32711	32854	32775	32603	32739	
733	0	32781	32715	32695	32703	32827	32690	32591	32658	
734	0	32838	32753	32731	32751	32769	32563	32568	32615	
735	0	32758	32854	32711	32727	32743	32718	32775	32589	
736	0	32722	32695	32838	32742	32791	32837	32686	32711	
737	0	32724	32734	32794	32732	32807	32850	32679	32703	
738	0	32711	32839	32759	32573	32842	32655	32519	32735	
739	0	32693	32679	32711	32764	32845	32775	32711	32734	
740	0	32676	32815	32738	32735	32775	32818	32679	32635	
741	0	32751	32767	32647	32659	32747	32727	32727	32695	
742	0	32770	32829	32723	32683	32813	32567	32627	32815	
743	0	32806	32855	32631	32693	32738	32718	32550	32791	
744	0	32768	32767	32757	32702	32761	32790	32658	32735	
745	0	32733	32773	32772	32573	32819	32647	32683	32677	
746	0	32797	32687	32646	32775	32751	32801	32775	32790	
747	0	32775	32763	32727	32731	32700	32667	32726	32747	
748	0	32742	32747	32631	32644	32749	32801	32610	32615	
749	0	32775	32811	32735	32655	32733	32813	32703	32547	
750	0	32787	32885	32773	32598	32765	32854	32755	32703	
751	0	32734	32757	32678	32709	32719	32621	32621	32694	
752	0	32774	32767	32747	32556	32733	32739	32631	32740	
753	0	32764	32693	32703	32643	32724	32731	32487	32709	
754	0	32698	32775	32735	32634	32787	32574	32595	32827	
755	0	32753	32775	32773	32711	32823	32743	32703	32766	
756	0	32770	32839	32731	32703	32869	32871	32487	32765	
757	0	32759	32815	32803	32686	32821	32564	32587	32691	
758	0	32769	32803	32799	32707	32775	32751	32559	32751	
759	0	32740	32820	32717	32533	32711	32878	32733	32706	
760	0	32786	32719	32747	32721	32743	32669	32631	32791	
761	0	32775	32767	32754	32647	32834	32855	32485	32659	
762	0	32758	32687	32691	32743	32773	32847	32685	32670	
763	0	32723	32791	32735	32766	32741	32647	32547	32743	
764	0	32736	32775	32747	32743	32775	32519	32717	32743	
765	0	32726	32827	32773	32703	32827	32647	32647	32705	
766	0	32742	32839	32743	32535	32891	32809	32786	32661	
767	0	32704	32815	32775	32711	32798	32563	32759	32733	
768	0	32805	32821	32643	32523	32773	32679	32767	32707	
769	0	32817	32713	32787	32757	32797	32775	32757	32811	
770	0	32753	32797	32719	32715	32825	32583	32723	32647	
771	0	32710	32709	32635	32607	32722	32762	32677	32677	
772	0	32775	32775	32675	32719	32787	32854	32765	32711	
773	0	32793	32807	32767	32503	32769	32673	32669	32623	
774	0	32734	32695	32815	32597	32795	32719	32502	32670	
775	0	32775	32815	32775	32506	32854	32791	32711	32749	
776	0	32806	32747	32691	32590	32831	32895	32718	32689	
777	0	32769	32821	32710	32558	32759	32623	32823	32727	
778	0	32735	32775	32639	32701	32775	32891	32723	32647	
779	0	32809	32743	32641	32519	32751	32866	32607	32574	
780	0	32790	32783	32595	32647	32743	32811	32751	32663	
781	0	32764	32799	32700	32515	32775	32525	32714	32830	
782	0	32732	32655	32674	32671	32754	32711	32635	32751	
783	0	32755	32791	32764	32540	32835	32855	32727	32762	
784	0	32742	32743	32775	32706	32682	32613	32603	32575	
785	0	32782	32767	32703	32791	32711	32876	32681	32647	
786	0	32713	32662	32639	32629	32810	32639	32583	32747	
787	0	32738	32795	32707	32724	32793	32681	32663	32775	
788	0	32718	32831	32791	32631	32831	32738	32654	32666	
789	0	32738	32695	32743	32683	32839	32715	32621	32633	
790	0	32754	32819	32687	32583	32748	32585	32707	32770	
791	0	32786	32837	32759	32639	32783	32811	32723	32677	
792	0	32786	32695	32647	32551	32783	32866	32703	32695	
793	0	32797	32812	32743	32737	32817	32635	32655	32599	
794	0	32765	32695	32687	32720	32773	32773	32495	32754	
795	0	32797	32795	32715	32711	32761	32743	32673	32723	
796	0	32812	32723	32727	32715	32799	32799	32607	32726	
797	0	32788	32775	32619	32556	32775	32799	32687	32641	
798	0	32727	32823	32687	32679	32821	32657	32662	32692	
799	0	32698	32695	32626	32609	32727	32621	32599	32822	
800	0	32701	32734	32743	32687	32711	32677	32659	32759	
801	0	32793	32783	32661	32655	32737	32633	32667	32767	
802	0	32721	32681	32745	32739	32739	32671	32758	32713	
803	0	32788	32863	32703	32757	32747	32867	32647	32663	
804	0	32738	32775	32655	32647	32775	32647	32511	32743	
805	0	32753	32797	32663	32662	32711	32733	32642	32687	
806	0	32769	32833	32591	32543	32757	32739	32590	32588	
807	0	32759	32743	32683	32707	32732	32790	32685	32775	
808	0	32774	32813	32767	32609	32775	32850	32711	32735	
809	0	32771	32836	32703	32700	32839	32818	32763	32710	
810	0	32734	32703	32695	32719	32771	32613	32647	32681	
811	0	32743	32773	32625	32671	32823	32749	32767	32614	
812	0	32738	32765	32679	32745	32758	32695	32659	32739	
813	0	32728	32789	32860	32562	32773	32775	32602	32767	
814	0	32734	32798	32743	32742	32875	32848	32566	32647	
815	0	32766	32767	32805	32647	32827	32742	32702	32715	
816	0	32791	32755	32764	32567	32775	32847	32764	32751	
817	0	32797	32759	32662	32719	32770	32551	32696	32721	
818	0	32717	32775	32679	32647	32763	32757	32743	32772	
819	0	32808	32763	32678	32735	32728	32615	32647	32703	
820	0	32807	32847	32671	32734	32743	32775	32467	32711	
821	0	32774	32759	32679	32695	32692	32764	32679	32647	
822	0	32748	32767	32587	32695	32767	32799	32661	32788	
823	0	32738	32865	32751	32725	32869	32764	32727	32685	
824	0	32713	32709	32869	32700	32867	32775	32705	32791	
825	0	32710	32791	32679	32576	32735	32743	32636	32639	
826	0	32737	32740	32757	32727	32749	32740	32658	32747	
827	0	32782	32845	32743	32733	32793	32826	32706	32751	
828	0	32795	32745	32627	32699	32815	32595	32647	32647	
829	0	32749	32829	32743	32719	32761	32759	32519	32615	
830	0	32717	32711	32647	32514	32797	32788	32714	32703	
831	0	32749	32767	32719	32660	32775	32599	32708	32757	
832	0	32758	32895	32716	32579	32803	32813	32507	32667	
833	0	32787	32742	32711	32741	32851	32738	32613	32647	
834	0	32799	32833	32747	32690	32745	32743	32477	32775	
835	0	32787	32723	32685	32682	32751	32730	32718	32783	
836	0	32787	32791	32751	32683	32721	32805	32619	32675	
837	0	32723	32831	32772	32655	32807	32663	32679	32671	
838	0	32756	32683	32734	32663	32843	32767	32639	32734	
839	0	32793	32811	32738	32639	32843	32890	32495	32711	
840	0	32719	32811	32630	32710	32765	32595	32666	32775	
841	0	32716	32813	32713	32550	32835	32751	32578	32661	
842	0	32692	32846	32682	32636	32762	32887	32711	32676	
843	0	32766	32717	32673	32567	32715	32605	32722	32721	
844	0	32729	32775	32627	32641	32797	32775	32498	32746	
845	0	32730	32855	32711	32547	32738	32807	32719	32715	
846	0	32767	32818	32775	32711	32751	32579	32662	32657	
847	0	32818	32901	32742	32707	32807	32719	32765	32647	
848	0	32740	32766	32759	32647	32773	32757	32691	32699	
849	0	32817	32827	32673	32582	32767	32845	32527	32730	
850	0	32860	32815	32701	32735	32735	32581	32659	32723	
851	0	32753	32749	32775	32599	32788	32717	32657	32751	
852	0	32793	32821	32877	32719	32783	32758	32547	32667	
853	0	32751	32753	32714	32627	32819	32791	32726	32677	
854	0	32757	32791	32715	32766	32743	32611	32547	32707	
855	0	32729	32842	32695	32732	32751	32783	32607	32711	
856	0	32724	32775	32791	32732	32835	32855	32507	32783	
857	0	32783	32743	32759	32647	32805	32839	32655	32750	
858	0	32781	32773	32742	32733	32751	32594	32668	32647	
859	0	32804	32805	32709	32679	32767	32749	32758	32734	
860	0	32736	32775	32739	32655	32767	32823	32690	32711	
861	0	32757	32791	32801	32737	32797	32599	32751	32717	
862	0	32695	32751	32726	32647	32759	32725	32686	32791	
863	0	32758	32689	32711	32733	32758	32877	32535	32751	
864	0	32730	32819	32647	32726	32718	32622	32641	32829	
865	0	32736	32793	32710	32790	32799	32702	32715	32755	
866	0	32730	32701	32631	32703	32775	32730	32543	32695	
867	0	32730	32827	32791	32531	32775	32868	32647	32676	
868	0	32775	32821	32670	32668	32753	32719	32633	32683	
869	0	32745	32763	32694	32623	32762	32750	32775	32612	
870	0	32786	32773	32621	32723	32783	32853	32668	32619	
871	0	32767	32833	32647	32615	32799	32831	32599	32766	
872	0	32741	32709	32567	32639	32812	32581	32758	32733	
873	0	32799	32759	32719	32733	32806	32715	32671	32811	
874	0	32732	32773	32811	32739	32735	32751	32591	32695	
875	0	32744	32727	32637	32766	32767	32605	32735	32808	
876	0	32732	32727	32743	32576	32833	32775	32647	32749	
877	0	32701	32799	32679	32679	32823	32801	32727	32703	
878	0	32751	32815	32811	32643	32783	32639	32547	32647	
879	0	32734	32729	32789	32743	32761	32828	32609	32668	
880	0	32809	32839	32706	32775	32759	32898	32574	32751	
881	0	32757	32867	32772	32629	32790	32571	32659	32773	
882	0	32815	32735	32635	32679	32865	32735	32633	32679	
883	0	32693	32820	32775	32559	32829	32707	32678	32679	
884	0	32691	32702	32763	32669	32756	32719	32605	32679	
885	0	32734	32739	32647	32722	32805	32807	32719	32766	
886	0	32762	32699	32787	32546	32843	32620	32571	32662	
887	0	32815	32847	32707	32663	32743	32749	32663	32647	
888	0	32849	32725	32685	32695	32709	32767	32551	32709	
889	0	32761	32767	32673	32591	32791	32703	32661	32663	
890	0	32759	32755	32645	32753	32773	32807	32611	32843	
891	0	32807	32703	32655	32588	32711	32771	32679	32755	
892	0	32817	32835	32738	32717	32727	32615	32603	32775	
893	0	32743	32751	32681	32563	32789	32819	32663	32669	
894	0	32736	32759	32831	32685	32837	32693	32660	32647	
895	0	32782	32813	32734	32539	32815	32773	32487	32733	
896	0	32752	32670	32747	32615	32903	32773	32671	32712	
897	0	32769	32747	32762	32599	32765	32745	32580	32751	
898	0	32805	32809	32662	32693	32756	32537	32695	32679	
899	0	32764	32739	32723	32639	32754	32795	32722	32655	
900	0	32694	32847	32613	32715	32731	32851	32629	32758	
901	0	32770	32736	32710	32699	32786	32575	32647	32710	
902	0	32747	32834	32725	32540	32755	32786	32569	32647	
903	0	32769	32722	32758	32660	32743	32821	32622	32715	
904	0	32772	32775	32775	32593	32699	32609	32551	32749	
905	0	32782	32677	32671	32731	32824	32877	32711	32623	
906	0	32764	32822	32703	32689	32775	32743	32591	32599	
907	0	32729	32903	32709	32559	32746	32713	32705	32749	
908	0	32751	32775	32567	32717	32726	32771	32659	32727	
909	0	32735	32767	32734	32743	32829	32719	32634	32678	
910	0	32759	32787	32831	32535	32739	32775	32644	32790	
911	0	32706	32839	32685	32630	32763	32559	32682	32726	
912	0	32786	32755	32738	32662	32811	32759	32690	32583	
913	0	32693	32769	32677	32731	32847	32863	32682	32647	
914	0	32740	32695	32709	32723	32805	32679	32681	32747	
915	0	32738	32775	32743	32631	32755	32755	32519	32803	
916	0	32735	32698	32685	32735	32743	32738	32721	32708	
917	0	32708	32711	32711	32751	32806	32743	32571	32739	
918	0	32773	32751	32723	32582	32774	32867	32662	32740	
919	0	32767	32785	32615	32693	32751	32547	32640	32703	
920	0	32828	32806	32683	32537	32773	32766	32551	32621	
921	0	32790	32754	32755	32763	32764	32802	32668	32735	
922	0	32756	32852	32647	32667	32773	32577	32734	32740	
923	0	32756	32745	32671	32685	32727	32753	32583	32757	
924	0	32825	32839	32623	32556	32775	32854	32643	32663	
925	0	32762	32769	32662	32723	32791	32615	32603	32755	
926	0	32775	32799	32690	32675	32851	32903	32735	32727	
927	0	32743	32843	32741	32594	32810	32690	32711	32647	
928	0	32669	32743	32795	32667	32767	32725	32519	32722	
929	0	32726	32743	32679	32525	32775	32797	32703	32799	
930	0	32754	32698	32755	32721	32767	32542	32519	32788	
931	0	32769	32791	32762	32731	32901	32722	32686	32711	
932	0	32759	32694	32764	32571	32790	32631	32607	32679	
933	0	32775	32803	32740	32695	32759	32695	32574	32767	
934	0	32847	32823	32731	32541	32770	32773	32583	32667	
935	0	32786	32743	32710	32725	32743	32780	32619	32769	
936	0	32794	32811	32751	32647	32845	32807	32636	32663	
937	0	32736	32703	32791	32662	32707	32863	32479	32687	
938	0	32775	32755	32759	32723	32751	32647	32807	32717	
939	0	32772	32805	32640	32535	32743	32734	32682	32631	
940	0	32809	32789	32727	32798	32845	32509	32695	32813	
941	0	32775	32810	32735	32790	32825	32737	32703	32751	
942	0	32741	32721	32705	32625	32743	32884	32475	32695	
943	0	32716	32727	32743	32621	32737	32775	32626	32581	
944	0	32767	32722	32684	32515	32881	32871	32586	32719	
945	0	32728	32773	32726	32647	32773	32711	32595	32679	
946	0	32749	32822	32775	32527	32749	32694	32503	32727	
947	0	32784	32785	32667	32679	32743	32876	32683	32646	
948	0	32678	32818	32745	32647	32715	32551	32707	32675	
949	0	32751	32839	32675	32735	32759	32736	32583	32834	
950	0	32795	32683	32764	32586	32755	32804	32766	32749	
951	0	32807	32797	32655	32709	32807	32821	32674	32743	
952	0	32775	32858	32791	32630	32797	32598	32487	32756	
953	0	32771	32741	32719	32812	32667	32812	32687	32603	
954	0	32756	32787	32765	32751	32727	32647	32690	32685	
955	0	32769	32739	32749	32631	32719	32711	32583	32677	
956	0	32775	32759	32748	32745	32807	32786	32678	32671	
957	0	32786	32815	32708	32709	32886	32809	32518	32756	
958	0	32770	32720	32599	32751	32795	32621	32646	32611	
959	0	32743	32826	32759	32593	32756	32789	32481	32647	
960	0	32743	32751	32663	32670	32755	32679	32669	32742	
961	0	32796	32806	32711	32519	32836	32722	32551	32775	
962	0	32734	32821	32743	32700	32743	32795	32727	32703	
963	0	32795	32757	32671	32507	32775	32743	32713	32647	
964	0	32771	32757	32751	32669	32820	32771	32579	32812	
965	0	32751	32783	32663	32629	32783	32775	32647	32727	
966	0	32788	32798	32755	32735	32775	32647	32454	32691	
967	0	32763	32710	32699	32711	32795	32807	32605	32647	
968	0	32740	32775	32607	32569	32729	32839	32551	32743	
969	0	32726	32767	32669	32757	32733	32591	32621	32738	
970	0	32717	32737	32745	32775	32783	32803	32609	32623	
971	0	32775	32745	32623	32546	32839	32559	32679	32775	
972	0	32789	32807	32735	32675	32815	32739	32691	32765	
973	0	32742	32836	32711	32582	32757	32753	32650	32743	
974	0	32754	32809	32599	32663	32838	32815	32609	32659	
975	0	32788	32775	32719	32703	32793	32869	32519	32725	
976	0	32783	32775	32729	32476	32775	32607	32629	32756	
977	0	32754	32817	32683	32621	32759	32743	32482	32706	
978	0	32775	32692	32775	32662	32801	32663	32601	32789	
979	0	32742	32791	32765	32599	32823	32734	32615	32789	
980	0	32790	32727	32690	32655	32743	32827	32743	32659	
981	0	32710	32829	32659	32738	32730	32823	32742	32667	
982	0	32751	32743	32717	32554	32775	32895	32695	32706	
983	0	32771	32809	32643	32679	32838	32639	32615	32716	
984	0	32719	32807	32726	32567	32859	32805	32686	32598	
985	0	32767	32802	32743	32736	32743	32798	32775	32743	
986	0	32759	32853	32669	32635	32733	32546	32727	32789	
987	0	32775	32775	32735	32705	32751	32819	32742	32663	
988	0	32740	32775	32727	32711	32847	32765	32671	32607	
989	0	32743	32716	32710	32501	32727	32793	32835	32647	
990	0	32742	32805	32733	32706	32647	32879	32703	32729	
991	0	32725	32799	32668	32647	32815	32620	32758	32631	
992	0	32701	32727	32713	32743	32825	32791	32725	32691	
993	0	32742	32775	32757	32599	32854	32797	32655	32710	
994	0	32714	32767	32662	32679	32831	32566	32647	32719	
995	0	32751	32820	32775	32747	32775	32770	32671	32643	
996	0	32737	32811	32734	32599	32791	32588	32539	32866	
997	0	32780	32884	32631	32647	32811	32719	32591	32767	
998	0	32826	32807	32725	32553	32827	32862	32617	32797	
999	0	32786	32745	32723	32731	32699	32845	32668	32703	
1000	0	32736	32879	32647	32734	32775	32847	32498	32726	
1001	0	32775	32743	32711	32663	32765	32554	32655	32742	
1002	0	32775	32815	32727	32647	32715	32765	32562	32687	
1003	0	32756	32647	32647	32487	32722	32694	32623	32743	
1004	0	32796	32807	32767	32695	32761	32759	32495	32687	
1005	0	32748	32774	32731	32615	32742	32823	32684	32621	
1006	0	32775	32793	32687	32721	32835	32725	32547	32671	
1007	0	32820	32805	32703	32743	32849	32811	32722	32727	
1008	0	32745	32725	32679	32626	32799	32795	32702	32721	
1009	0	32672	32823	32719	32644	32743	32674	32739	32679	
1010	0	32775	32775	32773	32599	32829	32775	32567	32767	
1011	0	32728	32780	32658	32735	32854	32653	32599	32786	
1012	0	32722	32771	32735	32670	32727	32743	32590	32669	
1013	0	32790	32812	32709	32477	32694	32950	32634	32722	
1014	0	32781	32837	32660	32647	32780	32717	32551	32679	
1015	0	32735	32767	32674	32630	32786	32869	32658	32701	
1016	0	32775	32891	32699	32711	32836	32846	32569	32647	
1017	0	32807	32735	32813	32787	32806	32570	32661	32783	
1018	0	32780	32787	32791	32719	32775	32635	32643	32813	
1019	0	32730	32655	32686	32681	32775	32703	32694	32710	
1020	0	32755	32775	32759	32566	32831	32806	32535	32668	
1021	0	32729	32759	32822	32719	32837	32775	32626	32706	
1022	0	32759	32791	32646	32607	32775	32463	32642	32795	
1023	0	32788	32791	32743	32679	32807	32745	32724	32711	
1024	0	32763	32691	32631	32629	32771	32887	32679	32683	
1025	0	32750	32787	32683	32743	32839	32747	32495	32642	
1026	0	32773	32743	32635	32747	32812	32827	32599	32711	
1027	0	32743	32791	32615	32663	32765	32818	32559	32659	
1028	0	32709	32787	32690	32722	32775	32694	32603	32595	
1029	0	32749	32801	32615	32525	32748	32751	32541	32770	
1030	0	32807	32730	32634	32700	32775	32885	32659	32748	
1031	0	32796	32839	32759	32771	32767	32584	32615	32647	
1032	0	32775	32677	32765	32610	32775	32727	32723	32799	
1033	0	32768	32765	32667	32711	32730	32835	32610	32719	
1034	0	32758	32711	32715	32604	32791	32583	32647	32690	
1035	0	32758	32799	32786	32725	32807	32767	32628	32594	
1036	0	32788	32743	32669	32615	32763	32835	32775	32791	
1037	0	32797	32757	32727	32679	32685	32582	32763	32773	
1038	0	32787	32823	32670	32727	32749	32811	32711	32695	
1039	0	32775	32823	32733	32669	32787	32826	32639	32647	
1040	0	32755	32818	32727	32647	32805	32559	32727	32769	
1041	0	32748	32903	32725	32567	32747	32687	32763	32799	
1042	0	32785	32850	32629	32727	32775	32787	32693	32637	
1043	0	32774	32745	32757	32726	32826	32754	32703	32731	
1044	0	32711	32807	32767	32639	32775	32866	32703	32743	
1045	0	32762	32690	32758	32679	32754	32589	32677	32617	
1046	0	32722	32735	32687	32679	32836	32823	32545	32722	
1047	0	32676	32723	32742	32572	32722	32855	32621	32747	
1048	0	32749	32783	32695	32671	32751	32821	32605	32627	
1049	0	32751	32725	32627	32719	32772	32797	32715	32767	
1050	0	32715	32846	32775	32555	32899	32775	32524	32727	
1051	0	32746	32786	32838	32699	32782	32603	32615	32732	
1052	0	32807	32855	32708	32683	32789	32775	32510	32647	
1053	0	32790	32743	32723	32671	32805	32833	32671	32747	
1054	0	32822	32805	32715	32681	32837	32591	32483	32735	
1055	0	32775	32719	32699	32671	32750	32747	32632	32599	
1056	0	32828	32809	32663	32743	32742	32700	32591	32725	
1057	0	32786	32755	32655	32727	32775	32615	32723	32735	
1058	0	32756	32861	32671	32605	32823	32775	32623	32705	
1059	0	32758	32773	32699	32603	32748	32700	32713	32703	
1060	0	32765	32783	32663	32527	32745	32763	32603	32718	
1061	0	32807	32748	32775	32673	32787	32769	32647	32799	
1062	0	32778	32798	32726	32711	32865	32590	32492	32718	
1063	0	32784	32731	32647	32620	32839	32719	32590	32804	
1064	0	32740	32791	32719	32701	32727	32831	32513	32791	
1065	0	32748	32747	32681	32527	32711	32620	32727	32759	
1066	0	32765	32811	32699	32698	32769	32821	32621	32621	
1067	0	32702	32893	32701	32615	32796	32804	32681	32603	
1068	0	32738	32759	32619	32707	32710	32803	32572	32677	
1069	0	32738	32797	32663	32683	32833	32859	32727	32609	
1070	0	32731	32787	32711	32643	32895	32647	32783	32743	
1071	0	32741	32799	32647	32758	32837	32895	32644	32711	
1072	0	32727	32695	32775	32714	32791	32789	32647	32763	
1073	0	32719	32787	32850	32543	32845	32723	32645	32727	
1074	0	32766	32700	32785	32775	32791	32679	32687	32787	
1075	0	32754	32871	32775	32741	32759	32707	32742	32647	
1076	0	32852	32699	32822	32670	32754	32766	32775	32663	
1077	0	32767	32807	32666	32698	32707	32598	32683	32757	
1078	0	32815	32775	32727	32503	32815	32742	32765	32775	
1079	0	32769	32761	32761	32719	32735	32821	32727	32693	
1080	0	32796	32717	32711	32679	32753	32775	32727	32685	
1081	0	32826	32743	32667	32727	32822	32804	32594	32588	
1082	0	32775	32690	32803	32607	32791	32596	32679	32775	
1083	0	32785	32815	32679	32695	32764	32742	32657	32793	
1084	0	32732	32742	32735	32619	32823	32677	32615	32821	
1085	0	32730	32775	32647	32743	32751	32799	32499	32667	
1086	0	32713	32858	32639	32719	32759	32822	32615	32755	
1087	0	32806	32687	32696	32679	32707	32617	32503	32747	
1088	0	32740	32807	32675	32711	32732	32738	32726	32751	
1089	0	32775	32743	32686	32567	32812	32827	32590	32678	
1090	0	32666	32821	32830	32738	32749	32743	32647	32775	
1091	0	32764	32721	32775	32670	32757	32805	32694	32739	
1092	0	32729	32727	32727	32617	32775	32751	32675	32603	
1093	0	32758	32717	32699	32754	32729	32775	32775	32683	
1094	0	32758	32811	32732	32691	32757	32718	32687	32707	
1095	0	32736	32757	32663	32541	32762	32770	32675	32647	
1096	0	32743	32839	32731	32605	32749	32741	32543	32791	
1097	0	32743	32839	32775	32498	32846	32597	32694	32731	
1098	0	32783	32839	32694	32727	32739	32795	32542	32671	
1099	0	32742	32863	32698	32711	32791	32591	32639	32663	
1100	0	32807	32833	32807	32547	32834	32863	32759	32719	
1101	0	32707	32834	32733	32641	32806	32903	32742	32773	
1102	0	32780	32679	32767	32615	32791	32583	32599	32700	
1103	0	32707	32741	32731	32739	32719	32719	32639	32638	
1104	0	32710	32707	32607	32750	32847	32713	32765	32855	
1105	0	32761	32775	32646	32621	32805	32647	32675	32820	
1106	0	32692	32677	32711	32699	32769	32849	32794	32695	
1107	0	32819	32789	32683	32510	32775	32636	32685	32739	
1108	0	32785	32831	32711	32626	32818	32821	32731	32750	
1109	0	32754	32753	32693	32605	32817	32871	32715	32815	
1110	0	32740	32799	32815	32783	32807	32627	32708	32601	
1111	0	32703	32713	32771	32740	32719	32749	32681	32765	
1112	0	32799	32810	32659	32560	32695	32855	32742	32647	
1113	0	32795	32769	32667	32685	32723	32631	32759	32737	
1114	0	32775	32731	32682	32543	32773	32771	32564	32701	
1115	0	32771	32839	32703	32710	32763	32815	32643	32603	
1116	0	32792	32709	32629	32663	32839	32775	32647	32614	
1117	0	32745	32786	32677	32691	32789	32775	32726	32741	
1118	0	32748	32835	32731	32583	32813	32747	32711	32837	
1119	0	32718	32764	32815	32637	32793	32621	32473	32791	
1120	0	32753	32823	32742	32571	32751	32762	32621	32719	
1121	0	32790	32807	32679	32711	32769	32703	32533	32743	
1122	0	32790	32819	32757	32549	32775	32657	32597	32699	
1123	0	32724	32858	32693	32676	32839	32749	32487	32695	
1124	0	32721	32727	32709	32572	32813	32806	32623	32711	
1125	0	32729	32835	32647	32671	32738	32663	32582	32727	
1126	0	32738	32791	32667	32562	32775	32821	32687	32690	
1127	0	32807	32775	32775	32713	32764	32818	32550	32799	
1128	0	32764	32834	32775	32473	32790	32801	32698	32663	
1129	0	32677	32695	32710	32708	32807	32639	32551	32655	
1130	0	32727	32765	32623	32681	32769	32775	32663	32659	
1131	0	32794	32775	32666	32756	32758	32863	32775	32673	
1132	0	32782	32687	32548	32607	32827	32593	32713	32725	
1133	0	32791	32775	32647	32735	32775	32802	32607	32633	
1134	0	32816	32781	32617	32563	32762	32775	32501	32724	
1135	0	32754	32727	32740	32647	32788	32631	32591	32799	
1136	0	32743	32709	32775	32700	32831	32705	32465	32821	
1137	0	32690	32679	32707	32535	32767	32844	32695	32583	
1138	0	32738	32735	32775	32702	32709	32632	32527	32659	
1139	0	32787	32829	32775	32647	32790	32791	32655	32647	
1140	0	32738	32722	32723	32698	32791	32850	32724	32707	
1141	0	32787	32763	32662	32559	32789	32615	32691	32753	
1142	0	32749	32759	32690	32685	32691	32751	32642	32702	
1143	0	32784	32713	32607	32551	32758	32869	32729	32689	
1144	0	32815	32863	32757	32719	32731	32613	32694	32715	
1145	0	32805	32757	32711	32687	32799	32763	32735	32727	
1146	0	32718	32746	32669	32695	32799	32761	32561	32662	
1147	0	32720	32771	32738	32737	32774	32562	32623	32787	
1148	0	32674	32817	32731	32548	32786	32745	32662	32716	
1149	0	32812	32869	32638	32655	32753	32579	32647	32757	
1150	0	32770	32758	32751	32557	32834	32755	32581	32689	
1151	0	32780	32845	32671	32703	32756	32797	32731	32707	
1152	0	32716	32695	32775	32691	32731	32534	32743	32691	
1153	0	32799	32833	32773	32647	32799	32787	32763	32602	
1154	0	32745	32809	32695	32617	32801	32614	32677	32731	
1155	0	32788	32839	32775	32597	32743	32764	32517	32731	
1156	0	32727	32829	32751	32644	32799	32671	32655	32669	
1157	0	32775	32687	32747	32695	32751	32829	32762	32695	
1158	0	32796	32851	32665	32576	32823	32811	32694	32559	
1159	0	32784	32775	32767	32644	32810	32735	32708	32647	
1160	0	32838	32791	32749	32679	32795	32887	32675	32655	
1161	0	32774	32791	32663	32539	32764	32695	32751	32599	
1162	0	32745	32799	32838	32647	32787	32767	32711	32633	
1163	0	32750	32802	32775	32605	32854	32739	32667	32695	
1164	0	32725	32843	32685	32671	32735	32751	32629	32665	
1165	0	32698	32775	32825	32673	32808	32775	32679	32700	
1166	0	32671	32727	32855	32655	32767	32671	32525	32826	
1167	0	32751	32811	32694	32722	32858	32721	32667	32734	
1168	0	32781	32807	32764	32674	32731	32841	32549	32839	
1169	0	32742	32749	32669	32573	32758	32563	32695	32743	
1170	0	32749	32767	32671	32694	32775	32791	32765	32695	
1171	0	32740	32715	32663	32565	32743	32815	32647	32734	
1172	0	32765	32771	32764	32727	32791	32597	32671	32719	
1173	0	32788	32727	32699	32759	32791	32727	32501	32759	
1174	0	32759	32775	32709	32537	32791	32558	32643	32727	
1175	0	32723	32786	32719	32687	32762	32751	32495	32771	
1176	0	32742	32811	32710	32548	32799	32871	32722	32789	
1177	0	32734	32806	32703	32702	32759	32562	32623	32690	
1178	0	32751	32785	32706	32701	32806	32775	32637	32711	
1179	0	32807	32847	32690	32638	32811	32855	32723	32687	
1180	0	32797	32771	32749	32659	32771	32641	32691	32582	
1181	0	32743	32823	32711	32534	32787	32855	32708	32747	
1182	0	32782	32707	32647	32731	32807	32713	32607	32715	
1183	0	32738	32850	32805	32633	32707	32786	32748	32757	
1184	0	32788	32725	32767	32695	32750	32751	32627	32717	
1185	0	32749	32785	32639	32727	32791	32621	32687	32797	
1186	0	32754	32797	32727	32638	32775	32743	32463	32788	
1187	0	32716	32739	32703	32683	32747	32775	32667	32647	
1188	0	32668	32809	32573	32599	32751	32750	32586	32623	
1189	0	32744	32743	32661	32735	32775	32737	32710	32718	
1190	0	32820	32823	32635	32727	32795	32791	32602	32703	
1191	0	32798	32713	32775	32751	32789	32855	32655	32631	
1192	0	32774	32706	32735	32659	32843	32635	32591	32631	
1193	0	32787	32759	32660	32708	32767	32714	32743	32734	
1194	0	32802	32731	32691	32675	32729	32787	32619	32743	
1195	0	32791	32821	32577	32493	32815	32679	32689	32647	
1196	0	32805	32845	32692	32661	32799	32646	32614	32605	
1197	0	32842	32738	32732	32514	32773	32775	32709	32759	
1198	0	32786	32775	32805	32627	32858	32910	32690	32727	
1199	0	32773	32821	32843	32481	32794	32631	32593	32787	
1200	0	32749	32729	32741	32662	32733	32683	32663	32720	
1201	0	32788	32773	32703	32621	32765	32748	32551	32610	
1202	0	32734	32718	32615	32811	32807	32706	32619	32763	
1203	0	32814	32775	32755	32767	32835	32823	32591	32797	
1204	0	32699	32709	32747	32549	32769	32846	32673	32687	
1205	0	32804	32799	32623	32723	32762	32699	32749	32627	
1206	0	32743	32691	32673	32611	32775	32743	32632	32742	
1207	0	32798	32775	32715	32767	32810	32749	32759	32749	
1208	0	32714	32819	32686	32717	32827	32786	32628	32775	
1209	0	32747	32719	32699	32815	32726	32524	32655	32685	
1210	0	32797	32797	32695	32727	32739	32751	32521	32748	
1211	0	32767	32724	32770	32571	32732	32791	32695	32799	
1212	0	32770	32825	32711	32654	32843	32574	32557	32727	
1213	0	32787	32823	32804	32495	32825	32815	32599	32634	
1214	0	32775	32753	32707	32647	32823	32903	32703	32669	
1215	0	32775	32799	32617	32588	32723	32662	32738	32727	
1216	0	32760	32791	32765	32743	32775	32695	32794	32695	
1217	0	32732	32833	32658	32639	32803	32803	32677	32708	
1218	0	32820	32845	32671	32748	32819	32588	32518	32699	
1219	0	32788	32763	32719	32677	32731	32788	32681	32782	
1220	0	32765	32766	32735	32547	32743	32791	32525	32735	
1221	0	32788	32775	32729	32713	32765	32775	32682	32711	
1222	0	32743	32749	32747	32589	32819	32603	32641	32775	
1223	0	32775	32812	32709	32703	32799	32764	32663	32739	
1224	0	32759	32831	32713	32577	32773	32799	32580	32743	
1225	0	32773	32775	32647	32671	32837	32783	32639	32775	
1226	0	32741	32708	32711	32539	32797	32637	32557	32740	
1227	0	32729	32876	32703	32615	32743	32759	32690	32727	
1228	0	32813	32671	32646	32666	32775	32783	32703	32749	
1229	0	32743	32805	32709	32558	32869	32581	32647	32679	
1230	0	32743	32835	32631	32631	32789	32775	32731	32623	
1231	0	32713	32802	32709	32743	32747	32594	32562	32679	
1232	0	32729	32803	32791	32739	32759	32715	32627	32623	
1233	0	32803	32755	32663	32679	32828	32775	32546	32615	
1234	0	32738	32786	32773	32525	32811	32573	32679	32647	
1235	0	32758	32855	32673	32727	32773	32791	32583	32682	
1236	0	32724	32783	32675	32642	32738	32647	32647	32791	
1237	0	32780	32791	32739	32739	32807	32587	32487	32700	
1238	0	32791	32846	32627	32710	32826	32755	32589	32834	
1239	0	32782	32725	32763	32592	32814	32605	32662	32759	
1240	0	32808	32763	32647	32679	32723	32743	32687	32743	
1241	0	32804	32807	32703	32558	32693	32900	32626	32676	
1242	0	32807	32747	32701	32637	32744	32692	32803	32682	
1243	0	32822	32839	32667	32583	32813	32774	32788	32715	
1244	0	32706	32743	32772	32703	32822	32717	32699	32794	
1245	0	32692	32775	32775	32735	32823	32595	32566	32762	
1246	0	32766	32827	32756	32716	32758	32753	32655	32721	
1247	0	32738	32765	32727	32715	32718	32807	32599	32711	
1248	0	32748	32817	32637	32620	32775	32766	32713	32647	
1249	0	32679	32775	32756	32711	32790	32743	32706	32739	
1250	0	32675	32773	32715	32659	32773	32695	32671	32663	
1251	0	32717	32749	32743	32738	32758	32526	32705	32623	
1252	0	32717	32789	32763	32687	32775	32799	32727	32647	
1253	0	32758	32759	32685	32669	32815	32804	32701	32644	
1254	0	32765	32681	32711	32547	32832	32605	32551	32647	
1255	0	32834	32794	32612	32751	32799	32787	32626	32675	
1256	0	32789	32775	32673	32695	32771	32809	32519	32682	
1257	0	32726	32661	32647	32804	32735	32605	32663	32655	
1258	0	32789	32749	32773	32764	32695	32743	32637	32647	
1259	0	32728	32806	32623	32739	32729	32877	32703	32647	
1260	0	32777	32815	32663	32714	32740	32658	32543	32583	
1261	0	32725	32795	32775	32738	32783	32775	32694	32686	
1262	0	32764	32802	32739	32707	32802	32662	32487	32749	
1263	0	32740	32641	32690	32594	32775	32734	32709	32748	
1264	0	32684	32775	32745	32679	32867	32595	32615	32823	
1265	0	32738	32815	32861	32539	32775	32724	32530	32829	
1266	0	32722	32732	32898	32607	32739	32847	32546	32786	
1267	0	32716	32727	32785	32671	32795	32551	32570	32707	
1268	0	32707	32828	32730	32785	32846	32711	32646	32741	
1269	0	32647	32591	32775	32730	32818	32775	32507	32795	
1270	0	32647	32711	32644	32739	32833	32583	32611	32753	
1271	0	32631	32610	32695	32727	32813	32729	32669	32687	
1272	0	32609	32588	32682	32551	32811	32723	32575	32721	
1273	0	32608	32609	32658	32690	32783	32548	32599	32775	
1274	0	32593	32594	32683	32547	32839	32727	32534	32787	
1275	0	32559	32598	32683	32610	32889	32791	32538	32775	
1276	0	32583	32747	32797	32483	32931	32598	32471	32803	
1277	0	32553	32727	32806	32647	32901	32767	32487	32787	
1278	0	32604	32666	32855	32470	32837	32818	32527	32724	
1279	0	32598	32773	32891	32631	32767	32799	32643	32708	
1280	0	32666	32966	32807	32434	32845	32614	32621	32727	
1281	0	32646	32929	32866	32529	32821	32775	32647	32760	
1282	0	32652	32930	32867	32455	32874	32813	32597	32897	
1283	0	32617	32975	32911	32551	32895	32722	32631	32807	
1284	0	32658	33127	32807	32359	32899	32885	32539	32735	
1285	0	32741	33022	32859	32421	32841	32935	32495	32718	
1286	0	32808	33174	32831	32431	32823	32885	32591	32615	
1287	0	32823	33267	32914	32407	32879	32891	32519	32583	
1288	0	32868	33317	32845	32391	32860	33019	32551	32605	
1289	0	32903	33375	32862	32450	32855	33031	32471	32583	
1290	0	32897	33327	32899	32359	32853	32867	32709	32661	
1291	0	32933	33335	32799	32523	32836	33051	32745	32633	
1292	0	32989	33165	32767	32567	32795	32999	32831	32543	
1293	0	33082	33159	32671	32661	32733	32815	32719	32605	
1294	0	33125	33186	32707	32711	32682	32637	32827	32583	
1295	0	33014	33051	32647	32621	32706	32801	32787	32503	
1296	0	33001	33037	32702	32666	32787	32719	32803	32551	
1297	0	32996	32943	32735	32555	32711	32573	32647	32487	
1298	0	32968	32980	32646	32756	32635	32829	32847	32459	
1299	0	33023	32871	32564	32719	32543	32747	33046	32407	
1300	0	33004	32823	32605	32962	32647	32815	32971	32343	
1301	0	33002	32787	32455	32979	32575	32830	33052	32447	
1302	0	33029	32518	32479	32813	32514	32489	32983	32349	
1303	0	33044	32571	32459	33015	32563	32673	33202	32335	
1304	0	33087	32487	32377	33119	32501	32577	33247	32315	
1305	0	33073	32399	32439	33167	32506	32421	33190	32391	
1306	0	33106	32391	32340	33159	32438	32577	33223	32387	
1307	0	33080	32391	32335	32999	32439	32658	33023	32445	
1308	0	33071	32309	32391	33147	32516	32655	33127	32439	
1309	0	33055	32209	32391	33047	32487	32589	33143	32557	
1310	0	32860	32087	32450	33133	32546	32437	32858	32590	
1311	0	32800	32231	32567	33014	32635	32537	32799	32693	
1312	0	32645	32303	32586	32884	32735	32583	32495	32839	
1313	0	32492	32343	32643	32843	32822	32470	32507	32895	
1314	0	32511	32495	32623	32756	32946	32647	32262	32967	
1315	0	32463	32391	32845	32663	32943	32678	32303	32981	
1316	0	32477	32493	32807	32551	32848	32439	32167	33063	
1317	0	32434	32519	32809	32635	32875	32607	32263	33099	
1318	0	32421	32575	32783	32455	32882	32733	32093	33012	
1319	0	32447	32630	32775	32554	32975	32600	32245	32971	
1320	0	32487	32549	32807	32405	33037	32742	32233	33003	
1321	0	32487	32621	32772	32583	33021	32715	32359	32965	
1322	0	32532	32691	32823	32463	32995	32742	32242	32877	
1323	0	32541	32818	32782	32543	32918	32667	32363	32899	
1324	0	32518	32669	32787	32487	32895	32799	32327	32959	
1325	0	32527	32773	32803	32615	32932	32827	32423	32959	
1326	0	32602	32775	32724	32551	32914	32507	32467	32943	
1327	0	32576	32799	32829	32667	32871	32759	32567	32895	
1328	0	32643	32797	32739	32491	32831	32837	32562	32791	
1329	0	32687	32949	32775	32643	32804	32607	32637	32806	
1330	0	32684	32853	32751	32703	32842	32819	32514	32757	
1331	0	32724	32962	32834	32583	32813	32643	32582	32647	
1332	0	32773	32783	32758	32613	32791	32873	32562	32679	
1333	0	32775	32935	32798	32554	32767	32927	32623	32647	
1334	0	32773	32940	32771	32647	32751	32643	32495	32685	
1335	0	32882	32843	32775	32614	32845	32799	32694	32722	
1336	0	32783	32935	32804	32509	32871	32623	32580	32735	
1337	0	32753	32835	32821	32641	32775	32855	32701	32690	
1338	0	32792	32887	32773	32429	32749	32855	32639	32725	
1339	0	32783	32939	32743	32602	32773	32687	32701	32695	
1340	0	32876	32887	32655	32471	32751	32759	32595	32767	
1341	0	32775	32815	32775	32647	32790	32753	32710	32791	
1342	0	32839	32843	32623	32487	32751	32827	32635	32723	
1343	0	32807	32923	32745	32662	32727	32710	32791	32705	
1344	0	32774	32803	32628	32573	32747	32847	32623	32695	
1345	0	32770	32863	32723	32682	32805	32854	32757	32724	
1346	0	32751	32879	32799	32595	32775	32589	32706	32743	
1347	0	32671	32775	32708	32734	32818	32812	32689	32767	
1348	0	32731	32829	32766	32571	32764	32867	32541	32684	
1349	0	32786	32847	32647	32731	32775	32615	32663	32629	
1350	0	32787	32791	32743	32602	32847	32791	32543	32591	
1351	0	32826	32821	32754	32739	32799	32780	32658	32535	
1352	0	32752	32722	32703	32700	32775	32639	32505	32603	
1353	0	32815	32693	32749	32711	32715	32791	32647	32719	
1354	0	32784	32775	32719	32551	32770	32758	32723	32743	
1355	0	32766	32791	32803	32692	32775	32729	32557	32775	
1356	0	32745	32818	32725	32465	32742	32578	32714	32799	
1357	0	32743	32703	32743	32647	32762	32787	32551	32743	
1358	0	32744	32802	32646	32579	32807	32786	32643	32705	
1359	0	32756	32775	32682	32647	32819	32573	32521	32787	
1360	0	32747	32796	32658	32487	32804	32751	32662	32789	
1361	0	32750	32783	32703	32676	32834	32869	32535	32726	
1362	0	32714	32850	32727	32681	32747	32597	32639	32679	
1363	0	32761	32841	32674	32693	32788	32775	32567	32731	
1364	0	32754	32730	32687	32590	32743	32827	32647	32753	
1365	0	32708	32835	32711	32725	32767	32543	32523	32691	
1366	0	32715	32831	32820	32765	32772	32749	32621	32647	
1367	0	32767	32749	32791	32641	32845	32653	32573	32675	
1368	0	32771	32807	32747	32767	32839	32775	32692	32647	
1369	0	32751	32820	32756	32663	32837	32852	32655	32665	
1370	0	32717	32783	32703	32711	32751	32839	32647	32615	
1371	0	32759	32807	32758	32570	32758	32669	32742	32631	
1372	0	32711	32787	32671	32690	32711	32803	32775	32687	
1373	0	32724	32762	32679	32621	32783	32903	32661	32703	
1374	0	32778	32751	32627	32746	32767	32699	32543	32786	
1375	0	32751	32775	32710	32723	32763	32689	32677	32807	
1376	0	32863	32740	32717	32711	32810	32717	32498	32698	
1377	0	32826	32859	32751	32579	32742	32559	32655	32679	
1378	0	32757	32855	32695	32647	32711	32732	32551	32679	
1379	0	32758	32727	32642	32503	32767	32816	32695	32676	
1380	0	32781	32775	32703	32663	32745	32826	32719	32724	
1381	0	32838	32820	32653	32549	32765	32535	32575	32647	
1382	0	32751	32875	32770	32631	32787	32775	32621	32797	
1383	0	32703	32695	32677	32559	32803	32751	32538	32775	
1384	0	32769	32815	32791	32709	32841	32751	32661	32767	
1385	0	32739	32738	32799	32687	32761	32867	32613	32655	
1386	0	32758	32791	32646	32695	32740	32647	32621	32663	
1387	0	32742	32759	32643	32687	32795	32823	32547	32634	
1388	0	32757	32735	32647	32612	32759	32843	32685	32605	
1389	0	32729	32695	32711	32719	32789	32635	32623	32563	
1390	0	32718	32854	32682	32629	32820	32756	32711	32639	
1391	0	32767	32743	32643	32738	32775	32844	32706	32599	
1392	0	32792	32745	32706	32511	32719	32671	32620	32637	
1393	0	32711	32815	32669	32647	32701	32769	32655	32677	
1394	0	32790	32763	32729	32545	32772	32893	32511	32623	
1395	0	32808	32747	32695	32668	32786	32726	32703	32719	
1396	0	32762	32822	32743	32515	32771	32571	32708	32769	
1397	0	32780	32767	32683	32701	32821	32739	32798	32799	
1398	0	32791	32772	32723	32611	32821	32729	32679	32731	
1399	0	32788	32839	32705	32699	32737	32759	32674	32668	
1400	0	32759	32740	32684	32731	32748	32884	32539	32631	
1401	0	32760	32822	32727	32683	32793	32661	32591	32675	
1402	0	32775	32756	32775	32703	32771	32762	32498	32688	
1403	0	32775	32831	32775	32693	32775	32773	32717	32738	
1404	0	32732	32681	32679	32629	32771	32871	32735	32747	
1405	0	32727	32807	32703	32749	32813	32606	32591	32743	
1406	0	32684	32879	32763	32764	32727	32799	32647	32740	
1407	0	32751	32743	32799	32725	32766	32829	32511	32743	
1408	0	32714	32797	32802	32731	32819	32599	32615	32703	
1409	0	32738	32813	32687	32747	32879	32787	32562	32743	
1410	0	32762	32701	32647	32720	32855	32815	32623	32687	
1411	0	32758	32743	32691	32634	32755	32575	32535	32647	
1412	0	32798	32815	32743	32687	32751	32767	32682	32681	
1413	0	32773	32751	32759	32603	32722	32855	32694	32639	
1414	0	32782	32775	32591	32684	32834	32567	32563	32683	
1415	0	32796	32839	32617	32571	32860	32753	32719	32695	
1416	0	32774	32754	32662	32687	32855	32838	32599	32638	
1417	0	32818	32790	32657	32529	32787	32599	32613	32734	
1418	0	32863	32866	32705	32699	32759	32759	32519	32646	
1419	0	32735	32738	32709	32685	32863	32825	32647	32660	
1420	0	32705	32823	32702	32541	32791	32748	32699	32685	
1421	0	32808	32845	32775	32671	32819	32743	32662	32635	
1422	0	32753	32795	32673	32663	32740	32813	32559	32659	
1423	0	32771	32830	32647	32690	32727	32607	32643	32710	
1424	0	32717	32823	32775	32591	32719	32775	32500	32711	
1425	0	32781	32743	32667	32767	32826	32631	32679	32670	
1426	0	32797	32775	32735	32637	32767	32783	32535	32660	
1427	0	32740	32813	32707	32607	32772	32775	32639	32814	
1428	0	32752	32691	32670	32711	32818	32519	32617	32773	
1429	0	32745	32767	32670	32537	32788	32725	32689	32711	
1430	0	32783	32743	32647	32717	32810	32735	32535	32767	
1431	0	32799	32758	32775	32739	32773	32829	32647	32735	
1432	0	32727	32797	32775	32559	32790	32759	32511	32647	
1433	0	32746	32767	32751	32631	32827	32766	32658	32689	
1434	0	32807	32799	32679	32556	32806	32863	32555	32613	
1435	0	32761	32735	32754	32767	32815	32687	32767	32667	
1436	0	32741	32828	32623	32699	32739	32739	32551	32647	
1437	0	32756	32853	32735	32663	32747	32647	32642	32724	
1438	0	32759	32739	32722	32723	32725	32468	32599	32639	
1439	0	32767	32823	32721	32553	32694	32722	32717	32641	
1440	0	32825	32852	32694	32632	32775	32701	32518	32671	
1441	0	32843	32733	32626	32612	32797	32772	32641	32709	
1442	0	32834	32887	32695	32635	32775	32807	32751	32661	
1443	0	32772	32759	32763	32663	32803	32762	32722	32783	
1444	0	32743	32859	32733	32531	32845	32836	32583	32773	
1445	0	32740	32799	32791	32719	32845	32759	32583	32713	
1446	0	32703	32741	32681	32566	32870	32775	32455	32739	
1447	0	32730	32731	32718	32694	32812	32806	32677	32783	
1448	0	32730	32807	32609	32639	32733	32819	32679	32735	
1449	0	32715	32847	32612	32716	32736	32559	32733	32690	
1450	0	32784	32715	32666	32630	32799	32701	32679	32759	
1451	0	32708	32847	32756	32691	32799	32563	32722	32730	
1452	0	32743	32711	32723	32663	32815	32771	32679	32775	
1453	0	32751	32726	32682	32702	32789	32687	32679	32823	
1454	0	32799	32835	32795	32711	32719	32767	32751	32735	
1455	0	32751	32683	32757	32696	32726	32866	32743	32727	
1456	0	32782	32795	32611	32647	32756	32606	32639	32671	
1457	0	32791	32775	32735	32640	32807	32823	32686	32667	
1458	0	32834	32772	32865	32717	32756	32619	32546	32719	
1459	0	32726	32855	32646	32692	32796	32791	32681	32690	
1460	0	32743	32751	32695	32499	32805	32822	32527	32718	
1461	0	32736	32833	32629	32689	32805	32583	32621	32685	
1462	0	32769	32775	32706	32687	32887	32799	32512	32766	
1463	0	32731	32764	32767	32770	32735	32647	32679	32703	
1464	0	32660	32775	32705	32749	32732	32737	32615	32799	
1465	0	32758	32692	32772	32597	32771	32852	32647	32775	
1466	0	32742	32797	32655	32655	32831	32591	32694	32725	
1467	0	32798	32747	32727	32629	32843	32726	32739	32711	
1468	0	32775	32803	32735	32701	32804	32853	32683	32765	
1469	0	32811	32759	32647	32631	32748	32605	32731	32735	
1470	0	32735	32711	32694	32727	32733	32817	32659	32818	
1471	0	32714	32775	32623	32706	32735	32843	32588	32716	
1472	0	32679	32765	32735	32659	32766	32676	32723	32767	
1473	0	32773	32870	32701	32732	32795	32775	32606	32724	
1474	0	32754	32845	32739	32694	32775	32860	32737	32695	
1475	0	32801	32791	32739	32674	32819	32715	32667	32663	
1476	0	32819	32727	32717	32617	32775	32804	32647	32698	
1477	0	32775	32807	32775	32743	32807	32863	32523	32698	
1478	0	32737	32669	32683	32615	32789	32671	32645	32719	
1479	0	32727	32775	32747	32724	32859	32793	32589	32767	
1480	0	32743	32753	32827	32647	32769	32895	32703	32727	
1481	0	32734	32767	32711	32491	32731	32563	32733	32671	
1482	0	32723	32719	32845	32677	32741	32749	32723	32647	
1483	0	32793	32810	32767	32617	32794	32845	32615	32598	
1484	0	32836	32855	32694	32731	32794	32604	32703	32698	
1485	0	32707	32867	32745	32631	32773	32847	32759	32695	
1486	0	32741	32851	32749	32583	32801	32687	32665	32756	
1487	0	32791	32774	32754	32627	32827	32791	32775	32773	
1488	0	32822	32791	32790	32737	32823	32898	32663	32674	
1489	0	32731	32764	32655	32638	32827	32564	32706	32775	
1490	0	32727	32843	32669	32701	32743	32751	32661	32799	
1491	0	32753	32797	32765	32607	32743	32811	32570	32775	
1492	0	32698	32775	32711	32705	32773	32621	32605	32783	
1493	0	32743	32785	32733	32610	32815	32759	32527	32756	
1494	0	32855	32811	32647	32689	32847	32775	32666	32767	
1495	0	32791	32738	32679	32519	32762	32558	32519	32803	
1496	0	32817	32829	32751	32646	32726	32831	32595	32759	
1497	0	32780	32815	32623	32674	32805	32765	32461	32721	
1498	0	32728	32765	32662	32631	32811	32739	32601	32597	
1499	0	32743	32799	32669	32679	32877	32775	32573	32655	
1500	0	32745	32708	32719	32557	32690	32563	32622	32701	
1501	0	32775	32839	32765	32641	32743	32727	32749	32686	
1502	0	32764	32695	32641	32572	32767	32927	32687	32711	
1503	0	32795	32747	32759	32735	32839	32623	32614	32699	
1504	0	32767	32862	32747	32735	32775	32764	32641	32709	
1505	0	32754	32753	32629	32757	32775	32833	32555	32743	
1506	0	32745	32807	32749	32767	32751	32535	32611	32721	
1507	0	32715	32802	32731	32683	32701	32791	32599	32700	
1508	0	32747	32719	32690	32687	32730	32819	32727	32702	
1509	0	32751	32833	32698	32587	32809	32837	32582	32726	
1510	0	32791	32758	32747	32716	32797	32803	32740	32711	
1511	0	32775	32739	32725	32639	32823	32527	32683	32837	
1512	0	32792	32812	32705	32677	32763	32687	32775	32702	
1513	0	32793	32839	32623	32578	32766	32737	32671	32671	
1514	0	32735	32751	32685	32635	32786	32821	32566	32721	
1515	0	32760	32803	32673	32604	32754	32765	32757	32718	
1516	0	32783	32715	32734	32731	32799	32923	32749	32716	
1517	0	32742	32786	32725	32687	32762	32631	32513	32711	
1518	0	32722	32815	32658	32519	32753	32711	32615	32742	
1519	0	32731	32747	32767	32671	32767	32759	32508	32723	
1520	0	32775	32748	32726	32503	32775	32549	32662	32663	
1521	0	32775	32773	32635	32703	32818	32724	32571	32623	
1522	0	32727	32791	32766	32647	32858	32766	32701	32692	
1523	0	32730	32773	32751	32730	32789	32590	32701	32743	
1524	0	32708	32819	32775	32647	32783	32743	32661	32709	
1525	0	32740	32739	32742	32815	32767	32847	32661	32679	
1526	0	32730	32751	32662	32823	32750	32570	32767	32683	
1527	0	32757	32775	32773	32718	32791	32748	32674	32723	
1528	0	32748	32663	32690	32679	32771	32834	32555	32791	
1529	0	32754	32787	32749	32715	32825	32599	32612	32757	
1530	0	32801	32807	32722	32677	32853	32807	32559	32647	
1531	0	32783	32709	32647	32589	32751	32885	32755	32697	
1532	0	32752	32838	32723	32666	32775	32646	32551	32687	
1533	0	32796	32759	32711	32589	32725	32801	32723	32647	
1534	0	32775	32709	32691	32681	32753	32893	32620	32713	
1535	0	32768	32788	32757	32627	32756	32642	32692	32639	
1536	0	32783	32802	32694	32655	32785	32807	32749	32534	
1537	0	32768	32739	32630	32594	32775	32647	32798	32685	
1538	0	32837	32765	32731	32459	32735	32727	32771	32717	
1539	0	32743	32771	32695	32670	32711	32775	32628	32801	
1540	0	32770	32707	32789	32681	32763	32519	32719	32807	
1541	0	32712	32823	32750	32623	32750	32773	32745	32743	
1542	0	32735	32799	32701	32799	32698	32562	32647	32787	
1543	0	32806	32795	32679	32837	32775	32751	32708	32653	
1544	0	32762	32683	32687	32689	32815	32821	32588	32659	
1545	0	32740	32743	32739	32643	32788	32597	32624	32647	
1546	0	32754	32775	32655	32575	32709	32775	32538	32615	
1547	0	32783	32773	32724	32711	32754	32765	32641	32646	
1548	0	32788	32810	32639	32676	32751	32775	32535	32625	
1549	0	32793	32806	32731	32738	32791	32799	32640	32639	
1550	0	32749	32807	32655	32730	32775	32739	32495	32626	
1551	0	32748	32815	32635	32725	32815	32561	32655	32614	
1552	0	32733	32783	32749	32711	32827	32756	32503	32659	
1553	0	32732	32727	32771	32575	32761	32591	32647	32605	
1554	0	32755	32799	32661	32711	32831	32735	32550	32623	
1555	0	32766	32699	32789	32571	32832	32791	32623	32687	
1556	0	32775	32790	32703	32771	32871	32685	32581	32711	
1557	0	32734	32811	32749	32743	32847	32788	32663	32775	
1558	0	32760	32659	32791	32675	32791	32871	32594	32743	
1559	0	32756	32719	32655	32697	32709	32631	32686	32702	
1560	0	32731	32775	32658	32730	32703	32791	32717	32806	
1561	0	32747	32716	32703	32635	32751	32826	32695	32707	
1562	0	32769	32747	32761	32551	32807	32555	32671	32771	
1563	0	32742	32774	32723	32691	32843	32677	32745	32832	
1564	0	32720	32699	32663	32635	32803	32855	32685	32721	
1565	0	32706	32845	32748	32676	32703	32551	32761	32742	
1566	0	32810	32826	32740	32729	32775	32783	32755	32695	
1567	0	32740	32721	32666	32518	32831	32655	32749	32754	
1568	0	32758	32839	32727	32667	32743	32813	32647	32679	
1569	0	32799	32731	32715	32679	32718	32757	32703	32587	
1570	0	32800	32807	32791	32572	32775	32748	32558	32635	
1571	0	32783	32783	32679	32715	32847	32793	32739	32647	
1572	0	32702	32751	32703	32587	32799	32573	32675	32677	
1573	0	32745	32806	32674	32712	32807	32747	32775	32659	
1574	0	32710	32839	32721	32573	32802	32769	32630	32647	
1575	0	32710	32725	32703	32674	32775	32603	32519	32578	
1576	0	32848	32827	32729	32535	32753	32757	32723	32687	
1577	0	32844	32818	32743	32671	32750	32826	32621	32679	
1578	0	32766	32735	32642	32671	32841	32583	32686	32671	
1579	0	32775	32783	32645	32655	32749	32743	32475	32815	
1580	0	32799	32839	32673	32669	32745	32671	32665	32695	
1581	0	32773	32837	32683	32683	32748	32855	32582	32679	
1582	0	32829	32703	32584	32690	32751	32698	32615	32738	
1583	0	32756	32807	32559	32686	32702	32756	32612	32725	
1584	0	32743	32839	32595	32551	32759	32817	32703	32719	
1585	0	32699	32695	32765	32611	32834	32647	32634	32659	
1586	0	32738	32795	32663	32639	32903	32791	32534	32639	
1587	0	32765	32755	32686	32711	32775	32962	32647	32593	
1588	0	32762	32767	32759	32684	32804	32635	32547	32647	
1589	0	32735	32823	32775	32562	32799	32707	32708	32819	
1590	0	32706	32725	32743	32698	32787	32642	32623	32854	
1591	0	32766	32807	32755	32679	32739	32635	32735	32723	
1592	0	32785	32756	32599	32719	32685	32751	32751	32739	
1593	0	32742	32819	32707	32639	32775	32665	32679	32719	
1594	0	32787	32799	32703	32525	32839	32793	32643	32631	
1595	0	32770	32739	32642	32675	32781	32895	32575	32734	
1596	0	32781	32803	32701	32663	32769	32615	32660	32703	
1597	0	32802	32837	32717	32703	32735	32787	32676	32732	
1598	0	32799	32773	32711	32708	32773	32899	32673	32742	
1599	0	32791	32833	32713	32727	32783	32621	32503	32783	
1600	0	32769	32879	32703	32681	32837	32747	32753	32807	
1601	0	32706	32751	32751	32636	32836	32773	32710	32787	
1602	0	32660	32789	32775	32647	32802	32561	32735	32790	
1603	0	32764	32901	32708	32540	32773	32742	32647	32723	
1604	0	32722	32783	32718	32706	32751	32855	32615	32681	
1605	0	32720	32759	32647	32631	32803	32609	32668	32739	
1606	0	32769	32767	32703	32711	32797	32739	32548	32771	
1607	0	32768	32723	32679	32534	32782	32821	32647	32707	
1608	0	32801	32763	32711	32727	32791	32604	32561	32548	
1609	0	32745	32901	32674	32754	32813	32788	32684	32619	
1610	0	32734	32785	32738	32559	32771	32767	32711	32643	
1611	0	32807	32806	32639	32597	32791	32743	32698	32763	
1612	0	32775	32852	32721	32465	32790	32834	32783	32734	
1613	0	32754	32717	32711	32615	32739	32799	32709	32655	
1614	0	32713	32815	32803	32551	32871	32790	32630	32729	
1615	0	32769	32855	32742	32751	32830	32831	32668	32747	
1616	0	32775	32690	32775	32676	32775	32662	32535	32733	
1617	0	32808	32787	32788	32687	32759	32758	32669	32735	
1618	0	32803	32751	32895	32667	32743	32809	32579	32802	
1619	0	32836	32863	32667	32540	32803	32621	32639	32714	
1620	0	32700	32791	32695	32759	32839	32775	32757	32695	
1621	0	32708	32695	32679	32730	32765	32787	32647	32789	
1622	0	32737	32837	32711	32547	32795	32733	32637	32886	
1623	0	32779	32847	32725	32709	32884	32759	32519	32731	
1624	0	32775	32767	32719	32647	32756	32719	32691	32663	
1625	0	32729	32827	32671	32478	32742	32868	32699	32593	
1626	0	32738	32863	32791	32694	32735	32611	32579	32711	
1627	0	32809	32755	32710	32711	32775	32804	32621	32701	
1628	0	32709	32823	32686	32612	32734	32683	32565	32732	
1629	0	32701	32719	32799	32709	32850	32789	32679	32701	
1630	0	32784	32799	32757	32591	32811	32849	32731	32731	
1631	0	32780	32723	32655	32679	32775	32641	32612	32647	
1632	0	32780	32765	32702	32684	32801	32775	32765	32567	
1633	0	32786	32751	32681	32621	32791	32654	32567	32594	
1634	0	32787	32826	32620	32687	32797	32815	32677	32643	
1635	0	32786	32747	32767	32753	32775	32743	32576	32833	
1636	0	32756	32743	32804	32660	32762	32605	32633	32767	
1637	0	32739	32767	32711	32698	32753	32698	32509	32833	
1638	0	32759	32811	32775	32643	32765	32775	32642	32795	
1639	0	32761	32711	32699	32692	32788	32613	32489	32797	
1640	0	32740	32810	32835	32619	32807	32773	32631	32663	
1641	0	32677	32762	32775	32684	32744	32647	32535	32742	
1642	0	32702	32801	32647	32687	32738	32786	32673	32743	
1643	0	32748	32739	32812	32521	32758	32895	32631	32755	
1644	0	32762	32711	32742	32707	32801	32615	32647	32743	
1645	0	32811	32751	32702	32593	32807	32799	32643	32674	
1646	0	32769	32809	32646	32725	32698	32846	32723	32743	
1647	0	32717	32843	32600	32604	32719	32558	32591	32746	
1648	0	32774	32747	32631	32738	32677	32771	32631	32727	
1649	0	32737	32791	32658	32735	32763	32866	32615	32711	
1650	0	32800	32751	32689	32660	32775	32596	32679	32708	
1651	0	32751	32739	32745	32710	32764	32754	32627	32703	
1652	0	32703	32775	32642	32581	32822	32694	32759	32677	
1653	0	32796	32733	32675	32756	32767	32700	32662	32635	
1654	0	32791	32775	32628	32667	32735	32811	32539	32674	
1655	0	32775	32767	32771	32583	32786	32567	32599	32663	
1656	0	32806	32847	32759	32711	32807	32775	32535	32757	
1657	0	32807	32747	32679	32563	32840	32683	32599	32871	
1658	0	32760	32679	32815	32717	32818	32754	32479	32814	
1659	0	32846	32789	32751	32753	32734	32775	32731	32772	
1660	0	32774	32813	32759	32679	32690	32726	32679	32751	
1661	0	32797	32722	32743	32743	32749	32555	32719	32677	
1662	0	32740	32827	32769	32655	32767	32742	32631	32639	
1663	0	32743	32839	32733	32679	32719	32871	32487	32687	
1664	0	32724	32799	32639	32658	32823	32603	32587	32705	
1665	0	32807	32759	32738	32647	32823	32695	32561	32694	
1666	0	32797	32859	32621	32586	32843	32823	32641	32629	
1667	0	32771	32763	32691	32671	32749	32621	32523	32711	
1668	0	32791	32847	32619	32745	32775	32813	32679	32726	
1669	0	32798	32871	32590	32621	32743	32895	32607	32765	
1670	0	32763	32751	32662	32726	32839	32695	32726	32765	
1671	0	32748	32793	32790	32563	32789	32814	32709	32742	
1672	0	32726	32714	32702	32835	32733	32599	32718	32703	
1673	0	32732	32773	32806	32749	32767	32719	32707	32687	
1674	0	32728	32831	32794	32686	32773	32799	32773	32596	
1675	0	32711	32798	32831	32715	32807	32657	32539	32734	
1676	0	32775	32787	32723	32765	32764	32791	32749	32712	
1677	0	32772	32805	32831	32767	32855	32769	32631	32679	
1678	0	32756	32769	32831	32767	32854	32731	32725	32775	
1679	0	32769	32721	32775	32711	32837	32609	32626	32739	
1680	0	32766	32759	32766	32722	32769	32711	32510	32761	
1681	0	32749	32827	32703	32727	32743	32847	32765	32745	
1682	0	32775	32721	32679	32715	32767	32591	32695	32775	
1683	0	32761	32786	32699	32631	32807	32741	32755	32795	
1684	0	32758	32711	32716	32491	32804	32835	32690	32771	
1685	0	32795	32707	32627	32663	32854	32635	32503	32735	
1686	0	32797	32751	32647	32550	32845	32757	32687	32691	
1687	0	32816	32844	32503	32635	32743	32815	32631	32660	
1688	0	32773	32717	32601	32531	32757	32599	32717	32740	
1689	0	32763	32821	32565	32642	32763	32743	32711	32717	
1690	0	32721	32871	32822	32690	32867	32903	32703	32727	
1691	0	32756	32795	33007	32743	32732	32591	32678	32775	
1692	0	32720	32827	32885	32727	32784	32751	32731	32700	
1693	0	32781	32807	32749	32663	32852	32823	32699	32687	
1694	0	32759	32763	32633	32702	32775	32611	32743	32687	
1695	0	32804	32815	32723	32551	32806	32765	32629	32754	
1696	0	32764	32763	32699	32679	32811	32863	32647	32741	
1697	0	32796	32820	32775	32684	32773	32583	32740	32775	
1698	0	32791	32815	32815	32647	32755	32775	32699	32723	
1699	0	32758	32755	32733	32679	32831	32835	32679	32774	
1700	0	32751	32815	32804	32695	32785	32645	32621	32804	
1701	0	32806	32801	32613	32705	32719	32749	32716	32759	
1702	0	32762	32703	32714	32715	32699	32831	32599	32709	
1703	0	32727	32819	32708	32723	32758	32557	32623	32670	
1704	0	32790	32695	32639	32663	32836	32763	32511	32691	
1705	0	32773	32759	32711	32483	32791	32783	32615	32658	
1706	0	32691	32818	32685	32631	32772	32627	32519	32669	
1707	0	32716	32759	32775	32509	32807	32751	32629	32615	
1708	0	32767	32795	32721	32709	32773	32798	32647	32627	
1709	0	32780	32769	32623	32677	32791	32823	32764	32631	
1710	0	32775	32846	32701	32695	32751	32647	32743	32586	
1711	0	32766	32731	32692	32603	32830	32802	32573	32639	
1712	0	32711	32809	32636	32739	32745	32834	32673	32662	
1713	0	32738	32767	32615	32719	32771	32658	32541	32711	
1714	0	32731	32813	32681	32631	32811	32734	32602	32877	
1715	0	32791	32823	32703	32741	32783	32797	32567	32859	
1716	0	32783	32787	32662	32625	32773	32631	32723	32771	
1717	0	32700	32755	32683	32690	32745	32786	32539	32743	
1718	0	32749	32847	32686	32763	32791	32855	32615	32765	
1719	0	32756	32773	32722	32562	32829	32590	32731	32743	
1720	0	32807	32813	32775	32722	32803	32803	32691	32713	
1721	0	32726	32763	32700	32722	32825	32871	32671	32638	
1722	0	32788	32775	32749	32589	32759	32591	32657	32637	
1723	0	32769	32845	32711	32670	32754	32731	32551	32716	
1724	0	32727	32764	32775	32527	32775	32804	32659	32773	
1725	0	32775	32759	32719	32663	32764	32887	32585	32727	
1726	0	32805	32807	32727	32527	32742	32647	32671	32705	
1727	0	32728	32859	32653	32703	32751	32747	32609	32701	
1728	0	32732	32791	32775	32580	32813	32807	32742	32759	
1729	0	32711	32797	32660	32743	32815	32871	32674	32823	
1730	0	32743	32797	32755	32679	32811	32733	32487	32766	
1731	0	32807	32746	32671	32663	32807	32799	32683	32717	
1732	0	32796	32797	32727	32647	32833	32791	32569	32791	
1733	0	32775	32709	32695	32619	32747	32593	32681	32738	
1734	0	32735	32717	32615	32565	32757	32743	32474	32711	
1735	0	32741	32822	32766	32647	32804	32815	32643	32716	
1736	0	32740	32763	32791	32647	32767	32543	32547	32745	
1737	0	32709	32786	32682	32711	32822	32743	32647	32775	
1738	0	32762	32813	32766	32690	32829	32854	32551	32765	
1739	0	32814	32727	32644	32735	32802	32580	32655	32740	
1740	0	32796	32845	32709	32631	32774	32745	32685	32658	
1741	0	32769	32775	32691	32647	32799	32799	32775	32579	
1742	0	32771	32834	32719	32519	32775	32818	32692	32559	
1743	0	32791	32773	32670	32647	32743	32602	32734	32598	
1744	0	32766	32727	32711	32582	32797	32755	32703	32685	
1745	0	32713	32795	32673	32684	32725	32871	32643	32673	
1746	0	32751	32669	32775	32519	32719	32565	32711	32635	
1747	0	32775	32819	32655	32647	32771	32791	32548	32751	
1748	0	32743	32797	32701	32519	32770	32833	32622	32788	
1749	0	32796	32684	32775	32669	32855	32615	32484	32791	
1750	0	32781	32797	32689	32591	32799	32743	32587	32703	
1751	0	32809	32837	32725	32715	32758	32727	32526	32671	
1752	0	32775	32775	32658	32628	32690	32722	32621	32687	
1753	0	32764	32823	32743	32739	32751	32749	32535	32719	
1754	0	32749	32749	32615	32566	32743	32734	32698	32795	
1755	0	32688	32687	32759	32647	32807	32595	32695	32751	
1756	0	32775	32803	32748	32583	32809	32742	32755	32731	
1757	0	32792	32845	32626	32709	32813	32889	32707	32727	
1758	0	32844	32775	32735	32743	32759	32605	32754	32719	
1759	0	32766	32799	32623	32743	32758	32742	32710	32745	
1760	0	32718	32719	32735	32717	32775	32751	32717	32807	
1761	0	32722	32759	32742	32621	32847	32550	32699	32717	
1762	0	32676	32823	32709	32691	32791	32751	32703	32717	
1763	0	32719	32850	32669	32705	32839	32847	32697	32735	
1764	0	32746	32775	32715	32719	32775	32687	32475	32749	
1765	0	32743	32799	32743	32756	32839	32814	32634	32775	
1766	0	32739	32853	32663	32647	32713	32871	32529	32791	
1767	0	32710	32719	32754	32535	32755	32602	32687	32711	
1768	0	32791	32775	32751	32663	32749	32775	32549	32732	
1769	0	32773	32758	32647	32613	32775	32911	32647	32775	
1770	0	32770	32807	32709	32710	32786	32671	32635	32767	
1771	0	32758	32742	32663	32663	32827	32742	32743	32743	
1772	0	32736	32799	32762	32734	32810	32789	32661	32698	
1773	0	32704	32721	32719	32710	32695	32620	32583	32717	
1774	0	32760	32807	32748	32643	32742	32738	32615	32732	
1775	0	32745	32834	32719	32700	32767	32798	32610	32755	
1776	0	32739	32749	32775	32683	32817	32839	32687	32754	
1777	0	32687	32871	32781	32659	32791	32647	32691	32720	
1778	0	32756	32833	32775	32706	32787	32723	32758	32743	
1779	0	32722	32787	32719	32711	32799	32843	32717	32711	
1780	0	32692	32814	32619	32609	32743	32535	32723	32663	
1781	0	32759	32787	32667	32692	32720	32805	32726	32725	
1782	0	32850	32775	32695	32513	32775	32608	32742	32738	
1783	0	32724	32813	32687	32739	32869	32706	32640	32738	
1784	0	32775	32794	32758	32663	32839	32587	32563	32745	
1785	0	32820	32823	32715	32543	32826	32775	32511	32725	
1786	0	32831	32763	32663	32681	32855	32834	32647	32683	
1787	0	32810	32810	32739	32601	32769	32827	32535	32690	
1788	0	32769	32839	32631	32699	32709	32799	32628	32734	
1789	0	32708	32727	32703	32661	32739	32602	32566	32661	
1790	0	32692	32751	32749	32711	32747	32737	32717	32647	
1791	0	32722	32711	32631	32647	32786	32827	32661	32583	
1792	0	32758	32635	32717	32695	32809	32577	32748	32619	
1793	0	32751	32761	32690	32560	32717	32749	32597	32673	
1794	0	32771	32711	32675	32711	32764	32711	32679	32643	
1795	0	32742	32771	32701	32725	32791	32742	32476	32659	
1796	0	32749	32807	32748	32547	32787	32775	32611	32645	
1797	0	32772	32719	32701	32620	32775	32823	32547	32781	
1798	0	32753	32854	32769	32599	32775	32860	32671	32751	
1799	0	32799	32746	32843	32639	32869	32727	32673	32726	
1800	0	32816	32775	32621	32699	32788	32803	32663	32743	
1801	0	32752	32735	32759	32551	32756	32542	32559	32766	
1802	0	32775	32863	32666	32681	32786	32807	32667	32767	
1803	0	32772	32807	32775	32559	32757	32874	32637	32735	
1804	0	32788	32828	32739	32679	32739	32598	32647	32727	
1805	0	32804	32757	32615	32608	32826	32843	32534	32663	
1806	0	32719	32815	32708	32695	32759	32775	32617	32693	
1807	0	32711	32771	32707	32677	32731	32699	32527	32757	
1808	0	32831	32863	32751	32628	32799	32759	32642	32706	
1809	0	32775	32858	32734	32637	32858	32543	32535	32749	
1810	0	32799	32735	32653	32623	32775	32799	32690	32674	
1811	0	32841	32835	32692	32702	32783	32902	32597	32635	
1812	0	32770	32751	32743	32757	32740	32823	32675	32715	
1813	0	32751	32721	32751	32659	32791	32841	32547	32762	
1814	0	32775	32667	32617	32731	32774	32694	32716	32836	
1815	0	32685	32739	32775	32831	32829	32692	32711	32767	
1816	0	32647	32749	32727	32719	32831	32786	32580	32719	
1817	0	32711	32769	32644	32725	32732	32690	32675	32721	
1818	0	32729	32801	32741	32621	32745	32638	32626	32702	
1819	0	32738	32738	32735	32691	32847	32683	32724	32603	
1820	0	32775	32739	32687	32549	32830	32787	32590	32647	
1821	0	32767	32719	32788	32647	32764	32743	32655	32719	
1822	0	32714	32815	32741	32679	32759	32843	32535	32677	
1823	0	32730	32720	32669	32543	32853	32642	32668	32716	
1824	0	32719	32775	32647	32702	32772	32791	32790	32695	
1825	0	32699	32735	32695	32775	32775	32764	32679	32718	
1826	0	32756	32841	32663	32707	32828	32810	32677	32593	
1827	0	32810	32838	32767	32673	32823	32895	32669	32579	
1828	0	32685	32787	32743	32557	32853	32594	32637	32660	
1829	0	32774	32789	32647	32677	32732	32775	32591	32677	
1830	0	32761	32815	32673	32495	32743	32871	32535	32647	
1831	0	32810	32796	32659	32713	32793	32511	32594	32647	
1832	0	32749	32699	32583	32702	32759	32725	32486	32751	
1833	0	32737	32762	32698	32719	32762	32540	32639	32717	
1834	0	32728	32859	32671	32669	32711	32763	32486	32657	
1835	0	32775	32711	32748	32607	32726	32911	32676	32621	
1836	0	32794	32788	32775	32563	32745	32583	32647	32621	
1837	0	32718	32847	32659	32559	32823	32804	32763	32731	
1838	0	32775	32747	32677	32703	32751	32590	32639	32743	
1839	0	32807	32797	32615	32673	32738	32701	32666	32804	
1840	0	32711	32787	32725	32735	32749	32831	32511	32735	
1841	0	32755	32759	32669	32607	32749	32647	32631	32753	
1842	0	32756	32773	32713	32711	32787	32753	32567	32723	
1843	0	32710	32806	32685	32757	32861	32830	32681	32725	
1844	0	32827	32695	32729	32690	32757	32631	32727	32758	
1845	0	32788	32733	32775	32718	32722	32802	32703	32722	
1846	0	32723	32791	32803	32599	32775	32791	32695	32695	
1847	0	32774	32682	32714	32695	32807	32607	32660	32731	
1848	0	32743	32756	32721	32593	32827	32790	32674	32794	
1849	0	32807	32802	32630	32692	32811	32843	32628	32799	
1850	0	32754	32711	32775	32621	32815	32577	32547	32775	
1851	0	32737	32807	32694	32759	32823	32679	32685	32775	
1852	0	32723	32854	32771	32585	32763	32834	32639	32705	
1853	0	32783	32808	32791	32671	32773	32631	32687	32737	
1854	0	32734	32775	32691	32503	32823	32823	32615	32734	
1855	0	32704	32807	32727	32661	32815	32911	32667	32685	
1856	0	32754	32821	32699	32587	32764	32599	32489	32710	
1857	0	32767	32775	32758	32659	32799	32745	32647	32807	
1858	0	32763	32757	32751	32757	32850	32775	32507	32791	
1859	0	32753	32837	32731	32726	32783	32571	32612	32735	
1860	0	32773	32854	32735	32539	32812	32745	32570	32775	
1861	0	32763	32727	32655	32711	32797	32783	32722	32775	
1862	0	32786	32823	32691	32727	32758	32587	32607	32765	
1863	0	32770	32851	32597	32655	32679	32795	32687	32803	
1864	0	32788	32759	32676	32693	32747	32837	32561	32708	
1865	0	32754	32826	32647	32733	32740	32575	32582	32705	
1866	0	32720	32799	32738	32799	32740	32759	32535	32711	
1867	0	32754	32751	32703	32660	32757	32797	32713	32665	
1868	0	32694	32755	32707	32724	32801	32585	32523	32734	
1869	0	32710	32807	32692	32645	32806	32821	32708	32743	
1870	0	32719	32771	32636	32759	32767	32903	32593	32723	
1871	0	32722	32807	32751	32719	32761	32615	32671	32718	
1872	0	32782	32759	32711	32699	32731	32756	32549	32677	
1873	0	32775	32852	32786	32727	32775	32903	32715	32685	
1874	0	32788	32711	32725	32679	32782	32679	32695	32775	
1875	0	32790	32771	32839	32751	32783	32751	32581	32647	
1876	0	32808	32756	32771	32535	32775	32849	32634	32626	
1877	0	32801	32807	32768	32631	32807	32749	32511	32666	
1878	0	32850	32719	32638	32583	32827	32775	32647	32635	
1879	0	32817	32775	32685	32709	32821	32743	32567	32687	
1880	0	32773	32807	32627	32559	32763	32690	32710	32691	
1881	0	32727	32735	32679	32693	32775	32742	32479	32646	
1882	0	32804	32754	32688	32775	32775	32838	32711	32751	
1883	0	32806	32699	32631	32681	32807	32596	32647	32711	
1884	0	32745	32819	32759	32743	32815	32804	32695	32743	
1885	0	32742	32767	32751	32501	32834	32617	32751	32727	
1886	0	32715	32751	32686	32700	32767	32786	32685	32791	
1887	0	32715	32775	32815	32607	32790	32775	32487	32815	
1888	0	32678	32821	32775	32685	32729	32727	32594	32829	
1889	0	32694	32679	32775	32551	32822	32758	32507	32813	
1890	0	32730	32811	32647	32656	32836	32868	32655	32763	
1891	0	32782	32839	32683	32494	32854	32611	32715	32750	
1892	0	32773	32775	32594	32631	32847	32751	32705	32719	
1893	0	32750	32870	32759	32443	32807	32767	32621	32775	
1894	0	32678	32875	32797	32677	32751	32735	32658	32695	
1895	0	32789	32739	32679	32740	32783	32809	32639	32693	
1896	0	32850	32870	32749	32738	32752	32598	32715	32671	
1897	0	32769	32775	32679	32773	32721	32796	32485	32709	
1898	0	32772	32692	32795	32711	32804	32610	32661	32713	
1899	0	32688	32771	32795	32742	32738	32775	32574	32751	
1900	0	32796	32709	32685	32566	32727	32736	32676	32797	
1901	0	32791	32716	32687	32708	32710	32716	32591	32747	
1902	0	32806	32822	32647	32647	32743	32736	32631	32783	
1903	0	32815	32765	32757	32715	32775	32694	32514	32695	
1904	0	32765	32707	32682	32563	32833	32815	32619	32683	
1905	0	32737	32829	32743	32707	32810	32825	32606	32699	
1906	0	32743	32873	32715	32711	32751	32596	32662	32748	
1907	0	32740	32687	32711	32647	32719	32798	32575	32685	
1908	0	32700	32799	32743	32671	32790	32751	32671	32722	
1909	0	32694	32811	32695	32634	32813	32599	32749	32762	
1910	0	32740	32663	32757	32727	32751	32747	32741	32775	
1911	0	32703	32743	32637	32527	32807	32559	32694	32751	
1912	0	32786	32749	32716	32726	32747	32747	32741	32847	
1913	0	32793	32727	32687	32775	32719	32599	32663	32775	
1914	0	32784	32727	32663	32685	32787	32747	32502	32747	
1915	0	32792	32703	32770	32671	32815	32745	32626	32673	
1916	0	32742	32805	32729	32499	32831	32733	32491	32659	
1917	0	32839	32839	32691	32658	32783	32759	32630	32604	
1918	0	32831	32733	32705	32759	32807	32610	32639	32613	
1919	0	32818	32831	32671	32694	32855	32797	32684	32647	
1920	0	32822	32797	32738	32709	32814	32911	32654	32623	
1921	0	32836	32791	32706	32587	32741	32763	32687	32751	
1922	0	32805	32794	32743	32635	32793	32775	32759	32678	
1923	0	32823	32789	32599	32700	32814	32739	32597	32679	
1924	0	32735	32853	32675	32583	32822	32822	32718	32735	
1925	0	32724	32759	32743	32715	32791	32669	32511	32753	
1926	0	32747	32847	32676	32705	32783	32751	32626	32753	
1927	0	32734	32799	32748	32679	32749	32796	32535	32762	
1928	0	32721	32843	32647	32682	32802	32587	32733	32775	
1929	0	32717	32804	32741	32569	32855	32827	32511	32799	
1930	0	32734	32761	32727	32710	32803	32935	32679	32742	
1931	0	32711	32743	32707	32613	32735	32623	32503	32711	
1932	0	32764	32827	32767	32679	32735	32691	32629	32767	
1933	0	32796	32843	32647	32549	32703	32787	32551	32743	
1934	0	32717	32707	32727	32705	32717	32755	32635	32743	
1935	0	32775	32811	32711	32551	32783	32553	32679	32749	
1936	0	32826	32819	32682	32623	32815	32725	32790	32714	
1937	0	32726	32727	32807	32559	32852	32805	32683	32827	
1938	0	32791	32823	32775	32787	32771	32633	32606	32708	
1939	0	32758	32931	32738	32749	32751	32819	32679	32711	
1940	0	32722	32775	32719	32599	32762	32815	32563	32727	
1941	0	32742	32815	32645	32703	32757	32617	32701	32743	
1942	0	32772	32807	32666	32534	32771	32734	32595	32796	
1943	0	32811	32719	32749	32659	32815	32871	32687	32763	
1944	0	32724	32802	32711	32579	32804	32586	32691	32749	
1945	0	32729	32731	32727	32623	32814	32759	32583	32711	
1946	0	32687	32669	32635	32628	32759	32847	32758	32715	
1947	0	32783	32727	32660	32647	32775	32563	32499	32775	
1948	0	32739	32807	32719	32689	32813	32739	32695	32693	
1949	0	32806	32756	32737	32639	32791	32700	32685	32679	
1950	0	32712	32855	32711	32699	32731	32711	32679	32667	
1951	0	32799	32691	32737	32739	32791	32820	32717	32743	
1952	0	32775	32754	32775	32663	32791	32599	32663	32679	
1953	0	32799	32815	32631	32735	32786	32757	32574	32694	
1954	0	32842	32749	32707	32666	32791	32819	32659	32639	
1955	0	32844	32831	32637	32775	32739	32647	32563	32590	
1956	0	32791	32887	32711	32591	32751	32871	32691	32646	
1957	0	32775	32739	32775	32647	32854	32879	32687	32647	
1958	0	32818	32763	32647	32671	32823	32631	32683	32635	
1959	0	32818	32822	32737	32514	32787	32724	32663	32662	
1960	0	32775	32663	32754	32647	32773	32717	32767	32694	
1961	0	32756	32797	32720	32587	32743	32493	32679	32685	
1962	0	32742	32771	32747	32738	32759	32695	32725	32711	
1963	0	32745	32671	32804	32765	32821	32549	32675	32755	
1964	0	32707	32841	32679	32575	32820	32767	32740	32814	
1965	0	32762	32791	32748	32631	32798	32754	32695	32827	
1966	0	32742	32767	32670	32621	32775	32851	32607	32731	
1967	0	32725	32775	32659	32751	32741	32610	32629	32695	
1968	0	32769	32875	32685	32501	32739	32791	32508	32647	
1969	0	32760	32775	32706	32647	32806	32877	32766	32645	
1970	0	32731	32743	32767	32563	32799	32607	32655	32699	
1971	0	32791	32775	32678	32699	32817	32733	32663	32654	
1972	0	32743	32803	32705	32660	32831	32879	32743	32641	
1973	0	32745	32759	32658	32699	32743	32587	32573	32594	
1974	0	32732	32843	32694	32588	32758	32724	32647	32658	
1975	0	32761	32797	32655	32743	32757	32809	32535	32749	
1976	0	32772	32837	32763	32749	32861	32743	32615	32731	
1977	0	32731	32809	32717	32645	32823	32801	32613	32743	
1978	0	32807	32643	32631	32679	32727	32694	32659	32743	
1979	0	32839	32749	32691	32596	32719	32663	32567	32683	
1980	0	32716	32742	32662	32705	32723	32695	32613	32723	
1981	0	32723	32685	32694	32685	32731	32881	32579	32691	
1982	0	32662	32707	32730	32797	32758	32583	32671	32655	
1983	0	32762	32722	32786	32613	32841	32766	32483	32735	
1984	0	32620	32583	32719	32732	32890	32647	32559	32733	
1985	0	32653	32591	32604	32619	32791	32703	32439	32895	
1986	0	32620	32595	32701	32726	32755	32695	32551	32799	
1987	0	32546	32481	32638	32599	32765	32587	32423	32843	
1988	0	32573	32615	32717	32669	32847	32715	32415	32934	
1989	0	32537	32583	32710	32717	32978	32663	32557	32917	
1990	0	32575	32647	32663	32509	32803	32742	32450	32929	
1991	0	32507	32708	32784	32663	32875	32859	32519	32865	
1992	0	32491	32723	32895	32623	32935	32578	32357	32903	
1993	0	32583	32671	32843	32679	32903	32731	32455	32879	
1994	0	32556	32759	32899	32684	32830	32703	32357	32871	
1995	0	32554	32879	32919	32538	32885	32853	32518	32807	
1996	0	32655	32945	32769	32595	32916	32902	32467	32727	
1997	0	32692	32903	32866	32615	32937	32717	32611	32689	
1998	0	32728	33095	32899	32391	32847	32895	32621	32675	
1999	0	32811	33111	32870	32391	32810	32823	32599	32658	
2000	0	32787	33229	32902	32263	32841	32941	32511	32615	
2001	0	32838	33261	32854	32444	32884	33045	32623	32679	
2002	0	32910	33247	32930	32430	32802	32735	32599	32743	
2003	0	32903	33410	32927	32327	32823	32975	32511	32743	
2004	0	32964	33379	32838	32455	32791	32885	32739	32675	
2005	0	33062	33429	32854	32347	32815	32915	32757	32601	
2006	0	33082	33415	32802	32511	32812	33035	32833	32554	
2007	0	33131	33251	32647	32574	32671	32919	32939	32516	
2008	0	33097	33157	32695	32482	32685	33013	32815	32507	
2009	0	33122	33101	32742	32601	32775	32731	32815	32455	
2010	0	33117	33079	32674	32543	32679	32859	32770	32519	
2011	0	33080	33022	32727	32691	32674	32901	32850	32478	
2012	0	32982	32978	32715	32724	32647	32861	32703	32446	
2013	0	32911	32873	32575	32635	32711	32895	32847	32519	
2014	0	32999	32767	32599	32867	32526	32625	32751	32484	
2015	0	32915	32695	32553	32771	32576	32599	33045	32499	
2016	0	32855	32613	32518	32938	32471	32623	33070	32420	
2017	0	32963	32555	32538	32913	32467	32599	33287	32287	
2018	0	33023	32599	32415	33062	32455	32692	33319	32245	
2019	0	33099	32435	32371	32986	32509	32750	33309	32228	
2020	0	33104	32519	32397	33170	32497	32535	33189	32313	
2021	0	33274	32475	32311	33159	32417	32647	33207	32346	
2022	0	33211	32307	32327	33183	32423	32455	33063	32359	
2023	0	33068	32239	32297	33177	32519	32609	33178	32430	
2024	0	32988	32191	32319	33055	32554	32553	33004	32491	
2025	0	32806	32327	32455	33069	32639	32639	32967	32599	
2026	0	32665	32259	32535	32898	32751	32655	32691	32764	
2027	0	32590	32451	32669	32841	32747	32674	32439	32727	
2028	0	32559	32403	32559	32612	32859	32580	32405	32908	
2029	0	32425	32500	32715	32677	32923	32565	32362	33069	
2030	0	32455	32438	32822	32694	33031	32663	32327	33127	
2031	0	32454	32527	32707	32511	32917	32471	32335	33111	
2032	0	32412	32391	32814	32615	32953	32679	32269	33053	
2033	0	32378	32443	32811	32463	32959	32671	32363	33055	
2034	0	32431	32487	32767	32687	33003	32679	32247	33103	
2035	0	32507	32489	32799	32634	32965	32771	32228	33178	
2036	0	32556	32615	32839	32509	32903	32527	32096	33059	
2037	0	32486	32660	32795	32591	32879	32769	32391	32986	
2038	0	32480	32602	32879	32503	32963	32734	32385	32956	
2039	0	32489	32775	32819	32599	32935	32762	32463	32885	
2040	0	32521	32731	32788	32615	32874	32875	32487	32859	
2041	0	32568	32699	32839	32439	32873	32615	32439	32827	
2042	0	32634	32786	32735	32563	32818	32743	32391	32796	
2043	0	32601	32855	32795	32559	32845	32855	32487	32751	
2044	0	32655	32806	32871	32655	32919	32679	32677	32703	
2045	0	32647	32859	32829	32631	32866	32783	32579	32710	
2046	0	32740	32869	32771	32571	32763	32698	32715	32709	
2047	0	32762	32797	32702	32610	32791	32811	32631	32723	
2048	0	32784	32895	32811	32543	32775	32814	32730	32679	
2049	0	32786	32875	32823	32617	32807	32695	32707	32694	
2050	0	32831	32861	32759	32443	32727	32785	32617	32660	
2051	0	32788	32959	32717	32591	32745	32871	32729	32662	
2052	0	32794	32855	32723	32710	32747	32684	32827	32671	
2053	0	32787	32943	32731	32635	32773	32851	32775	32685	
2054	0	32876	33007	32727	32727	32795	32843	32809	32679	
2055	0	32823	32837	32635	32580	32751	32580	32711	32787	
2056	0	32828	32879	32727	32677	32717	32775	32746	32769	
2057	0	32829	32827	32742	32724	32771	32816	32703	32694	
2058	0	32813	32831	32711	32663	32749	32599	32763	32647	
2059	0	32780	32863	32715	32693	32831	32753	32707	32707	
2060	0	32815	32765	32681	32595	32823	32902	32635	32746	
2061	0	32783	32831	32799	32660	32743	32577	32683	32661	
2062	0	32756	32855	32801	32532	32771	32804	32739	32571	
2063	0	32792	32775	32666	32687	32791	32719	32549	32655	
2064	0	32788	32862	32669	32657	32775	32733	32607	32835	
2065	0	32723	32810	32672	32485	32805	32887	32579	32725	
2066	0	32747	32893	32683	32639	32782	32599	32663	32673	
2067	0	32665	32748	32719	32758	32811	32848	32799	32671	
2068	0	32740	32839	32743	32511	32775	32595	32697	32717	
2069	0	32783	32915	32788	32658	32810	32789	32697	32647	
2070	0	32754	32753	32642	32705	32763	32655	32565	32643	
2071	0	32775	32825	32735	32677	32773	32791	32654	32711	
2072	0	32705	32835	32711	32735	32790	32878	32557	32607	
2073	0	32758	32811	32749	32554	32775	32605	32687	32669	
2074	0	32763	32885	32771	32678	32770	32743	32620	32629	
2075	0	32736	32687	32761	32773	32759	32647	32703	32789	
2076	0	32799	32827	32755	32575	32822	32705	32615	32773	
2077	0	32775	32727	32693	32707	32759	32807	32725	32735	
2078	0	32847	32747	32669	32754	32771	32594	32562	32739	
2079	0	32766	32835	32711	32695	32817	32765	32668	32719	
2080	0	32807	32799	32735	32644	32739	32695	32563	32710	
2081	0	32841	32811	32673	32547	32806	32783	32675	32740	
2082	0	32804	32814	32691	32623	32805	32786	32543	32767	
2083	0	32754	32838	32655	32703	32786	32679	32670	32691	
2084	0	32771	32773	32747	32548	32783	32773	32743	32615	
2085	0	32750	32715	32743	32685	32799	32849	32679	32635	
2086	0	32717	32839	32698	32690	32787	32565	32654	32662	
2087	0	32769	32707	32718	32708	32775	32847	32559	32645	
2088	0	32713	32831	32762	32640	32863	32627	32703	32702	
2089	0	32802	32717	32775	32623	32759	32811	32631	32673	
2090	0	32717	32791	32647	32591	32731	32675	32709	32708	
2091	0	32743	32783	32727	32615	32759	32751	32691	32703	
2092	0	32754	32833	32718	32715	32723	32588	32527	32583	
2093	0	32791	32742	32735	32607	32765	32854	32663	32685	
2094	0	32708	32835	32630	32587	32820	32615	32631	32729	
2095	0	32773	32710	32679	32770	32727	32775	32506	32791	
2096	0	32742	32812	32751	32711	32743	32575	32630	32847	
2097	0	32780	32727	32692	32628	32711	32754	32511	32803	
2098	0	32772	32788	32702	32679	32839	32839	32663	32743	
2099	0	32715	32851	32726	32495	32839	32614	32573	32745	
2100	0	32797	32715	32647	32749	32764	32775	32679	32679	
2101	0	32805	32791	32813	32647	32791	32643	32730	32631	
2102	0	32793	32731	32723	32578	32719	32799	32659	32619	
2103	0	32751	32843	32647	32708	32751	32675	32671	32734	
2104	0	32759	32711	32711	32731	32765	32749	32583	32711	
2105	0	32775	32813	32655	32679	32869	32814	32691	32775	
2106	0	32766	32869	32702	32759	32867	32580	32695	32695	
2107	0	32716	32854	32692	32660	32721	32839	32735	32685	
2108	0	32743	32847	32724	32583	32737	32703	32691	32771	
2109	0	32712	32668	32655	32735	32803	32687	32773	32890	
2110	0	32662	32773	32771	32637	32802	32855	32671	32775	
2111	0	32755	32734	32711	32725	32758	32745	32698	32663	
2112	0	32714	32751	32689	32679	32749	32855	32539	32687	
2113	0	32729	32719	32685	32545	32802	32591	32623	32692	
2114	0	32773	32775	32700	32711	32827	32763	32723	32671	
2115	0	32822	32811	32689	32719	32756	32722	32687	32731	
2116	0	32807	32739	32751	32581	32804	32793	32767	32740	
2117	0	32779	32829	32775	32687	32791	32863	32655	32690	
2118	0	32772	32687	32695	32623	32775	32700	32670	32775	
2119	0	32743	32807	32743	32722	32801	32722	32518	32751	
2120	0	32768	32758	32746	32695	32775	32839	32631	32679	
2121	0	32713	32727	32787	32527	32775	32661	32469	32743	
2122	0	32775	32883	32785	32694	32799	32807	32701	32710	
2123	0	32745	32743	32669	32738	32842	32879	32647	32791	
2124	0	32766	32835	32761	32612	32797	32642	32764	32694	
2125	0	32800	32835	32754	32647	32738	32711	32739	32658	
2126	0	32749	32727	32701	32583	32719	32743	32571	32702	
2127	0	32791	32823	32757	32551	32803	32745	32615	32621	
2128	0	32810	32755	32717	32627	32725	32847	32488	32694	
2129	0	32767	32769	32635	32591	32703	32585	32632	32615	
2130	0	32780	32766	32687	32694	32807	32745	32601	32754	
2131	0	32742	32847	32751	32703	32745	32639	32527	32771	
2132	0	32773	32751	32754	32702	32703	32759	32669	32763	
2133	0	32763	32791	32766	32669	32796	32879	32599	32748	
2134	0	32750	32919	32695	32647	32804	32796	32748	32709	
2135	0	32741	32871	32707	32662	32775	32823	32647	32692	
2136	0	32729	32855	32605	32527	32839	32607	32571	32707	
2137	0	32759	32775	32739	32690	32815	32799	32638	32678	
2138	0	32805	32803	32679	32509	32786	32759	32615	32599	
2139	0	32773	32839	32708	32717	32756	32749	32733	32623	
2140	0	32784	32715	32715	32747	32775	32739	32758	32659	
2141	0	32753	32791	32603	32621	32823	32571	32723	32707	
2142	0	32790	32821	32739	32722	32834	32751	32645	32831	
2143	0	32764	32719	32731	32555	32762	32846	32551	32759	
2144	0	32769	32790	32647	32771	32755	32602	32631	32775	
2145	0	32775	32787	32749	32762	32799	32799	32738	32723	
2146	0	32769	32775	32735	32519	32789	32641	32719	32787	
2147	0	32716	32827	32644	32763	32724	32763	32669	32767	
