# OpenSignals Text File Format
# {"00:07:80:3B:46:38": {"sensor": ["CUSTOM/0.5/1.0/V", "CUSTOM/0.5/1.0/V", "CUSTOM/0.5/1.0/V", "CUSTOM/0.5/1.0/V", "CUSTOM/0.5/1.0/V", "CUSTOM/0.5/1.0/V", "CUSTOM/0.5/1.0/V", "CUSTOM/0.5/1.0/V"], "device name": "EMGs", "column": ["nSeq", "DI", "RA_L", "RA_R", "OE_L", "OE:R", "IL_L", "IL_R", "MF_L", "MF_R"], "sync interval": 2, "time": "16:44:24.503", "comments": "", "device connection": "BTH00:07:80:3B:46:38", "channels": [1, 2, 3, 4, 5, 6, 7, 8], "date": "2017-6-1", "mode": 0, "digital IO": [0, 1], "firmware version": 772, "device": "biosignalsplux", "position": 0, "sampling rate": 1000, "label": ["RA_L", "RA_R", "OE_L", "OE:R", "IL_L", "IL_R", "MF_L", "MF_R"], "resolution": [16, 16, 16, 16, 16, 16, 16, 16], "special": [{}, {}, {}, {}, {}, {}, {}, {}]}}
# EndOfHeader
0	0	32837	32831	32695	32677	32831	32819	32562	32671	
1	0	32825	32775	32617	32727	32702	32677	32629	32660	
2	0	32775	32765	32727	32527	32839	32647	32709	32723	
3	0	32711	32783	32799	32565	32703	32607	32674	32704	
4	0	32720	32679	32647	32647	32834	32767	32607	32703	
5	0	32737	32732	32761	32707	32727	32747	32644	32655	
6	0	32677	32789	32709	32681	32739	32755	32609	32644	
7	0	32741	32701	32687	32744	32831	32712	32535	32711	
8	0	32734	32734	32679	32690	32814	32839	32534	32695	
9	0	32771	32806	32702	32583	32839	32871	32535	32723	
10	0	32711	32763	32679	32531	32775	32940	32599	32739	
11	0	32686	32727	32690	32494	32775	32931	32594	32719	
12	0	32724	32811	32677	32679	32802	32631	32603	32683	
13	0	32770	32749	32647	32647	32775	32570	32623	32726	
14	0	32663	32759	32671	32741	32790	32628	32733	32815	
15	0	32815	32643	32734	32527	32750	32659	32612	32846	
16	0	32825	32795	32624	32541	32863	32690	32454	32804	
17	0	32738	32775	32751	32583	32749	32787	32484	32742	
18	0	32794	32787	32706	32735	32735	32829	32517	32677	
19	0	32754	32775	32662	32711	32775	32735	32647	32734	
20	0	32751	32789	32775	32701	32841	32609	32615	32694	
21	0	32731	32775	32799	32689	32726	32628	32629	32711	
22	0	32727	32679	32702	32564	32788	32791	32719	32735	
23	0	32729	32749	32751	32551	32895	32835	32677	32806	
24	0	32758	32798	32790	32647	32807	32759	32591	32786	
25	0	32742	32839	32694	32647	32823	32815	32489	32775	
26	0	32765	32842	32647	32705	32695	32854	32611	32749	
27	0	32773	32831	32647	32716	32795	32765	32775	32843	
28	0	32775	32703	32635	32559	32787	32591	32745	32717	
29	0	32766	32831	32743	32615	32847	32515	32675	32601	
30	0	32714	32738	32631	32685	32755	32693	32703	32615	
31	0	32740	32837	32723	32646	32775	32732	32599	32626	
32	0	32775	32817	32694	32698	32741	32798	32603	32660	
33	0	32698	32863	32711	32615	32775	32799	32527	32671	
34	0	32675	32743	32732	32604	32815	32831	32587	32719	
35	0	32762	32799	32751	32421	32763	32763	32749	32663	
36	0	32729	32855	32692	32583	32807	32852	32671	32647	
37	0	32713	32734	32642	32662	32743	32837	32660	32730	
38	0	32746	32766	32683	32583	32834	32682	32707	32647	
39	0	32775	32887	32615	32727	32795	32647	32551	32630	
40	0	32751	32751	32735	32555	32751	32797	32739	32583	
41	0	32748	32759	32716	32673	32731	32791	32675	32639	
42	0	32775	32764	32743	32711	32743	32748	32751	32742	
43	0	32735	32831	32783	32753	32783	32821	32574	32695	
44	0	32729	32805	32621	32686	32775	32799	32471	32687	
45	0	32751	32743	32750	32556	32807	32679	32555	32642	
46	0	32804	32711	32795	32634	32804	32662	32658	32663	
47	0	32713	32751	32668	32738	32749	32795	32629	32663	
48	0	32723	32717	32679	32726	32846	32738	32639	32809	
49	0	32692	32711	32675	32693	32747	32671	32615	32683	
50	0	32782	32751	32703	32722	32765	32532	32685	32795	
51	0	32734	32637	32679	32535	32789	32800	32497	32629	
52	0	32774	32759	32646	32717	32825	32690	32594	32687	
53	0	32732	32669	32644	32797	32791	32594	32751	32647	
54	0	32668	32582	32617	32665	32775	32877	32495	32727	
55	0	32631	32543	32735	32799	32809	32794	32609	32677	
56	0	32566	32507	32695	32806	32766	32551	32601	32827	
57	0	32596	32583	32631	32577	32767	32743	32543	32802	
58	0	32600	32531	32623	32762	32775	32694	32466	32927	
59	0	32601	32557	32699	32751	32855	32509	32613	32827	
60	0	32528	32517	32775	32551	32846	32754	32578	32935	
61	0	32528	32619	32715	32603	32828	32637	32443	32849	
62	0	32487	32743	32845	32621	32815	32533	32390	32879	
63	0	32574	32723	32725	32415	32871	32751	32561	32811	
64	0	32586	32751	32735	32573	32855	32791	32525	32785	
65	0	32622	32838	32739	32627	32822	32647	32487	32660	
66	0	32613	32967	32755	32497	32818	32887	32455	32775	
67	0	32669	32997	32787	32389	32839	32820	32626	32821	
68	0	32711	33026	32911	32446	32867	32887	32599	32706	
69	0	32711	33131	32935	32450	32903	32791	32587	32775	
70	0	32775	33170	32927	32351	32863	33027	32467	32711	
71	0	32775	33303	32795	32548	32925	32919	32497	32803	
72	0	32870	33339	32931	32509	32833	32862	32475	32769	
73	0	32889	33503	32967	32263	32833	33003	32605	32715	
74	0	32964	33449	32918	32373	32821	32967	32601	32660	
75	0	32980	33415	32919	32367	32767	32751	32503	32647	
76	0	33068	33383	32843	32453	32815	32930	32749	32526	
77	0	33074	33383	32732	32407	32727	32949	32775	32497	
78	0	33112	33199	32701	32574	32711	32931	32723	32403	
79	0	33070	33175	32679	32675	32615	32753	32893	32477	
80	0	33101	33095	32678	32439	32704	32887	32891	32435	
81	0	33049	33133	32678	32493	32757	32831	32818	32487	
82	0	33010	33176	32628	32682	32715	32751	32762	32510	
83	0	33004	32982	32666	32687	32743	32833	32831	32469	
84	0	32901	32887	32629	32754	32581	32743	32854	32550	
85	0	32924	32711	32559	32895	32612	32702	32858	32557	
86	0	32913	32635	32576	32989	32509	32763	32915	32315	
87	0	32911	32559	32468	32902	32575	32705	33251	32391	
88	0	32920	32475	32422	32939	32442	32503	33281	32327	
89	0	32972	32461	32399	33174	32535	32375	33238	32321	
90	0	33083	32371	32390	33183	32447	32446	33205	32247	
91	0	33102	32339	32315	33195	32426	32617	33254	32245	
92	0	33175	32173	32274	33235	32455	32583	33253	32303	
93	0	33124	32129	32239	33211	32407	32567	33287	32285	
94	0	33037	32087	32309	33217	32484	32581	33206	32372	
95	0	32826	32083	32327	33175	32497	32635	33002	32454	
96	0	32736	32151	32470	32979	32730	32570	32795	32647	
97	0	32617	32284	32591	32719	32714	32555	32513	32771	
98	0	32523	32293	32530	32629	32842	32470	32307	32970	
99	0	32417	32338	32633	32647	32941	32466	32251	33013	
100	0	32358	32383	32689	32686	32949	32547	32260	33111	
101	0	32419	32327	32691	32692	32967	32553	32343	33156	
102	0	32434	32419	32702	32611	32877	32638	32252	33107	
103	0	32416	32455	32871	32667	32975	32717	32199	33095	
104	0	32391	32415	32806	32597	32956	32726	32274	33119	
105	0	32408	32566	32729	32564	32987	32706	32287	32999	
106	0	32414	32562	32847	32476	32927	32659	32383	33004	
107	0	32386	32734	32951	32507	32983	32603	32343	32962	
108	0	32487	32667	32869	32450	32918	32547	32286	33031	
109	0	32527	32617	32757	32487	32943	32578	32346	33039	
110	0	32597	32823	32858	32498	32999	32549	32454	32871	
111	0	32548	32767	32737	32634	32897	32749	32495	32850	
112	0	32614	32819	32829	32666	32940	32805	32455	32759	
113	0	32593	32807	32741	32639	32759	32834	32483	32745	
114	0	32710	32887	32759	32567	32839	32864	32575	32714	
115	0	32726	32895	32770	32623	32791	32863	32571	32797	
116	0	32743	32855	32805	32583	32809	32719	32556	32711	
117	0	32796	32914	32629	32455	32841	32646	32603	32706	
118	0	32832	32969	32773	32431	32718	32583	32791	32671	
119	0	32800	32983	32730	32545	32832	32827	32814	32684	
120	0	32775	32867	32742	32533	32719	32829	32742	32685	
121	0	32828	32995	32727	32551	32775	32775	32749	32671	
122	0	32792	32999	32806	32574	32756	32775	32745	32697	
123	0	32809	33027	32772	32587	32747	32766	32731	32775	
124	0	32815	32925	32813	32663	32766	32767	32739	32711	
125	0	32812	32839	32681	32635	32769	32823	32601	32586	
126	0	32750	32903	32765	32591	32807	32807	32647	32595	
127	0	32799	32895	32731	32711	32759	32983	32735	32565	
128	0	32786	32855	32623	32623	32703	32945	32727	32525	
129	0	32785	32860	32637	32597	32767	32885	32757	32538	
130	0	32786	32847	32669	32583	32723	32711	32724	32583	
131	0	32778	32807	32765	32666	32683	32667	32769	32607	
132	0	32768	32799	32607	32741	32751	32597	32771	32621	
133	0	32742	32847	32703	32731	32771	32541	32695	32817	
134	0	32745	32855	32673	32759	32816	32511	32699	32813	
135	0	32741	32868	32706	32727	32759	32692	32686	32715	
136	0	32770	32767	32603	32655	32759	32759	32668	32763	
137	0	32786	32827	32745	32647	32790	32839	32573	32735	
138	0	32812	32870	32786	32705	32710	32854	32554	32687	
139	0	32824	32739	32823	32686	32775	32831	32511	32736	
140	0	32735	32807	32743	32590	32775	32883	32483	32598	
141	0	32711	32806	32791	32535	32829	32797	32567	32587	
142	0	32752	32851	32775	32437	32823	32821	32674	32541	
143	0	32833	32775	32731	32445	32755	32787	32717	32602	
144	0	32841	32845	32758	32581	32775	32642	32706	32548	
145	0	32713	32846	32749	32647	32775	32611	32563	32578	
146	0	32694	32820	32790	32663	32763	32639	32635	32750	
147	0	32759	32709	32735	32653	32756	32559	32647	32735	
148	0	32655	32775	32676	32671	32775	32771	32515	32812	
149	0	32710	32799	32715	32647	32802	32735	32567	32798	
150	0	32730	32747	32683	32582	32791	32775	32527	32719	
151	0	32702	32839	32667	32598	32743	32841	32623	32727	
152	0	32748	32855	32747	32718	32807	32815	32734	32731	
153	0	32661	32743	32686	32634	32700	32723	32686	32711	
154	0	32739	32747	32759	32667	32839	32617	32579	32709	
155	0	32797	32819	32723	32690	32803	32655	32655	32852	
156	0	32756	32675	32731	32579	32797	32530	32662	32865	
157	0	32747	32757	32751	32535	32758	32661	32645	32745	
158	0	32797	32722	32691	32583	32767	32721	32695	32673	
159	0	32751	32803	32693	32711	32839	32718	32535	32703	
160	0	32813	32739	32722	32790	32734	32759	32531	32724	
161	0	32814	32751	32742	32676	32722	32885	32621	32725	
162	0	32712	32830	32693	32615	32722	32830	32707	32703	
163	0	32746	32815	32723	32647	32743	32698	32675	32743	
164	0	32731	32679	32766	32482	32789	32615	32589	32775	
165	0	32762	32795	32635	32685	32763	32619	32683	32805	
166	0	32742	32738	32723	32707	32829	32759	32683	32742	
167	0	32775	32775	32691	32647	32810	32789	32587	32687	
168	0	32759	32751	32703	32679	32839	32903	32527	32708	
169	0	32756	32746	32679	32491	32682	32825	32579	32671	
170	0	32764	32733	32627	32713	32751	32567	32722	32716	
171	0	32764	32811	32703	32775	32705	32571	32742	32715	
172	0	32756	32797	32659	32711	32787	32801	32647	32701	
173	0	32844	32827	32583	32722	32706	32807	32637	32739	
174	0	32799	32759	32722	32685	32815	32773	32679	32711	
175	0	32780	32837	32751	32625	32810	32831	32674	32738	
176	0	32756	32731	32722	32579	32834	32879	32655	32699	
177	0	32826	32831	32711	32617	32903	32759	32599	32767	
178	0	32715	32811	32868	32765	32690	32677	32471	32663	
179	0	32711	32812	32775	32699	32751	32559	32559	32711	
180	0	32700	32770	32641	32686	32714	32711	32698	32723	
181	0	32767	32839	32789	32519	32814	32839	32703	32678	
182	0	32725	32693	32690	32647	32739	32898	32717	32721	
183	0	32738	32759	32639	32743	32823	32887	32807	32743	
184	0	32709	32851	32733	32687	32720	32759	32607	32715	
185	0	32767	32724	32749	32639	32807	32607	32559	32685	
186	0	32741	32765	32641	32687	32775	32751	32493	32783	
187	0	32793	32797	32691	32583	32849	32725	32767	32843	
188	0	32726	32762	32700	32743	32775	32812	32647	32795	
189	0	32837	32775	32695	32679	32765	32638	32583	32703	
190	0	32743	32738	32574	32595	32839	32797	32743	32817	
191	0	32734	32799	32721	32711	32786	32855	32727	32775	
192	0	32643	32686	32626	32711	32798	32775	32611	32679	
193	0	32756	32821	32606	32683	32775	32642	32679	32671	
194	0	32719	32834	32622	32726	32863	32566	32583	32695	
195	0	32718	32767	32653	32542	32749	32703	32496	32683	
196	0	32722	32869	32694	32515	32775	32813	32623	32719	
197	0	32730	32911	32775	32694	32749	32869	32676	32666	
198	0	32742	32698	32726	32727	32758	32873	32604	32726	
199	0	32768	32826	32639	32745	32706	32642	32661	32804	
200	0	32790	32787	32731	32557	32833	32487	32535	32813	
201	0	32775	32743	32695	32463	32738	32516	32572	32711	
202	0	32770	32807	32759	32519	32753	32755	32543	32701	
203	0	32794	32775	32691	32602	32747	32694	32775	32711	
204	0	32756	32867	32687	32611	32822	32742	32655	32767	
205	0	32783	32883	32647	32607	32723	32823	32775	32707	
206	0	32765	32791	32703	32530	32805	32679	32578	32666	
207	0	32758	32806	32711	32530	32773	32647	32510	32637	
208	0	32815	32717	32661	32759	32839	32551	32567	32727	
209	0	32828	32662	32725	32683	32773	32771	32713	32689	
210	0	32796	32839	32708	32754	32775	32735	32698	32775	
211	0	32712	32865	32698	32755	32719	32767	32679	32695	
212	0	32692	32791	32711	32564	32851	32821	32628	32714	
213	0	32743	32738	32747	32647	32763	32708	32647	32775	
214	0	32802	32735	32733	32738	32786	32596	32639	32722	
215	0	32794	32759	32595	32687	32750	32619	32583	32694	
216	0	32794	32727	32695	32775	32775	32807	32467	32839	
217	0	32695	32791	32671	32547	32716	32703	32582	32859	
218	0	32721	32799	32706	32581	32764	32797	32761	32775	
219	0	32731	32743	32802	32659	32825	32797	32711	32687	
220	0	32752	32834	32771	32667	32695	32870	32724	32743	
221	0	32801	32775	32621	32685	32807	32687	32599	32687	
222	0	32715	32763	32764	32703	32722	32621	32694	32677	
223	0	32775	32751	32727	32587	32787	32819	32735	32690	
224	0	32791	32806	32743	32573	32726	32821	32742	32686	
225	0	32751	32850	32655	32534	32838	32722	32541	32815	
226	0	32766	32655	32775	32573	32759	32733	32527	32743	
227	0	32728	32775	32784	32647	32750	32775	32527	32787	
228	0	32711	32759	32731	32749	32726	32653	32645	32812	
229	0	32734	32783	32765	32570	32815	32519	32583	32783	
230	0	32791	32775	32705	32631	32767	32742	32679	32731	
231	0	32760	32751	32615	32798	32844	32723	32621	32787	
232	0	32738	32758	32754	32758	32687	32727	32646	32692	
233	0	32713	32787	32766	32672	32743	32775	32573	32711	
234	0	32799	32775	32791	32614	32775	32771	32585	32623	
235	0	32754	32767	32617	32655	32686	32775	32608	32667	
236	0	32773	32811	32785	32691	32811	32775	32506	32626	
237	0	32802	32810	32806	32519	32723	32713	32699	32619	
238	0	32759	32822	32633	32673	32791	32683	32721	32750	
239	0	32769	32711	32730	32763	32775	32731	32639	32659	
240	0	32780	32802	32743	32743	32845	32591	32579	32796	
241	0	32763	32855	32623	32708	32835	32583	32615	32751	
242	0	32753	32749	32751	32671	32839	32747	32510	32775	
243	0	32756	32791	32723	32560	32723	32583	32687	32751	
244	0	32787	32767	32687	32706	32820	32775	32719	32695	
245	0	32757	32745	32710	32655	32775	32797	32627	32675	
246	0	32764	32838	32617	32667	32839	32835	32615	32751	
247	0	32749	32719	32695	32668	32743	32900	32631	32711	
248	0	32775	32770	32713	32687	32807	32863	32599	32683	
249	0	32719	32827	32727	32631	32720	32742	32647	32775	
250	0	32775	32647	32598	32543	32775	32623	32723	32735	
251	0	32709	32791	32688	32541	32733	32613	32669	32707	
252	0	32733	32775	32759	32579	32804	32773	32602	32724	
253	0	32726	32731	32719	32647	32775	32775	32543	32703	
254	0	32738	32823	32715	32663	32762	32835	32511	32686	
255	0	32767	32831	32729	32727	32775	32875	32519	32756	
256	0	32775	32745	32647	32629	32775	32757	32476	32763	
257	0	32769	32833	32767	32500	32802	32569	32511	32769	
258	0	32718	32839	32774	32519	32745	32534	32489	32807	
259	0	32745	32739	32698	32548	32837	32557	32546	32810	
260	0	32748	32739	32799	32703	32751	32815	32500	32762	
261	0	32759	32795	32762	32767	32810	32803	32545	32623	
262	0	32735	32791	32734	32749	32813	32800	32590	32699	
263	0	32713	32724	32731	32655	32759	32705	32760	32783	
264	0	32698	32811	32717	32731	32731	32803	32685	32746	
265	0	32773	32727	32663	32567	32790	32725	32679	32710	
266	0	32736	32802	32631	32539	32751	32633	32663	32707	
267	0	32744	32823	32739	32581	32711	32671	32685	32607	
268	0	32769	32809	32723	32526	32752	32739	32699	32613	
269	0	32769	32775	32742	32667	32717	32607	32507	32662	
270	0	32801	32819	32793	32623	32719	32614	32771	32639	
271	0	32791	32692	32692	32599	32702	32713	32748	32660	
272	0	32727	32746	32772	32642	32751	32727	32698	32630	
273	0	32754	32823	32695	32685	32771	32771	32647	32719	
274	0	32761	32811	32685	32692	32793	32726	32690	32754	
275	0	32806	32791	32748	32687	32807	32773	32731	32752	
276	0	32790	32695	32758	32661	32791	32775	32567	32730	
277	0	32734	32733	32731	32669	32807	32775	32691	32730	
278	0	32736	32775	32604	32738	32773	32831	32665	32711	
279	0	32775	32823	32695	32749	32773	32811	32647	32565	
280	0	32740	32767	32736	32727	32770	32788	32711	32575	
281	0	32805	32687	32695	32631	32700	32726	32653	32647	
282	0	32734	32837	32697	32578	32771	32735	32573	32715	
283	0	32731	32789	32717	32503	32771	32810	32693	32685	
284	0	32810	32743	32726	32615	32813	32790	32667	32667	
285	0	32767	32775	32759	32643	32731	32668	32551	32699	
286	0	32735	32820	32655	32623	32854	32583	32467	32727	
287	0	32711	32771	32751	32671	32740	32587	32495	32759	
288	0	32668	32799	32743	32493	32743	32759	32535	32759	
289	0	32743	32843	32695	32459	32739	32754	32771	32923	
290	0	32804	32845	32819	32546	32714	32807	32751	32919	
291	0	32710	32775	32783	32603	32813	32813	32747	32930	
292	0	32736	32871	32773	32674	32711	32827	32766	32925	
293	0	32785	32850	32771	32695	32765	32790	32771	32865	
294	0	32762	32815	32653	32723	32759	32707	32705	32831	
295	0	32758	32723	32735	32690	32747	32767	32694	32813	
296	0	32775	32803	32786	32629	32775	32797	32673	32803	
297	0	32754	32819	32739	32669	32787	32854	32694	32731	
298	0	32762	32737	32717	32711	32785	32858	32611	32855	
299	0	32736	32661	32743	32759	32775	32854	32655	32775	
300	0	32762	32766	32819	32742	32793	32821	32719	32775	
301	0	32779	32749	32831	32837	32783	32859	32707	32775	
302	0	32773	32727	32852	32850	32751	32789	32647	32797	
303	0	32734	32738	32775	32695	32813	32671	32631	32677	
304	0	32749	32674	32729	32559	32802	32519	32727	32684	
305	0	32801	32719	32751	32717	32719	32775	32519	32679	
306	0	32743	32774	32742	32677	32663	32810	32543	32676	
307	0	32753	32711	32715	32705	32735	32763	32559	32690	
308	0	32754	32805	32739	32722	32747	32808	32588	32733	
309	0	32720	32774	32695	32743	32765	32775	32715	32623	
310	0	32797	32754	32691	32753	32775	32710	32553	32551	
311	0	32713	32711	32609	32687	32743	32801	32759	32582	
312	0	32708	32775	32739	32543	32775	32862	32721	32523	
313	0	32745	32862	32647	32598	32730	32647	32679	32543	
314	0	32790	32699	32641	32735	32775	32623	32611	32587	
315	0	32816	32715	32527	32735	32738	32615	32794	32563	
316	0	32704	32767	32673	32743	32757	32731	32743	32611	
317	0	32703	32694	32647	32687	32807	32789	32467	32635	
318	0	32764	32703	32511	32519	32783	32834	32503	32554	
319	0	32736	32862	32727	32587	32834	32886	32511	32581	
320	0	32756	32669	32794	32671	32807	32819	32478	32731	
321	0	32771	32735	32731	32700	32862	32711	32501	32771	
322	0	32730	32820	32638	32707	32763	32513	32717	32699	
323	0	32716	32775	32626	32765	32785	32543	32754	32700	
324	0	32722	32771	32647	32695	32707	32715	32647	32647	
325	0	32754	32837	32558	32647	32820	32834	32694	32639	
326	0	32767	32677	32566	32475	32733	32799	32669	32647	
327	0	32745	32814	32619	32647	32786	32845	32589	32635	
328	0	32808	32815	32647	32761	32775	32935	32460	32647	
329	0	32711	32721	32575	32756	32734	32877	32453	32709	
330	0	32730	32759	32743	32647	32749	32515	32539	32854	
331	0	32793	32735	32711	32711	32731	32407	32471	32839	
332	0	32743	32841	32710	32702	32765	32475	32514	32775	
333	0	32754	32703	32642	32761	32684	32525	32786	32786	
334	0	32765	32754	32679	32735	32799	32694	32747	32764	
335	0	32786	32775	32743	32531	32770	32839	32685	32628	
336	0	32755	32677	32559	32477	32815	32859	32667	32773	
337	0	32771	32691	32601	32503	32822	32839	32755	32607	
338	0	32731	32775	32703	32534	32741	32829	32721	32679	
339	0	32775	32863	32691	32576	32745	32827	32732	32619	
340	0	32818	32734	32659	32679	32743	32871	32643	32619	
341	0	32762	32839	32653	32671	32775	32830	32734	32561	
342	0	32828	32830	32743	32657	32745	32711	32655	32551	
343	0	32720	32756	32735	32684	32773	32610	32564	32621	
344	0	32754	32799	32617	32611	32836	32639	32540	32598	
345	0	32704	32679	32706	32534	32733	32615	32601	32582	
346	0	32743	32765	32703	32542	32783	32770	32741	32680	
347	0	32717	32658	32742	32607	32787	32679	32719	32834	
348	0	32724	32742	32615	32763	32795	32731	32663	32769	
349	0	32757	32759	32646	32727	32839	32739	32602	32669	
350	0	32696	32808	32643	32691	32743	32839	32647	32667	
351	0	32742	32775	32699	32751	32743	32807	32705	32738	
352	0	32661	32791	32759	32639	32701	32567	32548	32727	
353	0	32751	32775	32698	32539	32848	32563	32493	32747	
354	0	32775	32845	32647	32554	32759	32694	32626	32659	
355	0	32807	32871	32641	32739	32861	32751	32711	32693	
356	0	32771	32759	32703	32707	32757	32731	32719	32737	
357	0	32717	32847	32647	32670	32855	32855	32691	32730	
358	0	32745	32843	32764	32690	32759	32894	32635	32639	
359	0	32745	32739	32723	32583	32830	32727	32703	32647	
360	0	32783	32773	32655	32554	32727	32671	32550	32647	
361	0	32746	32798	32704	32566	32841	32627	32503	32711	
362	0	32712	32773	32895	32583	32891	32662	32503	32743	
363	0	32774	32679	32818	32647	32766	32681	32551	32691	
364	0	32747	32757	32775	32634	32759	32750	32515	32685	
365	0	32735	32793	32639	32730	32798	32647	32556	32743	
366	0	32727	32791	32687	32738	32723	32525	32503	32771	
367	0	32743	32767	32604	32647	32769	32591	32489	32787	
368	0	32713	32826	32695	32647	32741	32559	32701	32775	
369	0	32739	32829	32719	32623	32727	32749	32657	32734	
370	0	32716	32742	32727	32601	32699	32759	32630	32738	
371	0	32780	32791	32679	32597	32736	32775	32591	32669	
372	0	32690	32823	32669	32500	32775	32751	32599	32659	
373	0	32758	32853	32659	32475	32747	32747	32685	32708	
374	0	32691	32786	32742	32599	32751	32758	32667	32615	
375	0	32759	32711	32716	32795	32820	32738	32455	32647	
376	0	32746	32767	32647	32707	32759	32735	32570	32695	
377	0	32775	32887	32674	32679	32802	32801	32594	32711	
378	0	32742	32799	32751	32658	32775	32855	32679	32663	
379	0	32815	32803	32738	32631	32806	32839	32631	32687	
380	0	32822	32851	32671	32687	32775	32668	32573	32562	
381	0	32771	32745	32751	32614	32850	32580	32575	32626	
382	0	32714	32767	32727	32577	32742	32605	32487	32647	
383	0	32763	32822	32659	32583	32796	32582	32535	32738	
384	0	32700	32741	32754	32735	32775	32734	32679	32767	
385	0	32699	32838	32723	32673	32885	32705	32621	32691	
386	0	32705	32885	32694	32607	32794	32760	32615	32639	
387	0	32833	32762	32703	32647	32759	32839	32711	32695	
388	0	32794	32855	32758	32692	32710	32755	32694	32717	
389	0	32789	32823	32695	32678	32766	32870	32703	32703	
390	0	32767	32693	32671	32572	32743	32903	32775	32684	
391	0	32782	32735	32614	32526	32727	32925	32709	32647	
392	0	32759	32775	32775	32496	32791	32798	32647	32747	
393	0	32744	32787	32735	32551	32751	32809	32631	32759	
394	0	32696	32638	32757	32747	32715	32775	32559	32722	
395	0	32727	32771	32663	32695	32727	32687	32519	32723	
396	0	32663	32731	32797	32679	32765	32695	32546	32715	
397	0	32695	32787	32695	32671	32772	32672	32583	32642	
398	0	32715	32703	32647	32708	32756	32538	32577	32807	
399	0	32760	32745	32629	32653	32764	32591	32677	32730	
400	0	32775	32735	32702	32547	32735	32759	32687	32698	
401	0	32732	32794	32699	32726	32775	32791	32615	32695	
402	0	32774	32903	32637	32691	32813	32826	32703	32687	
403	0	32750	32808	32809	32694	32802	32887	32591	32615	
404	0	32751	32791	32845	32629	32811	32879	32531	32749	
405	0	32697	32863	32748	32493	32795	32734	32542	32735	
406	0	32695	32742	32791	32739	32799	32557	32566	32775	
407	0	32725	32732	32795	32700	32755	32699	32707	32691	
408	0	32757	32775	32647	32631	32807	32751	32623	32681	
409	0	32773	32719	32709	32674	32759	32823	32668	32670	
410	0	32751	32815	32669	32543	32726	32828	32674	32700	
411	0	32797	32865	32637	32597	32725	32887	32527	32727	
412	0	32799	32740	32751	32745	32775	32645	32554	32743	
413	0	32768	32743	32709	32831	32791	32647	32532	32775	
414	0	32706	32739	32719	32822	32701	32549	32589	32898	
415	0	32769	32803	32605	32727	32811	32748	32755	32733	
416	0	32730	32691	32643	32660	32739	32775	32675	32742	
417	0	32756	32806	32683	32629	32723	32807	32687	32639	
418	0	32745	32820	32717	32727	32723	32811	32711	32703	
419	0	32775	32822	32658	32583	32748	32727	32619	32695	
420	0	32775	32694	32707	32551	32775	32719	32579	32751	
421	0	32745	32663	32717	32619	32711	32769	32607	32659	
422	0	32758	32738	32763	32775	32827	32719	32679	32638	
423	0	32738	32754	32671	32636	32719	32559	32683	32695	
424	0	32727	32727	32722	32619	32835	32743	32590	32719	
425	0	32714	32754	32727	32624	32718	32687	32537	32623	
426	0	32775	32687	32647	32509	32829	32729	32717	32687	
427	0	32671	32733	32794	32551	32799	32885	32681	32551	
428	0	32729	32766	32759	32667	32847	32823	32647	32579	
429	0	32720	32787	32714	32742	32832	32821	32671	32677	
430	0	32655	32791	32755	32719	32771	32820	32669	32773	
431	0	32729	32745	32692	32683	32762	32765	32647	32740	
432	0	32758	32731	32647	32719	32757	32713	32679	32670	
433	0	32741	32733	32775	32699	32763	32743	32775	32717	
434	0	32733	32738	32802	32711	32855	32790	32605	32621	
435	0	32773	32804	32705	32683	32845	32659	32719	32591	
436	0	32725	32756	32690	32694	32738	32613	32636	32606	
437	0	32793	32755	32661	32697	32807	32629	32675	32742	
438	0	32761	32727	32685	32735	32751	32603	32645	32734	
439	0	32739	32727	32667	32678	32711	32743	32582	32735	
440	0	32748	32815	32719	32527	32815	32739	32615	32788	
441	0	32730	32743	32687	32503	32726	32741	32615	32735	
442	0	32748	32775	32741	32508	32804	32738	32679	32758	
443	0	32727	32757	32718	32518	32822	32731	32679	32607	
444	0	32784	32813	32723	32535	32701	32769	32687	32645	
445	0	32827	32839	32611	32515	32748	32754	32679	32615	
446	0	32823	32797	32639	32567	32820	32775	32605	32681	
447	0	32800	32820	32683	32610	32769	32799	32615	32721	
448	0	32786	32703	32771	32646	32775	32847	32595	32754	
449	0	32715	32699	32755	32647	32813	32915	32613	32709	
450	0	32730	32733	32701	32679	32797	32887	32655	32715	
451	0	32807	32881	32749	32703	32834	32802	32611	32713	
452	0	32807	32807	32751	32719	32775	32590	32615	32735	
453	0	32786	32736	32827	32719	32717	32507	32686	32753	
454	0	32655	32811	32735	32647	32860	32567	32661	32765	
455	0	32738	32730	32775	32723	32727	32671	32691	32775	
456	0	32711	32838	32681	32730	32765	32823	32695	32735	
457	0	32821	32707	32683	32669	32735	32887	32555	32690	
458	0	32729	32727	32620	32710	32791	32826	32631	32727	
459	0	32712	32791	32631	32705	32775	32682	32527	32711	
460	0	32767	32747	32669	32501	32687	32695	32700	32671	
461	0	32764	32834	32623	32510	32739	32823	32731	32631	
462	0	32732	32711	32615	32567	32775	32769	32711	32705	
463	0	32775	32694	32709	32663	32753	32794	32676	32771	
464	0	32770	32735	32694	32677	32828	32726	32631	32787	
465	0	32783	32803	32711	32675	32758	32635	32567	32759	
466	0	32788	32725	32623	32710	32807	32655	32583	32727	
467	0	32783	32809	32713	32671	32827	32691	32693	32751	
468	0	32736	32799	32756	32770	32726	32677	32751	32726	
469	0	32734	32691	32745	32719	32811	32871	32743	32677	
470	0	32684	32788	32669	32623	32642	32940	32567	32645	
471	0	32756	32855	32747	32596	32806	32685	32574	32756	
472	0	32759	32703	32726	32783	32795	32487	32731	32767	
473	0	32739	32786	32663	32717	32775	32671	32631	32731	
474	0	32751	32933	32700	32701	32747	32767	32663	32711	
475	0	32753	32748	32759	32748	32759	32775	32673	32667	
476	0	32713	32871	32647	32751	32703	32862	32579	32587	
477	0	32711	32797	32787	32592	32810	32854	32547	32611	
478	0	32727	32751	32790	32582	32821	32863	32559	32566	
479	0	32729	32699	32693	32583	32765	32683	32491	32597	
480	0	32804	32727	32681	32594	32797	32662	32501	32663	
481	0	32784	32796	32647	32627	32811	32563	32514	32749	
482	0	32699	32639	32743	32663	32791	32685	32495	32791	
483	0	32742	32773	32751	32702	32839	32720	32447	32719	
484	0	32727	32759	32730	32635	32723	32769	32487	32699	
485	0	32775	32687	32631	32615	32825	32820	32660	32655	
486	0	32813	32791	32713	32683	32786	32848	32623	32695	
487	0	32791	32813	32707	32741	32830	32871	32535	32727	
488	0	32775	32831	32703	32751	32886	32823	32503	32631	
489	0	32728	32725	32670	32646	32783	32695	32661	32671	
490	0	32760	32763	32662	32559	32726	32643	32639	32643	
491	0	32822	32806	32708	32479	32775	32597	32659	32583	
492	0	32756	32770	32653	32717	32813	32799	32675	32617	
493	0	32806	32855	32605	32614	32771	32831	32753	32603	
494	0	32751	32859	32771	32673	32717	32911	32666	32567	
495	0	32756	32722	32713	32695	32802	32797	32589	32694	
496	0	32794	32815	32690	32731	32745	32602	32477	32639	
497	0	32755	32854	32685	32631	32775	32623	32479	32690	
498	0	32701	32731	32811	32527	32743	32611	32503	32715	
499	0	32764	32823	32749	32658	32775	32767	32641	32675	
500	0	32745	32867	32659	32722	32725	32771	32751	32661	
501	0	32809	32715	32695	32637	32743	32767	32711	32647	
502	0	32767	32799	32719	32638	32739	32751	32662	32751	
503	0	32748	32799	32709	32735	32750	32802	32663	32734	
504	0	32710	32863	32703	32706	32838	32850	32695	32735	
505	0	32751	32711	32754	32658	32775	32783	32694	32711	
506	0	32759	32751	32715	32610	32742	32679	32670	32756	
507	0	32757	32775	32804	32575	32821	32646	32639	32791	
508	0	32694	32711	32617	32502	32726	32591	32581	32791	
509	0	32723	32813	32713	32623	32813	32583	32527	32802	
510	0	32736	32813	32687	32686	32761	32751	32686	32747	
511	0	32723	32687	32705	32583	32817	32784	32771	32775	
512	0	32713	32775	32670	32678	32775	32770	32675	32711	
513	0	32727	32687	32683	32653	32775	32823	32638	32714	
514	0	32733	32789	32717	32593	32775	32823	32533	32743	
515	0	32732	32841	32667	32711	32800	32634	32727	32731	
516	0	32736	32727	32775	32655	32715	32621	32716	32699	
517	0	32789	32810	32687	32708	32850	32782	32679	32667	
518	0	32802	32710	32733	32661	32738	32786	32647	32695	
519	0	32783	32773	32730	32473	32767	32823	32711	32703	
520	0	32728	32807	32703	32655	32719	32763	32519	32797	
521	0	32759	32734	32679	32754	32863	32743	32550	32751	
522	0	32710	32775	32693	32735	32759	32715	32535	32759	
523	0	32770	32819	32691	32642	32805	32668	32453	32771	
524	0	32724	32751	32675	32668	32748	32531	32615	32751	
525	0	32775	32841	32687	32647	32762	32567	32719	32787	
526	0	32743	32791	32756	32583	32723	32631	32575	32638	
527	0	32755	32647	32647	32569	32767	32839	32722	32631	
528	0	32738	32798	32647	32583	32813	32813	32735	32639	
529	0	32767	32839	32747	32743	32773	32715	32722	32575	
530	0	32757	32715	32693	32730	32787	32786	32658	32587	
531	0	32794	32789	32699	32715	32815	32791	32647	32601	
532	0	32755	32807	32623	32671	32804	32847	32663	32687	
533	0	32723	32707	32739	32725	32847	32724	32483	32761	
534	0	32694	32711	32694	32698	32815	32543	32583	32879	
535	0	32739	32807	32622	32727	32759	32566	32723	32791	
536	0	32762	32691	32699	32543	32679	32549	32685	32759	
537	0	32809	32773	32700	32551	32751	32591	32692	32733	
538	0	32770	32787	32661	32615	32790	32805	32687	32641	
539	0	32767	32743	32621	32615	32767	32601	32621	32727	
540	0	32788	32764	32739	32709	32839	32775	32626	32679	
541	0	32785	32846	32751	32615	32723	32769	32539	32683	
542	0	32759	32703	32635	32621	32807	32802	32519	32701	
543	0	32769	32775	32707	32696	32782	32861	32603	32614	
544	0	32784	32709	32751	32631	32747	32918	32631	32630	
545	0	32726	32839	32683	32551	32735	32819	32647	32614	
546	0	32775	32827	32743	32703	32758	32612	32647	32623	
547	0	32806	32786	32763	32738	32692	32537	32701	32615	
548	0	32769	32855	32663	32663	32751	32690	32642	32718	
549	0	32743	32715	32689	32695	32716	32603	32587	32766	
550	0	32772	32722	32687	32732	32745	32730	32531	32647	
551	0	32695	32807	32693	32795	32749	32593	32599	32703	
552	0	32685	32775	32685	32671	32799	32863	32567	32751	
553	0	32736	32723	32749	32711	32759	32706	32647	32822	
554	0	32737	32679	32759	32615	32759	32639	32545	32771	
555	0	32783	32765	32618	32753	32775	32751	32655	32765	
556	0	32792	32768	32669	32717	32823	32775	32739	32731	
557	0	32821	32723	32699	32775	32775	32845	32702	32621	
558	0	32719	32823	32802	32623	32721	32799	32596	32647	
559	0	32775	32711	32690	32747	32722	32763	32635	32687	
560	0	32791	32671	32693	32591	32797	32933	32724	32579	
561	0	32812	32769	32721	32711	32788	32591	32703	32635	
562	0	32803	32821	32570	32756	32766	32722	32749	32615	
563	0	32739	32762	32723	32719	32787	32644	32699	32753	
564	0	32766	32802	32695	32687	32811	32663	32687	32635	
565	0	32749	32799	32655	32709	32831	32802	32715	32663	
566	0	32727	32711	32767	32647	32763	32805	32638	32574	
567	0	32720	32767	32770	32545	32821	32791	32574	32617	
568	0	32730	32836	32631	32522	32766	32835	32562	32677	
569	0	32693	32711	32786	32539	32811	32791	32615	32870	
570	0	32733	32775	32738	32538	32675	32763	32559	32813	
571	0	32737	32841	32735	32583	32621	32791	32663	32705	
572	0	32738	32831	32701	32592	32690	32791	32756	32691	
573	0	32772	32787	32675	32717	32763	32742	32659	32716	
574	0	32739	32725	32739	32771	32759	32711	32631	32678	
575	0	32759	32832	32755	32647	32783	32679	32519	32631	
576	0	32775	32789	32725	32796	32839	32590	32483	32660	
577	0	32764	32751	32647	32718	32775	32589	32671	32695	
578	0	32804	32806	32687	32711	32870	32803	32661	32751	
579	0	32706	32850	32735	32678	32791	32759	32583	32732	
580	0	32770	32714	32639	32705	32843	32739	32576	32734	
581	0	32740	32743	32631	32749	32765	32798	32711	32687	
582	0	32727	32759	32711	32667	32775	32831	32686	32699	
583	0	32691	32723	32655	32507	32813	32799	32647	32735	
584	0	32798	32823	32658	32681	32679	32671	32495	32727	
585	0	32773	32791	32667	32639	32838	32615	32585	32751	
586	0	32759	32741	32685	32599	32765	32587	32711	32735	
587	0	32766	32793	32633	32719	32804	32831	32631	32734	
588	0	32764	32843	32679	32579	32747	32763	32679	32775	
589	0	32688	32763	32611	32630	32683	32751	32483	32687	
590	0	32695	32797	32775	32726	32787	32571	32583	32690	
591	0	32653	32751	32791	32646	32786	32607	32669	32775	
592	0	32696	32689	32706	32647	32749	32743	32671	32731	
593	0	32676	32786	32740	32647	32741	32743	32699	32694	
594	0	32760	32782	32727	32503	32806	32685	32647	32739	
595	0	32759	32759	32659	32554	32775	32759	32593	32677	
596	0	32775	32807	32764	32683	32839	32722	32711	32743	
597	0	32768	32763	32747	32729	32738	32534	32519	32690	
598	0	32802	32793	32691	32491	32818	32749	32703	32695	
599	0	32716	32751	32767	32705	32760	32775	32666	32571	
600	0	32752	32887	32647	32643	32775	32861	32629	32590	
601	0	32760	32671	32629	32670	32775	32683	32671	32628	
602	0	32745	32815	32607	32591	32763	32523	32562	32711	
603	0	32758	32694	32734	32631	32829	32710	32527	32677	
604	0	32756	32804	32858	32579	32711	32763	32727	32732	
605	0	32766	32848	32671	32631	32827	32903	32672	32690	
606	0	32769	32735	32723	32523	32717	32806	32647	32695	
607	0	32715	32775	32794	32465	32786	32757	32669	32743	
608	0	32747	32807	32597	32557	32769	32607	32663	32687	
609	0	32715	32700	32731	32667	32775	32759	32591	32758	
610	0	32724	32775	32743	32617	32711	32791	32502	32711	
611	0	32710	32794	32730	32595	32787	32805	32559	32743	
612	0	32765	32770	32735	32617	32757	32573	32644	32671	
613	0	32782	32806	32666	32591	32738	32667	32715	32756	
614	0	32725	32739	32747	32617	32687	32771	32647	32604	
615	0	32738	32679	32643	32575	32775	32742	32663	32704	
616	0	32709	32705	32578	32582	32811	32619	32751	32711	
617	0	32708	32823	32759	32694	32771	32831	32576	32727	
618	0	32744	32763	32687	32577	32843	32767	32663	32635	
619	0	32736	32810	32753	32626	32830	32583	32429	32747	
620	0	32789	32703	32647	32639	32791	32892	32634	32707	
621	0	32799	32743	32569	32567	32804	32767	32615	32711	
622	0	32712	32739	32634	32471	32775	32519	32636	32695	
623	0	32787	32790	32634	32582	32759	32807	32711	32733	
624	0	32743	32749	32685	32523	32767	32699	32707	32615	
625	0	32762	32687	32621	32709	32793	32557	32583	32769	
626	0	32766	32877	32723	32694	32807	32727	32644	32804	
627	0	32719	32738	32642	32626	32763	32775	32705	32751	
628	0	32736	32771	32615	32647	32754	32823	32751	32751	
629	0	32761	32815	32759	32641	32775	32887	32723	32711	
630	0	32790	32811	32807	32647	32790	32765	32735	32684	
631	0	32807	32775	32735	32733	32791	32667	32687	32666	
632	0	32786	32775	32637	32641	32628	32623	32713	32623	
633	0	32692	32863	32831	32547	32749	32775	32707	32745	
634	0	32825	32775	32799	32599	32703	32805	32679	32714	
635	0	32725	32821	32669	32599	32767	32743	32671	32735	
636	0	32741	32815	32774	32703	32759	32727	32615	32749	
637	0	32798	32735	32717	32668	32749	32850	32662	32717	
638	0	32775	32783	32681	32667	32794	32823	32583	32690	
639	0	32801	32815	32772	32510	32775	32646	32711	32762	
640	0	32743	32761	32740	32510	32796	32635	32671	32819	
641	0	32775	32843	32775	32586	32775	32621	32644	32683	
642	0	32714	32847	32678	32629	32805	32623	32695	32646	
643	0	32653	32803	32775	32671	32789	32745	32621	32631	
644	0	32722	32739	32775	32715	32807	32774	32589	32676	
645	0	32760	32687	32644	32719	32790	32844	32700	32679	
646	0	32759	32796	32749	32663	32711	32946	32692	32595	
647	0	32730	32827	32701	32597	32723	32885	32711	32563	
648	0	32772	32743	32711	32523	32715	32831	32647	32541	
649	0	32809	32775	32631	32634	32839	32655	32559	32663	
650	0	32783	32734	32647	32631	32711	32474	32545	32751	
651	0	32773	32775	32742	32767	32794	32495	32551	32775	
652	0	32771	32692	32775	32785	32717	32583	32604	32647	
653	0	32796	32767	32717	32738	32739	32743	32751	32743	
654	0	32772	32875	32671	32698	32765	32727	32683	32805	
655	0	32771	32754	32705	32727	32799	32621	32635	32799	
656	0	32750	32815	32647	32633	32783	32681	32699	32786	
657	0	32806	32819	32631	32583	32717	32771	32694	32730	
658	0	32768	32839	32706	32570	32783	32786	32677	32675	
659	0	32775	32807	32765	32735	32719	32661	32721	32711	
660	0	32762	32739	32595	32643	32795	32641	32579	32658	
661	0	32799	32789	32676	32767	32743	32535	32592	32743	
662	0	32766	32711	32694	32723	32743	32543	32635	32797	
663	0	32709	32761	32771	32679	32823	32711	32459	32829	
664	0	32829	32802	32637	32743	32759	32791	32589	32767	
665	0	32827	32679	32742	32678	32801	32823	32615	32740	
666	0	32696	32815	32684	32647	32839	32843	32711	32707	
667	0	32751	32775	32659	32705	32749	32875	32681	32655	
668	0	32686	32785	32735	32727	32827	32750	32621	32677	
669	0	32702	32803	32823	32749	32851	32612	32646	32703	
670	0	32631	32662	32626	32653	32767	32583	32588	32763	
671	0	32666	32691	32769	32545	32811	32743	32551	32761	
672	0	32755	32821	32740	32640	32815	32799	32518	32719	
673	0	32730	32695	32578	32711	32790	32831	32621	32743	
674	0	32783	32803	32729	32775	32847	32860	32735	32743	
675	0	32797	32775	32687	32727	32807	32819	32790	32655	
676	0	32742	32687	32740	32743	32737	32686	32695	32722	
677	0	32786	32749	32669	32669	32819	32573	32699	32742	
678	0	32748	32797	32775	32483	32771	32539	32711	32775	
679	0	32711	32679	32759	32635	32765	32710	32611	32775	
680	0	32729	32764	32660	32754	32715	32775	32674	32691	
681	0	32748	32813	32671	32696	32699	32734	32703	32667	
682	0	32799	32829	32727	32647	32743	32711	32691	32647	
683	0	32759	32722	32715	32646	32720	32759	32679	32633	
684	0	32795	32858	32742	32642	32743	32791	32642	32668	
685	0	32808	32854	32673	32635	32823	32775	32669	32666	
686	0	32775	32885	32620	32695	32823	32807	32659	32691	
687	0	32782	32799	32629	32698	32743	32850	32636	32633	
688	0	32843	32747	32647	32743	32839	32881	32637	32643	
689	0	32827	32807	32694	32647	32735	32726	32692	32775	
690	0	32790	32775	32732	32759	32773	32685	32551	32743	
691	0	32735	32734	32793	32807	32791	32623	32583	32847	
692	0	32663	32749	32745	32748	32877	32685	32495	32839	
693	0	32653	32755	32806	32751	32855	32647	32663	32677	
694	0	32704	32662	32799	32681	32745	32791	32549	32727	
695	0	32699	32775	32674	32683	32813	32775	32615	32729	
696	0	32730	32742	32703	32679	32791	32715	32475	32615	
697	0	32735	32674	32737	32695	32787	32775	32561	32755	
698	0	32752	32847	32702	32543	32711	32630	32558	32589	
699	0	32762	32839	32731	32639	32772	32847	32695	32691	
700	0	32744	32775	32800	32639	32775	32804	32626	32606	
701	0	32752	32774	32739	32767	32775	32647	32601	32775	
702	0	32683	32727	32684	32743	32740	32771	32647	32743	
703	0	32697	32831	32647	32661	32794	32567	32507	32674	
704	0	32735	32855	32719	32631	32671	32803	32676	32727	
705	0	32738	32883	32756	32535	32750	32817	32747	32587	
706	0	32719	32807	32735	32710	32839	32583	32607	32705	
707	0	32772	32743	32711	32711	32836	32831	32663	32687	
708	0	32754	32847	32683	32673	32746	32751	32535	32759	
709	0	32813	32831	32663	32615	32706	32658	32613	32679	
710	0	32759	32647	32757	32493	32763	32833	32554	32647	
711	0	32759	32839	32747	32685	32711	32699	32671	32733	
712	0	32772	32743	32703	32607	32667	32773	32628	32812	
713	0	32751	32767	32707	32677	32687	32583	32671	32675	
714	0	32759	32687	32615	32548	32815	32839	32557	32742	
715	0	32766	32793	32663	32685	32786	32775	32631	32589	
716	0	32745	32748	32775	32531	32751	32704	32535	32799	
717	0	32765	32711	32596	32658	32762	32775	32655	32742	
718	0	32725	32829	32621	32583	32775	32629	32557	32662	
719	0	32731	32807	32647	32734	32775	32839	32747	32754	
720	0	32785	32775	32717	32737	32775	32679	32743	32703	
721	0	32746	32763	32647	32541	32775	32535	32495	32739	
722	0	32749	32730	32658	32631	32833	32842	32671	32813	
723	0	32737	32871	32703	32539	32839	32743	32555	32623	
724	0	32715	32791	32692	32716	32775	32629	32678	32715	
725	0	32762	32763	32567	32734	32771	32762	32647	32583	
726	0	32696	32732	32562	32559	32775	32762	32475	32727	
727	0	32659	32787	32741	32721	32740	32628	32634	32658	
728	0	32767	32846	32657	32699	32808	32825	32762	32705	
729	0	32751	32783	32795	32524	32823	32741	32611	32719	
730	0	32732	32742	32740	32679	32795	32775	32679	32671	
731	0	32700	32791	32679	32540	32759	32743	32627	32751	
732	0	32694	32847	32711	32673	32767	32612	32625	32653	
733	0	32693	32826	32823	32623	32829	32873	32487	32731	
734	0	32751	32703	32773	32647	32855	32802	32567	32668	
735	0	32745	32663	32751	32663	32831	32627	32701	32687	
736	0	32796	32679	32775	32639	32763	32667	32647	32623	
737	0	32738	32795	32775	32631	32797	32863	32690	32767	
738	0	32785	32807	32699	32646	32759	32756	32590	32647	
739	0	32788	32751	32609	32615	32733	32661	32653	32669	
740	0	32736	32695	32841	32759	32762	32839	32804	32677	
741	0	32788	32692	32755	32675	32786	32655	32647	32639	
742	0	32736	32799	32748	32544	32773	32513	32659	32723	
743	0	32783	32767	32574	32707	32815	32759	32491	32655	
744	0	32713	32647	32647	32669	32757	32767	32706	32775	
745	0	32720	32619	32732	32591	32719	32775	32578	32690	
746	0	32732	32558	32711	32759	32719	32681	32452	32775	
747	0	32625	32583	32683	32825	32787	32794	32567	32737	
748	0	32578	32503	32587	32623	32891	32474	32381	32867	
749	0	32539	32481	32726	32720	32719	32578	32445	32962	
750	0	32550	32563	32710	32647	32781	32579	32539	32987	
751	0	32559	32583	32711	32589	32815	32460	32477	32858	
752	0	32550	32637	32727	32615	32775	32679	32516	32838	
753	0	32548	32743	32737	32550	32887	32758	32447	32827	
754	0	32582	32738	32795	32671	32863	32543	32557	32703	
755	0	32559	32730	32799	32537	32822	32687	32671	32901	
756	0	32532	32871	32874	32444	32790	32823	32390	32835	
757	0	32533	32978	32727	32508	32818	32775	32495	32860	
758	0	32686	32939	32820	32466	32823	32717	32415	32719	
759	0	32658	33023	32850	32365	32843	32919	32547	32803	
760	0	32696	33271	32860	32310	32863	32757	32425	32686	
761	0	32800	33343	32850	32223	32862	32895	32598	32631	
762	0	32822	33365	32922	32340	32884	32946	32615	32692	
763	0	32879	33319	32879	32335	32855	32923	32351	32681	
764	0	32950	33520	32879	32226	32822	32934	32567	32642	
765	0	33031	33455	32775	32391	32823	32970	32645	32609	
766	0	33025	33491	32914	32296	32789	32751	32514	32658	
767	0	33080	33295	32855	32459	32748	32940	32727	32583	
768	0	33112	33239	32850	32575	32711	32983	32914	32519	
769	0	33127	33214	32895	32578	32663	32967	32775	32471	
770	0	33078	33149	32736	32703	32715	33015	32860	32509	
771	0	33092	33039	32715	32581	32663	32819	32863	32559	
772	0	33049	33114	32683	32719	32711	32743	32941	32591	
773	0	33024	32984	32685	32614	32757	32748	32871	32448	
774	0	32932	32943	32610	32706	32645	32559	32935	32621	
775	0	32947	32755	32655	32717	32612	32731	32935	32463	
776	0	32902	32679	32459	33007	32569	32793	32999	32467	
777	0	32954	32692	32401	32933	32565	32787	32951	32319	
778	0	32895	32639	32501	32999	32503	32558	33179	32335	
779	0	32954	32511	32442	33053	32539	32739	33279	32238	
780	0	32978	32451	32411	33101	32477	32513	33235	32421	
781	0	33062	32347	32333	32999	32391	32383	33227	32293	
782	0	33079	32283	32285	33229	32404	32687	33099	32319	
783	0	33086	32187	32306	33145	32447	32599	33334	32263	
784	0	33047	32135	32339	33157	32483	32415	33274	32383	
785	0	32882	32044	32311	33185	32515	32561	33074	32439	
786	0	32759	32135	32419	33065	32618	32597	32847	32702	
787	0	32690	32146	32463	32823	32674	32383	32562	32677	
788	0	32596	32272	32679	32884	32769	32647	32519	32891	
789	0	32526	32351	32673	32767	32852	32619	32461	32869	
790	0	32448	32357	32749	32642	32903	32660	32255	33005	
791	0	32426	32375	32679	32720	33007	32539	32289	32903	
792	0	32412	32455	32669	32647	32901	32663	32435	33109	
793	0	32362	32405	32773	32631	32975	32653	32175	32980	
794	0	32415	32487	32770	32551	32925	32527	32291	33091	
795	0	32456	32591	32827	32591	32883	32745	32167	32919	
796	0	32461	32582	32796	32473	32957	32703	32199	32987	
797	0	32420	32591	32855	32622	32999	32506	32247	32877	
798	0	32482	32583	32847	32583	32951	32822	32459	32955	
799	0	32583	32678	32769	32438	32863	32819	32391	32794	
800	0	32560	32719	32750	32617	32885	32599	32231	32918	
801	0	32566	32749	32733	32610	32913	32703	32379	32790	
802	0	32543	32799	32827	32415	32973	32805	32534	32844	
803	0	32623	32762	32829	32623	32885	32771	32358	32811	
804	0	32660	32877	32757	32655	32895	32627	32518	32879	
805	0	32726	32940	32839	32503	32855	32832	32635	32833	
806	0	32742	32903	32701	32659	32751	32775	32518	32871	
807	0	32717	32867	32711	32646	32741	32535	32603	32698	
808	0	32691	32900	32719	32532	32789	32734	32683	32719	
809	0	32732	32947	32767	32635	32807	32834	32519	32566	
810	0	32805	32914	32759	32631	32813	32783	32662	32682	
811	0	32788	32879	32807	32557	32851	32621	32687	32607	
812	0	32816	32955	32679	32690	32834	32844	32543	32723	
813	0	32812	33015	32747	32690	32703	32769	32647	32630	
814	0	32811	32965	32763	32431	32731	32765	32783	32739	
815	0	32752	32965	32662	32589	32733	32723	32785	32647	
816	0	32804	32843	32675	32721	32759	32692	32751	32719	
817	0	32799	32935	32690	32755	32637	32643	32717	32636	
818	0	32773	32943	32745	32615	32813	32669	32683	32711	
819	0	32726	32775	32675	32682	32755	32798	32790	32615	
820	0	32742	32855	32787	32545	32807	32811	32719	32627	
821	0	32785	32871	32759	32509	32743	32875	32679	32703	
822	0	32780	32711	32698	32603	32759	32851	32519	32731	
823	0	32761	32859	32775	32757	32715	32643	32747	32723	
824	0	32711	32789	32710	32679	32742	32563	32645	32729	
825	0	32773	32826	32734	32711	32804	32811	32607	32686	
826	0	32723	32850	32715	32583	32726	32787	32769	32711	
827	0	32775	32763	32627	32591	32720	32859	32731	32647	
828	0	32829	32787	32790	32735	32754	32925	32539	32677	
829	0	32751	32743	32799	32647	32711	32805	32682	32642	
830	0	32750	32821	32623	32684	32742	32741	32611	32642	
831	0	32832	32839	32716	32749	32781	32530	32815	32748	
832	0	32705	32723	32743	32591	32759	32623	32631	32763	
833	0	32739	32839	32659	32691	32861	32687	32623	32709	
834	0	32762	32703	32718	32749	32732	32719	32647	32619	
835	0	32763	32823	32706	32706	32775	32871	32643	32637	
836	0	32751	32854	32655	32747	32735	32809	32546	32607	
837	0	32786	32804	32690	32638	32813	32675	32439	32686	
838	0	32720	32837	32695	32470	32766	32551	32699	32717	
839	0	32782	32745	32674	32695	32791	32735	32647	32567	
840	0	32710	32807	32699	32623	32775	32716	32615	32671	
841	0	32747	32759	32703	32629	32797	32799	32658	32666	
842	0	32771	32720	32590	32757	32823	32775	32647	32627	
843	0	32711	32855	32708	32675	32756	32807	32559	32615	
844	0	32697	32811	32629	32566	32763	32827	32591	32631	
845	0	32709	32818	32647	32647	32775	32527	32698	32631	
846	0	32822	32843	32711	32679	32749	32801	32534	32726	
847	0	32805	32767	32671	32719	32793	32719	32575	32709	
848	0	32756	32803	32733	32706	32823	32567	32589	32758	
849	0	32694	32711	32762	32517	32823	32773	32759	32755	
850	0	32694	32751	32770	32703	32849	32781	32503	32669	
851	0	32769	32807	32639	32711	32727	32599	32773	32762	
852	0	32809	32835	32647	32539	32727	32863	32659	32613	
853	0	32786	32791	32655	32741	32765	32791	32619	32727	
854	0	32786	32743	32747	32743	32767	32583	32687	32675	
855	0	32748	32701	32760	32615	32783	32822	32731	32695	
856	0	32810	32821	32762	32773	32747	32807	32476	32604	
857	0	32774	32815	32611	32769	32739	32605	32647	32759	
858	0	32775	32739	32789	32627	32789	32871	32709	32655	
859	0	32742	32670	32691	32665	32813	32785	32647	32679	
860	0	32775	32798	32822	32534	32763	32634	32711	32687	
861	0	32751	32831	32713	32677	32751	32871	32549	32647	
862	0	32752	32743	32711	32619	32725	32831	32534	32647	
863	0	32743	32839	32743	32529	32703	32846	32755	32706	
864	0	32745	32759	32601	32635	32797	32637	32706	32719	
865	0	32745	32785	32767	32695	32742	32737	32593	32775	
866	0	32775	32786	32770	32759	32775	32610	32638	32791	
867	0	32733	32748	32627	32719	32829	32654	32691	32793	
868	0	32668	32800	32809	32762	32795	32758	32647	32815	
869	0	32727	32755	32743	32694	32858	32655	32509	32805	
870	0	32715	32668	32628	32562	32786	32591	32747	32786	
871	0	32695	32775	32729	32681	32823	32605	32697	32739	
872	0	32743	32743	32719	32707	32815	32809	32663	32687	
873	0	32765	32759	32722	32694	32769	32879	32637	32661	
874	0	32812	32835	32747	32554	32715	32775	32674	32675	
875	0	32791	32739	32647	32639	32743	32722	32583	32589	
876	0	32811	32766	32735	32665	32751	32939	32655	32558	
877	0	32735	32825	32723	32721	32766	32711	32719	32686	
878	0	32694	32831	32761	32543	32771	32477	32645	32773	
879	0	32751	32731	32639	32679	32739	32711	32551	32869	
880	0	32763	32749	32791	32671	32871	32675	32703	32711	
881	0	32774	32749	32684	32615	32845	32582	32743	32729	
882	0	32734	32807	32763	32643	32707	32844	32591	32602	
883	0	32822	32879	32675	32575	32775	32807	32659	32644	
884	0	32782	32845	32647	32646	32758	32630	32553	32577	
885	0	32778	32836	32679	32635	32732	32775	32673	32671	
886	0	32769	32810	32745	32671	32838	32766	32671	32663	
887	0	32775	32771	32762	32647	32785	32735	32579	32783	
888	0	32767	32735	32733	32673	32743	32602	32637	32749	
889	0	32765	32662	32727	32726	32789	32771	32667	32822	
890	0	32710	32719	32703	32507	32727	32731	32423	32681	
891	0	32711	32702	32675	32774	32757	32823	32673	32679	
892	0	32711	32799	32749	32685	32790	32655	32699	32599	
893	0	32736	32751	32719	32466	32807	32914	32527	32714	
894	0	32724	32757	32735	32625	32775	32851	32632	32559	
895	0	32685	32713	32647	32594	32695	32799	32526	32711	
896	0	32703	32796	32739	32751	32755	32731	32663	32749	
897	0	32682	32791	32719	32711	32863	32548	32687	32751	
898	0	32762	32823	32743	32622	32813	32765	32519	32769	
899	0	32753	32756	32647	32695	32807	32709	32663	32692	
900	0	32715	32765	32711	32549	32695	32711	32556	32756	
901	0	32745	32845	32727	32711	32751	32867	32609	32629	
902	0	32757	32815	32706	32694	32803	32671	32647	32775	
903	0	32834	32747	32711	32639	32788	32551	32582	32709	
904	0	32769	32731	32647	32695	32751	32620	32647	32757	
905	0	32744	32745	32643	32477	32802	32571	32647	32751	
906	0	32742	32807	32672	32702	32799	32631	32601	32791	
907	0	32739	32811	32669	32667	32771	32726	32775	32745	
908	0	32763	32746	32690	32557	32791	32579	32749	32669	
909	0	32811	32766	32775	32735	32736	32731	32516	32695	
910	0	32738	32789	32657	32745	32735	32901	32695	32751	
911	0	32813	32863	32633	32527	32761	32844	32667	32551	
912	0	32764	32771	32754	32725	32786	32647	32587	32716	
913	0	32799	32765	32679	32698	32830	32851	32715	32743	
914	0	32789	32769	32687	32549	32742	32766	32743	32735	
915	0	32799	32827	32717	32694	32703	32583	32795	32671	
916	0	32772	32850	32695	32723	32699	32851	32567	32732	
917	0	32699	32821	32623	32525	32691	32751	32572	32627	
918	0	32682	32815	32775	32703	32727	32535	32527	32679	
919	0	32761	32822	32799	32697	32723	32657	32668	32583	
920	0	32774	32711	32711	32607	32773	32802	32583	32754	
921	0	32765	32747	32708	32767	32830	32763	32461	32679	
922	0	32801	32803	32695	32703	32802	32599	32609	32775	
923	0	32708	32775	32591	32471	32695	32821	32734	32703	
924	0	32675	32807	32703	32667	32759	32831	32655	32695	
925	0	32746	32783	32673	32710	32749	32619	32647	32631	
926	0	32782	32731	32674	32549	32811	32877	32539	32669	
927	0	32775	32755	32731	32735	32823	32807	32695	32611	
928	0	32715	32845	32737	32668	32823	32571	32703	32757	
929	0	32748	32799	32707	32583	32822	32743	32538	32647	
930	0	32740	32835	32679	32675	32775	32809	32673	32807	
931	0	32724	32756	32726	32675	32799	32789	32671	32689	
932	0	32775	32767	32775	32614	32823	32629	32547	32711	
933	0	32772	32775	32695	32539	32775	32865	32703	32637	
934	0	32791	32747	32662	32694	32773	32762	32655	32755	
935	0	32775	32751	32732	32615	32723	32749	32723	32827	
936	0	32775	32767	32743	32699	32759	32685	32463	32645	
937	0	32691	32695	32679	32549	32711	32663	32632	32789	
938	0	32723	32759	32669	32703	32825	32775	32711	32639	
939	0	32775	32836	32655	32683	32863	32807	32537	32727	
940	0	32713	32834	32729	32483	32789	32639	32658	32646	
941	0	32727	32807	32749	32690	32775	32900	32726	32691	
942	0	32765	32787	32743	32709	32773	32725	32542	32699	
943	0	32772	32834	32775	32633	32747	32709	32667	32596	
944	0	32652	32831	32751	32623	32775	32605	32640	32684	
945	0	32719	32738	32685	32647	32703	32892	32504	32626	
946	0	32755	32763	32691	32749	32743	32803	32708	32691	
947	0	32757	32834	32687	32615	32739	32807	32754	32564	
948	0	32773	32727	32709	32674	32743	32692	32719	32655	
949	0	32736	32759	32698	32551	32718	32725	32738	32758	
950	0	32716	32751	32715	32675	32769	32703	32538	32805	
951	0	32726	32757	32657	32659	32797	32534	32697	32695	
952	0	32770	32771	32656	32679	32789	32775	32662	32727	
953	0	32817	32791	32763	32635	32805	32759	32751	32751	
954	0	32750	32815	32710	32640	32757	32612	32595	32799	
955	0	32739	32807	32674	32439	32674	32862	32722	32735	
956	0	32711	32738	32659	32674	32692	32751	32434	32786	
957	0	32767	32720	32683	32626	32755	32567	32646	32795	
958	0	32729	32735	32769	32493	32815	32690	32719	32758	
959	0	32715	32754	32775	32633	32899	32903	32547	32671	
960	0	32724	32807	32752	32642	32826	32775	32647	32717	
961	0	32672	32786	32764	32715	32858	32858	32687	32591	
962	0	32737	32759	32699	32601	32775	32698	32503	32663	
963	0	32722	32695	32647	32685	32735	32844	32687	32627	
964	0	32763	32751	32726	32652	32775	32719	32802	32811	
965	0	32807	32827	32687	32631	32817	32581	32668	32757	
966	0	32817	32807	32707	32683	32759	32895	32735	32676	
967	0	32744	32759	32667	32535	32782	32805	32632	32743	
968	0	32761	32726	32679	32591	32773	32554	32603	32595	
969	0	32741	32811	32740	32643	32715	32774	32550	32719	
970	0	32775	32819	32727	32647	32775	32775	32662	32557	
971	0	32799	32775	32647	32687	32830	32623	32535	32615	
972	0	32790	32867	32658	32655	32775	32691	32659	32599	
973	0	32762	32748	32720	32667	32749	32850	32681	32700	
974	0	32742	32771	32687	32621	32789	32745	32738	32751	
975	0	32807	32742	32795	32595	32796	32719	32486	32742	
976	0	32770	32807	32769	32677	32823	32611	32611	32867	
977	0	32772	32755	32751	32550	32735	32749	32510	32775	
978	0	32729	32775	32675	32735	32791	32703	32683	32647	
979	0	32711	32727	32755	32721	32783	32590	32731	32773	
980	0	32706	32803	32687	32495	32743	32703	32743	32671	
981	0	32723	32775	32615	32735	32756	32739	32647	32759	
982	0	32679	32711	32639	32743	32703	32567	32554	32775	
983	0	32734	32628	32607	32583	32705	32891	32670	32794	
984	0	32739	32727	32626	32807	32804	32786	32660	32715	
985	0	32746	32831	32756	32727	32841	32843	32494	32769	
986	0	32791	32807	32759	32639	32843	32642	32723	32756	
987	0	32809	32835	32722	32663	32836	32791	32631	32751	
988	0	32836	32756	32663	32717	32775	32783	32555	32638	
989	0	32804	32814	32607	32545	32757	32679	32612	32647	
990	0	32802	32815	32759	32631	32711	32818	32695	32615	
991	0	32798	32799	32713	32631	32818	32871	32726	32579	
992	0	32750	32707	32739	32470	32767	32671	32647	32564	
993	0	32782	32703	32716	32681	32819	32759	32727	32775	
994	0	32771	32742	32711	32646	32830	32841	32555	32764	
995	0	32746	32716	32687	32639	32803	32718	32745	32722	
996	0	32715	32787	32759	32607	32723	32641	32588	32647	
997	0	32762	32703	32686	32666	32709	32829	32668	32711	
998	0	32744	32733	32647	32551	32775	32774	32708	32599	
999	0	32817	32796	32723	32684	32747	32898	32751	32630	
1000	0	32734	32783	32699	32621	32681	32773	32743	32515	
1001	0	32710	32745	32692	32638	32775	32497	32561	32716	
1002	0	32762	32701	32607	32721	32767	32755	32677	32715	
1003	0	32756	32719	32715	32591	32739	32734	32527	32790	
1004	0	32751	32855	32690	32711	32685	32668	32645	32743	
1005	0	32678	32799	32591	32713	32819	32870	32738	32711	
1006	0	32710	32787	32639	32623	32801	32733	32535	32743	
1007	0	32724	32741	32711	32727	32806	32546	32627	32661	
1008	0	32759	32887	32711	32579	32713	32835	32533	32725	
1009	0	32719	32759	32598	32720	32802	32647	32635	32679	
1010	0	32703	32663	32687	32647	32791	32511	32581	32715	
1011	0	32745	32647	32647	32863	32759	32775	32643	32759	
1012	0	32722	32795	32630	32790	32807	32799	32685	32604	
1013	0	32718	32743	32695	32641	32799	32735	32583	32679	
1014	0	32768	32729	32756	32683	32788	32903	32583	32707	
1015	0	32772	32631	32811	32667	32769	32701	32503	32755	
1016	0	32681	32726	32703	32722	32727	32563	32722	32732	
1017	0	32745	32775	32716	32703	32775	32786	32711	32775	
1018	0	32750	32783	32755	32774	32802	32725	32565	32695	
1019	0	32743	32759	32763	32573	32838	32774	32647	32773	
1020	0	32807	32732	32724	32802	32743	32487	32623	32692	
1021	0	32791	32751	32709	32687	32805	32679	32581	32775	
1022	0	32738	32757	32727	32570	32788	32807	32691	32647	
1023	0	32748	32727	32666	32679	32758	32763	32607	32738	
1024	0	32743	32683	32625	32621	32743	32567	32527	32667	
1025	0	32719	32809	32676	32519	32813	32827	32723	32727	
1026	0	32730	32811	32725	32647	32775	32811	32715	32626	
1027	0	32743	32743	32583	32673	32747	32621	32683	32745	
1028	0	32759	32758	32647	32600	32685	32798	32678	32715	
1029	0	32742	32847	32676	32687	32775	32784	32527	32615	
1030	0	32677	32786	32671	32576	32859	32727	32679	32719	
1031	0	32736	32795	32567	32703	32742	32642	32695	32603	
1032	0	32799	32679	32694	32710	32759	32749	32471	32748	
1033	0	32804	32695	32690	32549	32791	32747	32667	32667	
1034	0	32826	32771	32640	32695	32789	32803	32673	32615	
1035	0	32768	32731	32787	32759	32734	32818	32586	32647	
1036	0	32751	32798	32726	32722	32757	32799	32519	32695	
1037	0	32722	32775	32687	32653	32839	32644	32806	32683	
1038	0	32728	32811	32643	32751	32727	32813	32727	32623	
1039	0	32711	32695	32755	32707	32797	32814	32694	32647	
1040	0	32755	32815	32735	32615	32727	32871	32695	32667	
1041	0	32708	32782	32647	32569	32698	32839	32609	32711	
1042	0	32799	32723	32703	32675	32845	32759	32645	32877	
1043	0	32758	32847	32671	32647	32739	32671	32679	32802	
1044	0	32756	32823	32711	32721	32751	32559	32639	32727	
1045	0	32742	32867	32615	32748	32831	32535	32623	32751	
1046	0	32711	32703	32609	32758	32750	32729	32603	32775	
1047	0	32765	32767	32757	32681	32801	32658	32591	32691	
1048	0	32759	32767	32715	32691	32799	32711	32615	32702	
1049	0	32765	32737	32703	32694	32726	32767	32683	32668	
1050	0	32711	32775	32646	32677	32791	32870	32757	32609	
1051	0	32662	32850	32711	32687	32758	32863	32726	32666	
1052	0	32726	32855	32735	32550	32791	32738	32607	32660	
1053	0	32765	32766	32743	32506	32847	32646	32502	32629	
1054	0	32739	32789	32803	32594	32764	32570	32534	32647	
1055	0	32731	32751	32759	32743	32751	32807	32567	32598	
1056	0	32689	32739	32647	32599	32765	32749	32754	32595	
1057	0	32690	32773	32855	32723	32775	32848	32719	32606	
1058	0	32706	32685	32831	32581	32769	32669	32683	32621	
1059	0	32797	32791	32679	32583	32715	32594	32655	32633	
1060	0	32731	32893	32757	32811	32821	32815	32742	32557	
1061	0	32767	32757	32662	32755	32723	32881	32551	32604	
1062	0	32783	32786	32647	32666	32807	32837	32495	32603	
1063	0	32768	32803	32775	32719	32809	32815	32565	32659	
1064	0	32757	32836	32787	32689	32773	32711	32636	32835	
1065	0	32805	32727	32766	32647	32802	32701	32703	32859	
1066	0	32742	32823	32707	32559	32697	32481	32738	32802	
1067	0	32783	32796	32685	32733	32763	32887	32635	32695	
1068	0	32747	32773	32671	32679	32819	32793	32643	32763	
1069	0	32727	32763	32759	32615	32767	32615	32555	32687	
1070	0	32754	32799	32647	32644	32775	32853	32609	32735	
1071	0	32775	32775	32613	32733	32751	32807	32703	32597	
1072	0	32769	32802	32647	32527	32743	32611	32595	32739	
1073	0	32738	32787	32695	32717	32711	32647	32687	32681	
1074	0	32775	32686	32663	32668	32797	32867	32794	32647	
1075	0	32751	32703	32739	32635	32790	32811	32541	32677	
1076	0	32790	32743	32743	32607	32788	32615	32642	32559	
1077	0	32807	32809	32647	32629	32735	32894	32709	32670	
1078	0	32817	32815	32687	32485	32701	32706	32669	32738	
1079	0	32752	32775	32695	32673	32834	32741	32757	32599	
1080	0	32749	32719	32715	32647	32789	32843	32567	32692	
1081	0	32799	32789	32723	32615	32679	32837	32706	32663	
1082	0	32807	32819	32709	32674	32775	32663	32667	32743	
1083	0	32757	32715	32742	32571	32775	32611	32719	32745	
1084	0	32732	32805	32727	32491	32814	32615	32647	32838	
1085	0	32694	32813	32659	32543	32820	32570	32526	32775	
1086	0	32732	32871	32681	32607	32771	32553	32481	32789	
1087	0	32768	32749	32694	32659	32743	32573	32517	32765	
1088	0	32762	32695	32727	32606	32773	32577	32519	32757	
1089	0	32729	32796	32647	32673	32754	32613	32738	32723	
1090	0	32737	32727	32686	32646	32844	32830	32611	32687	
1091	0	32734	32757	32733	32602	32717	32839	32703	32699	
1092	0	32683	32839	32690	32555	32763	32863	32610	32715	
1093	0	32717	32703	32722	32739	32686	32730	32606	32775	
1094	0	32698	32799	32738	32726	32807	32631	32725	32810	
1095	0	32835	32793	32679	32669	32847	32551	32629	32785	
1096	0	32753	32735	32711	32745	32727	32703	32711	32770	
1097	0	32750	32831	32627	32578	32743	32834	32679	32703	
1098	0	32751	32819	32720	32477	32739	32790	32643	32682	
1099	0	32735	32873	32743	32455	32759	32791	32599	32646	
1100	0	32732	32711	32751	32727	32855	32850	32635	32647	
1101	0	32692	32759	32735	32623	32784	32859	32677	32615	
1102	0	32718	32711	32734	32771	32839	32571	32607	32810	
1103	0	32761	32721	32628	32631	32771	32423	32635	32804	
1104	0	32741	32759	32756	32599	32823	32527	32687	32734	
1105	0	32722	32767	32735	32677	32679	32510	32619	32699	
1106	0	32751	32802	32667	32669	32762	32799	32555	32722	
1107	0	32739	32847	32767	32711	32676	32840	32687	32702	
1108	0	32707	32743	32743	32695	32751	32971	32706	32731	
1109	0	32751	32834	32643	32583	32743	32871	32723	32758	
1110	0	32723	32871	32759	32607	32819	32587	32679	32775	
1111	0	32724	32711	32758	32683	32834	32599	32639	32751	
1112	0	32704	32823	32751	32555	32819	32854	32695	32687	
1113	0	32716	32839	32726	32683	32877	32790	32507	32718	
1114	0	32725	32747	32703	32655	32819	32775	32679	32738	
1115	0	32754	32838	32711	32659	32783	32612	32691	32663	
1116	0	32752	32863	32615	32626	32775	32803	32549	32721	
1117	0	32789	32787	32652	32706	32734	32773	32647	32625	
1118	0	32800	32695	32727	32767	32741	32652	32747	32719	
1119	0	32775	32802	32719	32601	32812	32855	32695	32599	
1120	0	32799	32764	32735	32647	32839	32730	32639	32692	
1121	0	32784	32805	32670	32631	32829	32590	32469	32668	
1122	0	32785	32714	32743	32611	32749	32860	32631	32662	
1123	0	32745	32789	32738	32676	32775	32842	32502	32647	
1124	0	32814	32775	32695	32487	32861	32730	32691	32735	
1125	0	32805	32809	32658	32698	32783	32759	32767	32666	
1126	0	32859	32759	32655	32723	32751	32807	32551	32655	
1127	0	32751	32719	32708	32609	32725	32675	32647	32613	
1128	0	32713	32823	32725	32727	32716	32703	32748	32743	
1129	0	32738	32861	32710	32717	32743	32479	32599	32659	
1130	0	32748	32783	32623	32484	32817	32741	32646	32731	
1131	0	32734	32755	32611	32690	32767	32773	32681	32589	
1132	0	32799	32686	32639	32626	32757	32671	32519	32719	
1133	0	32726	32671	32711	32599	32796	32683	32647	32647	
1134	0	32773	32727	32730	32575	32743	32769	32678	32767	
1135	0	32802	32843	32678	32791	32767	32743	32553	32818	
1136	0	32755	32827	32738	32695	32799	32615	32677	32759	
1137	0	32719	32702	32749	32579	32823	32795	32662	32707	
1138	0	32788	32718	32647	32679	32832	32773	32493	32742	
1139	0	32788	32858	32791	32751	32811	32621	32607	32685	
1140	0	32694	32797	32678	32647	32802	32875	32566	32715	
1141	0	32728	32807	32743	32663	32722	32775	32655	32629	
1142	0	32712	32735	32599	32575	32751	32610	32691	32722	
1143	0	32796	32775	32750	32694	32775	32602	32749	32798	
1144	0	32734	32719	32751	32527	32759	32761	32679	32615	
1145	0	32725	32718	32631	32727	32749	32762	32734	32742	
1146	0	32748	32681	32621	32625	32767	32791	32639	32678	
1147	0	32745	32723	32644	32641	32679	32615	32712	32756	
1148	0	32773	32781	32741	32583	32726	32685	32719	32710	
1149	0	32820	32835	32761	32719	32762	32871	32589	32591	
1150	0	32716	32811	32695	32711	32799	32771	32647	32647	
1151	0	32757	32838	32701	32549	32775	32743	32683	32575	
1152	0	32734	32763	32643	32765	32807	32614	32571	32703	
1153	0	32765	32687	32681	32706	32747	32839	32641	32571	
1154	0	32745	32811	32743	32591	32660	32789	32694	32671	
1155	0	32734	32815	32773	32685	32727	32643	32615	32595	
1156	0	32764	32791	32702	32666	32842	32801	32599	32743	
1157	0	32749	32711	32759	32603	32831	32812	32631	32614	
1158	0	32748	32729	32769	32463	32815	32765	32679	32670	
1159	0	32785	32683	32629	32703	32828	32579	32483	32647	
1160	0	32754	32762	32647	32647	32797	32769	32647	32811	
1161	0	32725	32799	32599	32748	32791	32855	32658	32756	
1162	0	32731	32807	32740	32527	32770	32819	32557	32764	
1163	0	32735	32765	32685	32607	32766	32635	32615	32758	
1164	0	32772	32740	32691	32620	32807	32903	32673	32748	
1165	0	32790	32862	32674	32681	32799	32823	32533	32647	
1166	0	32729	32865	32711	32701	32804	32617	32706	32762	
1167	0	32720	32855	32691	32747	32811	32775	32710	32751	
1168	0	32770	32717	32691	32615	32791	32647	32633	32795	
1169	0	32782	32711	32660	32733	32762	32510	32657	32687	
1170	0	32735	32791	32699	32663	32740	32573	32613	32757	
1171	0	32737	32806	32647	32709	32735	32822	32705	32734	
1172	0	32781	32834	32667	32535	32799	32751	32585	32703	
1173	0	32811	32715	32704	32726	32703	32623	32625	32698	
1174	0	32753	32751	32775	32623	32803	32839	32582	32749	
1175	0	32726	32807	32630	32594	32734	32702	32755	32783	
1176	0	32769	32833	32549	32621	32743	32775	32705	32677	
1177	0	32807	32823	32735	32671	32803	32813	32583	32713	
1178	0	32696	32717	32822	32673	32895	32787	32639	32717	
1179	0	32683	32773	32815	32717	32851	32605	32759	32722	
1180	0	32680	32775	32767	32694	32751	32695	32631	32613	
1181	0	32766	32755	32743	32742	32759	32799	32675	32711	
1182	0	32731	32711	32726	32643	32735	32691	32501	32644	
1183	0	32754	32687	32759	32706	32743	32642	32681	32703	
1184	0	32799	32815	32647	32535	32751	32847	32581	32743	
1185	0	32710	32791	32698	32679	32703	32615	32647	32663	
1186	0	32742	32795	32679	32679	32719	32766	32598	32742	
1187	0	32708	32773	32767	32662	32823	32731	32695	32655	
1188	0	32751	32751	32679	32723	32773	32687	32693	32699	
1189	0	32754	32787	32718	32519	32719	32799	32482	32607	
1190	0	32761	32775	32679	32535	32805	32845	32575	32635	
1191	0	32704	32804	32755	32589	32805	32804	32619	32634	
1192	0	32750	32726	32731	32749	32739	32735	32475	32753	
1193	0	32752	32815	32710	32647	32823	32634	32610	32766	
1194	0	32787	32818	32617	32714	32743	32635	32711	32703	
1195	0	32695	32791	32679	32527	32799	32791	32675	32647	
1196	0	32839	32847	32639	32591	32763	32786	32750	32591	
1197	0	32768	32715	32635	32660	32775	32899	32647	32536	
1198	0	32759	32775	32655	32623	32679	32865	32647	32594	
1199	0	32807	32813	32631	32597	32710	32873	32647	32695	
1200	0	32756	32715	32695	32647	32775	32775	32646	32634	
1201	0	32722	32795	32647	32639	32723	32747	32557	32677	
1202	0	32791	32751	32702	32555	32785	32643	32503	32755	
1203	0	32764	32826	32735	32494	32762	32545	32511	32766	
1204	0	32762	32706	32711	32629	32738	32595	32550	32743	
1205	0	32743	32797	32706	32710	32775	32771	32747	32766	
1206	0	32736	32709	32733	32735	32819	32756	32699	32707	
1207	0	32726	32775	32767	32647	32751	32735	32637	32717	
1208	0	32745	32723	32763	32695	32799	32701	32613	32789	
1209	0	32773	32759	32639	32727	32807	32727	32658	32789	
1210	0	32718	32786	32722	32699	32757	32859	32711	32743	
1211	0	32730	32721	32708	32483	32834	32679	32551	32748	
1212	0	32738	32829	32660	32711	32767	32561	32564	32711	
1213	0	32729	32743	32725	32642	32805	32791	32767	32623	
1214	0	32740	32863	32723	32669	32791	32799	32655	32667	
1215	0	32775	32834	32676	32527	32755	32791	32705	32751	
1216	0	32784	32862	32671	32510	32767	32663	32543	32771	
1217	0	32775	32839	32717	32621	32749	32593	32767	32742	
1218	0	32794	32710	32615	32755	32775	32695	32623	32775	
1219	0	32742	32775	32739	32723	32815	32711	32615	32771	
1220	0	32796	32795	32839	32765	32786	32767	32610	32755	
1221	0	32676	32789	32727	32659	32795	32813	32647	32734	
1222	0	32688	32751	32848	32523	32804	32763	32711	32702	
1223	0	32739	32820	32758	32571	32766	32718	32647	32683	
1224	0	32775	32739	32623	32764	32855	32596	32663	32771	
1225	0	32775	32767	32735	32693	32727	32715	32527	32791	
1226	0	32717	32818	32769	32702	32803	32723	32782	32757	
1227	0	32809	32767	32613	32559	32733	32833	32711	32731	
1228	0	32786	32815	32687	32559	32821	32839	32679	32711	
1229	0	32775	32813	32733	32569	32815	32791	32675	32669	
1230	0	32775	32747	32703	32687	32742	32811	32713	32742	
1231	0	32759	32735	32593	32775	32762	32877	32573	32716	
1232	0	32819	32753	32719	32746	32793	32858	32551	32719	
1233	0	32784	32815	32641	32727	32775	32837	32499	32746	
1234	0	32743	32723	32687	32791	32738	32790	32588	32697	
1235	0	32730	32775	32659	32559	32715	32583	32707	32687	
1236	0	32690	32823	32735	32634	32774	32775	32666	32763	
1237	0	32775	32885	32782	32614	32747	32578	32526	32735	
1238	0	32733	32802	32691	32740	32731	32853	32687	32699	
1239	0	32683	32759	32703	32687	32747	32749	32607	32749	
1240	0	32716	32725	32727	32549	32845	32510	32510	32771	
1241	0	32738	32711	32695	32659	32783	32868	32610	32726	
1242	0	32750	32809	32615	32644	32733	32812	32711	32647	
1243	0	32711	32766	32735	32551	32791	32705	32658	32759	
1244	0	32756	32783	32759	32671	32800	32711	32647	32679	
1245	0	32799	32755	32630	32519	32671	32585	32562	32711	
1246	0	32788	32817	32611	32669	32718	32829	32647	32719	
1247	0	32740	32845	32739	32725	32767	32706	32708	32811	
1248	0	32718	32783	32767	32519	32772	32822	32653	32738	
1249	0	32736	32694	32677	32615	32755	32815	32668	32622	
1250	0	32753	32807	32591	32609	32762	32590	32454	32742	
1251	0	32790	32845	32773	32647	32806	32743	32692	32647	
1252	0	32773	32814	32751	32701	32805	32789	32686	32759	
1253	0	32764	32869	32727	32740	32707	32771	32667	32690	
1254	0	32763	32692	32646	32690	32775	32754	32628	32751	
1255	0	32698	32839	32671	32598	32775	32793	32634	32721	
1256	0	32787	32775	32775	32761	32805	32801	32647	32735	
1257	0	32719	32805	32707	32722	32835	32863	32641	32775	
1258	0	32775	32815	32647	32644	32765	32835	32745	32711	
1259	0	32772	32862	32759	32678	32788	32871	32738	32692	
1260	0	32750	32789	32743	32683	32817	32767	32711	32717	
1261	0	32734	32807	32691	32681	32743	32834	32647	32749	
1262	0	32754	32795	32731	32662	32759	32789	32687	32667	
1263	0	32796	32839	32661	32487	32788	32879	32698	32639	
1264	0	32798	32683	32802	32579	32759	32775	32450	32703	
1265	0	32722	32775	32671	32690	32807	32610	32527	32655	
1266	0	32676	32775	32631	32713	32767	32555	32705	32717	
1267	0	32743	32741	32748	32783	32807	32517	32699	32629	
1268	0	32781	32759	32751	32506	32767	32673	32621	32671	
1269	0	32742	32820	32646	32531	32791	32719	32717	32658	
1270	0	32799	32743	32671	32626	32811	32738	32767	32663	
1271	0	32772	32727	32702	32715	32763	32703	32703	32685	
1272	0	32849	32827	32743	32679	32749	32757	32589	32743	
1273	0	32784	32791	32636	32641	32735	32749	32599	32807	
1274	0	32716	32710	32724	32684	32679	32773	32502	32767	
1275	0	32698	32821	32695	32695	32771	32823	32507	32701	
1276	0	32775	32720	32591	32647	32731	32843	32715	32695	
1277	0	32785	32770	32775	32646	32799	32668	32681	32712	
1278	0	32751	32815	32789	32615	32771	32639	32562	32695	
1279	0	32716	32814	32623	32647	32839	32647	32629	32694	
1280	0	32720	32894	32739	32508	32775	32855	32467	32631	
1281	0	32767	32749	32743	32663	32764	32863	32641	32640	
1282	0	32775	32749	32623	32643	32735	32927	32669	32517	
1283	0	32743	32796	32791	32678	32775	32854	32692	32633	
1284	0	32771	32747	32745	32659	32783	32718	32671	32803	
1285	0	32800	32799	32668	32723	32739	32557	32666	32839	
1286	0	32735	32807	32669	32671	32775	32647	32711	32893	
1287	0	32677	32723	32743	32586	32827	32701	32699	32860	
1288	0	32761	32807	32743	32743	32733	32687	32610	32814	
1289	0	32745	32685	32690	32692	32827	32677	32463	32747	
1290	0	32753	32745	32728	32663	32703	32631	32551	32775	
1291	0	32762	32775	32709	32767	32741	32571	32587	32799	
1292	0	32780	32725	32613	32581	32799	32570	32756	32759	
1293	0	32738	32799	32727	32530	32759	32721	32647	32742	
1294	0	32734	32847	32663	32687	32809	32816	32619	32743	
1295	0	32762	32797	32756	32719	32747	32767	32611	32764	
1296	0	32747	32723	32641	32734	32743	32719	32602	32741	
1297	0	32741	32715	32775	32623	32835	32694	32603	32734	
1298	0	32662	32799	32724	32690	32722	32758	32712	32730	
1299	0	32775	32749	32769	32719	32783	32771	32647	32704	
1300	0	32743	32771	32665	32702	32810	32791	32603	32623	
1301	0	32694	32833	32603	32709	32795	32804	32679	32587	
1302	0	32731	32815	32701	32702	32750	32895	32718	32694	
1303	0	32741	32706	32775	32559	32823	32895	32642	32665	
1304	0	32764	32679	32643	32535	32782	32813	32711	32621	
1305	0	32772	32797	32695	32557	32819	32833	32661	32763	
1306	0	32762	32819	32675	32554	32834	32730	32679	32788	
1307	0	32751	32845	32658	32730	32823	32658	32663	32721	
1308	0	32772	32767	32717	32619	32710	32633	32548	32671	
1309	0	32775	32775	32735	32610	32761	32590	32807	32699	
1310	0	32690	32806	32801	32695	32787	32791	32719	32692	
1311	0	32749	32789	32715	32679	32794	32826	32767	32692	
1312	0	32694	32730	32762	32691	32759	32771	32719	32660	
1313	0	32734	32735	32707	32713	32839	32647	32638	32727	
1314	0	32746	32839	32715	32631	32847	32796	32647	32647	
1315	0	32725	32799	32684	32551	32741	32815	32693	32526	
1316	0	32742	32657	32695	32466	32751	32866	32690	32598	
1317	0	32762	32799	32759	32565	32807	32839	32626	32687	
1318	0	32742	32845	32662	32638	32727	32871	32673	32693	
1319	0	32696	32801	32803	32647	32775	32927	32603	32731	
1320	0	32741	32869	32700	32663	32708	32647	32711	32701	
1321	0	32764	32811	32682	32703	32749	32613	32503	32687	
1322	0	32767	32787	32732	32503	32845	32763	32530	32763	
1323	0	32775	32858	32753	32579	32766	32694	32713	32728	
1324	0	32735	32869	32676	32691	32783	32722	32701	32827	
1325	0	32772	32679	32755	32695	32786	32783	32705	32703	
1326	0	32720	32742	32734	32743	32775	32839	32662	32690	
1327	0	32773	32751	32715	32707	32751	32647	32495	32677	
1328	0	32806	32679	32695	32711	32743	32684	32623	32743	
1329	0	32814	32775	32719	32511	32743	32647	32611	32775	
1330	0	32739	32813	32623	32631	32836	32695	32567	32758	
1331	0	32748	32823	32671	32703	32759	32775	32678	32636	
1332	0	32785	32823	32694	32717	32711	32766	32641	32735	
1333	0	32767	32738	32595	32575	32727	32823	32687	32747	
1334	0	32804	32765	32634	32493	32743	32813	32551	32733	
1335	0	32799	32798	32709	32644	32683	32775	32587	32735	
1336	0	32763	32823	32699	32705	32739	32775	32563	32717	
1337	0	32752	32738	32684	32721	32807	32775	32573	32775	
1338	0	32830	32679	32754	32707	32791	32612	32491	32762	
1339	0	32764	32723	32677	32749	32819	32511	32569	32775	
1340	0	32769	32775	32757	32783	32863	32538	32527	32677	
1341	0	32743	32677	32635	32759	32775	32558	32735	32658	
1342	0	32758	32787	32607	32635	32787	32815	32666	32595	
1343	0	32748	32823	32727	32619	32775	32811	32775	32631	
1344	0	32786	32740	32662	32547	32722	32783	32692	32567	
1345	0	32680	32865	32647	32711	32781	32795	32666	32653	
1346	0	32700	32788	32699	32742	32821	32721	32706	32799	
1347	0	32774	32742	32714	32759	32735	32724	32746	32679	
1348	0	32709	32695	32767	32775	32799	32767	32727	32819	
1349	0	32716	32767	32701	32710	32839	32765	32699	32751	
1350	0	32755	32813	32647	32665	32741	32839	32675	32615	
1351	0	32706	32799	32727	32735	32742	32887	32663	32630	
1352	0	32708	32735	32729	32719	32843	32829	32647	32690	
1353	0	32732	32762	32668	32583	32775	32731	32583	32609	
1354	0	32752	32733	32757	32585	32799	32643	32743	32633	
1355	0	32736	32834	32708	32708	32711	32519	32694	32722	
1356	0	32803	32825	32700	32695	32757	32583	32739	32631	
1357	0	32775	32855	32615	32623	32775	32702	32653	32645	
1358	0	32767	32839	32679	32647	32773	32743	32628	32711	
1359	0	32761	32667	32731	32675	32803	32819	32578	32705	
1360	0	32751	32749	32773	32721	32839	32797	32571	32685	
1361	0	32690	32791	32687	32743	32757	32711	32463	32722	
1362	0	32734	32799	32783	32620	32783	32596	32719	32631	
1363	0	32764	32775	32658	32671	32690	32548	32735	32677	
1364	0	32742	32819	32646	32655	32698	32543	32659	32722	
1365	0	32712	32767	32663	32699	32709	32583	32722	32717	
1366	0	32735	32739	32793	32681	32817	32679	32684	32679	
1367	0	32705	32805	32767	32767	32738	32614	32681	32677	
1368	0	32802	32823	32665	32652	32799	32733	32591	32733	
1369	0	32732	32723	32635	32538	32769	32711	32503	32737	
1370	0	32832	32757	32695	32579	32767	32799	32542	32773	
1371	0	32822	32775	32807	32669	32813	32819	32508	32791	
1372	0	32730	32829	32695	32637	32795	32759	32550	32725	
1373	0	32780	32707	32701	32671	32735	32759	32587	32711	
1374	0	32775	32751	32669	32617	32807	32855	32677	32647	
1375	0	32748	32791	32655	32669	32759	32811	32626	32647	
1376	0	32769	32759	32627	32655	32756	32809	32639	32613	
1377	0	32745	32829	32716	32647	32807	32743	32562	32615	
1378	0	32712	32813	32726	32487	32754	32615	32681	32605	
1379	0	32743	32815	32647	32595	32763	32567	32647	32611	
1380	0	32719	32765	32639	32615	32846	32662	32679	32679	
1381	0	32681	32839	32771	32703	32754	32583	32602	32671	
1382	0	32669	32805	32748	32723	32756	32583	32591	32692	
1383	0	32743	32873	32711	32687	32813	32642	32575	32709	
1384	0	32784	32635	32669	32721	32667	32795	32578	32685	
1385	0	32823	32735	32627	32706	32749	32791	32635	32681	
1386	0	32658	32783	32725	32727	32839	32703	32631	32731	
1387	0	32702	32743	32734	32528	32734	32703	32562	32707	
1388	0	32732	32741	32691	32511	32797	32807	32642	32727	
1389	0	32751	32790	32794	32621	32866	32894	32683	32717	
1390	0	32781	32821	32695	32723	32755	32786	32696	32726	
1391	0	32757	32751	32717	32647	32858	32634	32719	32811	
1392	0	32747	32805	32854	32658	32833	32567	32647	32731	
1393	0	32823	32775	32726	32727	32747	32759	32629	32754	
1394	0	32819	32729	32687	32741	32775	32791	32663	32795	
1395	0	32808	32699	32706	32706	32790	32615	32722	32735	
1396	0	32828	32775	32671	32671	32791	32589	32731	32783	
1397	0	32804	32759	32804	32515	32827	32703	32683	32813	
1398	0	32782	32786	32763	32638	32711	32877	32647	32633	
1399	0	32768	32815	32674	32668	32726	32839	32710	32687	
1400	0	32751	32831	32667	32647	32833	32711	32627	32683	
1401	0	32704	32733	32756	32631	32766	32710	32611	32619	
1402	0	32802	32828	32743	32591	32775	32567	32727	32667	
1403	0	32775	32839	32638	32677	32815	32591	32730	32527	
1404	0	32744	32711	32694	32669	32695	32583	32647	32595	
1405	0	32666	32839	32705	32597	32769	32744	32583	32605	
1406	0	32705	32871	32719	32647	32775	32799	32535	32575	
1407	0	32765	32721	32658	32816	32733	32839	32567	32541	
1408	0	32702	32791	32701	32695	32801	32793	32791	32613	
1409	0	32738	32745	32761	32690	32787	32866	32697	32653	
1410	0	32747	32719	32707	32738	32742	32855	32715	32791	
1411	0	32666	32687	32677	32712	32741	32887	32703	32766	
1412	0	32741	32799	32759	32691	32815	32802	32663	32775	
1413	0	32782	32866	32795	32558	32767	32647	32630	32807	
1414	0	32738	32694	32647	32673	32784	32641	32663	32767	
1415	0	32738	32726	32743	32743	32787	32587	32647	32707	
1416	0	32738	32695	32685	32708	32762	32756	32583	32751	
1417	0	32710	32703	32679	32681	32815	32828	32509	32730	
1418	0	32692	32751	32663	32759	32809	32775	32519	32703	
1419	0	32684	32775	32775	32695	32738	32711	32478	32719	
1420	0	32743	32691	32647	32564	32799	32751	32475	32803	
1421	0	32718	32711	32723	32582	32835	32731	32481	32855	
1422	0	32692	32641	32598	32534	32773	32823	32710	32854	
1423	0	32640	32631	32717	32631	32803	32770	32671	32722	
1424	0	32623	32535	32662	32690	32859	32695	32527	32725	
1425	0	32575	32583	32710	32773	32786	32638	32511	32679	
1426	0	32595	32590	32701	32727	32773	32519	32553	32785	
1427	0	32563	32504	32639	32691	32903	32454	32551	32802	
1428	0	32565	32636	32716	32687	32819	32663	32559	32747	
1429	0	32567	32623	32801	32679	32863	32813	32503	32855	
1430	0	32530	32622	32689	32519	32862	32817	32485	32839	
1431	0	32494	32685	32751	32527	32859	32837	32439	32871	
1432	0	32582	32749	32791	32593	32850	32679	32391	32791	
1433	0	32599	32819	32757	32581	32791	32601	32462	32682	
1434	0	32634	32919	32894	32539	32911	32647	32742	32669	
1435	0	32604	32967	32925	32562	32859	32751	32647	32737	
1436	0	32688	32927	32863	32431	32911	32839	32530	32741	
1437	0	32711	33111	32967	32403	32869	32867	32521	32741	
1438	0	32779	33223	32911	32466	32903	32977	32375	32694	
1439	0	32892	33247	32799	32423	32866	32855	32391	32679	
1440	0	32889	33374	32973	32259	32955	32891	32535	32860	
1441	0	32933	33383	32926	32290	32829	32975	32621	32731	
1442	0	32994	33499	32895	32237	32827	32963	32694	32687	
1443	0	33150	33505	32831	32375	32773	33127	32599	32615	
1444	0	33099	33431	32855	32567	32687	33103	32577	32591	
1445	0	33144	33321	32751	32571	32685	32865	32698	32507	
1446	0	33111	33223	32775	32551	32726	32775	32940	32557	
1447	0	33099	33239	32766	32714	32654	32717	32945	32601	
1448	0	33071	33119	32695	32691	32679	32695	32899	32585	
1449	0	33082	33091	32679	32546	32627	32685	32823	32579	
1450	0	33064	33015	32647	32543	32634	32799	32755	32647	
1451	0	33016	33007	32669	32589	32706	32739	32839	32607	
1452	0	32876	32733	32525	32894	32620	32750	32970	32434	
1453	0	32879	32647	32487	32925	32596	32807	33105	32339	
1454	0	32937	32724	32527	32924	32553	32789	33008	32271	
1455	0	32881	32604	32498	32871	32450	32739	33319	32278	
1456	0	32941	32556	32467	32854	32470	32711	33204	32242	
1457	0	32955	32404	32353	32982	32471	32757	33342	32263	
1458	0	33082	32415	32391	33155	32391	32705	33279	32261	
1459	0	33093	32378	32371	33151	32388	32731	33179	32277	
1460	0	33135	32215	32327	33125	32507	32707	33103	32295	
1461	0	33102	32135	32271	33250	32375	32550	33095	32247	
1462	0	32916	32191	32359	33039	32539	32375	33222	32407	
1463	0	32743	32150	32439	32962	32575	32407	32980	32610	
1464	0	32647	32132	32481	32833	32715	32439	32738	32753	
1465	0	32561	32207	32557	32894	32815	32403	32517	32871	
1466	0	32530	32371	32670	32827	32844	32567	32497	32956	
1467	0	32443	32327	32742	32717	32867	32639	32386	32977	
1468	0	32425	32421	32702	32754	33012	32594	32281	33115	
1469	0	32396	32389	32699	32629	32927	32595	32305	33031	
1470	0	32450	32487	32847	32669	32954	32647	32219	32998	
1471	0	32346	32365	32847	32685	33107	32631	32155	33110	
1472	0	32355	32415	32885	32663	33043	32679	32148	33107	
1473	0	32460	32493	32775	32628	32967	32759	32211	33071	
1474	0	32431	32519	32804	32519	33012	32722	32055	33083	
1475	0	32442	32519	32850	32535	32917	32610	32205	33019	
1476	0	32486	32641	32801	32531	32998	32607	32320	33045	
1477	0	32562	32717	32911	32539	32891	32538	32292	33039	
1478	0	32583	32590	32877	32543	32923	32599	32454	32903	
1479	0	32544	32751	32869	32617	32975	32511	32509	32949	
1480	0	32626	32855	32759	32543	32926	32477	32525	32963	
1481	0	32605	32870	32790	32583	32847	32471	32519	32901	
1482	0	32699	32822	32738	32519	32831	32757	32431	32854	
1483	0	32752	32925	32683	32434	32846	32863	32501	32743	
1484	0	32781	32895	32765	32636	32741	32835	32601	32735	
1485	0	32790	32955	32743	32583	32769	32935	32658	32687	
1486	0	32743	32995	32754	32654	32799	32937	32791	32727	
1487	0	32758	32994	32773	32479	32824	32837	32655	32611	
1488	0	32818	32935	32743	32659	32745	32662	32676	32699	
1489	0	32830	32922	32730	32575	32721	32887	32837	32572	
1490	0	32782	32912	32756	32675	32754	32839	32615	32645	
1491	0	32824	32959	32685	32570	32799	32599	32647	32626	
1492	0	32766	32947	32755	32684	32759	32810	32615	32698	
1493	0	32749	32882	32710	32605	32771	32823	32727	32593	
1494	0	32839	32823	32676	32683	32789	32605	32695	32717	
1495	0	32775	32775	32767	32663	32835	32711	32609	32763	
1496	0	32815	32837	32751	32555	32765	32823	32694	32671	
1497	0	32766	32863	32679	32647	32768	32826	32703	32711	
1498	0	32764	32863	32684	32662	32742	32799	32593	32797	
1499	0	32795	32867	32747	32501	32751	32751	32647	32647	
1500	0	32746	32863	32673	32695	32713	32647	32567	32767	
1501	0	32742	32790	32795	32519	32695	32799	32725	32775	
1502	0	32721	32767	32674	32644	32715	32832	32814	32683	
1503	0	32754	32805	32643	32583	32782	32813	32762	32674	
1504	0	32775	32871	32661	32543	32717	32845	32715	32637	
1505	0	32784	32759	32631	32594	32775	32911	32687	32667	
1506	0	32795	32803	32615	32601	32793	32838	32711	32695	
1507	0	32775	32831	32647	32641	32723	32735	32653	32690	
1508	0	32803	32799	32715	32693	32831	32639	32591	32727	
1509	0	32771	32809	32701	32647	32799	32617	32599	32625	
1510	0	32739	32839	32715	32647	32701	32679	32663	32543	
1511	0	32738	32801	32647	32612	32750	32647	32735	32543	
1512	0	32721	32831	32738	32566	32837	32823	32695	32631	
1513	0	32691	32795	32806	32694	32791	32645	32687	32719	
1514	0	32764	32817	32767	32709	32775	32566	32691	32827	
1515	0	32761	32791	32819	32695	32829	32638	32677	32799	
1516	0	32749	32775	32734	32687	32791	32655	32535	32831	
1517	0	32775	32735	32799	32582	32775	32782	32558	32769	
1518	0	32827	32711	32799	32715	32751	32839	32740	32695	
1519	0	32720	32807	32662	32703	32771	32629	32754	32685	
1520	0	32741	32794	32677	32559	32815	32815	32503	32751	
1521	0	32764	32814	32727	32669	32757	32814	32619	32763	
1522	0	32793	32711	32738	32611	32855	32647	32747	32647	
1523	0	32790	32795	32679	32671	32757	32883	32595	32743	
1524	0	32738	32747	32745	32723	32775	32742	32647	32667	
1525	0	32750	32727	32723	32586	32775	32631	32626	32687	
1526	0	32758	32725	32772	32699	32790	32773	32617	32619	
1527	0	32801	32839	32685	32668	32786	32743	32553	32711	
1528	0	32775	32854	32598	32775	32756	32691	32655	32679	
1529	0	32795	32810	32739	32717	32695	32724	32741	32773	
1530	0	32694	32715	32724	32627	32803	32574	32694	32743	
1531	0	32746	32820	32635	32679	32764	32821	32647	32639	
1532	0	32725	32755	32717	32701	32717	32623	32679	32709	
1533	0	32793	32773	32655	32693	32775	32608	32703	32647	
1534	0	32751	32703	32702	32743	32811	32582	32663	32683	
1535	0	32711	32775	32676	32701	32793	32755	32634	32719	
1536	0	32749	32775	32655	32655	32812	32756	32676	32667	
1537	0	32752	32690	32755	32503	32806	32719	32655	32706	
1538	0	32743	32775	32627	32555	32813	32743	32479	32820	
1539	0	32755	32791	32763	32574	32759	32805	32695	32721	
1540	0	32736	32827	32759	32687	32715	32795	32711	32647	
1541	0	32682	32775	32781	32695	32803	32843	32647	32731	
1542	0	32791	32823	32559	32703	32690	32695	32668	32775	
1543	0	32748	32809	32715	32646	32763	32578	32710	32735	
1544	0	32717	32719	32685	32671	32775	32562	32616	32731	
1545	0	32740	32775	32662	32735	32747	32571	32639	32743	
1546	0	32726	32795	32643	32686	32790	32623	32720	32663	
1547	0	32764	32807	32718	32703	32797	32785	32599	32645	
1548	0	32753	32743	32703	32725	32745	32827	32599	32563	
1549	0	32756	32826	32711	32713	32767	32859	32605	32583	
1550	0	32810	32818	32617	32683	32767	32922	32593	32549	
1551	0	32769	32695	32711	32495	32757	32727	32548	32599	
1552	0	32739	32803	32626	32518	32727	32681	32573	32691	
1553	0	32807	32843	32655	32555	32879	32834	32639	32716	
1554	0	32784	32839	32723	32612	32809	32852	32733	32775	
1555	0	32742	32703	32789	32723	32763	32807	32702	32771	
1556	0	32706	32787	32775	32727	32809	32690	32579	32743	
1557	0	32759	32743	32693	32765	32739	32583	32667	32690	
1558	0	32743	32755	32775	32740	32729	32618	32622	32756	
1559	0	32676	32687	32719	32783	32742	32545	32611	32766	
1560	0	32673	32791	32805	32655	32674	32667	32493	32790	
1561	0	32730	32791	32695	32582	32814	32711	32671	32775	
1562	0	32709	32687	32799	32558	32719	32807	32671	32791	
1563	0	32785	32750	32741	32492	32762	32786	32607	32735	
1564	0	32681	32754	32643	32579	32819	32850	32587	32810	
1565	0	32775	32775	32685	32690	32730	32859	32659	32679	
1566	0	32787	32754	32703	32687	32827	32615	32687	32775	
1567	0	32762	32767	32667	32694	32771	32509	32671	32766	
1568	0	32743	32701	32723	32750	32786	32729	32521	32791	
1569	0	32751	32783	32747	32527	32754	32795	32615	32745	
1570	0	32736	32839	32653	32594	32799	32819	32683	32746	
1571	0	32742	32727	32783	32591	32797	32759	32647	32766	
1572	0	32805	32839	32726	32655	32719	32775	32623	32636	
1573	0	32751	32815	32705	32677	32766	32755	32617	32583	
1574	0	32723	32791	32603	32692	32765	32629	32694	32617	
1575	0	32726	32775	32672	32619	32796	32615	32627	32602	
1576	0	32755	32821	32691	32743	32809	32549	32525	32647	
1577	0	32800	32749	32619	32817	32703	32719	32495	32631	
1578	0	32783	32698	32725	32642	32763	32761	32725	32623	
1579	0	32771	32815	32718	32586	32742	32867	32731	32655	
1580	0	32775	32813	32626	32492	32795	32819	32675	32620	
1581	0	32759	32710	32740	32627	32823	32683	32634	32637	
1582	0	32821	32773	32711	32739	32751	32598	32711	32681	
1583	0	32753	32799	32683	32643	32815	32811	32582	32687	
1584	0	32750	32807	32749	32701	32823	32775	32535	32647	
1585	0	32786	32815	32701	32615	32815	32756	32743	32807	
1586	0	32758	32691	32623	32551	32775	32695	32647	32738	
1587	0	32797	32794	32732	32531	32821	32617	32629	32687	
1588	0	32786	32795	32723	32723	32789	32603	32705	32727	
1589	0	32759	32795	32586	32658	32707	32771	32673	32743	
1590	0	32743	32749	32748	32685	32740	32739	32642	32685	
1591	0	32727	32806	32681	32695	32708	32775	32518	32698	
1592	0	32721	32724	32666	32683	32795	32833	32607	32707	
1593	0	32743	32799	32711	32574	32707	32829	32658	32745	
1594	0	32734	32819	32743	32535	32815	32687	32647	32759	
1595	0	32743	32743	32791	32555	32773	32701	32685	32626	
1596	0	32745	32699	32707	32539	32739	32679	32635	32636	
1597	0	32788	32747	32647	32637	32711	32734	32670	32758	
1598	0	32739	32775	32705	32575	32786	32596	32647	32783	
1599	0	32771	32843	32727	32635	32753	32576	32639	32807	
1600	0	32727	32725	32765	32711	32747	32551	32707	32766	
1601	0	32775	32765	32681	32739	32775	32751	32727	32765	
1602	0	32791	32743	32743	32685	32702	32775	32605	32783	
1603	0	32791	32791	32667	32737	32847	32809	32637	32711	
1604	0	32765	32815	32514	32711	32825	32815	32507	32758	
1605	0	32720	32775	32839	32553	32757	32834	32655	32775	
1606	0	32743	32756	32887	32578	32895	32754	32588	32775	
1607	0	32765	32775	32695	32719	32799	32658	32647	32679	
1608	0	32677	32770	32739	32687	32796	32607	32738	32735	
1609	0	32738	32699	32675	32708	32815	32485	32717	32799	
1610	0	32756	32791	32759	32617	32763	32485	32691	32712	
1611	0	32781	32754	32647	32673	32791	32579	32615	32747	
1612	0	32790	32669	32679	32647	32802	32581	32594	32719	
1613	0	32725	32775	32725	32669	32739	32759	32538	32735	
1614	0	32749	32773	32755	32679	32750	32583	32477	32675	
1615	0	32807	32783	32775	32727	32751	32623	32594	32593	
1616	0	32759	32764	32695	32687	32711	32561	32662	32519	
1617	0	32766	32795	32646	32479	32767	32719	32647	32551	
1618	0	32784	32844	32710	32499	32823	32803	32673	32617	
1619	0	32730	32711	32657	32671	32751	32791	32679	32596	
1620	0	32748	32791	32721	32628	32879	32811	32555	32772	
1621	0	32748	32731	32787	32692	32854	32863	32683	32789	
1622	0	32740	32839	32731	32775	32775	32865	32639	32743	
1623	0	32729	32830	32807	32666	32775	32726	32589	32791	
1624	0	32684	32751	32762	32507	32795	32566	32588	32801	
1625	0	32698	32731	32775	32531	32833	32547	32630	32852	
1626	0	32765	32815	32621	32619	32791	32514	32646	32717	
1627	0	32751	32790	32721	32671	32742	32617	32713	32725	
1628	0	32730	32734	32759	32695	32711	32845	32605	32797	
1629	0	32701	32799	32583	32647	32749	32855	32540	32658	
1630	0	32794	32863	32719	32687	32791	32743	32583	32683	
1631	0	32748	32775	32670	32739	32784	32703	32519	32679	
1632	0	32740	32871	32661	32739	32767	32701	32743	32604	
1633	0	32764	32871	32617	32643	32783	32723	32607	32653	
1634	0	32799	32839	32703	32607	32727	32733	32583	32647	
1635	0	32764	32839	32703	32570	32769	32846	32743	32607	
1636	0	32738	32851	32647	32535	32854	32863	32655	32647	
1637	0	32774	32719	32711	32481	32666	32855	32635	32593	
1638	0	32760	32751	32727	32573	32731	32854	32527	32623	
1639	0	32764	32839	32711	32687	32747	32691	32570	32647	
1640	0	32742	32759	32793	32630	32756	32570	32799	32682	
1641	0	32762	32791	32775	32685	32850	32603	32731	32615	
1642	0	32714	32747	32747	32647	32775	32801	32631	32621	
1643	0	32733	32775	32771	32528	32843	32850	32629	32677	
1644	0	32786	32815	32742	32723	32742	32959	32519	32647	
1645	0	32798	32718	32633	32759	32859	32879	32583	32659	
1646	0	32742	32754	32775	32653	32749	32619	32727	32739	
1647	0	32772	32675	32759	32706	32837	32565	32684	32859	
1648	0	32673	32757	32739	32550	32775	32662	32647	32823	
1649	0	32708	32775	32756	32719	32819	32863	32507	32775	
1650	0	32742	32767	32661	32714	32743	32617	32603	32695	
1651	0	32789	32807	32775	32749	32806	32783	32661	32759	
1652	0	32767	32787	32647	32585	32799	32705	32579	32703	
1653	0	32765	32775	32615	32567	32751	32775	32647	32717	
1654	0	32775	32831	32727	32527	32762	32765	32639	32711	
1655	0	32766	32695	32751	32560	32766	32871	32631	32707	
1656	0	32772	32771	32764	32599	32797	32877	32717	32635	
1657	0	32838	32775	32599	32615	32802	32898	32759	32659	
1658	0	32790	32853	32623	32615	32695	32759	32647	32707	
1659	0	32775	32771	32671	32670	32803	32679	32490	32783	
1660	0	32742	32743	32642	32655	32751	32631	32563	32782	
1661	0	32740	32871	32635	32682	32715	32567	32775	32797	
1662	0	32756	32709	32797	32745	32831	32623	32738	32754	
1663	0	32756	32831	32732	32675	32723	32607	32551	32623	
1664	0	32763	32843	32695	32620	32748	32775	32594	32578	
1665	0	32804	32711	32694	32617	32839	32739	32659	32589	
1666	0	32784	32767	32775	32515	32755	32771	32687	32633	
1667	0	32803	32831	32714	32487	32769	32767	32702	32625	
1668	0	32854	32695	32775	32543	32766	32749	32676	32695	
1669	0	32747	32791	32599	32613	32731	32684	32641	32798	
1670	0	32760	32788	32663	32703	32775	32831	32701	32679	
1671	0	32813	32735	32679	32703	32817	32633	32675	32693	
1672	0	32784	32815	32615	32709	32807	32554	32551	32647	
1673	0	32751	32717	32675	32775	32819	32527	32550	32679	
1674	0	32701	32699	32671	32639	32795	32775	32751	32722	
1675	0	32704	32725	32775	32636	32893	32763	32639	32719	
1676	0	32713	32757	32824	32775	32773	32863	32643	32657	
1677	0	32786	32823	32755	32663	32761	32825	32735	32699	
1678	0	32759	32753	32765	32691	32730	32642	32498	32716	
1679	0	32790	32829	32647	32535	32812	32639	32606	32787	
1680	0	32747	32795	32679	32727	32715	32660	32723	32835	
1681	0	32684	32806	32743	32572	32775	32814	32671	32691	
1682	0	32775	32834	32694	32687	32743	32623	32675	32669	
1683	0	32808	32843	32695	32583	32782	32535	32511	32639	
1684	0	32748	32695	32687	32483	32748	32723	32826	32645	
1685	0	32745	32789	32718	32467	32784	32698	32765	32639	
1686	0	32775	32746	32747	32587	32731	32775	32757	32637	
1687	0	32782	32694	32599	32723	32795	32839	32675	32627	
1688	0	32763	32746	32659	32727	32811	32806	32655	32663	
1689	0	32747	32775	32749	32640	32755	32835	32723	32695	
1690	0	32791	32711	32647	32703	32831	32943	32739	32639	
1691	0	32764	32783	32743	32683	32785	32943	32703	32667	
1692	0	32736	32837	32713	32639	32827	32738	32567	32715	
1693	0	32735	32743	32630	32481	32845	32609	32481	32694	
1694	0	32727	32820	32732	32642	32765	32519	32643	32687	
1695	0	32760	32687	32659	32668	32811	32709	32686	32695	
1696	0	32751	32751	32674	32641	32764	32711	32621	32666	
1697	0	32733	32722	32551	32582	32716	32747	32463	32735	
1698	0	32743	32733	32703	32535	32755	32775	32509	32690	
1699	0	32716	32759	32677	32581	32762	32839	32527	32643	
1700	0	32733	32762	32734	32553	32791	32879	32599	32724	
1701	0	32742	32739	32599	32641	32751	32807	32703	32642	
1702	0	32746	32811	32753	32738	32823	32643	32566	32593	
1703	0	32773	32716	32783	32656	32743	32602	32638	32603	
1704	0	32718	32811	32639	32619	32795	32609	32723	32605	
1705	0	32713	32810	32758	32687	32790	32591	32637	32683	
1706	0	32709	32677	32727	32775	32738	32614	32605	32643	
1707	0	32758	32747	32607	32787	32735	32711	32535	32743	
1708	0	32720	32775	32723	32597	32735	32753	32614	32714	
1709	0	32745	32799	32790	32586	32798	32800	32747	32647	
1710	0	32799	32799	32707	32615	32755	32755	32743	32647	
1711	0	32775	32695	32707	32715	32719	32758	32671	32679	
1712	0	32759	32755	32738	32647	32799	32804	32687	32725	
1713	0	32784	32741	32667	32703	32725	32795	32725	32756	
1714	0	32734	32695	32611	32663	32717	32807	32519	32761	
1715	0	32753	32804	32667	32620	32755	32847	32495	32775	
1716	0	32775	32807	32641	32690	32763	32864	32623	32726	
1717	0	32758	32746	32570	32715	32751	32876	32765	32738	
1718	0	32758	32823	32709	32588	32847	32743	32771	32666	
1719	0	32806	32827	32799	32567	32823	32615	32655	32727	
1720	0	32743	32727	32831	32564	32846	32631	32591	32743	
1721	0	32711	32763	32812	32716	32810	32807	32739	32555	
1722	0	32694	32749	32807	32612	32847	32855	32687	32717	
1723	0	32787	32735	32807	32647	32805	32747	32525	32738	
1724	0	32762	32875	32773	32535	32789	32641	32555	32751	
1725	0	32728	32839	32659	32644	32742	32795	32715	32634	
1726	0	32751	32831	32659	32797	32735	32562	32527	32743	
1727	0	32707	32829	32738	32615	32735	32693	32719	32775	
1728	0	32684	32751	32743	32647	32806	32719	32735	32799	
1729	0	32722	32694	32769	32623	32743	32555	32595	32659	
1730	0	32775	32869	32647	32687	32722	32899	32711	32724	
1731	0	32797	32837	32635	32702	32725	32759	32796	32647	
1732	0	32743	32835	32739	32639	32797	32787	32709	32727	
1733	0	32757	32715	32695	32659	32786	32773	32629	32623	
1734	0	32742	32763	32731	32653	32759	32709	32775	32751	
1735	0	32727	32839	32647	32628	32739	32627	32619	32701	
1736	0	32742	32791	32683	32655	32887	32767	32571	32843	
1737	0	32737	32775	32690	32511	32773	32614	32367	32754	
1738	0	32726	32638	32795	32719	32727	32790	32555	32775	
1739	0	32760	32693	32804	32735	32736	32791	32703	32677	
1740	0	32736	32839	32674	32551	32819	32803	32647	32703	
1741	0	32743	32903	32692	32694	32775	32846	32683	32605	
1742	0	32752	32821	32761	32691	32811	32823	32647	32687	
1743	0	32782	32799	32702	32551	32767	32706	32718	32647	
1744	0	32794	32759	32723	32629	32773	32767	32698	32775	
1745	0	32827	32819	32679	32489	32847	32675	32658	32764	
1746	0	32754	32813	32724	32638	32775	32703	32791	32788	
1747	0	32783	32793	32683	32694	32733	32743	32703	32701	
1748	0	32752	32743	32659	32683	32743	32515	32692	32749	
1749	0	32742	32790	32647	32675	32775	32867	32630	32735	
1750	0	32790	32775	32699	32679	32773	32775	32631	32695	
1751	0	32724	32862	32707	32703	32687	32575	32609	32703	
1752	0	32675	32763	32773	32655	32775	32834	32738	32711	
1753	0	32720	32821	32676	32559	32837	32751	32765	32690	
1754	0	32742	32846	32599	32647	32775	32583	32625	32766	
1755	0	32718	32845	32713	32551	32743	32763	32735	32722	
1756	0	32736	32726	32675	32642	32764	32797	32482	32619	
1757	0	32775	32771	32769	32635	32766	32719	32611	32698	
1758	0	32788	32767	32661	32487	32735	32845	32797	32687	
1759	0	32796	32829	32709	32741	32775	32734	32735	32677	
1760	0	32702	32787	32773	32685	32765	32750	32671	32731	
1761	0	32855	32759	32751	32529	32861	32758	32486	32703	
1762	0	32762	32694	32759	32737	32839	32719	32647	32686	
1763	0	32724	32735	32767	32687	32804	32639	32706	32629	
1764	0	32737	32677	32703	32677	32749	32883	32589	32724	
1765	0	32738	32659	32627	32638	32751	32828	32688	32621	
1766	0	32756	32722	32789	32704	32771	32607	32724	32758	
1767	0	32702	32775	32721	32647	32799	32581	32502	32702	
1768	0	32759	32699	32727	32575	32839	32863	32669	32745	
1769	0	32669	32733	32615	32619	32771	32754	32568	32751	
1770	0	32779	32711	32669	32499	32739	32773	32692	32762	
1771	0	32765	32715	32742	32675	32731	32742	32637	32647	
1772	0	32706	32767	32691	32679	32798	32775	32518	32711	
1773	0	32773	32699	32711	32524	32831	32644	32610	32751	
1774	0	32766	32802	32763	32757	32775	32854	32615	32725	
1775	0	32820	32811	32737	32739	32818	32786	32707	32743	
1776	0	32807	32805	32659	32580	32731	32738	32603	32687	
1777	0	32704	32775	32781	32659	32671	32825	32559	32767	
1778	0	32747	32767	32697	32769	32837	32767	32661	32717	
1779	0	32775	32715	32797	32671	32919	32673	32579	32742	
1780	0	32764	32807	32647	32711	32785	32589	32660	32823	
1781	0	32745	32807	32739	32589	32719	32495	32803	32749	
1782	0	32751	32789	32686	32707	32743	32807	32594	32713	
1783	0	32679	32789	32721	32662	32807	32743	32663	32711	
1784	0	32724	32733	32738	32616	32796	32639	32661	32671	
1785	0	32773	32738	32687	32663	32775	32851	32572	32754	
1786	0	32694	32751	32734	32679	32807	32747	32655	32711	
1787	0	32722	32804	32861	32542	32807	32775	32717	32727	
1788	0	32749	32831	32845	32599	32823	32799	32619	32730	
1789	0	32756	32719	32756	32583	32775	32617	32634	32675	
1790	0	32807	32786	32666	32666	32715	32873	32479	32747	
1791	0	32803	32902	32751	32683	32723	32804	32661	32655	
1792	0	32775	32838	32727	32487	32775	32622	32775	32745	
1793	0	32692	32839	32700	32689	32811	32809	32530	32666	
1794	0	32757	32727	32663	32735	32755	32692	32677	32711	
1795	0	32755	32727	32703	32523	32718	32838	32762	32644	
1796	0	32799	32733	32775	32687	32642	32781	32725	32702	
1797	0	32824	32850	32724	32613	32762	32631	32679	32707	
1798	0	32740	32821	32666	32711	32823	32818	32575	32669	
1799	0	32766	32765	32655	32598	32758	32878	32535	32724	
1800	0	32802	32766	32689	32749	32735	32763	32708	32663	
1801	0	32775	32796	32646	32755	32809	32583	32742	32815	
1802	0	32863	32759	32695	32723	32775	32847	32667	32613	
1803	0	32708	32719	32713	32755	32722	32819	32629	32762	
1804	0	32728	32699	32775	32594	32759	32681	32459	32646	
1805	0	32639	32775	32755	32671	32823	32830	32582	32837	
1806	0	32714	32782	32719	32645	32851	32683	32647	32685	
1807	0	32775	32775	32807	32658	32819	32679	32519	32721	
1808	0	32669	32775	32695	32711	32785	32675	32571	32796	
1809	0	32755	32751	32747	32615	32749	32491	32762	32791	
1810	0	32751	32750	32674	32673	32831	32743	32591	32815	
1811	0	32769	32775	32715	32549	32743	32675	32679	32677	
1812	0	32763	32743	32658	32699	32727	32659	32545	32679	
1813	0	32767	32807	32711	32647	32726	32879	32667	32555	
1814	0	32804	32711	32637	32567	32743	32798	32575	32695	
1815	0	32762	32839	32655	32647	32783	32670	32683	32639	
1816	0	32782	32823	32679	32678	32797	32775	32695	32711	
1817	0	32711	32759	32718	32643	32743	32813	32607	32637	
1818	0	32768	32815	32739	32663	32769	32787	32637	32739	
1819	0	32676	32715	32638	32514	32826	32819	32519	32706	
1820	0	32834	32775	32747	32719	32759	32519	32607	32691	
1821	0	32767	32795	32773	32642	32787	32767	32551	32787	
1822	0	32748	32775	32767	32697	32801	32726	32743	32642	
1823	0	32747	32807	32646	32621	32846	32570	32731	32738	
1824	0	32759	32715	32721	32519	32746	32677	32543	32611	
1825	0	32765	32716	32819	32668	32775	32829	32683	32775	
1826	0	32806	32863	32783	32705	32708	32657	32731	32674	
1827	0	32819	32815	32655	32571	32855	32825	32722	32763	
1828	0	32752	32821	32599	32683	32799	32719	32717	32711	
1829	0	32679	32759	32641	32731	32771	32533	32567	32665	
1830	0	32775	32742	32594	32631	32727	32565	32523	32691	
1831	0	32757	32796	32611	32740	32790	32581	32507	32699	
1832	0	32766	32754	32655	32667	32698	32751	32487	32710	
1833	0	32713	32775	32757	32647	32829	32768	32466	32795	
1834	0	32694	32771	32751	32636	32871	32746	32530	32766	
1835	0	32745	32834	32695	32703	32783	32718	32717	32679	
1836	0	32765	32705	32737	32775	32722	32791	32709	32641	
1837	0	32720	32790	32734	32735	32794	32759	32605	32612	
1838	0	32818	32822	32621	32630	32821	32839	32679	32631	
1839	0	32736	32739	32646	32501	32729	32895	32710	32639	
1840	0	32741	32767	32639	32571	32775	32687	32602	32679	
1841	0	32681	32815	32695	32599	32805	32621	32567	32617	
1842	0	32702	32720	32689	32731	32846	32546	32567	32599	
1843	0	32786	32729	32759	32808	32773	32715	32682	32634	
1844	0	32790	32767	32841	32791	32813	32729	32591	32726	
1845	0	32708	32731	32719	32699	32759	32790	32647	32695	
1846	0	32774	32730	32683	32685	32789	32727	32756	32700	
1847	0	32736	32775	32633	32679	32711	32802	32693	32725	
1848	0	32758	32820	32688	32757	32804	32797	32679	32713	
1849	0	32775	32711	32703	32532	32742	32883	32675	32678	
1850	0	32738	32815	32727	32548	32819	32743	32610	32707	
1851	0	32761	32797	32719	32751	32797	32614	32505	32762	
1852	0	32783	32670	32716	32717	32769	32626	32719	32797	
1853	0	32736	32765	32756	32643	32820	32806	32694	32749	
1854	0	32794	32775	32682	32766	32751	32845	32691	32711	
1855	0	32743	32647	32695	32673	32783	32799	32627	32690	
1856	0	32703	32767	32647	32715	32811	32763	32643	32687	
1857	0	32715	32831	32773	32679	32775	32854	32711	32717	
1858	0	32809	32747	32790	32551	32793	32881	32635	32687	
1859	0	32762	32773	32615	32583	32743	32845	32583	32763	
1860	0	32748	32835	32751	32599	32743	32775	32480	32717	
1861	0	32756	32703	32654	32635	32763	32582	32559	32729	
1862	0	32803	32865	32743	32685	32734	32530	32751	32709	
1863	0	32767	32854	32703	32711	32759	32503	32715	32775	
1864	0	32739	32861	32815	32633	32748	32515	32635	32756	
1865	0	32676	32790	32823	32647	32738	32733	32598	32763	
1866	0	32730	32819	32801	32617	32765	32775	32661	32711	
1867	0	32738	32829	32613	32723	32775	32797	32631	32731	
1868	0	32771	32793	32703	32775	32731	32855	32583	32804	
1869	0	32724	32802	32683	32759	32790	32900	32519	32742	
1870	0	32731	32729	32633	32519	32739	32607	32694	32713	
1871	0	32775	32815	32695	32671	32767	32487	32638	32786	
1872	0	32736	32668	32796	32698	32771	32751	32631	32797	
1873	0	32822	32735	32671	32732	32766	32707	32685	32770	
1874	0	32780	32819	32727	32703	32831	32702	32567	32765	
1875	0	32755	32785	32694	32707	32727	32688	32539	32697	
1876	0	32740	32810	32674	32721	32738	32826	32727	32663	
1877	0	32807	32799	32726	32526	32815	32639	32607	32719	
1878	0	32762	32694	32738	32597	32727	32567	32709	32702	
1879	0	32799	32852	32647	32709	32775	32756	32644	32679	
1880	0	32769	32719	32647	32659	32774	32815	32579	32734	
1881	0	32861	32775	32667	32745	32862	32775	32764	32703	
1882	0	32749	32717	32725	32561	32769	32662	32615	32719	
1883	0	32738	32775	32769	32623	32775	32783	32671	32674	
1884	0	32734	32759	32687	32647	32746	32775	32575	32599	
1885	0	32727	32677	32683	32716	32839	32751	32511	32625	
1886	0	32727	32719	32773	32671	32762	32815	32487	32749	
1887	0	32730	32775	32667	32703	32791	32819	32573	32739	
1888	0	32760	32775	32807	32567	32719	32647	32742	32590	
1889	0	32691	32771	32691	32495	32775	32570	32601	32578	
1890	0	32738	32775	32671	32619	32838	32774	32685	32647	
1891	0	32696	32743	32703	32787	32783	32743	32711	32644	
1892	0	32752	32807	32717	32766	32765	32702	32591	32645	
1893	0	32839	32819	32658	32735	32708	32773	32551	32643	
1894	0	32732	32811	32703	32639	32755	32871	32530	32619	
1895	0	32759	32815	32739	32673	32795	32871	32615	32645	
1896	0	32754	32867	32663	32677	32687	32839	32804	32692	
1897	0	32733	32755	32655	32708	32790	32725	32707	32722	
1898	0	32803	32711	32767	32701	32812	32621	32623	32791	
1899	0	32722	32851	32775	32559	32775	32638	32635	32711	
1900	0	32738	32747	32663	32583	32795	32955	32686	32708	
1901	0	32734	32751	32749	32742	32766	32836	32581	32690	
1902	0	32769	32815	32759	32685	32787	32703	32517	32725	
1903	0	32787	32763	32644	32695	32817	32641	32563	32742	
1904	0	32796	32839	32751	32711	32767	32707	32705	32711	
1905	0	32769	32869	32769	32604	32827	32591	32652	32643	
1906	0	32775	32703	32679	32588	32711	32543	32692	32683	
1907	0	32770	32701	32679	32503	32821	32653	32514	32630	
1908	0	32702	32723	32755	32583	32748	32735	32507	32626	
1909	0	32692	32787	32811	32711	32795	32748	32658	32598	
1910	0	32772	32837	32715	32687	32790	32863	32699	32572	
1911	0	32784	32708	32695	32646	32745	32895	32694	32673	
1912	0	32743	32786	32575	32639	32814	32847	32653	32607	
1913	0	32799	32827	32717	32663	32759	32660	32689	32572	
1914	0	32719	32711	32751	32575	32763	32662	32715	32562	
1915	0	32731	32775	32695	32502	32775	32811	32615	32635	
1916	0	32724	32832	32763	32585	32760	32751	32534	32705	
1917	0	32775	32755	32759	32698	32759	32788	32559	32726	
1918	0	32743	32775	32825	32703	32771	32791	32535	32791	
1919	0	32756	32924	32641	32682	32749	32759	32603	32775	
1920	0	32768	32715	32701	32679	32852	32807	32703	32775	
1921	0	32730	32767	32644	32681	32721	32614	32615	32715	
1922	0	32831	32799	32675	32540	32815	32578	32647	32767	
1923	0	32736	32759	32727	32535	32740	32799	32738	32662	
1924	0	32718	32827	32757	32626	32789	32763	32647	32687	
1925	0	32748	32799	32643	32775	32871	32782	32598	32716	
1926	0	32771	32815	32647	32707	32727	32765	32579	32647	
1927	0	32769	32711	32743	32719	32726	32791	32555	32679	
1928	0	32713	32743	32663	32667	32731	32711	32539	32829	
1929	0	32742	32853	32655	32685	32759	32703	32741	32669	
1930	0	32770	32891	32655	32623	32733	32751	32715	32646	
1931	0	32774	32692	32675	32663	32789	32759	32743	32647	
1932	0	32754	32783	32717	32743	32819	32871	32695	32679	
1933	0	32767	32803	32821	32807	32738	32863	32655	32585	
1934	0	32773	32770	32733	32514	32869	32621	32639	32687	
1935	0	32737	32775	32717	32507	32809	32527	32654	32710	
1936	0	32759	32730	32667	32535	32813	32685	32619	32699	
1937	0	32714	32677	32727	32695	32775	32745	32540	32630	
1938	0	32711	32807	32813	32647	32823	32763	32583	32707	
1939	0	32774	32789	32809	32667	32853	32767	32541	32603	
1940	0	32764	32802	32703	32531	32837	32617	32634	32647	
1941	0	32759	32811	32676	32587	32815	32623	32683	32662	
1942	0	32759	32839	32711	32731	32759	32818	32698	32775	
1943	0	32759	32759	32671	32683	32803	32773	32633	32769	
1944	0	32764	32775	32647	32602	32775	32726	32627	32734	
1945	0	32760	32687	32729	32766	32837	32700	32621	32700	
1946	0	32804	32791	32703	32751	32813	32760	32695	32747	
1947	0	32749	32811	32699	32566	32754	32764	32619	32631	
1948	0	32759	32826	32654	32658	32738	32645	32647	32747	
1949	0	32741	32843	32663	32554	32743	32863	32567	32663	
1950	0	32751	32693	32718	32642	32818	32727	32613	32697	
1951	0	32687	32839	32727	32775	32767	32727	32751	32532	
1952	0	32747	32792	32662	32740	32775	32823	32594	32719	
1953	0	32745	32747	32719	32747	32703	32633	32607	32773	
1954	0	32786	32775	32711	32596	32767	32901	32706	32738	
1955	0	32801	32805	32707	32671	32767	32803	32591	32661	
1956	0	32740	32785	32657	32631	32739	32591	32693	32619	
1957	0	32743	32691	32623	32631	32758	32835	32535	32740	
1958	0	32718	32699	32726	32647	32775	32718	32643	32661	
1959	0	32726	32699	32731	32562	32797	32543	32661	32787	
1960	0	32706	32735	32647	32694	32690	32792	32679	32707	
1961	0	32714	32775	32767	32538	32771	32646	32603	32722	
1962	0	32698	32759	32701	32695	32791	32667	32703	32751	
1963	0	32724	32747	32710	32615	32737	32775	32685	32670	
1964	0	32743	32822	32605	32719	32743	32538	32538	32715	
1965	0	32736	32743	32698	32679	32775	32691	32583	32676	
1966	0	32797	32734	32715	32456	32815	32735	32615	32765	
1967	0	32733	32703	32707	32699	32775	32775	32721	32603	
1968	0	32758	32791	32741	32733	32799	32743	32579	32733	
1969	0	32754	32759	32607	32603	32759	32807	32647	32600	
1970	0	32748	32793	32673	32738	32735	32617	32497	32743	
1971	0	32733	32791	32711	32691	32741	32727	32739	32647	
1972	0	32732	32733	32709	32630	32743	32763	32745	32643	
1973	0	32775	32876	32747	32663	32799	32803	32658	32703	
1974	0	32738	32851	32735	32788	32813	32637	32662	32723	
1975	0	32710	32775	32669	32581	32775	32834	32703	32735	
1976	0	32762	32786	32738	32641	32813	32791	32586	32742	
1977	0	32735	32685	32731	32559	32847	32609	32659	32735	
1978	0	32743	32742	32791	32742	32801	32795	32531	32711	
1979	0	32710	32775	32761	32715	32799	32775	32678	32705	
1980	0	32768	32865	32647	32562	32723	32853	32673	32713	
1981	0	32835	32831	32669	32657	32765	32674	32563	32703	
1982	0	32770	32823	32655	32671	32743	32903	32559	32799	
1983	0	32748	32795	32715	32737	32819	32729	32631	32775	
1984	0	32757	32747	32739	32519	32767	32669	32673	32835	
1985	0	32751	32727	32785	32722	32809	32635	32551	32730	
1986	0	32766	32734	32743	32637	32799	32807	32685	32773	
1987	0	32822	32806	32647	32639	32749	32751	32731	32739	
1988	0	32788	32854	32687	32671	32767	32655	32727	32677	
1989	0	32780	32717	32747	32621	32747	32599	32570	32703	
1990	0	32771	32762	32690	32511	32818	32687	32506	32799	
1991	0	32743	32799	32751	32570	32813	32683	32526	32823	
1992	0	32708	32695	32771	32747	32789	32723	32562	32790	
1993	0	32726	32787	32682	32662	32837	32835	32749	32703	
1994	0	32692	32821	32721	32711	32773	32899	32679	32775	
1995	0	32717	32734	32735	32749	32863	32699	32628	32773	
1996	0	32670	32751	32709	32674	32790	32631	32681	32695	
1997	0	32730	32884	32621	32647	32767	32581	32674	32717	
1998	0	32790	32685	32679	32534	32815	32807	32601	32742	
1999	0	32730	32799	32749	32647	32724	32831	32706	32765	
2000	0	32775	32807	32628	32734	32810	32773	32583	32655	
2001	0	32764	32770	32698	32623	32759	32818	32694	32717	
2002	0	32719	32775	32671	32594	32710	32915	32525	32745	
2003	0	32756	32839	32610	32625	32791	32694	32515	32716	
2004	0	32754	32785	32671	32673	32721	32658	32484	32759	
2005	0	32763	32815	32647	32559	32775	32753	32685	32727	
2006	0	32748	32847	32607	32535	32737	32791	32635	32711	
2007	0	32759	32775	32647	32703	32873	32726	32679	32761	
2008	0	32748	32791	32639	32700	32769	32675	32655	32733	
2009	0	32751	32647	32707	32759	32811	32566	32519	32663	
2010	0	32759	32767	32707	32647	32739	32747	32587	32671	
2011	0	32688	32810	32623	32545	32703	32731	32759	32643	
2012	0	32727	32743	32695	32643	32735	32839	32647	32765	
2013	0	32796	32786	32647	32807	32790	32727	32647	32775	
2014	0	32719	32748	32785	32727	32775	32615	32678	32654	
2015	0	32738	32769	32775	32711	32751	32793	32571	32698	
2016	0	32767	32739	32642	32655	32871	32775	32706	32727	
2017	0	32813	32799	32759	32548	32743	32839	32662	32769	
2018	0	32791	32879	32775	32523	32775	32839	32619	32754	
2019	0	32731	32773	32687	32583	32719	32647	32638	32690	
2020	0	32703	32775	32751	32593	32805	32751	32583	32678	
2021	0	32723	32725	32738	32583	32751	32775	32543	32735	
2022	0	32727	32816	32745	32711	32743	32757	32787	32683	
2023	0	32769	32831	32759	32685	32844	32799	32709	32711	
2024	0	32818	32749	32743	32518	32791	32871	32631	32708	
2025	0	32775	32818	32831	32663	32819	32635	32655	32685	
2026	0	32722	32775	32798	32627	32804	32599	32566	32679	
2027	0	32807	32807	32647	32695	32826	32743	32514	32615	
2028	0	32732	32857	32742	32695	32711	32721	32555	32655	
2029	0	32753	32775	32711	32535	32787	32870	32706	32629	
2030	0	32754	32759	32611	32571	32706	32866	32645	32691	
2031	0	32745	32833	32702	32719	32759	32694	32690	32685	
2032	0	32782	32764	32731	32749	32769	32535	32707	32647	
2033	0	32729	32747	32727	32762	32735	32551	32687	32695	
2034	0	32775	32791	32707	32715	32751	32748	32662	32635	
2035	0	32773	32719	32727	32750	32786	32797	32538	32619	
2036	0	32755	32775	32658	32709	32797	32831	32635	32630	
2037	0	32759	32805	32735	32571	32812	32863	32815	32631	
2038	0	32743	32681	32775	32659	32721	32691	32647	32647	
2039	0	32694	32791	32645	32609	32771	32619	32647	32699	
2040	0	32748	32815	32771	32611	32758	32567	32662	32631	
2041	0	32734	32775	32706	32711	32694	32791	32707	32576	
2042	0	32763	32670	32702	32713	32767	32797	32703	32668	
2043	0	32758	32715	32655	32691	32729	32623	32686	32723	
2044	0	32714	32727	32683	32734	32796	32599	32703	32694	
2045	0	32764	32775	32639	32722	32775	32743	32727	32723	
2046	0	32733	32763	32629	32633	32750	32831	32576	32559	
2047	0	32722	32791	32735	32534	32783	32751	32543	32605	
2048	0	32722	32727	32705	32553	32687	32685	32517	32663	
2049	0	32722	32771	32663	32643	32838	32775	32579	32791	
2050	0	32713	32767	32767	32574	32786	32675	32603	32771	
2051	0	32806	32759	32698	32719	32721	32679	32681	32663	
2052	0	32725	32757	32753	32614	32770	32743	32631	32701	
2053	0	32743	32765	32711	32603	32831	32632	32529	32725	
2054	0	32740	32804	32797	32671	32775	32735	32660	32733	
2055	0	32725	32748	32722	32541	32717	32837	32767	32626	
2056	0	32782	32731	32640	32699	32725	32861	32621	32679	
2057	0	32865	32839	32605	32669	32819	32679	32631	32635	
2058	0	32799	32771	32695	32519	32791	32725	32738	32710	
2059	0	32734	32731	32705	32578	32756	32543	32625	32695	
2060	0	32759	32793	32723	32695	32727	32710	32601	32767	
2061	0	32749	32903	32611	32575	32735	32765	32763	32757	
2062	0	32700	32795	32714	32671	32823	32813	32629	32633	
2063	0	32743	32775	32754	32510	32806	32631	32591	32727	
2064	0	32731	32715	32775	32757	32827	32799	32615	32667	
2065	0	32684	32813	32661	32759	32793	32764	32657	32717	
2066	0	32717	32758	32731	32669	32785	32719	32679	32639	
2067	0	32832	32700	32727	32710	32839	32738	32627	32714	
2068	0	32774	32769	32742	32527	32750	32626	32667	32726	
2069	0	32743	32743	32700	32711	32740	32870	32671	32698	
2070	0	32764	32799	32700	32765	32791	32763	32617	32757	
2071	0	32801	32723	32743	32527	32847	32749	32711	32765	
2072	0	32711	32746	32751	32701	32914	32643	32562	32599	
2073	0	32797	32756	32742	32755	32785	32795	32655	32687	
2074	0	32841	32813	32709	32555	32783	32775	32519	32641	
2075	0	32743	32727	32583	32727	32775	32655	32716	32717	
2076	0	32734	32683	32663	32647	32743	32849	32678	32646	
2077	0	32735	32827	32695	32701	32783	32739	32534	32660	
2078	0	32766	32775	32716	32759	32783	32626	32654	32675	
2079	0	32729	32743	32641	32646	32715	32806	32662	32623	
2080	0	32728	32879	32703	32580	32791	32833	32799	32582	
2081	0	32745	32804	32687	32579	32735	32834	32571	32671	
2082	0	32727	32855	32681	32715	32738	32719	32646	32695	
2083	0	32742	32751	32729	32506	32711	32692	32767	32782	
2084	0	32773	32773	32775	32669	32749	32799	32741	32647	
2085	0	32695	32814	32759	32599	32839	32679	32711	32727	
2086	0	32698	32775	32685	32732	32783	32887	32532	32647	
2087	0	32781	32751	32639	32711	32757	32767	32630	32805	
2088	0	32751	32745	32719	32533	32722	32495	32818	32718	
2089	0	32745	32831	32647	32709	32775	32710	32507	32827	
2090	0	32774	32767	32676	32719	32839	32711	32567	32637	
2091	0	32747	32739	32610	32583	32775	32533	32559	32722	
2092	0	32747	32695	32629	32663	32685	32738	32614	32667	
2093	0	32789	32759	32619	32683	32773	32807	32627	32683	
2094	0	32788	32791	32625	32676	32787	32798	32591	32617	
2095	0	32804	32731	32721	32753	32791	32742	32662	32684	
2096	0	32775	32775	32647	32578	32807	32799	32676	32571	
2097	0	32793	32732	32623	32623	32730	32660	32611	32663	
2098	0	32807	32749	32663	32683	32743	32595	32663	32602	
2099	0	32735	32700	32775	32757	32775	32927	32643	32663	
2100	0	32696	32791	32722	32575	32802	32774	32637	32627	
2101	0	32775	32854	32749	32751	32775	32603	32463	32737	
2102	0	32687	32799	32751	32669	32767	32775	32646	32710	
2103	0	32740	32759	32695	32495	32807	32775	32661	32735	
2104	0	32740	32755	32662	32684	32743	32612	32498	32759	
2105	0	32731	32735	32708	32732	32807	32487	32676	32759	
2106	0	32710	32807	32727	32603	32705	32841	32685	32755	
2107	0	32735	32846	32759	32740	32751	32818	32577	32722	
2108	0	32772	32791	32759	32743	32834	32628	32579	32786	
2109	0	32745	32679	32647	32685	32766	32919	32654	32743	
2110	0	32688	32751	32734	32683	32665	32748	32563	32701	
2111	0	32685	32839	32762	32607	32708	32635	32667	32742	
2112	0	32717	32843	32738	32638	32751	32867	32695	32570	
2113	0	32668	32756	32631	32609	32756	32803	32551	32676	
2114	0	32763	32677	32617	32723	32751	32883	32735	32589	
2115	0	32785	32791	32674	32711	32738	32727	32745	32727	
2116	0	32745	32740	32687	32679	32829	32635	32738	32722	
2117	0	32734	32615	32681	32764	32767	32799	32699	32799	
2118	0	32748	32582	32615	32590	32716	32692	32495	32703	
2119	0	32684	32697	32745	32731	32764	32695	32605	32701	
2120	0	32680	32669	32759	32631	32819	32705	32513	32813	
2121	0	32568	32519	32755	32797	32806	32502	32646	32785	
2122	0	32592	32487	32665	32773	32799	32711	32615	32887	
2123	0	32556	32619	32685	32705	32807	32709	32588	32802	
2124	0	32590	32559	32692	32684	32855	32617	32591	32855	
2125	0	32541	32619	32711	32583	32881	32725	32437	32941	
2126	0	32492	32613	32711	32668	32895	32547	32447	32828	
2127	0	32482	32607	32809	32645	32903	32723	32485	32772	
2128	0	32531	32679	32787	32607	32947	32685	32443	32757	
2129	0	32562	32863	32751	32557	32847	32723	32492	32725	
2130	0	32647	32809	32799	32551	32819	32751	32579	32726	
2131	0	32674	32943	32847	32513	32894	32810	32659	32782	
2132	0	32692	33039	32839	32493	32807	32941	32545	32758	
2133	0	32693	33021	32823	32335	32903	32967	32495	32621	
2134	0	32700	33117	32925	32415	32833	32924	32591	32621	
2135	0	32789	33167	32847	32455	32863	32827	32534	32655	
2136	0	32807	33249	32943	32391	32835	32760	32487	32666	
2137	0	32898	33267	32927	32455	32866	32927	32525	32682	
2138	0	32912	33334	32847	32293	32861	32913	32615	32741	
2139	0	32975	33486	32887	32239	32854	32854	32483	32773	
2140	0	33060	33522	32903	32318	32879	32855	32606	32722	
2141	0	33054	33395	32855	32418	32765	32926	32627	32534	
2142	0	33060	33299	32758	32627	32759	32975	32644	32498	
2143	0	33102	33259	32818	32627	32807	32967	32695	32455	
2144	0	33133	33260	32741	32575	32615	32876	32805	32438	
2145	0	33087	33126	32671	32599	32690	32903	32775	32573	
2146	0	33041	33118	32663	32602	32731	32903	32715	32551	
2147	0	32988	33065	32750	32587	32656	32703	32855	32599	
