# OpenSignals Text File Format
# {"00:07:80:64:6D:DA": {"sensor": ["CUSTOM/0.5/1.0/V", "CUSTOM/0.5/1.0/V", "CUSTOM/0.5/1.0/V", "CUSTOM/0.5/1.0/V"], "device name": "Plataforma", "column": ["nSeq", "DI", "CH1", "CH2", "CH3", "CH4"], "sync interval": 2, "time": "10:14:51.866", "comments": "", "device connection": "BTH00:07:80:64:6D:DA", "channels": [1, 2, 3, 4], "date": "2017-6-2", "mode": 0, "digital IO": [0, 1], "firmware version": 772, "device": "biosignalsplux", "position": 0, "sampling rate": 1000, "label": ["CH1", "CH2", "CH3", "CH4"], "resolution": [16, 16, 16, 16], "special": [{}, {}, {}, {}]}, "00:07:80:3B:46:38": {"sensor": ["CUSTOM/0.5/1.0/V", "CUSTOM/0.5/1.0/V", "CUSTOM/0.5/1.0/V", "CUSTOM/0.5/1.0/V", "CUSTOM/0.5/1.0/V", "CUSTOM/0.5/1.0/V", "CUSTOM/0.5/1.0/V", "CUSTOM/0.5/1.0/V"], "device name": "EMGs", "column": ["nSeq", "DI", "RA_L", "RA_R", "OE_L", "OE:R", "IL_L", "IL_R", "MF_L", "MF_R"], "sync interval": 2, "time": "10:14:51.866", "comments": "", "device connection": "BTH00:07:80:3B:46:38", "channels": [1, 2, 3, 4, 5, 6, 7, 8], "date": "2017-6-2", "mode": 0, "digital IO": [0, 1], "firmware version": 772, "device": "biosignalsplux", "position": 1, "sampling rate": 1000, "label": ["RA_L", "RA_R", "OE_L", "OE:R", "IL_L", "IL_R", "MF_L", "MF_R"], "resolution": [16, 16, 16, 16, 16, 16, 16, 16], "special": [{}, {}, {}, {}, {}, {}, {}, {}]}}
# EndOfHeader
910	0	152	1247	29	1956	0	0	32791	32867	32997	32862	32311	32847	32199	32847	
911	0	177	1252	29	1945	1	0	32687	32919	32735	33111	32813	32727	33371	32791	
912	0	102	1223	30	1946	2	0	32792	32813	32258	33645	32931	32660	33899	32727	
913	0	140	1176	29	1967	3	0	32944	32631	32303	33711	33045	32847	34214	32373	
914	0	139	1201	29	1939	4	0	32895	32765	32274	33573	32975	32737	35875	32390	
915	0	137	1254	29	1941	5	0	32852	32799	32123	33159	32684	32404	34875	32644	
916	0	99	1252	28	1905	6	0	32735	33002	32428	33279	32831	31887	33223	32677	
917	0	129	1248	29	1956	7	0	32749	32847	32644	32877	32716	31743	32492	32587	
918	0	159	1200	28	1988	8	0	32687	32623	32567	32628	32489	32287	32263	32541	
919	0	141	1216	29	1972	9	0	32671	32644	32612	32219	32684	33159	32079	32635	
920	0	123	1226	28	1988	10	0	32767	32711	32605	31911	32725	33629	32130	32823	
921	0	147	1160	27	1947	11	0	32826	32835	32893	32159	32706	33607	32247	32838	
922	0	132	1221	28	2013	12	0	32754	32689	32610	32631	32731	32841	32263	32765	
923	0	163	1238	29	1967	13	0	32647	32931	32662	32713	32655	32791	32445	32802	
924	0	90	1220	30	1988	14	0	32599	32887	32751	32681	32666	32854	32442	32626	
925	0	112	1236	28	1967	15	0	32668	32884	32836	32699	32677	32975	32351	32605	
926	0	85	1293	27	1956	16	0	32761	32702	32791	32738	32631	33059	32275	32685	
927	0	134	1233	29	1936	17	0	32928	32607	32471	32613	32839	33135	32423	32771	
928	0	129	1233	29	1981	18	0	32816	32767	32543	32711	32747	33175	32895	32588	
929	0	176	1284	28	1978	19	0	32773	32837	32494	32578	32775	33238	32719	32647	
930	0	138	1264	29	2004	20	0	32741	32855	32563	32673	32703	33135	32731	32637	
931	0	99	1263	30	1994	21	0	32765	32871	32885	32191	32937	32863	32735	32609	
932	0	104	1199	28	1971	22	0	32818	32749	32747	31610	32756	33062	32707	32615	
933	0	160	1236	28	1950	23	0	32843	32565	32813	31620	32806	32999	32708	32743	
934	0	161	1177	29	1954	24	0	32868	32849	32556	32019	32766	33247	32708	32799	
935	0	129	1264	30	2002	25	0	32764	32935	32387	31973	32719	33299	32751	32739	
936	0	100	1254	29	1988	26	0	32724	32748	32663	32835	32587	32695	32797	32677	
937	0	120	1252	28	1968	27	0	32722	32867	32657	33451	32577	32182	32799	32677	
938	0	114	1220	29	1977	28	0	32741	32921	32996	33637	32671	31903	32931	32735	
939	0	152	1228	29	1998	29	0	32703	32991	33051	33593	32581	31596	32989	32715	
940	0	130	1228	30	1967	30	0	32647	32900	33096	33845	32705	31493	33023	32837	
941	0	101	1222	30	1978	31	0	32772	32554	33055	33547	32879	32770	32827	32553	
942	0	121	1251	29	1979	32	0	32955	32287	32621	32917	33287	33307	32543	32172	
943	0	118	1248	29	1948	33	0	32792	32533	32045	33073	33079	33227	32724	32237	
944	0	108	1221	31	1990	34	0	32695	32711	31698	33015	32996	33739	32657	32655	
945	0	91	1223	28	1962	35	0	32715	32805	31860	32759	32769	33445	32599	32735	
946	0	153	1235	28	1944	36	0	32730	32746	33174	32531	32775	32870	32643	32567	
947	0	120	1237	29	1954	37	0	32652	32739	34029	32449	32726	33055	32738	32655	
948	0	96	1252	28	1998	38	0	32855	32787	33799	32547	32849	33633	32647	32853	
949	0	114	1221	29	1961	39	0	32967	32675	33102	32537	32763	33671	32711	32759	
950	0	113	1233	30	1950	40	0	32884	32783	32565	32839	32679	33082	32748	32743	
951	0	127	1246	29	1957	41	0	32774	32685	32765	33327	32586	32374	32659	32882	
952	0	87	1254	28	1968	42	0	32707	32599	32741	33412	32507	32059	32685	32716	
953	0	127	1238	29	1988	43	0	32756	32575	32518	33311	32711	32089	32708	32566	
954	0	90	1240	29	1979	44	0	32783	32730	32388	32561	32811	32417	33053	32562	
955	0	98	1244	29	2005	45	0	32704	32967	32223	32875	32671	32065	33109	32807	
956	0	133	1260	30	2010	46	0	32596	32879	31949	32887	32546	31687	33047	32823	
957	0	97	1260	28	1970	47	0	32661	32828	31687	32426	32639	31783	33059	32619	
958	0	104	1275	30	1930	48	0	32809	32764	32135	31831	32858	32341	33031	32399	
959	0	114	1224	29	1980	49	0	32986	32644	32539	31588	32941	32719	32551	32487	
960	0	98	1231	28	1986	50	0	32972	32647	32893	31735	33067	33303	33119	32497	
961	0	121	1257	29	2021	51	0	32863	32885	33046	32333	32443	32786	33444	32566	
962	0	165	1255	29	1949	52	0	32764	32495	32983	31621	32605	32756	33189	32735	
963	0	83	1249	29	1975	53	0	32623	32583	32727	31693	32423	32810	32450	32823	
964	0	111	1234	28	1975	54	0	32670	32818	32686	32295	32207	32795	32351	32662	
965	0	109	1226	30	1917	55	0	32684	32881	32607	32913	32262	32615	30997	32949	
966	0	118	1226	28	1946	56	0	32653	32965	32437	33115	32973	32727	31026	32627	
967	0	133	1253	29	1970	57	0	32674	32871	32477	33447	32865	32690	30951	32751	
968	0	157	1243	29	2013	58	0	32716	32799	32367	33667	32903	32300	31329	32879	
969	0	135	1207	28	1934	59	0	32687	32692	32289	33970	33150	31931	33870	31855	
970	0	119	1249	29	1951	60	0	32751	32821	32626	33981	34099	31682	35207	32003	
971	0	100	1204	28	1990	61	0	32838	32671	32970	33378	33869	31789	35459	32838	
972	0	148	1259	29	1979	62	0	32764	32887	33063	33591	32538	31895	34199	32507	
973	0	166	1224	27	1989	63	0	32703	32721	32860	33043	32810	32173	33508	32479	
974	0	103	1216	29	1940	64	0	32801	32681	32875	32860	33541	33031	30823	33312	
975	0	117	1248	29	1960	65	0	32734	32713	32693	33159	32359	32487	29191	33351	
976	0	128	1242	29	1989	66	0	32694	32807	32979	32951	30614	32187	29905	32973	
977	0	123	1196	30	1946	67	0	32764	32719	33203	32714	31517	32163	31702	32867	
978	0	124	1222	28	1924	68	0	32752	32743	33146	32450	34107	32316	32819	32736	
979	0	106	1244	29	1980	69	0	32831	32789	33183	32466	34359	32199	36397	32459	
980	0	134	1222	29	1997	70	0	32764	32625	32764	32486	33043	32186	37023	32359	
981	0	130	1205	28	1980	71	0	32814	32626	32295	32591	32356	32255	33326	32487	
982	0	160	1272	28	1990	72	0	32815	32771	32133	32519	32087	32835	31814	32659	
983	0	106	1254	29	1984	73	0	32760	32846	31991	32737	32375	32763	32119	32924	
984	0	106	1189	28	1954	74	0	32718	32961	32235	32645	32533	33174	32679	32791	
985	0	109	1262	29	1935	75	0	32756	32839	32258	32519	33383	33446	35387	32591	
986	0	148	1216	28	1976	76	0	32701	32749	32220	32318	33576	33425	35453	32535	
987	0	125	1242	29	1964	77	0	32683	32613	32379	32401	32667	33303	33594	32751	
988	0	106	1265	29	1960	78	0	32682	32830	32551	32411	32018	32866	32697	32405	
989	0	100	1205	29	1976	79	0	32783	32681	32938	32411	32573	32575	32059	32417	
990	0	140	1243	29	1974	80	0	32919	32598	33015	32172	32633	32591	31713	32391	
991	0	158	1222	30	1959	81	0	32900	32801	33055	32687	32748	33197	32593	32607	
992	0	153	1244	28	1950	82	0	32711	32885	33052	33233	32569	32711	32373	32821	
993	0	85	1239	29	1943	83	0	32637	32845	32967	33194	32631	32447	32179	32578	
994	0	159	1248	29	1935	84	0	32610	32879	32956	32831	32575	32399	32339	32543	
995	0	122	1237	29	1994	85	0	32866	32837	32941	32194	32527	32564	32275	32615	
996	0	102	1295	28	1953	86	0	32959	32543	32999	31479	32842	32599	32036	32583	
997	0	132	1229	28	1945	87	0	32794	32711	32471	32217	32799	32333	32123	32464	
998	0	130	1217	30	1934	88	0	32682	32775	32247	32671	33389	32161	32532	32830	
999	0	98	1210	28	1979	89	0	32790	32702	32509	32831	33778	32647	32630	32951	
1000	0	133	1268	29	1915	90	0	32722	32679	32655	32959	32646	32999	32615	32898	
1001	0	120	1231	28	1995	91	0	32789	32687	32707	32925	32005	33089	32535	32959	
1002	0	96	1218	29	1951	92	0	32799	32743	32463	32783	32823	33098	32599	32676	
1003	0	132	1238	28	1980	93	0	32834	32606	32387	32932	32833	33027	32683	32587	
1004	0	126	1250	27	2002	94	0	32708	32791	32259	32925	32607	32775	32716	32582	
1005	0	137	1269	29	1988	95	0	32662	32901	32445	32903	32837	32519	32787	32802	
1006	0	159	1226	28	2015	96	0	32626	32951	32604	32809	33044	32819	32756	32828	
1007	0	133	1267	28	1965	97	0	32827	32763	32797	32519	32820	33005	32785	32858	
1008	0	71	1266	29	1965	98	0	32855	32783	32671	32711	32837	33127	32711	32668	
1009	0	193	1217	28	2015	99	0	32873	32599	32565	33069	32959	33301	32583	32495	
1010	0	182	1254	29	1981	100	0	32789	32767	32543	33001	33002	33561	32639	32707	
1011	0	90	1260	30	1972	101	0	32759	32767	32514	33331	32751	33197	32631	32691	
1012	0	146	1227	29	1949	102	0	32809	32655	32673	33631	32564	33095	32727	32787	
1013	0	89	1233	28	1945	103	0	32786	32719	32468	33633	32455	33148	32759	32670	
1014	0	80	1225	28	1965	104	0	32745	32775	32679	33383	32525	33059	32813	32655	
1015	0	125	1171	29	1988	105	0	32694	32663	32647	32613	32579	32927	32796	32899	
1016	0	111	1244	28	1961	106	0	32595	32978	32447	32679	32573	32451	32831	32803	
1017	0	137	1234	29	1980	107	0	32691	32931	32703	32382	32623	31991	32983	32658	
1018	0	102	1257	28	1959	108	0	32761	32965	32835	32523	32743	31839	32879	32710	
1019	0	103	1285	29	1967	109	0	32788	32807	33111	32967	32607	32342	32899	32479	
1020	0	132	1284	30	1938	110	0	32867	32582	33004	32435	32825	32962	32671	32564	
1021	0	126	1249	29	1941	111	0	32815	32495	32815	32178	32942	33132	32726	32493	
1022	0	129	1245	29	1956	112	0	32626	32823	32631	32367	32663	32583	32775	32564	
1023	0	135	1256	29	1969	113	0	32615	32865	32298	32203	32707	32731	32887	32831	
1024	0	113	1218	30	1962	114	0	32640	32823	32347	32978	32647	33029	32836	32603	
1025	0	105	1234	29	1956	115	0	32687	32843	32427	33592	32701	32855	32884	32657	
1026	0	106	1234	29	1936	116	0	32809	32594	32578	33475	32683	33155	32647	32647	
1027	0	169	1293	29	1952	117	0	32935	32443	32839	33191	32775	33361	32719	32807	
1028	0	132	1240	28	1944	118	0	32855	32701	32751	32863	32671	33159	32685	32783	
1029	0	104	1278	30	1999	119	0	32757	32711	32446	32831	32775	33227	32695	32749	
1030	0	127	1221	29	1964	120	0	32802	32775	32508	32846	32765	32793	32755	32468	
1031	0	138	1221	28	1961	121	0	32684	32685	32639	32954	32939	32489	32719	32509	
1032	0	140	1274	29	1978	122	0	32718	32525	32885	32590	32871	32988	32791	32605	
1033	0	120	1215	29	1976	123	0	32827	32702	32835	32197	32735	33255	32851	32785	
1034	0	64	1221	29	1972	124	0	32775	32783	33046	32437	32810	32979	32861	32692	
1035	0	89	1234	29	1988	125	0	32701	32927	33239	32809	32839	32407	32727	32607	
1036	0	127	1236	29	1978	126	0	32624	32927	32838	32644	32735	32093	32823	32817	
1037	0	122	1244	29	1986	127	0	32794	32791	32931	32412	32879	32390	32741	32690	
1038	0	100	1229	29	1977	128	0	32804	32951	32571	32610	32775	32539	32391	32807	
1039	0	103	1237	29	1948	129	0	32847	32861	32511	32578	32827	32603	32692	32954	
1040	0	110	1242	27	1945	130	0	32892	32852	32351	32687	32983	32740	32485	32791	
1041	0	141	1256	29	1972	131	0	32771	32687	32329	32791	33063	32775	32933	32719	
1042	0	107	1251	30	1997	132	0	32787	32527	32532	32185	33258	32951	32971	32679	
1043	0	135	1256	28	1986	133	0	32751	32641	32386	32037	33137	33137	32711	32871	
1044	0	129	1214	29	1968	134	0	32677	32838	32209	32173	32423	33241	32128	32597	
1045	0	132	1220	29	1955	135	0	32646	32867	32568	32763	31734	33261	32359	32540	
1046	0	136	1289	29	1956	136	0	32676	32835	32647	32847	32001	32964	32295	32831	
1047	0	120	1202	29	1967	137	0	32701	32852	32461	32871	32575	32855	32037	33095	
1048	0	76	1202	29	1945	138	0	32679	32923	32691	33148	33412	32159	31661	32935	
1049	0	164	1228	29	1984	139	0	32655	32811	32639	32669	32607	32147	31398	32543	
1050	0	127	1246	29	1972	140	0	32717	32503	32743	32239	32128	32581	32991	32421	
1051	0	109	1223	28	1956	141	0	32681	32402	32359	32497	31989	32591	32559	32499	
1052	0	72	1204	30	1968	142	0	32720	32675	32310	32804	32858	32839	32578	32391	
1053	0	117	1251	29	1997	143	0	32719	32701	32341	32927	33863	33034	33823	32371	
1054	0	122	1218	30	1959	144	0	32725	32683	32333	32686	33959	32878	33523	32407	
1055	0	121	1258	29	1966	145	0	32633	32789	32591	32711	33287	32477	32958	32543	
1056	0	86	1257	28	1984	146	0	32551	32824	32433	32839	32850	32027	33509	32356	
1057	0	141	1241	29	1930	147	0	32708	32835	32143	32535	32863	31971	35620	32380	
1058	0	132	1264	29	1963	148	0	32831	32559	32259	32215	33159	32135	34397	32503	
1059	0	120	1221	28	1989	149	0	32892	32575	32135	31949	33029	32465	32947	32643	
1060	0	136	1243	28	1937	150	0	32756	32583	31742	32159	32711	32255	32407	32583	
1061	0	154	1231	29	1959	151	0	32636	32733	32175	32302	32775	31849	32845	32635	
1062	0	112	1220	28	1944	152	0	32703	32607	32631	32611	32742	32005	33331	32459	
1063	0	175	1214	29	1957	153	0	32708	32489	32503	32759	32543	32311	33501	32708	
1064	0	150	1267	28	1967	154	0	32775	32275	32599	33061	32423	32815	32951	32782	
1065	0	107	1206	28	1978	155	0	32727	32679	32710	32903	32307	32763	31815	32775	
1066	0	125	1219	29	2001	156	0	32772	32711	32723	32423	32662	32510	31292	32892	
1067	0	144	1224	29	1978	157	0	32688	32775	32420	32540	32595	32479	31679	32819	
1068	0	106	1269	29	1942	158	0	32786	32949	31982	32863	32484	33128	31975	32835	
1069	0	109	1249	28	1969	159	0	32791	32790	32125	33437	32878	33437	31437	32692	
1070	0	138	1229	27	1980	160	0	32655	32734	32403	33475	32986	33260	30261	32691	
1071	0	140	1227	28	1968	161	0	32708	32858	33119	33309	32898	32863	31461	32643	
1072	0	111	1265	29	1989	162	0	32732	32935	33723	33271	32903	31998	33511	32607	
1073	0	126	1253	29	2002	163	0	32890	33136	33839	33314	32442	32135	35075	32477	
1074	0	161	1242	29	1993	164	0	32998	33166	34239	33039	32495	32589	34293	32579	
1075	0	130	1273	29	1999	165	0	33183	33213	33927	32809	32627	31930	33540	32379	
1076	0	149	1236	29	1991	166	0	33133	33045	33767	32727	32586	32149	33334	32327	
1077	0	120	1232	28	1982	167	0	33185	32853	33575	32655	32495	32363	33343	32237	
1078	0	99	1203	28	1916	168	0	33159	32845	33191	32871	32797	32677	33191	32437	
1079	0	121	1230	29	1960	169	0	33111	32838	33129	32879	32863	32989	32965	32604	
1080	0	126	1224	28	2000	170	0	32793	32991	32668	33301	32596	32857	32925	32741	
1081	0	158	1227	28	1937	171	0	32601	33014	32411	33159	32435	32970	32811	32767	
1082	0	116	1269	28	1976	172	0	32564	32927	32398	32921	32166	32475	32743	32812	
1083	0	102	1237	29	1936	173	0	32530	32915	32407	33140	32838	32567	32719	32819	
1084	0	113	1222	30	1961	174	0	32615	32797	32390	33302	33358	33103	32579	32823	
1085	0	117	1246	29	1961	175	0	32620	32493	32594	33135	33319	33638	32524	32898	
1086	0	118	1225	28	1947	176	0	32658	32551	32626	33143	32962	33715	32571	32757	
1087	0	108	1221	29	1914	177	0	32615	32796	32366	33717	33014	33577	32540	32941	
1088	0	155	1258	28	1990	178	0	32612	32775	32285	33639	32797	33276	32660	32954	
1089	0	123	1215	29	1999	179	0	32575	32978	32315	33077	32583	33166	32966	32858	
1090	0	112	1244	29	1984	180	0	32681	32771	32615	33028	32383	33079	32559	32856	
1091	0	99	1259	29	1970	181	0	32752	32636	32525	32850	32217	32729	32220	32417	
1092	0	101	1240	28	1993	182	0	32757	32683	32525	32694	32247	32556	32709	32563	
1093	0	115	1259	29	1959	183	0	32842	32788	32852	31808	33179	32529	32423	32715	
1094	0	126	1201	29	1956	184	0	32866	32683	32935	31409	33645	32548	33133	32297	
1095	0	139	1243	28	1965	185	0	32936	32726	32831	31709	33865	32925	33727	32302	
1096	0	88	1211	29	1953	186	0	32839	32827	32880	32324	32039	32526	32311	32978	
1097	0	120	1253	29	1947	187	0	32757	32850	32715	32468	31263	32349	31207	33591	
1098	0	135	1236	30	1960	188	0	32821	32663	32831	32375	32101	32372	32851	32556	
1099	0	163	1215	29	2008	189	0	32865	32738	32729	32469	32353	32865	32534	32710	
1100	0	131	1202	28	1949	190	0	32895	32639	32503	32485	33079	33014	31831	32699	
1101	0	133	1269	29	1953	191	0	32838	32775	32583	32603	33023	32542	32045	32949	
1102	0	97	1237	29	2030	192	0	32793	32667	32289	32807	33308	32428	32581	32815	
1103	0	123	1251	29	1966	193	0	32704	32573	32505	32514	33245	32367	33447	32578	
1104	0	135	1222	29	1962	194	0	32665	32543	32487	32515	33343	32732	33989	32615	
1105	0	148	1213	29	1992	195	0	32690	32694	32359	32547	33015	32895	33331	32679	
1106	0	100	1252	29	1966	196	0	32703	32775	32325	32689	32365	32919	33066	32646	
1107	0	106	1214	27	1983	197	0	32692	32870	32135	32887	33204	32468	33072	32538	
1108	0	133	1234	30	1972	198	0	32711	32654	32277	32799	33099	32581	32509	32486	
1109	0	152	1233	30	1954	199	0	32736	32527	32364	32171	32862	33111	32301	32735	
1110	0	160	1236	29	1982	200	0	32718	32691	32643	32103	32645	33151	32511	32579	
1111	0	164	1246	29	1988	201	0	32660	32773	32615	32345	32807	32682	32927	32413	
1112	0	121	1222	30	2004	202	0	32724	32801	32548	32179	32894	33063	32879	32642	
1113	0	101	1261	29	1960	203	0	32734	32873	32655	31879	32647	32775	32823	32658	
1114	0	88	1238	29	1983	204	0	32724	32891	32557	32107	32086	32505	33127	32787	
1115	0	120	1290	29	1984	205	0	32790	32822	32647	33045	32050	32270	32810	32593	
1116	0	132	1245	28	1981	206	0	32631	32647	32527	33482	33449	32197	32738	32607	
1117	0	171	1254	30	1975	207	0	32647	32748	32871	33867	34577	32386	32775	32459	
1118	0	109	1240	29	1967	208	0	32725	32691	32727	33939	33926	32515	32892	32383	
1119	0	119	1250	29	1983	209	0	32764	32730	32621	33791	32772	32417	32525	32704	
1120	0	133	1230	28	1960	210	0	32856	32902	32993	33531	33267	32231	32162	32895	
1121	0	131	1235	29	1988	211	0	32851	32895	33011	32707	32713	32146	32087	32787	
1122	0	85	1228	28	1953	212	0	32677	32684	32914	32299	30999	32035	31834	33238	
1123	0	143	1216	29	1936	213	0	32839	32518	32829	32311	30627	33059	31539	32942	
1124	0	110	1267	29	1975	214	0	32923	32641	32736	32754	30559	33509	32574	32804	
1125	0	139	1266	29	1988	215	0	32896	32786	32503	32991	32604	33095	33299	32717	
1126	0	93	1268	28	1964	216	0	32903	32747	32355	32931	33695	32773	32183	32405	
1127	0	106	1275	29	1972	217	0	32825	32597	32391	32677	33126	32794	32007	32543	
1128	0	145	1252	28	2000	218	0	32635	32611	32304	32919	31931	32479	32733	32754	
1129	0	114	1211	29	1962	219	0	32647	32903	32703	32783	32375	32452	33887	32585	
1130	0	101	1233	29	2012	220	0	32694	32713	32803	32675	33366	33011	32681	32951	
1131	0	192	1244	29	1932	221	0	32844	32647	32982	32348	33121	32606	31851	32423	
1132	0	103	1220	29	1946	222	0	32870	32569	32891	31969	32548	32871	33452	32135	
1133	0	121	1226	29	1968	223	0	32596	32587	32705	32534	32655	33563	35751	32663	
1134	0	110	1262	29	1935	224	0	32583	32802	32555	32999	33434	32784	34575	32871	
1135	0	100	1233	29	1967	225	0	32678	32947	32407	33013	33758	32607	33711	32815	
1136	0	131	1240	29	1969	226	0	32716	32941	32123	32701	33247	32738	33781	32703	
1137	0	93	1264	28	1935	227	0	32704	32925	32069	32799	32999	32679	33243	32638	
1138	0	147	1250	28	1959	228	0	32672	32775	32316	32737	33191	32293	34103	32459	
1139	0	131	1238	29	1979	229	0	32696	32699	32251	32932	32791	32354	32231	32607	
1140	0	110	1226	28	1993	230	0	32788	32786	32404	32619	33100	32511	30967	32811	
1141	0	92	1257	29	1989	231	0	32843	32799	32373	32237	33235	32621	30851	32775	
1142	0	161	1207	30	1986	232	0	32908	32742	32315	32135	33238	32919	32251	32655	
1143	0	101	1203	28	1943	233	0	32858	32711	32487	32237	33332	33532	33535	32327	
1144	0	148	1200	30	1964	234	0	32814	32597	32480	32500	32925	33129	34087	32263	
1145	0	165	1227	29	1980	235	0	32773	32743	32519	32843	32551	32957	33557	32495	
1146	0	105	1197	28	1966	236	0	32826	32775	32471	33205	32638	33076	32869	32717	
1147	0	107	1295	30	1962	237	0	32752	32941	32603	33295	32957	33143	32431	32727	
1148	0	120	1232	29	1963	238	0	32774	32775	32563	33115	33223	33350	32242	32723	
1149	0	145	1243	28	1974	239	0	32700	32635	32873	32757	33315	32877	32151	32673	
1150	0	79	1273	29	1942	240	0	32732	32708	32871	32399	32948	32881	32283	32673	
1151	0	132	1248	29	1970	241	0	32690	32775	33066	32743	32051	32583	32336	32519	
1152	0	133	1219	30	1985	242	0	32628	32941	33047	32871	31524	32533	32873	32493	
1153	0	144	1194	28	1985	243	0	32711	32727	33045	32935	32013	32334	33007	32612	
1154	0	120	1257	29	1956	244	0	32732	32631	32855	32823	32086	31999	32685	32587	
1155	0	158	1254	29	1908	245	0	32784	32801	32660	32633	32127	31719	32479	32434	
1156	0	98	1243	29	1988	246	0	32831	32711	32769	32278	32772	32093	31903	32722	
1157	0	170	1224	28	1994	247	0	32768	32847	32772	32367	32669	32463	32181	32743	
1158	0	123	1185	28	1948	248	0	32716	32687	32773	32471	33092	32447	32469	32703	
1159	0	124	1256	29	1975	249	0	32585	32723	32562	33254	32470	32263	32559	33087	
1160	0	151	1209	28	2024	250	0	32716	32711	32658	33563	32602	31767	32492	32877	
1161	0	160	1186	28	1966	251	0	32740	32607	32761	33307	32903	32333	32743	32823	
1162	0	106	1275	30	1992	252	0	32794	32594	32785	32807	33042	33385	33037	32809	
1163	0	127	1191	28	1938	253	0	32877	32711	32964	32135	33092	33627	32773	32559	
1164	0	127	1248	29	1968	254	0	32837	32831	32868	32100	32855	33171	32786	32655	
1165	0	150	1232	28	1974	255	0	32822	32775	32881	31795	32662	33295	32839	32895	
1166	0	134	1223	28	1987	256	0	32783	32663	33024	32533	32814	33281	32759	32821	
1167	0	124	1188	30	1976	257	0	32781	32545	32791	32999	33005	32638	32702	32458	
1168	0	171	1235	30	1951	258	0	32767	32615	32557	33383	32889	32365	32687	32455	
1169	0	106	1245	28	1987	259	0	32722	32557	32118	33609	32775	32183	32797	32543	
1170	0	82	1247	29	1986	260	0	32600	32775	32126	33471	32828	32632	32933	32769	
1171	0	155	1237	29	1966	261	0	32665	32775	32510	32941	32851	32423	33019	32735	
1172	0	124	1246	29	1972	262	0	32730	32795	32782	31943	32911	32271	32775	32591	
1173	0	137	1218	30	1952	263	0	32727	32751	32861	31433	32815	31775	32870	32609	
1174	0	121	1245	29	1937	264	0	32756	32975	32666	31767	32881	31899	32808	32575	
1175	0	144	1262	29	2000	265	0	32805	32886	32599	32679	32715	32181	32831	32677	
1176	0	143	1231	28	1963	266	0	32826	32891	32829	33159	32807	32131	32703	32563	
1177	0	139	1205	29	1944	267	0	32867	32799	32838	33475	32743	31981	32899	32508	
1178	0	133	1226	28	1997	268	0	32807	32695	32915	33543	32839	31969	32827	32639	
1179	0	120	1233	29	1978	269	0	32775	32719	32919	33565	32675	31895	32583	32837	
1180	0	146	1200	28	1932	270	0	32813	32871	33017	33143	32263	31873	32818	32742	
1181	0	159	1206	29	1913	271	0	32879	32891	32997	33067	32519	32215	32786	32557	
1182	0	152	1224	28	1958	272	0	32834	32823	32586	32935	32819	32508	32827	32735	
1183	0	112	1231	29	1998	273	0	32710	32683	32399	32771	32813	32694	32771	32751	
1184	0	117	1209	28	2010	274	0	32724	32518	32023	32596	32785	32647	32839	32715	
1185	0	127	1280	29	1976	275	0	32780	32706	31943	32689	32767	33172	32743	32739	
1186	0	97	1188	29	1928	276	0	32773	32715	31847	32743	32871	33687	32729	32767	
1187	0	131	1223	28	1986	277	0	32773	32787	32039	32646	32823	33551	32722	32450	
1188	0	153	1227	30	1934	278	0	32655	32903	32518	32821	32815	33287	32807	32691	
1189	0	131	1275	29	1966	279	0	32599	32731	32583	32795	32812	32979	32815	32678	
1190	0	163	1263	29	1968	280	0	32681	32693	32551	32903	32730	32679	32851	32601	
1191	0	144	1250	30	1964	281	0	32663	32660	32815	32501	32803	32391	32787	32602	
1192	0	144	1207	29	1983	282	0	32699	32821	32711	32413	32747	33007	32711	32771	
1193	0	166	1276	28	1958	283	0	32751	32743	32919	32121	32887	33719	32549	32717	
1194	0	106	1242	28	2003	284	0	32742	32853	32884	32757	32775	33190	32644	32591	
1195	0	92	1223	28	1957	285	0	32684	32809	32671	32795	32772	32405	32771	32703	
1196	0	124	1243	27	1995	286	0	32724	32757	32955	32879	32647	32683	32775	32571	
1197	0	117	1241	30	1970	287	0	32718	32739	32918	32742	32621	32438	32889	32722	
1198	0	108	1221	30	1978	288	0	32698	32871	32913	32627	32595	32218	32842	32745	
1199	0	94	1253	29	1994	289	0	32703	32861	32835	32359	32707	32485	32814	32674	
1200	0	131	1232	28	1955	290	0	32885	32647	33035	31878	32917	32893	32642	32221	
1201	0	142	1234	29	1987	291	0	32990	32438	32933	31653	32954	33799	32735	32423	
1202	0	137	1273	29	1957	292	0	32832	32668	32725	32244	32802	33243	32724	32735	
1203	0	134	1243	28	2004	293	0	32814	32807	32609	33183	32675	33072	32733	32635	
1204	0	146	1235	28	1978	294	0	32818	32895	32495	33709	32805	32869	33137	32675	
1205	0	142	1279	29	2037	295	0	32870	32839	32513	33395	33034	32859	33006	32764	
1206	0	124	1236	27	1939	296	0	32866	32815	32374	32734	33426	33191	32413	32991	
1207	0	114	1216	29	1966	297	0	32789	32698	32793	32095	32978	32859	31962	33139	
1208	0	139	1280	29	1971	298	0	32592	32719	32913	32187	32594	32553	32667	32484	
1209	0	101	1247	28	1987	299	0	32514	33095	32827	31903	33055	32284	33271	32303	
1210	0	126	1226	29	1942	300	0	32580	32995	32622	32427	33713	32563	33018	33091	
1211	0	105	1237	29	1978	301	0	32736	32869	32580	32215	34479	32991	33135	32627	
1212	0	156	1252	28	1994	302	0	32811	32662	33159	32379	34805	33311	33466	32287	
1213	0	101	1249	30	1970	303	0	32786	32345	33273	32724	33407	33594	33261	32637	
1214	0	150	1215	30	1974	304	0	32724	32577	33228	33707	29783	32915	32155	33111	
1215	0	113	1237	29	1969	305	0	32705	32819	32603	33647	28989	32279	32039	32579	
1216	0	110	1281	29	1968	306	0	32871	32721	32270	33268	30966	32559	32822	32819	
1217	0	156	1281	27	1941	307	0	32837	32685	31968	33607	32857	32727	32719	32845	
1218	0	87	1252	28	1993	308	0	32697	32827	31699	33428	32939	32348	32575	32918	
1219	0	120	1246	29	1982	309	0	32898	32742	31999	33095	32519	32314	32508	32740	
1220	0	109	1270	29	1984	310	0	32958	32565	32187	32940	32247	31931	32379	33247	
1221	0	100	1225	28	1967	311	0	32864	32606	32091	33071	32639	31983	32391	33495	
1222	0	130	1256	30	1966	312	0	32854	32675	32027	33411	32839	31878	32644	33278	
1223	0	116	1240	28	1964	313	0	32764	32847	32101	33127	32973	32301	32967	32572	
1224	0	97	1236	29	1956	314	0	32820	32861	32441	33207	33195	32850	33223	32370	
1225	0	128	1230	28	1960	315	0	32686	32775	32577	32910	33022	32773	32899	32445	
1226	0	135	1291	29	1985	316	0	32694	32799	32842	32659	33067	32892	32843	31456	
1227	0	81	1218	29	1981	317	0	32722	32735	32815	32391	32983	32835	32663	31575	
1228	0	165	1212	30	1996	318	0	32756	32662	32775	31951	33251	33102	32890	32527	
1229	0	98	1301	28	1958	319	0	32628	32797	33246	31959	33201	33273	32903	32483	
1230	0	140	1220	29	2007	320	0	32647	32829	33268	31270	32973	33005	32759	32647	
1231	0	99	1221	28	1970	321	0	32735	32847	33283	31431	33178	32443	32444	32474	
1232	0	121	1267	29	1974	322	0	32679	32869	33415	31751	33220	32143	32391	32447	
1233	0	98	1252	29	1978	323	0	32727	32825	33247	32235	33159	31923	32356	32431	
1234	0	75	1239	29	2022	324	0	32695	32758	32897	33095	32420	31785	32507	32604	
1235	0	137	1231	29	1971	325	0	32688	32745	32795	33879	32815	31895	32703	32655	
1236	0	103	1184	30	1993	326	0	32825	32551	32735	34183	33143	32215	33511	32597	
1237	0	97	1226	30	1927	327	0	32727	32669	32237	33935	32621	32114	33443	32482	
1238	0	157	1242	29	1975	328	0	32839	32623	32575	33503	32583	32170	32501	32995	
1239	0	75	1241	30	1935	329	0	32802	32711	32859	33243	32124	32065	32097	32957	
1240	0	143	1211	29	1931	330	0	32638	32692	33159	32967	32323	32663	32343	33157	
1241	0	112	1217	28	1959	331	0	32724	32711	33085	32943	33883	32837	33209	32979	
1242	0	130	1234	30	1984	332	0	32794	32830	32839	32463	33181	32947	32295	32895	
1243	0	133	1256	28	1971	333	0	32745	32819	32681	32526	32199	32387	32207	32477	
1244	0	101	1209	29	2005	334	0	32819	32762	32355	32749	31980	32683	32111	32647	
1245	0	110	1238	28	1949	335	0	32727	32887	32083	32799	32108	33175	31193	32764	
1246	0	148	1274	28	1994	336	0	32724	32989	31787	32476	33085	33004	34812	32741	
1247	0	95	1228	29	1983	337	0	32824	32839	32031	32263	33988	33285	37319	32501	
1248	0	158	1227	28	1961	338	0	32809	32693	32175	32025	33035	33125	34701	32642	
1249	0	155	1183	29	1995	339	0	32820	32844	32007	32390	32359	32557	32602	33023	
1250	0	117	1270	29	1950	340	0	32850	32742	32187	32372	32547	33005	31827	32919	
1251	0	99	1211	30	2020	341	0	32749	32887	32647	32609	33071	33203	32147	32756	
1252	0	138	1252	29	1966	342	0	32559	32887	32887	32237	32713	32799	30738	32635	
1253	0	131	1212	29	1998	343	0	32548	32993	32831	32041	33191	32391	30974	32879	
1254	0	110	1230	30	1955	344	0	32701	32819	32975	31889	33167	32468	32845	32501	
1255	0	102	1245	29	1976	345	0	32802	32639	33249	32034	32884	33123	33363	32495	
1256	0	130	1238	29	1999	346	0	32766	32709	33007	32966	33097	32359	34375	32615	
1257	0	124	1235	30	2000	347	0	32713	32799	32487	33831	32116	31350	34081	32423	
1258	0	129	1212	29	1952	348	0	32721	32804	32579	34043	31892	31719	32986	32639	
1259	0	87	1210	28	1985	349	0	32957	32705	32586	33319	32579	32609	32365	32359	
1260	0	138	1232	28	1994	350	0	33041	32451	32615	32229	33023	33371	32580	32338	
1261	0	125	1234	28	1979	351	0	32998	32550	32311	32009	32854	33766	32540	32447	
1262	0	131	1222	30	1955	352	0	32871	32694	32223	32902	32492	33127	32309	32919	
1263	0	123	1175	30	1916	353	0	32898	32663	32406	32887	32911	32879	32135	33063	
1264	0	150	1244	28	1986	354	0	32805	32773	32655	32071	32718	33025	32279	32829	
1265	0	101	1249	29	1988	355	0	32834	32819	32903	32095	32969	33103	32307	32609	
1266	0	128	1242	30	1995	356	0	32743	32903	33047	32315	33095	33334	32229	32805	
1267	0	141	1227	30	1933	357	0	32684	32710	33193	32851	33174	33080	32468	32812	
1268	0	167	1246	29	1967	358	0	32668	32790	32883	32989	32877	32995	32343	32866	
1269	0	148	1267	29	2024	359	0	32762	32677	32554	33311	32571	33063	32287	32815	
1270	0	108	1247	29	1996	360	0	32767	32643	32327	33415	32283	33052	32207	32886	
1271	0	159	1234	29	1940	361	0	32766	32757	32452	33183	32275	32581	32303	32786	
1272	0	124	1209	28	1930	362	0	32760	32711	32599	33069	32435	32359	33759	32659	
1273	0	108	1185	29	1966	363	0	32701	32711	32679	32969	32935	32105	34783	32191	
1274	0	165	1246	29	1951	364	0	32698	32783	32987	32751	33075	32293	33867	32596	
1275	0	145	1264	28	1991	365	0	32838	32783	33295	32471	32988	32603	32813	32839	
1276	0	110	1240	29	1988	366	0	32678	32935	33184	32179	33052	32535	32635	32743	
1277	0	122	1194	29	2001	367	0	32668	33039	33159	32071	32967	32357	32819	32639	
1278	0	113	1232	29	1950	368	0	32698	32764	32813	32163	32647	32243	32477	32817	
1279	0	150	1211	29	1972	369	0	32774	32623	32775	32707	32426	32317	32567	32791	
1280	0	131	1244	28	1980	370	0	32892	32755	32685	33461	32519	32313	32715	32747	
1281	0	140	1202	28	1956	371	0	32841	32827	32567	33303	32647	32817	32647	32519	
1282	0	99	1225	29	1986	372	0	32762	32815	31927	33146	33119	32647	32341	32582	
1283	0	89	1244	29	1962	373	0	32783	32823	31793	32727	33039	32705	32554	32429	
1284	0	112	1241	28	1950	374	0	32807	32843	31655	33055	32949	32701	32589	32668	
1285	0	120	1229	29	1979	375	0	32827	32735	31867	32996	32830	32700	32663	32586	
1286	0	146	1236	29	1950	376	0	32880	32699	31827	32878	32710	32919	32669	32839	
1287	0	95	1250	29	1963	377	0	32758	32569	32047	32407	32617	32705	32713	32770	
1288	0	121	1259	30	1946	378	0	32613	32791	32237	32331	32545	32805	32655	32639	
1289	0	138	1237	28	2006	379	0	32590	32769	32391	32716	32721	32719	32748	32646	
1290	0	133	1236	29	1947	380	0	32732	32717	32583	32573	32692	32523	32705	32799	
1291	0	152	1240	29	2016	381	0	32670	32679	32873	32647	33194	32461	32807	32756	
1292	0	155	1249	28	1958	382	0	32735	32583	32952	32676	33173	32471	32763	32763	
1293	0	113	1247	31	1957	383	0	32713	32623	32807	33027	32935	32423	32689	32594	
1294	0	116	1244	28	1956	384	0	32828	32591	33019	32941	32795	32295	32710	32687	
1295	0	126	1271	29	1952	385	0	32773	32839	32991	32861	32831	32263	32742	32658	
1296	0	145	1232	28	1954	386	0	32775	32803	32762	33026	32659	32165	32623	32645	
1297	0	118	1239	29	1995	387	0	32788	32886	32901	33069	32685	32319	32591	32477	
1298	0	135	1252	29	1985	388	0	32764	32871	32834	32927	32327	32402	32699	32621	
1299	0	133	1275	30	1963	389	0	32775	32721	32861	33204	32551	32391	32695	32578	
1300	0	146	1251	29	1944	390	0	32658	32591	32894	32893	32378	32419	32687	32517	
1301	0	138	1176	30	1962	391	0	32788	32583	33195	32582	32583	32431	32687	32493	
1302	0	142	1245	30	1976	392	0	32789	32855	33203	32175	33009	32582	32391	32695	
1303	0	109	1272	27	1952	393	0	32836	32901	32903	31706	32971	33022	32399	32767	
1304	0	120	1267	30	1980	394	0	32924	32878	33159	32044	32837	33319	32775	32671	
1305	0	119	1224	29	1946	395	0	32832	32629	32877	32911	33078	33311	33575	32391	
1306	0	76	1246	29	1956	396	0	32772	32593	32715	32841	33499	33231	33062	32634	
1307	0	131	1235	29	2024	397	0	32633	32811	32427	32804	33263	33142	32567	32742	
1308	0	148	1229	30	1962	398	0	32659	32993	32135	32391	32590	33227	32627	32659	
1309	0	141	1215	29	1974	399	0	32764	32789	32211	32083	32242	33153	33037	32532	
1310	0	116	1216	29	1927	400	0	32688	32810	32251	31997	32743	32987	32861	32607	
1311	0	77	1211	28	1997	401	0	32689	32839	32455	32064	32775	32517	32673	32738	
1312	0	132	1205	29	1951	402	0	32856	32701	32629	31975	32695	32895	32694	32673	
1313	0	135	1200	29	1956	403	0	32868	32565	32683	32231	32431	33199	32855	32457	
1314	0	108	1184	30	1967	404	0	32863	32339	32683	32771	33380	33559	32795	32773	
1315	0	131	1204	28	1974	405	0	32894	32679	32691	34111	33135	33287	32615	32859	
1316	0	153	1220	29	1945	406	0	32698	32762	33159	33887	33687	32810	32710	33046	
1317	0	118	1226	29	1967	407	0	32462	33071	32754	33503	33587	32295	33175	32894	
1318	0	121	1233	29	2001	408	0	32527	32999	32892	32948	33261	32246	33618	32391	
1319	0	121	1230	30	1988	409	0	32795	32714	33126	32823	32999	32135	33447	32615	
1320	0	131	1244	28	1990	410	0	32754	32773	33215	33055	31913	32511	32931	32710	
1321	0	138	1311	29	1970	411	0	32751	32819	32738	33133	30599	32827	32493	32647	
1322	0	141	1190	27	1936	412	0	32814	32739	32581	33412	32759	33651	32818	32292	
1323	0	127	1239	29	1960	413	0	32750	32455	32677	34212	34574	33107	32474	32391	
1324	0	139	1226	29	1949	414	0	32667	32767	32343	33871	32673	32543	31131	33128	
1325	0	109	1219	29	1989	415	0	32772	32764	32244	33028	30701	32183	30386	33405	
1326	0	168	1226	28	1994	416	0	32711	32884	32003	33199	30453	32219	29917	33131	
1327	0	129	1269	29	1966	417	0	32558	32775	31693	33070	30134	32543	28963	33134	
1328	0	117	1243	29	1945	418	0	32671	32837	31602	32438	33146	33281	30787	32717	
1329	0	118	1252	28	1992	419	0	32843	32809	32324	31931	36485	33297	35767	32143	
1330	0	87	1231	27	1985	420	0	32903	32568	32557	31054	35871	33662	36359	32278	
1331	0	157	1238	28	1978	421	0	32855	32537	32748	31386	32646	32488	35826	32151	
1332	0	109	1243	28	1963	422	0	32738	32988	32519	31675	30015	31997	32947	32524	
1333	0	165	1243	28	2002	423	0	32723	32930	32492	32023	31879	32483	33190	32725	
1334	0	151	1257	28	2007	424	0	32775	32775	33091	32455	32817	32452	33437	32918	
1335	0	97	1222	28	1989	425	0	32752	32692	33586	32679	33739	32527	32751	32605	
1336	0	123	1238	30	1991	426	0	32789	32523	33663	33159	33799	32527	31332	32739	
1337	0	78	1282	29	1972	427	0	32790	32757	33407	33135	32935	32319	31650	32932	
1338	0	148	1237	28	1965	428	0	32841	32695	33043	33272	33075	32356	34343	32599	
1339	0	109	1228	28	1980	429	0	32804	32799	32900	33233	33462	32263	36871	32319	
1340	0	67	1222	29	1957	430	0	32799	32743	32606	32783	33279	32132	35039	32465	
1341	0	115	1254	29	1957	431	0	32813	32575	32535	32895	32861	32324	33397	32583	
1342	0	118	1265	29	1973	432	0	32725	32558	32031	33405	32503	32199	32982	32623	
1343	0	133	1264	28	1956	433	0	32692	32710	31503	33455	32437	32283	32639	32715	
1344	0	111	1211	30	1947	434	0	32735	32872	31585	33019	32615	32503	32339	32647	
1345	0	93	1236	31	1958	435	0	32746	32775	31952	32263	32708	32647	32071	32675	
1346	0	108	1240	27	1937	436	0	32775	32702	32099	32263	32841	32889	31947	32747	
1347	0	122	1241	29	1942	437	0	32701	32623	32269	32327	32438	32783	31989	32694	
1348	0	130	1195	29	1939	438	0	32765	32823	32455	32342	32600	32823	32199	32775	
1349	0	96	1272	29	1986	439	0	32797	32759	32548	32271	32771	32631	32341	32585	
1350	0	145	1209	29	1950	440	0	32789	32765	32829	31731	32837	32659	32263	32565	
1351	0	82	1246	28	1971	441	0	32793	32577	32943	32263	32719	32703	32389	32639	
1352	0	167	1199	30	1960	442	0	32796	32554	32758	32575	32695	32736	32399	32773	
1353	0	114	1221	28	1966	443	0	32738	32743	32861	32311	32714	32647	32609	32603	
1354	0	117	1252	29	2006	444	0	32863	32853	32874	31170	32535	32468	32639	32647	
1355	0	123	1222	28	1968	445	0	32775	32923	32971	31004	32674	32495	32663	32527	
1356	0	88	1211	28	1920	446	0	32702	32903	32756	31954	33074	32262	32617	32529	
1357	0	92	1247	28	1960	447	0	32706	33015	32702	32690	32935	32289	32463	32695	
1358	0	115	1204	30	2004	448	0	32744	33039	32901	34389	32891	32511	32583	32910	
1359	0	60	1200	29	1930	449	0	32684	33012	33015	35810	32773	32431	32703	32512	
1360	0	112	1237	29	1982	450	0	32796	32461	32919	35147	32398	32567	32835	32511	
1361	0	160	1242	29	1965	451	0	32821	32587	32814	33831	32803	33270	32719	32722	
1362	0	153	1264	28	1956	452	0	32866	32367	32548	33015	32503	33807	32572	32644	
1363	0	150	1240	29	1973	453	0	32847	32386	32515	32571	33007	33740	32743	32671	
1364	0	132	1237	29	1960	454	0	32727	32685	32569	33159	32743	33375	32726	32637	
1365	0	126	1272	29	1940	455	0	32652	32859	32351	33279	33015	33191	32835	32581	
1366	0	112	1253	29	2009	456	0	32727	32924	32507	32477	32831	33101	32775	32675	
1367	0	115	1245	30	1986	457	0	32713	32867	32644	31703	32829	32951	32820	32621	
1368	0	164	1260	28	1974	458	0	32765	32767	33159	33047	32453	32893	32743	32794	
1369	0	100	1220	29	1967	459	0	32783	32571	33516	34130	32477	32725	32930	32571	
1370	0	119	1220	30	1938	460	0	32807	32574	33457	33783	32611	32733	32871	32668	
1371	0	124	1234	28	1961	461	0	32806	32837	33234	33329	32293	32551	32786	32711	
1372	0	87	1235	28	1970	462	0	32794	32706	33007	32436	32694	32615	32757	32611	
1373	0	126	1226	28	1955	463	0	32807	32646	32173	32055	33415	32775	32764	32662	
1374	0	134	1188	30	1989	464	0	32839	32871	31725	32023	32701	32887	32847	32765	
1375	0	119	1238	28	1945	465	0	32834	32831	31658	32061	32981	32939	32911	32789	
1376	0	107	1256	29	1988	466	0	32871	32802	32167	31746	32512	33238	32950	32942	
1377	0	105	1251	28	1978	467	0	32740	32951	32277	32177	32659	32757	32807	32500	
1378	0	127	1211	29	1970	468	0	32674	32900	32374	32631	33711	31958	32967	32303	
1379	0	137	1232	28	1964	469	0	32717	32955	32560	33021	33413	31683	32847	32467	
1380	0	116	1275	29	1989	470	0	32745	32903	32517	33255	32751	31607	32862	32559	
1381	0	113	1220	29	1984	471	0	32773	32839	32703	33197	32821	31943	32831	32583	
1382	0	115	1225	29	1973	472	0	32681	32865	32542	32980	33135	32255	32783	32499	
1383	0	146	1257	29	2026	473	0	32679	32675	32350	32503	32849	32447	32805	32689	
1384	0	116	1237	29	1976	474	0	32694	32693	32799	32087	33178	32702	32702	32873	
1385	0	132	1220	29	1951	475	0	32637	32724	33095	32293	33130	33453	32634	32877	
1386	0	124	1284	29	1945	476	0	32745	32756	33203	32722	32543	33455	32793	32543	
1387	0	114	1246	29	1968	477	0	32857	32941	33363	32996	32751	33014	32734	32519	
1388	0	92	1225	29	1962	478	0	32937	32725	33258	32654	32871	32799	32635	32567	
1389	0	133	1241	29	1996	479	0	32991	32548	32687	32565	32802	33079	32635	32755	
1390	0	124	1249	30	1960	480	0	32917	32547	32335	32325	32639	33186	32619	32695	
1391	0	111	1268	30	1976	481	0	32874	32765	32095	31721	32615	32846	32771	32647	
1392	0	112	1246	28	1968	482	0	32726	32887	32191	31543	32583	32683	32775	32775	
1393	0	104	1272	28	1973	483	0	32617	32886	32237	31543	32631	32487	32765	32756	
1394	0	99	1288	29	1959	484	0	32721	32933	32895	31996	32641	32305	32789	32447	
1395	0	142	1253	28	1927	485	0	32764	32979	32897	32838	32717	32325	32791	32580	
1396	0	130	1252	28	1968	486	0	32861	32871	32715	33383	32799	32255	32819	32654	
1397	0	95	1171	29	1953	487	0	32866	32659	32971	33241	32909	32161	32819	32695	
1398	0	170	1233	29	1994	488	0	32800	32535	32919	34070	32339	32213	32679	32723	
1399	0	114	1241	29	1980	489	0	32833	32455	33059	34098	32380	32479	32707	32791	
1400	0	122	1226	29	1984	490	0	32745	32665	32959	34017	32708	32541	32727	32723	
1401	0	107	1215	29	1970	491	0	32676	32742	32718	33277	32322	32501	32663	32771	
1402	0	157	1226	29	1965	492	0	32544	32839	32621	33103	32637	32667	32735	32903	
1403	0	109	1264	30	1966	493	0	32571	32773	32519	32941	32271	32683	32799	32672	
1404	0	109	1248	29	1972	494	0	32734	32855	32647	32895	32875	32937	32866	32747	
1405	0	139	1253	28	1997	495	0	32758	32845	32477	32903	33146	33063	32795	32527	
1406	0	113	1253	30	1994	496	0	32807	32659	32349	32647	33543	33076	32887	32640	
1407	0	115	1229	30	1955	497	0	32762	32799	32663	32418	33222	32943	32881	32519	
1408	0	108	1210	28	1980	498	0	32927	32834	32484	32323	33270	32953	32867	32534	
1409	0	77	1230	26	1970	499	0	32821	32899	32183	32287	33017	33018	32901	32621	
1410	0	139	1223	29	1969	500	0	32829	32663	31923	32319	32669	32908	32685	32720	
1411	0	169	1228	27	1965	501	0	32848	32715	32204	32461	32863	32916	32633	32719	
1412	0	114	1234	29	1999	502	0	32797	32795	32402	32391	32548	32790	32763	32655	
1413	0	84	1190	27	1966	503	0	32632	32807	32614	32621	31463	32322	32589	32555	
1414	0	84	1230	28	1988	504	0	32642	32935	32841	32715	30663	32305	32319	32615	
1415	0	134	1201	29	1963	505	0	32692	32869	32883	32691	31879	32412	32431	32803	
1416	0	120	1266	28	1987	506	0	32682	32850	32885	32597	33265	32578	32847	32629	
1417	0	108	1232	28	1981	507	0	32655	32845	32890	32884	34471	32590	33071	32623	
1418	0	100	1270	29	1924	508	0	32727	32575	32962	32503	34349	32503	32719	32590	
1419	0	80	1238	29	2016	509	0	32716	32809	32645	32044	32781	32314	32353	32671	
1420	0	123	1263	28	1954	510	0	32856	32823	32621	31649	31301	32293	32399	32519	
1421	0	125	1237	29	2014	511	0	32816	32571	32703	31991	32359	32736	32419	32633	
1422	0	154	1205	30	1942	512	0	32773	32549	32851	32826	33621	32562	33159	32498	
1423	0	149	1213	29	1951	513	0	32778	32799	32803	33107	33464	32519	33607	32559	
1424	0	127	1239	29	1958	514	0	32647	32824	32629	33319	32495	32630	33087	32628	
1425	0	115	1247	28	1969	515	0	32692	32751	32502	33579	32559	32468	32771	32719	
1426	0	107	1217	29	1951	516	0	32712	32583	32679	33258	32940	32549	32519	32591	
1427	0	114	1254	30	1975	517	0	32791	32735	32317	33623	32870	32669	32572	32695	
1428	0	140	1215	28	1931	518	0	32825	32804	32375	34135	32099	32507	32756	32903	
1429	0	89	1233	29	1960	519	0	32641	32766	32243	33807	32839	32391	32755	32695	
1430	0	109	1241	30	1968	520	0	32583	32724	32191	33498	33119	32647	32671	32871	
1431	0	100	1203	30	2018	521	0	32694	32594	32503	33351	32723	32414	32659	32759	
1432	0	162	1164	29	1983	522	0	32689	32571	32843	32868	32518	32383	32918	32553	
1433	0	152	1186	28	1977	523	0	32716	32885	33452	32775	32883	32551	32849	32687	
1434	0	115	1251	29	1962	524	0	32775	32807	33551	32059	32959	32489	32937	32711	
1435	0	134	1210	29	1962	525	0	32764	32879	33601	31872	32660	32439	32971	32687	
1436	0	121	1237	29	1993	526	0	32735	32879	33478	32435	32383	32231	32810	32702	
1437	0	81	1248	29	1956	527	0	32815	32647	33311	32463	32775	32463	32969	32647	
1438	0	128	1221	29	1967	528	0	32825	32685	33199	32255	32887	32391	32711	32699	
1439	0	140	1210	29	1946	529	0	32878	32835	32930	32083	33007	32455	32669	32581	
1440	0	65	1224	28	1969	530	0	32884	32771	32699	31901	32999	32702	32612	32727	
1441	0	160	1252	28	1986	531	0	32878	32837	32274	31919	33055	32917	32714	32631	
1442	0	109	1235	29	1987	532	0	32754	32711	32111	32103	33045	32923	32583	32573	
1443	0	117	1235	28	1982	533	0	32828	32775	31750	32391	32501	33001	32820	32647	
1444	0	120	1252	29	1970	534	0	32816	32810	31775	32852	32244	32760	32845	32638	
1445	0	155	1236	29	1936	535	0	32753	32791	31399	32976	32559	32749	32889	32593	
1446	0	111	1248	28	1948	536	0	32647	32575	31487	33111	32807	32660	32837	32558	
1447	0	140	1244	29	2023	537	0	32747	32734	31659	32915	33159	32701	32647	32663	
1448	0	154	1260	28	1953	538	0	32751	32721	31863	32810	33124	33229	32623	32791	
1449	0	159	1219	30	1970	539	0	32625	32861	31975	32943	32919	33455	32583	32605	
1450	0	101	1249	29	1976	540	0	32526	32794	32427	33000	32687	33363	32629	32389	
1451	0	99	1230	28	1944	541	0	32615	32647	32722	33044	32853	32855	32293	32719	
1452	0	98	1273	28	1916	542	0	32793	32679	33223	32623	32671	33028	31943	33001	
1453	0	138	1233	29	1943	543	0	32902	32721	33487	32525	32454	33274	32979	32595	
1454	0	143	1243	28	1988	544	0	32903	32735	33477	32503	32687	33127	33425	32435	
1455	0	134	1232	29	1951	545	0	32820	32553	33397	32661	32647	32883	32898	32621	
1456	0	154	1209	28	1996	546	0	32791	32551	33078	32775	32727	32623	32827	32527	
1457	0	134	1247	29	1990	547	0	32882	32711	32894	32851	32639	32351	32677	32751	
1458	0	125	1267	29	1972	548	0	32893	32775	32263	32933	32775	32479	32997	32662	
1459	0	91	1253	29	1986	549	0	32866	32839	31901	33017	32903	32795	33071	32647	
1460	0	109	1258	30	1984	550	0	32764	32892	32009	32853	32903	32923	32875	32647	
1461	0	153	1233	28	1967	551	0	32769	32845	32130	32631	32811	33351	32685	32686	
1462	0	121	1245	29	1958	552	0	32717	32683	31866	32711	32919	33039	32698	32705	
1463	0	109	1252	29	1989	553	0	32758	32615	32253	32561	32999	32621	33003	32615	
1464	0	90	1221	29	1992	554	0	32756	32717	32508	32567	32706	32519	32822	32599	
1465	0	146	1275	30	1956	555	0	32814	32807	32839	32365	32692	33155	32711	32838	
1466	0	146	1240	29	1959	556	0	32813	32715	32738	32341	32551	33526	32333	32772	
1467	0	112	1225	29	1928	557	0	32768	32823	32759	32206	32660	33550	32484	32864	
1468	0	148	1263	28	2009	558	0	32750	32852	32903	32491	32663	33725	32943	32771	
1469	0	139	1233	27	1998	559	0	32745	32638	32879	32759	32639	33607	33139	32601	
1470	0	104	1259	30	1998	560	0	32823	32693	32887	33183	32363	33666	33041	32763	
1471	0	110	1230	28	1947	561	0	32780	32751	32895	33115	32420	33390	32927	32723	
1472	0	131	1255	28	1986	562	0	32659	32935	33055	32813	32317	33344	32903	32647	
1473	0	139	1235	29	1990	563	0	32677	32932	33351	32435	32535	33213	32866	32695	
1474	0	104	1235	29	1937	564	0	32800	32807	33463	32457	33391	33143	32591	32643	
1475	0	133	1233	29	2011	565	0	32820	32615	33476	32097	33253	33012	32581	32701	
1476	0	136	1219	28	1960	566	0	32808	32707	33042	32691	33536	32971	32557	32567	
1477	0	106	1247	27	1936	567	0	32772	32622	32623	33687	33351	32983	32742	32570	
1478	0	114	1211	30	1955	568	0	32809	32790	32247	34089	32483	33254	32935	32679	
1479	0	114	1213	29	1965	569	0	32751	32882	32059	33627	32220	32903	32519	32791	
1480	0	126	1229	30	2004	570	0	32735	32663	32263	33742	32596	32919	32661	32742	
1481	0	108	1252	29	1963	571	0	32709	32607	32421	33105	32007	32951	32803	32743	
1482	0	124	1262	29	1986	572	0	32511	32879	32514	32147	32391	33055	32854	32698	
1483	0	156	1271	28	1995	573	0	32589	32917	32706	31996	33563	33287	32799	32506	
1484	0	141	1236	28	1941	574	0	32806	32742	33067	32708	33575	33367	32815	32542	
1485	0	116	1248	30	2004	575	0	32718	32577	32951	32999	33511	33279	33063	32807	
1486	0	124	1228	28	1968	576	0	32743	32860	32765	33143	32998	33059	32831	32638	
1487	0	153	1284	30	1979	577	0	32694	32803	32955	33201	32821	33091	32807	32581	
1488	0	131	1200	29	1965	578	0	32822	32787	32919	33111	32975	33065	32751	32588	
1489	0	95	1213	29	1947	579	0	32799	32791	33021	32621	32756	33299	32619	32553	
1490	0	113	1218	28	1998	580	0	32868	32745	32961	32727	32164	33342	32786	32775	
1491	0	129	1220	30	2008	581	0	32851	32807	32879	32671	32647	32841	32796	32635	
1492	0	132	1229	28	1976	582	0	32831	32647	33127	32762	32799	32823	32820	32636	
1493	0	124	1253	30	1958	583	0	32756	32839	33058	32820	32858	32495	32683	32681	
1494	0	102	1220	27	1955	584	0	32737	32918	32938	32599	32647	32471	32759	32591	
1495	0	105	1255	29	1947	585	0	32729	32815	32559	32479	32711	32553	32734	32548	
1496	0	132	1230	29	1961	586	0	32817	32643	32343	32547	32786	32324	32619	32711	
1497	0	120	1262	28	1986	587	0	32740	32847	31887	32453	32687	32382	32743	32615	
1498	0	118	1200	29	1991	588	0	32666	32791	32011	32343	32965	32424	32935	32621	
1499	0	114	1220	28	1922	589	0	32760	32751	32019	32313	32655	32582	33025	32647	
1500	0	71	1252	29	2046	590	0	32635	32806	32219	32415	32718	32531	32871	32693	
1501	0	103	1253	27	1954	591	0	32824	32831	32500	32727	32709	32549	32741	32679	
1502	0	146	1269	27	1974	592	0	32892	32655	32645	33231	32647	32479	32519	32791	
1503	0	119	1236	28	1952	593	0	32934	32578	32659	33179	32611	32541	32578	32669	
1504	0	85	1254	29	1986	594	0	32878	32468	32495	32597	32365	32630	32750	32539	
1505	0	116	1253	30	1934	595	0	32861	32733	32227	31927	32310	32745	32743	32695	
1506	0	106	1272	29	1935	596	0	32824	32775	32514	31687	32211	32615	32487	33073	
1507	0	121	1214	30	1961	597	0	32782	33019	32743	31733	32931	32671	32663	33095	
1508	0	161	1255	29	1936	598	0	32678	32855	32831	32217	33351	32675	32747	32717	
1509	0	135	1219	28	1988	599	0	32712	32911	32831	32607	32765	32429	33494	32045	
1510	0	141	1189	29	1957	600	0	32698	32811	32980	32955	32555	32045	33052	32370	
1511	0	152	1243	30	1958	601	0	32711	32850	32790	33103	32839	31901	32191	32818	
1512	0	147	1228	28	1948	602	0	32772	32641	32830	32959	32967	32039	32623	32927	
1513	0	102	1237	29	1956	603	0	32727	32595	32655	33247	33049	32301	32679	33026	
1514	0	133	1259	29	1965	604	0	32723	32813	32767	33031	33102	32039	32708	32893	
1515	0	145	1246	29	1938	605	0	32806	32784	32791	33255	32703	31879	32871	32886	
1516	0	142	1243	28	1984	606	0	32773	32735	32900	33325	32655	31795	32831	32855	
1517	0	134	1216	29	2016	607	0	32837	32627	33086	33303	32999	31994	32863	32519	
1518	0	139	1253	28	1972	608	0	32732	32810	32943	32951	32751	31865	32948	32445	
1519	0	81	1249	29	1948	609	0	32790	32788	32839	32647	33212	32027	32903	32535	
1520	0	108	1252	28	1963	610	0	32738	32886	32891	32337	33297	32219	32775	32668	
1521	0	142	1210	27	1986	611	0	32690	32751	33108	32258	32971	32271	32759	32615	
1522	0	91	1229	30	2012	612	0	32802	32605	33251	32021	32605	32284	32775	32685	
1523	0	139	1219	29	1958	613	0	32879	32619	33177	32358	32687	32301	32775	32551	
1524	0	131	1291	29	1956	614	0	32799	32813	33405	32596	32669	32469	32764	32679	
1525	0	86	1240	29	1970	615	0	32729	32855	33223	32931	32581	32391	32642	32815	
1526	0	133	1266	30	1966	616	0	32886	32727	32975	33091	32423	32540	32677	32791	
1527	0	98	1178	29	1958	617	0	32836	32525	32308	32863	32247	32591	32730	32631	
1528	0	131	1257	27	1978	618	0	32694	32831	32015	32399	32705	32791	32692	32635	
1529	0	111	1195	29	1967	619	0	32674	32895	31551	32230	33511	33067	32847	32687	
1530	0	146	1254	28	1954	620	0	32534	32801	31307	32405	33287	32769	32865	32679	
1531	0	131	1241	29	1940	621	0	32568	32839	31303	32867	33267	32758	32821	32601	
1532	0	69	1230	29	1999	622	0	32647	32738	31943	33014	33079	32819	32793	32579	
1533	0	107	1233	29	2046	623	0	32714	32815	32101	33131	33121	32647	32676	32679	
1534	0	100	1255	29	1968	624	0	32623	32965	32012	33175	32752	32551	32719	32667	
1535	0	125	1277	29	1945	625	0	32660	32663	31991	33245	32411	32439	32743	32693	
1536	0	148	1235	29	1958	626	0	32759	32748	32027	33075	32527	32675	32767	32803	
1537	0	74	1241	28	1956	627	0	32775	32719	32081	32723	32254	32699	32903	32721	
1538	0	128	1245	29	1956	628	0	32782	32862	32167	32445	32767	32564	32822	32596	
1539	0	125	1231	30	1993	629	0	32647	32615	32551	32597	33167	32391	32677	32605	
1540	0	114	1209	27	1962	630	0	32695	32709	32791	32775	32865	32391	32810	32751	
1541	0	110	1176	29	1968	631	0	32818	32637	32935	32563	32263	32667	32835	32679	
1542	0	145	1258	29	1962	632	0	32738	32823	32972	32297	32563	32599	32748	32684	
1543	0	140	1274	29	1972	633	0	32692	32638	33343	32244	32693	32663	32764	32714	
1544	0	136	1243	29	2023	634	0	32742	32559	33323	32378	32519	32671	32919	32757	
1545	0	118	1233	28	1979	635	0	32783	32873	33333	32718	32510	32579	32799	32591	
1546	0	147	1268	29	1965	636	0	32789	32873	33367	33011	33155	32552	32159	32867	
1547	0	132	1235	28	1968	637	0	32921	32722	33437	33283	33223	32935	32279	32771	
1548	0	147	1234	28	1970	638	0	33003	32521	33661	33107	33233	33174	32982	32634	
1549	0	99	1246	29	1961	639	0	32833	32738	33285	33021	33071	32729	33695	32316	
1550	0	98	1264	29	2005	640	0	32689	32818	33101	32823	32492	32891	32898	32391	
1551	0	112	1230	28	1963	641	0	32821	32903	32555	32935	32068	32868	32838	32543	
1552	0	78	1210	29	1966	642	0	32706	32793	32163	32972	32146	33235	32765	32717	
1553	0	116	1246	29	1963	643	0	32710	32809	32151	32903	33116	33362	33155	32591	
1554	0	122	1208	28	1953	644	0	32823	32817	32711	32562	32327	33488	33927	31871	
1555	0	127	1266	29	1987	645	0	32772	32977	32687	32129	32029	33275	33583	32221	
1556	0	140	1219	29	1986	646	0	32786	32771	32389	32314	33087	33351	33427	33055	
1557	0	125	1233	28	2015	647	0	32676	32701	32329	32791	34195	33455	32757	33469	
1558	0	124	1265	29	1966	648	0	32726	32871	32442	32647	34726	33317	31764	33479	
1559	0	143	1231	29	1974	649	0	32886	32751	32655	32466	33764	33345	32230	33251	
1560	0	114	1212	29	1942	650	0	32935	32803	32918	32719	32993	33422	32295	33009	
1561	0	136	1295	28	1965	651	0	32847	32579	33227	33303	32263	33301	33111	32590	
1562	0	155	1242	29	1963	652	0	32793	32767	33517	33439	31934	33355	33247	32377	
1563	0	123	1224	29	1954	653	0	32783	32692	33855	33455	33021	33372	32099	32707	
1564	0	112	1216	30	1998	654	0	32762	32708	33614	32730	34047	33436	31661	33013	
1565	0	108	1215	30	1974	655	0	32700	32637	33207	32239	33159	33031	32303	32489	
1566	0	121	1230	30	1953	656	0	32704	32548	32423	32103	32031	33063	32903	32326	
1567	0	149	1240	29	1909	657	0	32587	32775	32015	32406	30163	32911	32785	32495	
1568	0	103	1258	29	1963	658	0	32624	32735	31760	32571	32228	33751	32423	32734	
1569	0	111	1251	28	1979	659	0	32615	32708	31659	33119	33561	33781	32532	32709	
1570	0	97	1206	30	1936	660	0	32509	32590	31491	33254	32871	33223	32303	32621	
1571	0	132	1214	27	1976	661	0	32489	32771	31399	32694	32174	32621	32349	32598	
1572	0	150	1221	29	1983	662	0	32566	32622	31975	32489	32418	32623	32931	32461	
1573	0	151	1242	29	1925	663	0	32668	32722	32493	32843	33391	32630	33717	32319	
1574	0	118	1247	29	1948	664	0	32761	32518	32916	33154	33287	32642	34653	31865	
1575	0	165	1184	29	1980	665	0	32783	32439	32775	33039	32935	32589	34246	31852	
1576	0	154	1224	29	1980	666	0	32893	32419	32835	32626	32363	32495	31623	33255	
1577	0	121	1253	29	1963	667	0	32816	32612	32311	32733	32059	32035	31639	32899	
1578	0	131	1234	29	1964	668	0	32756	32743	31573	32659	31781	31548	31741	32926	
1579	0	123	1244	29	2000	669	0	32797	32790	31173	32615	32351	31821	31578	32839	
1580	0	159	1228	29	2012	670	0	32640	32865	31575	32415	33453	32263	31613	32754	
1581	0	117	1220	28	1972	671	0	32654	32775	31998	32431	33189	32895	30938	32581	
1582	0	125	1271	29	1969	672	0	32671	32635	32022	32485	31319	32383	31647	32599	
1583	0	116	1229	28	2003	673	0	32639	32802	32308	32539	32263	32855	33622	32438	
1584	0	138	1238	29	1947	674	0	32701	32759	32322	32487	32926	32818	34566	32299	
1585	0	114	1227	28	1963	675	0	32799	32701	32806	32663	32740	32786	34007	32570	
1586	0	103	1222	30	2005	676	0	32979	32700	33191	32575	34269	33093	33948	32597	
1587	0	142	1224	29	1977	677	0	33002	32723	33305	32703	34201	33267	33671	32679	
1588	0	135	1265	29	1959	678	0	32870	32830	32974	32807	32802	33140	32871	33015	
1589	0	121	1249	30	1989	679	0	32837	32730	32811	32727	32527	32967	32317	33023	
1590	0	127	1236	28	1970	680	0	32758	32709	33001	32966	32387	32763	32391	32748	
1591	0	93	1259	29	1970	681	0	32669	32743	33477	32983	32815	32706	32831	32978	
1592	0	100	1203	28	1985	682	0	32989	32799	33747	33011	32989	32708	32943	32927	
1593	0	104	1230	29	1940	683	0	33141	32999	34021	33013	32434	32690	33043	32676	
1594	0	71	1266	28	1938	684	0	33089	33133	33873	33091	32623	32583	33250	32571	
1595	0	114	1223	29	1978	685	0	33087	33190	33667	33299	32463	32563	33211	32567	
1596	0	112	1238	29	1959	686	0	33115	33159	33437	33218	32453	32465	33315	32559	
1597	0	132	1221	29	1950	687	0	32965	32983	32839	33258	32385	32588	33191	32423	
1598	0	118	1257	30	1995	688	0	32875	32902	32647	33407	32786	32487	33279	32565	
1599	0	125	1242	30	1970	689	0	32838	32727	32499	33234	32877	32541	33023	32550	
1600	0	143	1198	29	1958	690	0	32823	32847	32467	33137	32666	32633	32967	32660	
1601	0	119	1226	29	1987	691	0	32828	32874	32983	32943	32657	32989	32799	32515	
1602	0	80	1247	29	2010	692	0	32812	32935	33035	32703	32902	33205	32735	32675	
1603	0	158	1200	28	1965	693	0	32716	32903	32795	32413	32687	33258	32647	32645	
1604	0	167	1259	28	1974	694	0	32583	32623	32865	32527	32743	33409	32598	32707	
1605	0	120	1237	28	1968	695	0	32501	32799	32715	32443	32459	33471	32543	32782	
1606	0	97	1283	29	1980	696	0	32628	32735	32614	32563	32465	33458	32511	32678	
1607	0	146	1250	29	1986	697	0	32623	32727	32565	32465	32622	33569	32613	32751	
1608	0	114	1234	28	1934	698	0	32569	32646	32580	32307	32631	33623	32525	32769	
1609	0	103	1231	28	1960	699	0	32639	32659	32495	31979	32463	33287	32471	32807	
1610	0	138	1260	29	1965	700	0	32647	32759	32568	31751	31953	33304	32643	32807	
1611	0	136	1213	28	1969	701	0	32607	32895	32535	31979	33612	33158	32675	32839	
1612	0	105	1210	28	1975	702	0	32625	32847	32643	32419	34171	32821	32519	32493	
1613	0	165	1238	29	1977	703	0	32730	32659	32419	32407	33149	32843	32591	32534	
1614	0	155	1248	29	1998	704	0	32884	32783	32306	32515	33391	32823	32722	32836	
1615	0	116	1251	28	1989	705	0	32806	32726	32457	32407	33139	32660	32738	32887	
1616	0	73	1227	29	1984	706	0	32743	32806	32477	32479	32507	32570	32757	32711	
1617	0	147	1225	29	2012	707	0	32814	32717	32409	32407	32468	32466	32727	32563	
1618	0	91	1231	29	1922	708	0	32828	32551	32724	31971	32540	32466	32609	32863	
1619	0	139	1235	29	1967	709	0	32935	32475	32811	32601	32327	32631	32756	32803	
1620	0	145	1226	29	1949	710	0	32854	32710	32742	33503	32519	32708	32759	32599	
1621	0	129	1212	29	2008	711	0	32708	32887	32868	33671	32439	32671	32825	32732	
1622	0	103	1274	29	1961	712	0	32749	32629	32807	33605	32799	32701	32721	32747	
1623	0	126	1222	29	1977	713	0	32732	32519	33005	34329	33046	32636	32775	32841	
1624	0	135	1240	30	1975	714	0	32724	32559	32735	34631	33031	32526	32662	32541	
1625	0	133	1245	29	1938	715	0	32698	32551	32586	34566	33199	32543	32710	32735	
1626	0	99	1234	29	1952	716	0	32676	32430	32855	34037	32999	32538	32629	32647	
1627	0	136	1266	29	1980	717	0	32679	32533	32434	33295	32819	32335	32743	32634	
1628	0	124	1244	27	1973	718	0	32774	32639	32540	32071	32482	32551	32812	32503	
1629	0	100	1208	27	1935	719	0	32754	32743	32423	31709	32463	32739	32737	32603	
1630	0	149	1257	29	1974	720	0	32756	32685	32687	31980	32511	32838	32755	32551	
1631	0	136	1246	29	1969	721	0	32813	32685	32358	31895	32511	32518	32667	32534	
1632	0	137	1274	29	1993	722	0	32795	32832	31814	32023	32797	32289	32775	32615	
1633	0	116	1262	30	1966	723	0	32685	32787	31765	32135	32831	32027	32717	32775	
1634	0	81	1234	30	2001	724	0	32627	32691	31581	32071	32791	32055	32754	32692	
1635	0	126	1284	28	1987	725	0	32662	32926	31723	32141	32639	31681	32719	32714	
1636	0	145	1240	28	1961	726	0	32744	33011	32063	32064	32836	31515	32700	32479	
1637	0	179	1211	27	1971	727	0	32766	33087	32324	32067	32903	31538	32679	32633	
1638	0	94	1216	29	1987	728	0	32844	33140	32963	32031	32882	31806	32775	32663	
1639	0	135	1216	28	1957	729	0	32807	33013	33346	32105	32495	32191	32791	32787	
1640	0	145	1213	29	1979	730	0	32846	32860	33380	32098	32415	32279	32839	32621	
1641	0	105	1212	28	1975	731	0	32951	32747	33104	32259	32679	32479	32722	32681	
1642	0	111	1217	29	1963	732	0	32854	32695	33111	32471	32413	32559	32733	32685	
1643	0	136	1211	29	1962	733	0	32596	32621	32685	32628	32707	32525	32647	32627	
1644	0	56	1222	28	1966	734	0	32543	32731	32189	32842	32615	32487	32699	32646	
1645	0	139	1225	29	2009	735	0	32603	32722	32455	33207	32962	32463	32767	32647	
1646	0	150	1241	29	1966	736	0	32786	32687	32596	32950	32775	32685	32871	32445	
1647	0	149	1245	27	1989	737	0	32802	32611	32767	32831	33001	32823	32967	32707	
1648	0	110	1227	29	1965	738	0	32805	32615	32639	32813	32973	32773	32893	32721	
1649	0	132	1290	30	1969	739	0	32883	32399	32691	32773	32971	32613	32723	32727	
1650	0	104	1269	29	1968	740	0	32807	32421	32583	32893	33053	32671	32695	32670	
1651	0	119	1255	28	1969	741	0	32679	32479	32107	32646	32847	32214	32620	32594	
1652	0	172	1215	29	1978	742	0	32621	32631	31960	32499	32594	32130	32715	32643	
1653	0	79	1237	31	1956	743	0	32581	32727	31935	32335	32407	32211	32759	32493	
1654	0	152	1220	29	1963	744	0	32604	32727	32613	32463	32835	32571	32783	32637	
1655	0	133	1182	29	1967	745	0	32753	32734	33158	32676	32751	32299	32679	32737	
1656	0	114	1231	29	1979	746	0	32892	32749	33454	32879	32756	31979	32675	32719	
1657	0	114	1241	28	1957	747	0	33008	32613	33350	32839	32495	31866	32615	32711	
1658	0	145	1220	30	2034	748	0	32969	32565	33275	32793	32647	31762	32791	32621	
1659	0	126	1255	28	1965	749	0	32711	32823	33083	33043	32583	31804	32751	32477	
1660	0	148	1179	28	1964	750	0	32655	32873	32623	33234	33514	32110	32807	32665	
1661	0	137	1238	29	1977	751	0	32722	32871	32546	33485	33149	32719	32978	32584	
1662	0	68	1233	28	1981	752	0	32732	32970	32460	33485	33303	33005	32903	32615	
1663	0	93	1257	28	1959	753	0	32758	32911	32438	33063	32795	33183	32715	32715	
1664	0	120	1200	28	1976	754	0	32746	32663	32505	32342	32487	33327	32911	32519	
1665	0	145	1206	28	1964	755	0	32741	32935	32823	32175	32647	33447	32815	32935	
1666	0	168	1223	29	1980	756	0	32658	32939	33153	31943	32761	33467	32791	32917	
1667	0	136	1228	29	1984	757	0	32630	32911	33266	31575	32899	33324	32647	32677	
1668	0	101	1201	29	1934	758	0	32612	33012	33030	31751	32726	32967	32607	32605	
1669	0	130	1236	29	1989	759	0	32718	32799	33186	32245	32463	32959	32551	32692	
1670	0	114	1221	29	1968	760	0	32863	32495	33131	32993	32439	32857	32636	32794	
1671	0	136	1241	29	1925	761	0	32871	32607	32962	33875	32681	32823	32745	32927	
1672	0	124	1254	29	1995	762	0	32802	32617	32815	34661	32295	32698	32951	32596	
1673	0	141	1249	28	2007	763	0	32770	32601	32591	34999	32541	32381	33055	32412	
1674	0	141	1192	29	1985	764	0	32802	32613	32590	34823	32666	32231	32673	32605	
1675	0	140	1233	28	1956	765	0	32804	32739	32411	33814	32607	32001	32646	32554	
1676	0	143	1238	28	1954	766	0	32713	32663	32369	33030	32543	32109	32605	32317	
1677	0	144	1240	27	1978	767	0	32655	32643	32295	33191	32594	32356	32789	32743	
1678	0	147	1241	29	1984	768	0	32661	32893	32551	32911	32873	32319	32875	32931	
1679	0	141	1226	26	1980	769	0	32729	32859	32641	32972	33183	32480	32431	32954	
1680	0	136	1229	30	1970	770	0	32622	32803	32595	32775	32837	32418	31913	33146	
1681	0	106	1232	29	1998	771	0	32596	32839	32286	32647	33266	32611	32532	32943	
1682	0	132	1238	29	1946	772	0	32422	32903	32095	32621	33155	32498	33111	32743	
1683	0	110	1225	30	1961	773	0	32545	32767	32079	32647	33091	32479	33181	32853	
1684	0	164	1229	28	1944	774	0	32647	32677	32167	32564	32918	32381	33247	32436	
1685	0	146	1244	29	1950	775	0	32745	32579	32161	32430	32738	32612	33309	32450	
1686	0	123	1262	29	1981	776	0	32707	32775	31677	32619	32827	32523	32643	32333	
1687	0	70	1231	29	1957	777	0	32521	32803	31539	32636	32700	32435	32479	32605	
1688	0	109	1247	29	1934	778	0	32523	32815	31788	32677	32635	32372	31826	33135	
1689	0	119	1226	28	1972	779	0	32866	32786	32367	32469	31903	32485	32582	32798	
1690	0	149	1213	28	1977	780	0	33049	32814	32553	32415	32367	32582	33074	32663	
1691	0	82	1233	29	1959	781	0	33010	32775	33006	32403	32409	32423	33143	32319	
1692	0	150	1215	29	1963	782	0	33153	32709	33575	32555	32445	32203	32793	32298	
1693	0	131	1267	30	1968	783	0	33145	32785	33399	32324	33159	32359	32653	32453	
1694	0	197	1175	30	1933	784	0	32846	32739	32671	32334	33159	32450	32699	32411	
1695	0	96	1218	29	1959	785	0	32801	32737	32645	32077	32759	32537	32775	32525	
1696	0	84	1220	29	1992	786	0	32850	32734	33011	32327	32861	32839	32887	32669	
1697	0	128	1220	29	1992	787	0	32858	32694	32803	32407	32347	32877	32757	32827	
1698	0	135	1266	29	1973	788	0	32734	32733	32717	32610	32707	32898	32731	32807	
1699	0	113	1221	29	1942	789	0	32762	32647	32677	32671	32915	32885	32655	32647	
1700	0	109	1240	28	1936	790	0	32719	32675	32893	32805	32887	32994	32685	32597	
1701	0	126	1277	29	1985	791	0	32775	32775	32941	32633	32900	33131	32721	32605	
1702	0	79	1236	30	1977	792	0	32810	32802	32721	32679	32859	33345	32679	32658	
1703	0	119	1248	29	1957	793	0	32707	32815	32775	32831	32899	33245	32727	32557	
1704	0	162	1251	29	1927	794	0	32702	32991	32783	32935	32692	33338	32732	32581	
1705	0	115	1272	28	1948	795	0	32692	32935	32711	32452	32620	33428	32818	32711	
1706	0	130	1281	28	1962	796	0	32806	32671	32910	32327	32514	33586	32839	32734	
1707	0	155	1240	28	1972	797	0	32854	32581	33095	32433	32419	33511	32891	32683	
1708	0	117	1245	30	1979	798	0	32908	32738	32943	32367	32727	33479	32903	32465	
1709	0	143	1256	29	1991	799	0	32800	32775	33036	32711	32967	33516	32735	32679	
1710	0	86	1244	29	1956	800	0	32833	32811	32855	32493	32971	33549	32711	32859	
1711	0	139	1213	29	1958	801	0	32846	32858	32996	32551	32759	33380	32735	32857	
1712	0	197	1217	29	1942	802	0	32786	32883	32807	32590	32742	33471	32827	32757	
1713	0	134	1259	30	1937	803	0	32737	32821	32869	32873	33237	33221	32751	32511	
1714	0	88	1252	28	1997	804	0	32646	32647	32532	33079	32725	33261	32731	32710	
1715	0	137	1228	29	2013	805	0	32681	32615	32371	32867	32862	33124	32629	32546	
1716	0	128	1268	29	1970	806	0	32775	32715	32594	32925	32716	32987	32819	32575	
1717	0	93	1296	29	1939	807	0	32852	32814	32823	32638	32437	32807	32871	32623	
1718	0	78	1208	28	1932	808	0	32775	32834	32827	32379	32705	32959	32759	32615	
1719	0	115	1231	29	1950	809	0	32804	32951	32607	33044	32917	32983	32645	32725	
1720	0	136	1232	29	1998	810	0	32838	32767	32942	33534	32519	32911	32720	32641	
1721	0	126	1225	28	1973	811	0	32761	32553	32986	33687	31949	32986	32754	32658	
1722	0	82	1255	29	1970	812	0	32772	32805	32666	33231	32094	32967	32813	32581	
1723	0	120	1274	28	1980	813	0	32799	32740	32487	32766	33121	33058	32679	32501	
1724	0	119	1240	29	1950	814	0	32791	32690	32289	32237	33142	33026	32617	32655	
1725	0	103	1233	29	1962	815	0	32955	32669	31853	31649	32873	33227	33027	32653	
1726	0	147	1228	29	1960	816	0	32908	32862	31444	31967	33279	33204	33031	32807	
1727	0	118	1248	29	2013	817	0	32854	32884	31139	32473	32868	33277	32911	32767	
1728	0	143	1238	29	1979	818	0	32734	32709	31423	32703	32791	33178	32325	32951	
1729	0	89	1245	28	1941	819	0	32709	32583	32025	33617	33223	32839	32221	32918	
1730	0	165	1214	29	1928	820	0	32647	32583	32489	33812	32879	32631	32767	32660	
1731	0	157	1194	29	1968	821	0	32716	32637	32359	33991	33015	32485	33281	32331	
1732	0	88	1212	29	1954	822	0	32636	32663	32607	33655	32971	32557	32943	32463	
1733	0	142	1251	29	2025	823	0	32633	32723	32370	33229	32935	32787	32831	32501	
1734	0	148	1241	29	1971	824	0	32695	32815	32514	32789	32687	33198	32511	32737	
1735	0	111	1236	28	1943	825	0	32766	32807	32823	32531	32159	32499	32451	32695	
1736	0	130	1246	28	1988	826	0	32809	32692	32894	32271	32495	32287	32947	32455	
1737	0	131	1231	28	1974	827	0	32686	32717	32795	32210	32631	32077	33143	32413	
1738	0	114	1265	29	1960	828	0	32743	32859	32628	32353	32554	32135	33031	32301	
1739	0	128	1222	29	1980	829	0	32702	32801	32923	32231	32612	32347	32843	32479	
1740	0	108	1242	29	1964	830	0	32741	32835	32953	32295	32965	32367	33133	32340	
1741	0	134	1237	28	1948	831	0	32775	32902	32893	32583	32917	32459	32915	32237	
1742	0	146	1233	29	1967	832	0	32738	32763	32935	32662	33018	32619	32901	32634	
1743	0	143	1227	29	1991	833	0	32842	32815	33158	32425	32809	32903	32720	32883	
1744	0	75	1246	29	1940	834	0	32860	32700	33063	32340	32917	32941	32703	32847	
1745	0	137	1245	29	1998	835	0	32903	32562	33102	32420	32902	33263	32663	33147	
1746	0	143	1225	29	1988	836	0	32828	32747	33143	32759	32914	33569	32629	33277	
1747	0	105	1271	28	1930	837	0	32812	32873	32983	33137	32826	33639	32563	33063	
1748	0	105	1220	28	1957	838	0	32852	32829	32745	33149	32851	33927	32739	32657	
1749	0	104	1238	30	2004	839	0	32831	32875	32461	33077	32739	34007	32735	32793	
1750	0	126	1222	29	1946	840	0	32780	32886	32763	32742	32903	34151	32843	32967	
1751	0	116	1270	29	1957	841	0	32894	32935	32981	32516	32855	33858	32727	32903	
1752	0	153	1220	29	1962	842	0	32876	32887	32775	32435	32636	33635	32687	32573	
1753	0	166	1242	30	2018	843	0	32876	32713	32789	32413	32675	33706	32599	32601	
1754	0	123	1178	29	1966	844	0	32775	32586	32973	32679	32519	33415	32644	32661	
1755	0	85	1198	28	1960	845	0	32742	32855	32988	32742	32677	33045	32643	32595	
1756	0	74	1247	29	1979	846	0	32620	32799	32179	32975	32673	33041	32692	32528	
1757	0	142	1263	30	2000	847	0	32627	32755	32110	33159	32725	32919	32545	32343	
1758	0	131	1250	29	1967	848	0	32662	32794	32287	33107	32415	32541	32647	32511	
1759	0	106	1228	29	1970	849	0	32568	33015	32549	32932	32694	32391	32643	32567	
1760	0	162	1220	29	1957	850	0	32608	32946	32549	32332	32612	32359	32823	32615	
1761	0	95	1262	28	1958	851	0	32722	32679	32861	32013	32703	32367	32874	32455	
1762	0	106	1252	29	1960	852	0	32700	32740	32605	32143	32719	32055	32725	32607	
1763	0	130	1272	29	1962	853	0	32734	32658	32719	32532	32623	31732	32726	32611	
1764	0	110	1236	29	1933	854	0	32729	32609	32631	32743	32674	31773	32775	32751	
1765	0	176	1222	29	1928	855	0	32855	32771	32973	32854	32807	32007	32855	32727	
1766	0	123	1254	29	1940	856	0	32747	32770	32931	32749	33205	31892	32807	32598	
1767	0	136	1256	29	1956	857	0	32698	32793	33037	32748	32751	31709	32743	32691	
1768	0	113	1265	30	1951	858	0	32700	32749	33463	32814	32900	31922	32821	32734	
1769	0	135	1242	28	1980	859	0	32806	32693	33543	32879	32871	31779	32804	32663	
1770	0	110	1252	29	1935	860	0	32797	32554	33463	33095	32719	31971	32711	32559	
1771	0	152	1252	30	1953	861	0	32772	32674	33207	32439	32459	31959	32743	32582	
1772	0	126	1230	30	1961	862	0	32762	32661	32590	32435	33051	31783	32829	32708	
1773	0	165	1266	28	1989	863	0	32624	32726	32166	32564	33061	31450	32819	32629	
1774	0	121	1264	28	1978	864	0	32606	32819	31865	32583	32847	31351	32725	32503	
1775	0	113	1210	29	1957	865	0	32699	32903	31623	32587	32749	31738	32799	32738	
1776	0	128	1250	28	1904	866	0	32743	32805	31821	32543	32767	31751	32727	32663	
1777	0	152	1230	29	1956	867	0	32751	32605	31588	32823	32687	31671	32827	32615	
1778	0	156	1236	28	2003	868	0	32764	32559	31623	32895	32663	31623	32711	32525	
1779	0	116	1252	29	1905	869	0	32714	32791	31993	33004	32684	31817	32743	32631	
1780	0	126	1250	28	1928	870	0	32720	32735	32354	33047	32617	31807	32769	32639	
1781	0	129	1307	29	1990	871	0	32730	32863	32558	32911	32731	31999	32877	32659	
1782	0	146	1261	27	1970	872	0	32743	32695	32362	32879	32675	32115	32731	32722	
1783	0	97	1210	28	1961	873	0	32696	32635	32677	33031	32715	32203	32701	32566	
1784	0	95	1246	28	1946	874	0	32740	32775	32706	33074	32764	32163	32822	32731	
1785	0	92	1309	29	1938	875	0	32786	32791	32995	32975	32735	32289	32919	32647	
1786	0	143	1220	27	1947	876	0	32782	32815	33391	32967	32559	32468	32960	32700	
1787	0	134	1200	29	1995	877	0	32738	32795	33527	33005	32631	32223	32819	32588	
1788	0	108	1277	29	1967	878	0	32710	32819	33653	33051	32967	32450	33095	32635	
1789	0	110	1192	29	1955	879	0	32793	32738	33919	32895	32869	32418	32915	32708	
1790	0	150	1256	29	1984	880	0	32819	32590	33463	32801	32727	32439	32611	32901	
1791	0	152	1205	28	1982	881	0	32790	32751	33141	32719	32573	32381	32311	32893	
1792	0	152	1255	28	1978	882	0	32727	32807	32803	32652	32679	32274	32167	32599	
1793	0	138	1196	29	1973	883	0	32677	32845	32331	32833	32299	32391	32303	32711	
1794	0	128	1253	28	1982	884	0	32593	32911	32043	32710	32263	32261	32503	32711	
1795	0	117	1200	28	1970	885	0	32621	32973	31721	32875	32315	32276	32501	32709	
1796	0	94	1291	28	1982	886	0	32647	32961	31620	32813	32669	32123	32590	32545	
1797	0	108	1237	28	2007	887	0	32679	32695	31693	32707	32788	32375	32655	32690	
1798	0	128	1248	30	1986	888	0	32789	32615	31671	32767	33298	32431	32741	32807	
1799	0	130	1233	30	1957	889	0	32734	32831	31879	32684	33395	32391	32715	32740	
1800	0	163	1251	30	1984	890	0	32729	32834	31919	32709	33527	32159	32861	32855	
1801	0	105	1278	29	1988	891	0	32615	32809	32353	32635	33239	32287	32876	32646	
1802	0	155	1241	29	1976	892	0	32732	32783	32507	32702	32684	32607	32663	32830	
1803	0	68	1210	29	1956	893	0	32785	32870	32770	32677	32307	32623	32815	32763	
1804	0	129	1220	29	1959	894	0	32847	32749	32991	32655	32147	32898	32925	32551	
1805	0	102	1261	29	1966	895	0	32663	32815	32863	32871	33717	33055	32935	32609	
1806	0	117	1274	28	1977	896	0	32848	32663	33095	32693	32805	33303	33068	32775	
1807	0	156	1213	28	1965	897	0	32919	32747	33233	32621	32822	33245	32676	32900	
1808	0	139	1229	30	1958	898	0	32851	32771	33092	32507	32813	33351	32470	32823	
1809	0	122	1239	29	1996	899	0	32858	32695	32813	32595	33275	33223	32860	32564	
1810	0	140	1252	29	1923	900	0	32775	32844	32899	32641	32303	33031	33147	32479	
1811	0	95	1242	29	1972	901	0	32754	32895	32801	32583	32550	32803	32751	32667	
1812	0	136	1209	27	1999	902	0	32782	32721	32819	32759	32783	32823	32546	32570	
1813	0	116	1247	29	1960	903	0	32774	32615	32617	32710	32757	32902	32627	32595	
1814	0	124	1219	28	1976	904	0	32736	32723	32757	32726	32829	32692	32723	32718	
1815	0	107	1199	29	1918	905	0	32761	32807	32815	32511	32903	32535	32735	32625	
1816	0	148	1255	30	1932	906	0	32802	32868	32903	32554	33003	32518	32788	32637	
1817	0	152	1247	29	1990	907	0	32757	32691	32951	32519	32883	32431	32695	32423	
1818	0	151	1262	28	1983	908	0	32749	32633	32867	32895	32723	32551	32803	32555	
1819	0	135	1248	29	1969	909	0	32732	32911	33003	32791	32759	32581	32740	32761	
1820	0	152	1253	29	1986	910	0	32671	32948	32885	32619	32647	32557	32750	32771	
1821	0	133	1249	28	1947	911	0	32740	32839	32791	32071	32731	32791	32844	32719	
1822	0	101	1232	30	1925	912	0	32780	32687	32578	32205	32725	32807	32696	32811	
1823	0	100	1241	31	1935	913	0	32857	32633	32615	32207	32748	32771	32770	32570	
1824	0	146	1272	28	1985	914	0	32807	32644	32443	32274	32743	32727	32727	32709	
1825	0	135	1240	28	1976	915	0	32775	32807	32423	32457	32739	32710	32796	32790	
1826	0	92	1222	30	1954	916	0	32756	32717	32551	32487	32828	32802	32743	32887	
1827	0	100	1217	29	1974	917	0	32704	32727	32834	33064	32756	32898	32793	32751	
1828	0	121	1250	28	1952	918	0	32749	32861	33007	33863	32794	33015	32677	32583	
1829	0	120	1212	29	1970	919	0	32758	32631	33039	34463	32695	32956	32749	32997	
1830	0	105	1260	29	1971	920	0	32772	32516	32635	34551	32663	33063	32717	32807	
1831	0	136	1238	29	1965	921	0	32932	32698	32630	34326	32358	32819	32820	32802	
1832	0	109	1270	29	1937	922	0	32808	32743	32559	34139	32717	32842	32822	32663	
1833	0	183	1256	28	1985	923	0	32815	32758	32647	33799	32788	32697	32709	32751	
1834	0	124	1200	30	1934	924	0	32767	32673	32443	33091	32891	32775	32711	32756	
1835	0	126	1216	28	1964	925	0	32757	32799	32047	32999	33201	32743	32647	32657	
1836	0	138	1238	30	1952	926	0	32703	32770	31919	32767	32879	32596	32703	32711	
1837	0	94	1251	29	1981	927	0	32738	32877	31679	32663	32993	32727	32805	32558	
1838	0	100	1217	30	1969	928	0	32704	32748	31994	32319	32875	32859	32715	32481	
1839	0	175	1252	28	1975	929	0	32732	32655	32258	32231	32807	32663	32727	32605	
1840	0	98	1214	28	1964	930	0	32698	32827	32289	32125	32903	32655	32713	32722	
1841	0	112	1266	28	2024	931	0	32773	32815	32591	32303	32743	32738	32775	32527	
1842	0	117	1240	29	1985	932	0	32793	32951	32885	32146	32831	32670	32726	32607	
1843	0	164	1217	29	1990	933	0	32807	32855	32846	32383	32748	32866	32759	32639	
1844	0	96	1252	28	1999	934	0	32785	32647	32873	32287	32679	32692	32751	32639	
1845	0	111	1258	28	1953	935	0	32767	32839	32823	32371	32790	32726	32689	32742	
1846	0	135	1259	28	1975	936	0	32702	32785	32783	32224	32589	32613	32793	32692	
1847	0	132	1227	28	1944	937	0	32863	32807	32607	32258	32738	32718	32747	32741	
1848	0	93	1233	28	1958	938	0	32764	32786	32527	32372	32829	32698	32805	32765	
1849	0	137	1218	29	1983	939	0	32683	32647	32646	32483	32773	32765	32737	32575	
1850	0	115	1233	28	1956	940	0	32751	32847	32599	32500	32782	32811	32843	32507	
1851	0	132	1248	28	1966	941	0	32809	32799	32580	32623	32639	32807	32834	32628	
1852	0	116	1273	29	1948	942	0	32751	32887	32533	32695	32759	32701	32738	32721	
1853	0	145	1235	29	1977	943	0	32748	32709	32555	32845	32773	32787	32859	32647	
1854	0	150	1236	28	1950	944	0	32740	32583	32823	32870	32822	33063	32677	32647	
1855	0	148	1232	29	1964	945	0	32713	32771	32849	32859	32895	32839	32759	32500	
1856	0	130	1219	29	2003	946	0	32791	32775	32935	32829	32871	32877	32758	32548	
1857	0	89	1224	29	1988	947	0	32774	32916	33116	32871	32851	32757	32691	32709	
1858	0	143	1227	28	1996	948	0	32740	32621	33095	32685	32843	32663	32787	32666	
1859	0	108	1251	29	1982	949	0	32665	32790	33031	32679	32715	32847	32742	32679	
1860	0	131	1211	30	1983	950	0	32740	32839	32863	32679	32815	32819	32747	32663	
1861	0	158	1262	27	1984	951	0	32812	32815	33151	32721	32675	32935	32763	32775	
1862	0	155	1245	29	1998	952	0	32823	32647	32745	32677	32575	32851	32775	32641	
1863	0	152	1264	29	1977	953	0	32810	32631	32235	32783	32574	32893	32803	32679	
1864	0	135	1198	29	1931	954	0	32679	32709	32319	32903	32671	32743	32647	32631	
1865	0	136	1238	29	1946	955	0	32831	32805	32642	32817	32199	32948	32682	32677	
1866	0	102	1282	29	1993	956	0	32918	32817	32566	32713	31630	33071	32851	32719	
1867	0	148	1228	29	1962	957	0	32828	32881	32615	32633	32903	33075	32857	32739	
1868	0	132	1252	30	1978	958	0	32852	32619	32571	32402	34141	33372	32903	32688	
1869	0	131	1218	29	1969	959	0	32849	32747	32639	32211	33539	33387	32807	32695	
1870	0	130	1182	29	1954	960	0	33032	32722	32661	32231	33079	33183	32815	32763	
1871	0	105	1270	28	1955	961	0	32965	32727	32341	32451	33012	33125	32897	32747	
1872	0	136	1235	29	1992	962	0	32785	32790	31879	33007	32764	32971	32775	32749	
1873	0	149	1287	30	2003	963	0	32674	32738	31917	33495	33001	32950	32743	32622	
1874	0	116	1248	29	1956	964	0	32684	32855	32359	33522	32771	32761	32837	32541	
1875	0	161	1279	29	1983	965	0	32710	32773	32615	33303	32733	32893	32807	32607	
1876	0	127	1247	29	1961	966	0	32706	32851	32742	33029	32791	32731	32837	32711	
1877	0	130	1245	29	1985	967	0	32647	32687	32714	32998	32981	32566	32699	32677	
1878	0	154	1243	28	1992	968	0	32668	32871	32709	32946	32817	32659	32701	32647	
1879	0	128	1242	29	1978	969	0	32841	32822	33310	33059	32599	32641	32749	32638	
1880	0	101	1268	29	1991	970	0	32848	32775	33463	33006	32281	32711	32767	32656	
1881	0	119	1258	29	1949	971	0	32721	32919	33007	33211	32454	32748	32641	32348	
1882	0	125	1210	28	1988	972	0	32731	32919	33235	33263	32967	32727	32715	32592	
1883	0	113	1286	29	1947	973	0	32943	32599	33415	33153	32783	33132	32743	32791	
1884	0	125	1219	28	1955	974	0	32915	32505	32807	33007	32693	33140	32679	32909	
1885	0	134	1224	29	1988	975	0	32765	32679	32820	32749	32705	32993	32695	32694	
1886	0	162	1264	28	1976	976	0	32697	32727	32589	32647	33541	33364	32798	32767	
1887	0	131	1249	29	1949	977	0	32553	32739	31975	32599	33268	33105	32703	33005	
1888	0	114	1225	27	1976	978	0	32610	32911	31956	32599	33027	33108	32703	33087	
1889	0	135	1246	28	1971	979	0	32655	32655	32119	32599	32799	33217	32694	32935	
1890	0	163	1253	30	1956	980	0	32658	32639	32011	32645	32791	33159	32769	32571	
1891	0	96	1227	29	1971	981	0	32679	32829	32092	32499	32732	32827	32703	32690	
1892	0	127	1228	26	1989	982	0	32647	32852	31936	32599	32722	32861	32609	32631	
1893	0	112	1212	29	1972	983	0	32662	32910	31999	32438	32698	32721	32775	32639	
1894	0	139	1227	29	1931	984	0	32742	32796	32454	32615	32727	32703	32978	32447	
1895	0	134	1259	29	1956	985	0	32738	32629	32727	32690	32679	32555	32963	32519	
1896	0	124	1186	29	1970	986	0	32676	32805	32655	32791	32839	32591	32887	32633	
1897	0	133	1253	28	1924	987	0	32679	32859	32706	32775	32822	32615	32775	32671	
1898	0	95	1234	30	2014	988	0	32713	32916	32642	32829	32791	32573	32511	32766	
1899	0	128	1258	28	1963	989	0	32817	32756	32519	32751	32658	32641	32590	32717	
1900	0	130	1233	29	1974	990	0	32836	32805	32431	32859	32607	32767	32513	32620	
1901	0	104	1205	29	1997	991	0	32820	32860	32660	32749	32767	32935	32461	32543	
1902	0	95	1280	29	1965	992	0	32852	32917	32813	32749	32631	33015	32619	32575	
1903	0	105	1249	29	1987	993	0	32886	32878	32543	32687	32572	32983	32660	32638	
1904	0	126	1253	29	1954	994	0	32822	32671	32665	32757	32796	32879	32813	32738	
1905	0	146	1258	28	1979	995	0	32802	32749	32847	32583	32790	32885	32759	32718	
1906	0	115	1257	28	1969	996	0	32842	32754	32966	32621	32767	32986	32775	32543	
1907	0	132	1208	29	1924	997	0	32771	32795	33158	32687	32726	32983	32703	32719	
1908	0	149	1253	28	2020	998	0	32786	32883	33159	32663	32745	32763	32745	32739	
1909	0	137	1292	29	1973	999	0	32737	32783	32855	32631	32624	32683	32647	32727	
1910	0	127	1275	28	1967	1000	0	32738	32677	33019	32539	32759	32726	32685	32775	
1911	0	142	1208	28	1976	1001	0	32677	32639	32994	32662	32717	32439	32632	32955	
1912	0	109	1259	28	1976	1002	0	32767	32745	32828	32541	32525	32607	32703	33021	
1913	0	106	1217	30	1985	1003	0	32805	32742	33017	32611	33103	32775	32817	32967	
1914	0	133	1202	29	1956	1004	0	32717	32773	32884	32543	33134	32783	32789	32711	
1915	0	151	1198	30	1952	1005	0	32734	32863	32919	32243	32775	32647	32807	32879	
1916	0	144	1243	29	2001	1006	0	32769	32835	32684	31975	32799	32749	32818	32775	
1917	0	138	1223	30	1984	1007	0	32734	32713	32373	32068	32473	32931	32830	32535	
1918	0	134	1243	29	1965	1008	0	32701	32641	32181	32475	32501	32586	32877	32486	
1919	0	182	1249	29	1955	1009	0	32745	32690	32282	32679	32487	32589	32847	32535	
1920	0	125	1248	29	1964	1010	0	32716	32804	32535	32807	33305	32599	32804	32621	
1921	0	107	1259	29	1944	1011	0	32748	32815	32701	33149	33437	32887	32891	32767	
1922	0	143	1176	28	1949	1012	0	32733	32826	32603	33511	33242	32647	32871	32740	
1923	0	144	1238	27	2000	1013	0	32768	32695	32858	33531	33087	32738	32759	32762	
1924	0	126	1266	30	1985	1014	0	32823	32763	32710	33447	32823	32627	32827	32765	
1925	0	102	1224	29	1940	1015	0	32838	32594	32996	33565	32679	32615	32807	32545	
1926	0	109	1244	29	1994	1016	0	32791	32606	32826	33670	32583	32723	32804	32594	
1927	0	123	1194	28	2008	1017	0	32815	32615	32999	33535	32685	32804	32714	32647	
1928	0	147	1258	28	1962	1018	0	32772	32839	32837	33407	32713	32887	32844	32630	
1929	0	109	1256	28	1987	1019	0	32811	32747	32719	33138	32939	32710	32821	32551	
1930	0	143	1253	29	1950	1020	0	32769	32825	32639	33085	32770	32731	32743	32647	
1931	0	136	1252	29	1959	1021	0	32783	32583	32431	32895	32819	32643	32767	32727	
1932	0	73	1263	29	1975	1022	0	32859	32767	32517	32695	32821	32681	32763	32559	
1933	0	100	1206	29	1997	1023	0	32768	32829	32679	32477	32722	32647	32839	32615	
1934	0	141	1244	28	1937	1024	0	32707	32815	32862	32516	32786	32519	32706	32519	
1935	0	140	1221	29	2007	1025	0	32661	32849	32751	32495	32839	32455	32738	32639	
1936	0	134	1245	28	1995	1026	0	32699	32924	32835	32447	32713	32333	32708	32711	
1937	0	137	1226	28	1931	1027	0	32877	32823	32815	32445	32695	32436	32767	32518	
1938	0	120	1263	28	1958	1028	0	32839	32742	32611	32293	32607	32343	32722	32755	
1939	0	166	1255	27	1947	1029	0	32773	32655	32314	32308	32683	32391	32721	32711	
1940	0	148	1225	29	1956	1030	0	32727	32811	32291	32135	32882	32493	32679	32775	
1941	0	100	1267	30	1949	1031	0	32775	32748	32041	32231	32585	32554	32775	32688	
1942	0	133	1264	29	1957	1032	0	32716	32796	31271	32333	32767	32599	32717	32683	
1943	0	117	1228	28	1941	1033	0	32710	32855	31225	32693	32490	32596	32772	32663	
1944	0	112	1280	30	1969	1034	0	32662	32879	31655	32817	32611	32509	32754	32701	
1945	0	138	1263	28	1960	1035	0	32727	32636	32031	32935	32775	32647	32847	32516	
1946	0	128	1272	29	1970	1036	0	32748	32631	32231	32991	32748	32707	32691	32647	
1947	0	158	1220	28	1970	1037	0	32950	32647	32647	32938	32577	32867	32830	32607	
1948	0	149	1248	28	1988	1038	0	32877	32639	33159	32834	32052	32925	32745	32585	
1949	0	157	1177	29	1934	1039	0	32716	32883	33143	32551	32647	32847	32767	32521	
1950	0	132	1248	28	1924	1040	0	32731	32837	33003	32273	32263	32826	32703	32479	
1951	0	90	1236	29	1976	1041	0	32848	32674	32794	31955	32710	32759	32855	32775	
1952	0	148	1229	29	1951	1042	0	32788	32871	32839	31751	33695	33239	33019	32851	
1953	0	147	1209	29	1993	1043	0	32706	32949	32857	32209	33775	33175	32773	32639	
1954	0	140	1224	29	1962	1044	0	32600	33199	32751	32791	32669	32708	32767	32839	
1955	0	114	1213	29	1951	1045	0	32646	33047	32689	32981	33079	32298	32647	32515	
1956	0	150	1212	29	1997	1046	0	32812	32685	32980	33539	33065	32423	32630	32771	
1957	0	100	1258	28	1970	1047	0	33092	32586	33181	33666	32525	32730	32865	32871	
1958	0	128	1238	27	1939	1048	0	32939	32636	33029	33717	32598	32676	32799	32635	
1959	0	189	1282	28	1969	1049	0	32791	32749	32694	33543	32660	32499	32738	32639	
1960	0	92	1261	29	1965	1050	0	32763	32403	32807	33109	32703	32690	32817	32775	
1961	0	123	1244	29	1983	1051	0	32796	32575	32822	33027	33255	32789	32847	32729	
1962	0	151	1242	28	1994	1052	0	32800	32766	32934	32796	33203	32549	32742	32420	
1963	0	121	1231	28	1932	1053	0	32769	32707	32556	32727	32963	32477	32771	32543	
1964	0	97	1215	29	1936	1054	0	32787	32642	32419	32517	32742	32713	32703	32463	
1965	0	132	1261	28	1988	1055	0	32679	32775	32459	32431	32717	32809	32751	32671	
1966	0	132	1233	28	1950	1056	0	32717	32827	32402	32271	32594	32885	32734	32781	
1967	0	127	1240	28	1997	1057	0	32752	32873	32567	32367	32743	32877	32820	32807	
1968	0	101	1202	29	1982	1058	0	32807	32701	32708	32303	32775	32911	32767	32845	
1969	0	98	1267	29	1994	1059	0	32801	32567	32771	32566	32745	32975	32799	33045	
1970	0	117	1255	29	1950	1060	0	32732	32467	33007	32809	32727	32949	32666	33067	
1971	0	143	1209	29	1944	1061	0	32724	32716	32926	33039	32659	32773	32691	32966	
1972	0	66	1264	28	1964	1062	0	32848	32751	32959	32943	32638	32900	32799	32876	
1973	0	112	1236	29	1962	1063	0	32831	32727	32765	33012	32607	32723	32695	32991	
1974	0	149	1250	29	1975	1064	0	32818	32621	32617	32751	32679	32791	32743	32941	
1975	0	138	1223	28	1963	1065	0	32764	32833	32654	32703	32583	32737	32775	32580	
1976	0	168	1247	28	1961	1066	0	32799	32963	32510	32647	32726	32724	32759	32351	
1977	0	91	1234	28	1958	1067	0	32780	32725	32586	32527	32797	32715	32774	32481	
1978	0	131	1238	30	1993	1068	0	32723	32822	32529	32606	32759	32683	32743	32670	
1979	0	147	1225	29	1973	1069	0	32671	32791	32690	32603	32773	32711	32701	32479	
1980	0	91	1208	28	1971	1070	0	32759	32967	32535	32717	32783	32638	32817	32567	
1981	0	148	1250	29	1956	1071	0	32775	32756	32417	32567	32810	32943	32791	32647	
1982	0	125	1220	29	1957	1072	0	32688	32614	32135	32738	32713	32911	32706	32627	
1983	0	130	1241	29	1968	1073	0	32722	32813	32183	32809	32699	32786	32775	32428	
1984	0	142	1244	29	1995	1074	0	32726	32791	32343	32852	32662	33047	32855	32539	
1985	0	161	1223	29	1956	1075	0	32735	32799	32767	32743	32766	32855	32833	32613	
1986	0	136	1240	29	2006	1076	0	32709	32725	32993	32815	32775	32915	32771	32619	
1987	0	144	1251	29	1956	1077	0	32807	32644	33143	32694	32807	32697	32727	32735	
1988	0	159	1234	28	1986	1078	0	32818	32811	33111	32703	32759	32999	32749	32599	
1989	0	121	1246	28	1965	1079	0	32847	32815	33055	32579	32743	32891	32735	32775	
1990	0	106	1249	30	1956	1080	0	32806	32791	33186	32583	32868	32955	32830	32731	
1991	0	148	1221	29	1973	1081	0	32732	32791	33159	32511	32887	32775	32775	32695	
1992	0	131	1275	28	1976	1082	0	32783	33013	33511	32551	32959	32747	32819	32573	
1993	0	103	1231	28	1976	1083	0	32767	32959	33319	32495	32903	32695	32748	32545	
1994	0	117	1226	29	1982	1084	0	32760	33055	33172	32538	32731	32610	32689	32685	
1995	0	125	1225	28	1998	1085	0	32692	32783	32817	32564	32855	32493	32759	32708	
1996	0	109	1215	28	1962	1086	0	32639	32743	32479	32686	32711	32463	32737	32751	
1997	0	91	1250	29	1988	1087	0	32668	32955	32287	32711	32903	32385	32775	32769	
1998	0	73	1256	28	1962	1088	0	32606	32900	31823	32765	32775	32583	32751	32509	
1999	0	156	1251	29	1968	1089	0	32655	32915	31439	32647	32893	32519	32732	32599	
2000	0	124	1185	29	1943	1090	0	32671	32567	31698	32725	32819	32429	32745	32719	
2001	0	141	1230	30	1971	1091	0	32681	32788	31756	32695	32713	32639	32658	32617	
2002	0	120	1261	30	1984	1092	0	32703	32773	31791	32769	32807	32551	32789	32602	
2003	0	120	1258	30	2021	1093	0	32682	32527	31455	32831	32743	32661	32841	32646	
2004	0	145	1252	29	1969	1094	0	32717	32543	31351	32771	32730	32679	32797	32647	
2005	0	130	1251	27	1924	1095	0	32788	32573	31553	32718	32740	32751	32759	32503	
2006	0	132	1299	28	1949	1096	0	32797	32551	31519	32597	32764	32775	32837	32606	
2007	0	100	1263	29	1980	1097	0	32843	32445	31831	32473	32711	32667	32821	32574	
2008	0	137	1233	29	1980	1098	0	32923	32596	32407	32335	32708	32773	32847	32495	
2009	0	128	1295	29	1994	1099	0	32950	32655	32759	32449	32468	32732	32821	32647	
2010	0	122	1264	29	1968	1100	0	32910	32519	33177	32525	31911	32860	32883	32685	
2011	0	136	1216	29	1931	1101	0	32843	32575	33391	32599	32159	32835	32911	32815	
2012	0	133	1208	29	1992	1102	0	32815	32566	33426	32299	33203	32799	32890	32475	
2013	0	138	1248	28	2011	1103	0	32819	32764	33571	32115	32635	32767	32871	32579	
2014	0	102	1226	28	1982	1104	0	32914	32796	33343	32007	33174	32836	32836	32527	
2015	0	121	1205	29	1956	1105	0	32916	32719	33319	31875	33051	33027	32687	32530	
2016	0	128	1205	29	1985	1106	0	32905	32598	33193	32239	33584	32903	32743	32983	
2017	0	144	1246	29	1954	1107	0	32969	32807	33115	32519	33615	32687	32823	33059	
2018	0	112	1230	28	2006	1108	0	32967	32831	33174	32631	33133	32695	32755	32937	
2019	0	137	1234	29	1969	1109	0	32914	32867	33174	32855	32975	32719	32603	32903	
2020	0	123	1201	28	1994	1110	0	32846	32871	33051	33309	32900	32639	32671	32740	
2021	0	102	1277	29	1966	1111	0	32740	32890	32869	33583	32951	32774	32583	32535	
2022	0	114	1246	29	1975	1112	0	32696	32679	32671	34013	32903	32839	32703	32774	
2023	0	133	1199	28	1980	1113	0	32647	32793	32511	34108	32674	32903	32643	32767	
2024	0	120	1233	29	2014	1114	0	32625	32807	32359	34653	32843	32945	32663	32725	
2025	0	140	1193	28	1906	1115	0	32674	32749	32367	34375	32580	33111	32821	32711	
2026	0	132	1256	28	2002	1116	0	32736	32717	32564	34002	32407	33083	32845	32551	
2027	0	125	1180	29	1988	1117	0	32763	32636	32499	33469	32699	33157	32838	32703	
2028	0	160	1259	29	1982	1118	0	32694	32525	32794	33077	32639	33079	32818	32665	
2029	0	115	1262	28	1957	1119	0	32713	32716	32999	32714	32769	32811	32749	32723	
2030	0	132	1263	29	1968	1120	0	32711	32775	32969	32471	32662	32844	32758	32475	
2031	0	133	1225	29	1946	1121	0	32731	32759	32987	32412	32684	32692	32821	32621	
2032	0	119	1243	29	2025	1122	0	32709	32887	33018	32098	32709	32683	32771	32621	
2033	0	103	1220	28	1980	1123	0	32767	32850	32647	32131	32759	32679	32711	32739	
2034	0	105	1199	28	1936	1124	0	32813	32694	32478	32143	32671	32577	32767	32586	
2035	0	183	1221	30	1973	1125	0	32816	32663	32283	32223	32795	32477	32734	32639	
2036	0	83	1236	29	1949	1126	0	32796	32671	32031	32223	32607	32423	32797	32615	
2037	0	152	1229	29	1945	1127	0	32756	32826	32263	32278	32642	32423	32833	32679	
2038	0	143	1241	28	1958	1128	0	32639	32855	32471	32452	32567	32535	32975	32507	
2039	0	164	1225	29	1987	1129	0	32619	32831	32459	32615	32739	32491	32818	32738	
2040	0	124	1216	29	1931	1130	0	32681	32911	32813	32518	32767	32631	32830	32647	
2041	0	108	1246	30	1932	1131	0	32647	32725	32692	32495	32772	32719	32771	32575	
2042	0	137	1267	28	1975	1132	0	32756	32623	32562	32539	32708	32617	32895	32534	
2043	0	170	1250	29	1977	1133	0	32804	32771	32950	32623	32831	32577	32823	32591	
2044	0	88	1223	28	1975	1134	0	32729	32861	32909	32511	32623	32548	32679	32418	
2045	0	154	1271	29	1985	1135	0	32736	32991	32779	32679	32743	32734	32758	32658	
2046	0	131	1288	30	1989	1136	0	32728	32783	32763	32604	32911	32955	32807	32795	
2047	0	95	1236	28	1983	1137	0	32742	32667	32959	32671	33207	32935	32723	32957	
2048	0	134	1208	29	1951	1138	0	32836	32679	32711	32461	32821	32879	32594	32775	
2049	0	74	1222	29	1971	1139	0	32798	32702	32735	32431	32903	32903	32612	32791	
2050	0	116	1214	30	1994	1140	0	32799	32819	32687	32727	33121	32943	32469	32979	
2051	0	122	1244	30	2015	1141	0	32754	32860	32535	32775	32708	32715	32507	33071	
2052	0	104	1260	30	1999	1142	0	32782	32885	32833	32893	32759	32702	32523	32892	
2053	0	106	1224	28	1977	1143	0	32762	32899	32823	32935	33099	32923	32509	33053	
2054	0	123	1188	28	1980	1144	0	32758	32823	32879	32835	33003	32771	32585	32793	
2055	0	129	1231	28	1973	1145	0	32773	32647	33243	33007	32671	32506	32749	32815	
2056	0	130	1249	27	1977	1146	0	32828	32839	32976	32891	32767	32495	32831	32759	
2057	0	124	1248	28	1939	1147	0	32775	32815	32573	32836	32595	32519	32823	32595	
2058	0	145	1210	28	1941	1148	0	32706	32759	32371	32839	32343	32365	32736	32599	
2059	0	141	1214	30	1993	1149	0	32748	32893	32309	32871	32263	32471	32806	32541	
2060	0	132	1270	28	1952	1150	0	32764	32903	31951	32879	33058	32645	32831	32594	
2061	0	136	1222	28	2020	1151	0	32756	32775	32073	32621	32775	32702	32807	32459	
2062	0	123	1274	28	2016	1152	0	32733	32967	31679	32726	32663	32678	32739	32567	
2063	0	164	1236	28	1972	1153	0	32713	32972	31807	32660	32719	32638	32820	32548	
2064	0	138	1255	29	1971	1154	0	32681	33012	32041	32621	32738	32821	32883	32615	
2065	0	82	1200	28	1972	1155	0	32725	33087	32130	32595	32823	32797	32702	32687	
2066	0	84	1254	29	1937	1156	0	32719	33029	32655	32713	32668	32760	32852	32519	
2067	0	97	1278	28	1990	1157	0	32789	32738	32934	32607	32734	32933	32821	32485	
2068	0	142	1218	28	1964	1158	0	32759	32851	33083	32629	32543	32991	32759	32694	
2069	0	106	1268	29	1982	1159	0	32759	32885	33491	32525	32987	32919	32754	32711	
2070	0	122	1231	29	1989	1160	0	32732	33039	33559	32605	32916	32923	32708	32775	
2071	0	103	1218	28	1926	1161	0	32765	33183	33093	32837	32929	32786	32781	32747	
2072	0	142	1201	29	1967	1162	0	32884	32847	32911	32874	33029	32903	32791	32675	
2073	0	66	1243	28	1998	1163	0	32891	32775	32533	33019	32915	32887	32835	32759	
2074	0	155	1214	30	1970	1164	0	32909	32647	32363	33287	33021	32758	32855	32771	
2075	0	88	1281	29	2009	1165	0	32775	32735	32473	33170	32813	32754	32717	32690	
2076	0	135	1264	28	1949	1166	0	32705	32691	32587	33041	32749	32775	32791	32662	
2077	0	110	1269	29	1940	1167	0	32690	32571	32937	32849	32866	32630	32603	32495	
2078	0	141	1253	28	1950	1168	0	32758	32399	33015	32511	32969	32583	32675	32627	
2079	0	139	1247	29	1971	1169	0	32787	32643	32883	32621	32940	32526	32588	32611	
2080	0	174	1250	28	1968	1170	0	32728	32570	32868	32724	32969	32399	32642	32698	
2081	0	114	1273	29	1984	1171	0	32681	32603	32447	33082	32582	32461	32724	32647	
2082	0	152	1277	29	2006	1172	0	32707	32535	31840	33067	32467	32437	32663	32558	
2083	0	160	1205	29	2002	1173	0	32711	32239	31352	33093	32295	32615	32823	32666	
2084	0	124	1227	29	1968	1174	0	32689	32210	31332	32775	32205	32662	32735	32609	
2085	0	107	1230	29	1972	1175	0	32758	32353	31887	32683	32895	33086	32967	32701	
2086	0	106	1252	28	1943	1176	0	32719	32338	32131	32532	33223	33122	32786	32564	
2087	0	107	1237	29	1992	1177	0	32726	32349	32499	32436	32962	33099	32759	32671	
2088	0	114	1230	27	1948	1178	0	32623	32487	32613	32164	33187	33095	32647	32540	
2089	0	151	1233	30	1982	1179	0	32583	32631	32591	31895	32935	32996	32735	32659	
2090	0	120	1254	28	1970	1180	0	32722	32604	32687	31834	32959	32947	32748	32425	
2091	0	96	1265	27	1926	1181	0	32782	32492	32713	31933	32715	32841	32749	32555	
2092	0	135	1207	29	2002	1182	0	32749	32639	33143	32415	32842	32635	32797	32535	
2093	0	124	1218	29	1987	1183	0	32705	32726	33159	32609	32807	32631	32787	32599	
2094	0	112	1240	28	1957	1184	0	32716	32839	33518	32871	32791	32662	32711	32525	
2095	0	125	1242	29	1999	1185	0	32663	32887	33501	33054	32809	32532	32663	32471	
2096	0	171	1202	30	1911	1186	0	32580	32765	33199	33051	32849	32298	32681	32635	
2097	0	66	1208	28	1981	1187	0	32604	32819	33117	32832	32684	32505	32690	32631	
2098	0	147	1281	29	1958	1188	0	32775	32746	33065	32811	32530	32603	32666	32647	
2099	0	143	1250	30	2006	1189	0	32903	32773	32923	32463	32303	32771	32703	32817	
2100	0	149	1200	30	1962	1190	0	32880	32587	32502	32195	31933	32793	32562	32775	
2101	0	165	1187	29	1989	1191	0	32791	32807	32231	31831	31607	32807	32531	32626	
2102	0	162	1244	28	1994	1192	0	32754	32935	32071	31491	32135	32833	32709	32567	
2103	0	132	1274	29	1962	1193	0	32710	32710	31852	31582	34172	32983	32855	32661	
2104	0	167	1279	28	1986	1194	0	32695	33010	31987	31533	34053	32751	32667	32787	
2105	0	101	1243	28	1933	1195	0	32721	32987	32177	31739	33423	32887	32655	32791	
2106	0	117	1262	30	1936	1196	0	32799	33103	32335	32633	33103	32869	32822	32463	
2107	0	130	1231	28	1975	1197	0	32942	32887	32263	33447	32982	32612	32991	32311	
2108	0	136	1194	28	2000	1198	0	32965	32869	32615	34091	32783	32668	33077	32525	
2109	0	93	1228	30	1979	1199	0	32988	33037	33109	34647	32637	32245	33140	32621	
2110	0	101	1236	29	1973	1200	0	33092	33131	33413	34763	32551	32399	33220	32641	
2111	0	123	1203	29	1965	1201	0	33092	32809	33577	34259	32455	32375	33095	32884	
2112	0	69	1216	29	1976	1202	0	33110	32911	33495	32871	32327	32613	32999	33127	
2113	0	125	1184	29	2000	1203	0	33101	32991	33570	32919	32405	32730	33021	33199	
2114	0	134	1226	28	1953	1204	0	33031	33079	33623	33623	32237	32679	33031	33159	
2115	0	95	1229	29	2001	1205	0	32817	32961	33287	34107	32583	32647	32919	33180	
2116	0	116	1272	29	1964	1206	0	32631	32701	32775	34780	32866	32519	32630	33311	
2117	0	84	1232	28	1958	1207	0	32561	32795	32627	34790	32986	32451	32726	33271	
2118	0	106	1189	28	1938	1208	0	32607	32767	32878	34083	32701	32450	32982	32722	
2119	0	88	1268	29	1969	1209	0	32612	32903	32823	33343	33727	32689	32951	32371	
2120	0	103	1203	28	1964	1210	0	32511	32596	32452	33051	32999	32703	32711	32314	
2121	0	110	1244	28	1942	1211	0	32500	32753	32573	32647	32295	32870	32738	32318	
2122	0	146	1210	30	1960	1212	0	32604	32775	32666	31975	32839	32801	32691	32253	
2123	0	110	1225	28	1990	1213	0	32628	32827	32372	31671	32971	32671	32583	32508	
2124	0	100	1184	31	1947	1214	0	32604	32663	32143	31731	33079	32775	32727	32530	
2125	0	74	1212	29	2000	1215	0	32574	32583	32157	31827	32997	32795	32756	32635	
2126	0	129	1239	29	1967	1216	0	32629	32607	32255	31983	32876	32819	32732	32391	
2127	0	113	1233	28	1926	1217	0	32671	32775	32594	31991	32693	32751	32571	32451	
2128	0	112	1237	29	1948	1218	0	32724	32725	32756	32065	32677	32759	32711	32521	
2129	0	155	1231	28	1956	1219	0	32780	32751	33159	32044	32823	32715	32645	32557	
2130	0	66	1217	29	1970	1220	0	32797	32628	33453	32000	32695	32811	32807	32583	
2131	0	129	1215	29	1974	1221	0	32820	32515	33469	32183	32647	32775	32815	32598	
2132	0	162	1235	29	1950	1222	0	32865	32739	33404	32131	32759	32682	32804	32621	
2133	0	103	1238	28	1995	1223	0	32943	32671	33247	32292	32610	32570	32775	32559	
2134	0	120	1257	29	2002	1224	0	32834	32763	33281	32310	32635	32543	32871	32641	
2135	0	120	1258	30	1980	1225	0	32831	32679	33023	32501	33027	32615	32783	32783	
2136	0	134	1249	28	1993	1226	0	32718	32755	32759	32479	32823	32495	32731	32694	
2137	0	137	1217	28	1962	1227	0	32727	32604	32647	32692	32789	32565	32734	32606	
2138	0	103	1240	28	1990	1228	0	32762	32607	32425	32679	32634	32495	32775	32563	
2139	0	131	1239	30	1977	1229	0	32828	32738	31853	32722	32599	32438	32839	32711	
2140	0	148	1221	29	1948	1230	0	32799	32727	31323	32766	32559	32367	32762	32631	
2141	0	98	1215	30	1973	1231	0	32775	32802	30977	32877	32679	32571	32703	32691	
2142	0	132	1232	30	1970	1232	0	32802	32903	31247	32745	32883	32665	32623	32615	
2143	0	92	1196	27	1965	1233	0	32681	32877	31513	32720	32838	32757	32658	32657	
2144	0	95	1240	29	1997	1234	0	32642	32791	31655	32677	32895	32855	32577	32711	
2145	0	126	1247	28	1994	1235	0	32716	32695	31997	32687	32722	32991	32700	32737	
2146	0	120	1235	30	1923	1236	0	32732	32599	32077	32787	32665	32935	32583	32605	
2147	0	128	1195	29	1999	1237	0	32732	32619	32263	32867	32646	32811	32611	32567	
2148	0	120	1241	30	1988	1238	0	32684	32775	32001	33041	32807	32815	32691	32713	
2149	0	94	1208	29	1977	1239	0	32644	32775	32223	32903	32759	32838	32811	32759	
2150	0	113	1243	29	1938	1240	0	32623	32855	32383	32965	32814	32921	32741	32811	
2151	0	108	1233	29	1949	1241	0	32722	32791	32461	32839	32741	32775	32847	32631	
2152	0	129	1231	29	2000	1242	0	32795	32620	32723	32967	32775	32647	32847	32595	
2153	0	97	1199	29	1944	1243	0	32803	32773	32983	32960	32775	32745	32754	32586	
2154	0	134	1248	30	1948	1244	0	32829	32827	33499	32891	32659	32599	32810	32687	
2155	0	151	1234	28	1971	1245	0	32800	32852	33791	32855	32723	32513	32663	32558	
2156	0	117	1259	29	2003	1246	0	32780	32903	33999	32911	32331	32339	32717	32580	
2157	0	75	1252	28	1965	1247	0	32916	32894	34293	32789	32391	32455	32829	32519	
2158	0	90	1241	30	1950	1248	0	32935	32828	34076	32692	32095	32549	32835	32545	
2159	0	139	1175	28	1980	1249	0	32767	32703	33287	32581	33223	32619	32918	32647	
2160	0	121	1252	29	1989	1250	0	32647	32659	32916	32668	33692	32623	32694	32669	
2161	0	131	1271	29	1963	1251	0	32543	32789	32422	32589	33199	32677	32794	32742	
2162	0	138	1211	29	2019	1252	0	32583	32775	31801	32619	32948	32685	32764	32631	
2163	0	123	1241	29	1970	1253	0	32414	32861	31581	32580	32987	32799	32724	32631	
2164	0	168	1253	30	1956	1254	0	32436	32967	31889	32711	32595	32646	32641	32742	
2165	0	127	1229	28	1995	1255	0	32612	32843	32380	32632	32971	32821	32741	32699	
2166	0	122	1244	30	1967	1256	0	32668	32743	32839	32759	33209	32731	32775	32719	
2167	0	75	1245	29	1991	1257	0	32615	32698	32933	32839	32950	32559	32703	32801	
2168	0	144	1241	28	1958	1258	0	32626	32963	32879	32934	32882	32479	32729	32598	
2169	0	108	1268	28	1966	1259	0	32771	32967	32727	32885	32697	32734	32691	32706	
2170	0	78	1272	30	2000	1260	0	32833	32916	32451	32771	32896	32726	32815	32846	
2171	0	114	1283	29	1956	1261	0	32911	32921	32419	32765	32703	32543	32703	32735	
2172	0	124	1239	29	1986	1262	0	32996	33012	32261	32909	32693	32663	32707	32659	
2173	0	149	1253	30	1977	1263	0	32975	32825	32125	32773	32543	32679	32733	32519	
2174	0	136	1251	30	1987	1264	0	32999	32670	32260	32903	32797	32547	32834	32711	
2175	0	94	1226	29	1969	1265	0	33074	32589	32519	32855	32703	32719	32839	32681	
2176	0	152	1243	29	1986	1266	0	33125	32679	32356	32975	32567	32519	32878	32748	
2177	0	110	1272	29	1977	1267	0	33014	32532	32555	32818	32717	32501	32813	32531	
2178	0	124	1217	30	1931	1268	0	32946	32487	32793	32753	32711	32454	32831	32775	
2179	0	112	1266	29	1993	1269	0	32969	32500	32703	32570	32647	32425	32789	32702	
2180	0	120	1204	29	1986	1270	0	32985	32332	32653	32467	32655	32557	32814	32702	
2181	0	134	1234	29	1975	1271	0	32978	32247	32573	32469	32683	32593	32802	32631	
2182	0	110	1215	28	1959	1272	0	32993	32469	32674	32431	32718	32595	32735	32530	
2183	0	101	1212	30	1997	1273	0	32989	32543	32591	32423	32942	32614	32823	32702	
2184	0	129	1258	29	1950	1274	0	32881	32516	32821	32487	32863	32855	32692	32765	
2185	0	100	1216	29	1966	1275	0	32863	32585	32861	32495	32660	32903	32639	32775	
2186	0	109	1209	30	1991	1276	0	32706	32419	32601	32429	32647	33087	32717	32642	
2187	0	108	1180	28	1981	1277	0	32738	32410	32841	32662	32638	33063	32635	32551	
2188	0	160	1259	28	1991	1278	0	32688	32702	32849	32702	32756	33021	32669	32675	
2189	0	121	1211	29	1979	1279	0	32749	32756	32899	32896	32844	33055	32666	32727	
2190	0	180	1230	28	2007	1280	0	32703	32609	33071	33073	33231	32943	32710	32735	
2191	0	131	1244	30	1955	1281	0	32716	32487	32882	33095	32895	32989	32705	32789	
2192	0	123	1236	28	1968	1282	0	32599	32766	32722	33207	32511	32875	32677	32547	
2193	0	136	1238	28	1999	1283	0	32514	32812	32903	33167	32327	32743	32809	32702	
2194	0	127	1255	29	1960	1284	0	32509	32847	32870	33095	33223	32658	32868	32676	
2195	0	154	1256	28	1980	1285	0	32601	32951	32701	32811	33262	32615	32883	32605	
2196	0	113	1188	28	1981	1286	0	32685	32979	32991	32519	32883	32599	32863	32663	
2197	0	131	1238	29	1918	1287	0	32721	32718	32964	32367	32919	32611	32937	32751	
2198	0	109	1223	29	1952	1288	0	32745	32931	32875	32351	32914	32615	32797	32647	
2199	0	140	1229	30	1981	1289	0	32721	32914	32829	32743	32865	32695	32878	32654	
2200	0	123	1229	28	1972	1290	0	32640	32919	32665	32754	32871	32643	32839	32447	
2201	0	101	1226	29	1969	1291	0	32602	32854	32593	32797	32775	32677	32759	32647	
2202	0	119	1204	29	1964	1292	0	32532	32949	32551	33001	32583	32567	32639	32623	
2203	0	133	1238	29	1986	1293	0	32555	33013	32567	33114	32715	32668	32751	32501	
2204	0	141	1222	29	1978	1294	0	32717	32893	32951	33131	32674	32823	32769	32690	
2205	0	144	1269	29	1971	1295	0	32782	32803	33117	33115	32698	33069	32829	32765	
2206	0	113	1210	28	1991	1296	0	32757	33031	33063	32937	32459	33093	32823	32663	
2207	0	91	1237	28	1939	1297	0	32758	33060	32687	32806	32237	32913	32831	32559	
2208	0	119	1229	28	1958	1298	0	32677	33010	32258	32639	32372	32884	32823	32391	
2209	0	181	1190	29	1976	1299	0	32808	32951	32391	32372	32663	32954	32719	32775	
2210	0	104	1264	28	1982	1300	0	32796	32909	31845	32317	32873	32868	32823	32761	
2211	0	159	1216	28	1974	1301	0	32708	32647	31638	32359	33223	32775	32788	32684	
2212	0	100	1225	30	2008	1302	0	32620	32698	31453	32722	33329	32775	32635	32545	
2213	0	153	1249	29	1970	1303	0	32590	32775	31285	33043	33281	32530	32647	32615	
2214	0	113	1219	28	1990	1304	0	32657	32745	31615	32715	33051	32587	32643	32854	
2215	0	83	1244	28	1976	1305	0	32681	32891	31951	32415	32891	32573	32823	32863	
2216	0	121	1253	28	1960	1306	0	32788	32679	32446	32338	32811	32391	32755	32827	
2217	0	158	1230	29	2009	1307	0	32721	32551	32941	32525	32877	32449	32781	32811	
2218	0	118	1236	29	1943	1308	0	32789	32613	33173	32613	32713	32278	32703	32533	
2219	0	119	1294	29	1973	1309	0	32769	32863	32943	32775	32683	32252	32690	32671	
2220	0	116	1270	29	1991	1310	0	32719	32839	32983	32903	32703	32323	32703	32619	
2221	0	117	1214	28	1959	1311	0	32706	32903	32887	33215	32595	32519	32722	32726	
2222	0	105	1257	30	1954	1312	0	32725	32801	32547	33299	32684	32692	32887	32671	
2223	0	86	1237	29	1953	1313	0	32751	32599	32939	33036	32703	32775	32887	32519	
2224	0	125	1271	29	1992	1314	0	32830	32775	33325	32975	32644	32679	32876	32677	
2225	0	106	1265	29	1968	1315	0	32775	32775	32957	32948	32709	32831	32765	32623	
2226	0	140	1225	29	2014	1316	0	32779	32738	33263	32738	32747	33015	32833	32602	
2227	0	115	1222	29	1951	1317	0	32830	32751	33375	32795	32759	33019	32790	32539	
2228	0	138	1240	28	1987	1318	0	32828	32863	33175	32679	32706	33197	32732	32743	
2229	0	172	1228	29	1958	1319	0	32802	32679	33031	32759	32775	32949	32730	32669	
2230	0	128	1248	28	1995	1320	0	32895	32555	32623	32586	32692	32814	32663	32748	
2231	0	127	1218	29	1982	1321	0	32901	32486	32535	32575	32775	32723	32785	32661	
2232	0	116	1229	29	1994	1322	0	32805	32615	32093	32455	32589	32638	32743	32559	
2233	0	100	1169	29	1965	1323	0	32780	32593	31829	32379	32485	32679	32807	32703	
2234	0	124	1222	28	2000	1324	0	32692	32719	31846	32218	32609	32511	32815	32802	
2235	0	128	1237	28	1970	1325	0	32742	32732	32195	32174	32887	32683	32768	32668	
2236	0	127	1247	29	1973	1326	0	32793	32990	32323	32363	33099	32557	32673	32679	
2237	0	137	1237	30	1941	1327	0	32647	33187	32527	32529	32859	32558	32789	32681	
2238	0	144	1221	29	1971	1328	0	32612	33428	32596	32519	32710	32551	32775	32617	
2239	0	78	1206	29	2004	1329	0	32620	33303	32493	32427	32641	32647	32825	32695	
2240	0	177	1296	28	1944	1330	0	32647	33271	32871	32235	32855	32559	32759	32687	
2241	0	143	1270	29	1927	1331	0	32804	33423	33197	32069	33055	32623	32737	32743	
2242	0	124	1243	29	2019	1332	0	32807	33388	33439	32641	32943	32575	32642	32572	
2243	0	137	1231	29	1949	1333	0	32745	32874	32879	33207	32491	32527	32686	32605	
2244	0	123	1258	30	1956	1334	0	32698	32683	32931	33623	32359	32519	32731	32711	
2245	0	145	1246	29	2014	1335	0	32756	32507	32598	33892	32380	32621	32783	32541	
2246	0	118	1232	30	1968	1336	0	32736	32495	32415	34022	32975	32855	32807	32596	
2247	0	101	1218	28	1983	1337	0	32715	32637	32335	33903	33102	32611	32669	32729	
2248	0	134	1278	28	1960	1338	0	32741	32719	32431	33492	33311	32623	32647	32683	
2249	0	102	1208	29	1954	1339	0	32780	32551	32580	32947	33226	32796	32775	32690	
2250	0	158	1253	30	1951	1340	0	32899	32442	32615	32894	32946	32699	32767	32739	
2251	0	157	1283	29	1950	1341	0	32871	32263	32727	32764	32433	32518	32830	32503	
2252	0	146	1261	28	1981	1342	0	32858	32083	33013	32663	32363	32602	32758	32605	
2253	0	123	1234	29	1970	1343	0	32785	31836	32799	32813	32673	32761	32683	32826	
2254	0	145	1238	28	1939	1344	0	32837	31675	33211	32767	33037	32666	32807	32825	
2255	0	111	1205	28	1918	1345	0	32867	31939	33343	32708	32903	32711	32693	32895	
2256	0	107	1158	29	1971	1346	0	32854	32189	33254	32597	32607	32647	32819	32761	
2257	0	146	1260	28	1948	1347	0	32844	32175	33259	32564	32718	32769	32852	32711	
2258	0	158	1278	28	2002	1348	0	32869	32148	33255	32447	33037	32759	32759	32687	
2259	0	106	1250	29	1975	1349	0	32880	32499	32987	32332	33174	32697	32731	32873	
2260	0	103	1245	28	1986	1350	0	32969	32534	32775	32471	32983	32579	32567	32775	
2261	0	131	1247	29	1965	1351	0	32967	32647	32511	32515	32807	32702	32635	32735	
2262	0	165	1225	29	1972	1352	0	32864	32676	32324	32553	32564	32793	32576	32663	
2263	0	111	1236	29	1980	1353	0	32895	32863	32242	32487	32533	32799	32673	32487	
2264	0	80	1249	29	1966	1354	0	32811	32918	32151	32707	32527	32631	32727	32442	
2265	0	147	1239	28	1995	1355	0	32804	32991	32093	32679	32660	32724	32839	32583	
2266	0	175	1234	30	1989	1356	0	32742	32863	31695	32707	32773	32667	32775	32683	
2267	0	124	1250	28	1979	1357	0	32634	33122	31855	32575	32619	32604	32847	32647	
2268	0	113	1281	29	1970	1358	0	32622	33069	32378	32543	32771	32684	32828	32583	
2269	0	139	1253	30	1970	1359	0	32657	33185	32635	32615	32743	32682	32759	32703	
2270	0	71	1217	29	1959	1360	0	32587	33031	32612	32642	32759	32724	32855	32612	
2271	0	133	1210	28	1966	1361	0	32641	32953	32662	32691	32711	32567	32707	32621	
2272	0	142	1227	29	1995	1362	0	32617	33135	32566	32787	32757	32623	32637	32727	
2273	0	173	1217	27	1979	1363	0	32540	33095	32819	32749	32751	32575	32589	32609	
2274	0	131	1230	29	1949	1364	0	32546	33073	32547	32807	32763	32673	32708	32631	
2275	0	145	1238	30	1922	1365	0	32535	33132	32455	32707	32786	32523	32742	32474	
2276	0	141	1252	27	1958	1366	0	32468	33151	32687	32783	32691	32407	32789	32697	
2277	0	117	1258	29	1980	1367	0	32410	33083	33055	32743	32812	32446	32688	32661	
2278	0	138	1257	28	1941	1368	0	32471	32853	33343	32903	32790	32495	32711	32611	
2279	0	151	1222	28	1989	1369	0	32495	32815	33238	32884	32762	32407	32775	32646	
2280	0	129	1233	29	1961	1370	0	32599	32975	33095	32863	32756	32591	32815	32628	
2281	0	107	1239	29	1960	1371	0	32595	32983	32833	32847	32615	32635	32815	32665	
2282	0	113	1225	29	1955	1372	0	32754	32886	32870	32838	32711	32615	32817	32509	
2283	0	106	1251	28	2008	1373	0	32868	32863	32215	32789	32742	32765	32817	32631	
2284	0	122	1200	29	1963	1374	0	32812	32717	31783	32811	32796	32775	32850	32775	
2285	0	145	1267	29	1969	1375	0	32746	32647	30939	32791	32989	32739	32727	32743	
2286	0	126	1250	29	1948	1376	0	32798	32875	31367	32710	32994	32738	32683	32722	
2287	0	151	1239	29	1955	1377	0	32819	32899	31939	32711	32919	32847	32758	32647	
2288	0	135	1223	29	1987	1378	0	32744	32937	32773	32606	32772	32807	32783	32717	
2289	0	129	1231	30	1993	1379	0	33039	32903	33363	32601	32767	32748	32819	32740	
2290	0	102	1221	29	1944	1380	0	33167	32759	33357	32583	32791	32807	32806	32668	
2291	0	101	1245	28	1960	1381	0	33182	32607	33257	32695	32743	32635	32757	32604	
2292	0	97	1239	29	1951	1382	0	33058	32551	32879	32583	32887	32775	32830	32794	
2293	0	131	1256	29	1921	1383	0	32994	32609	32690	32721	32991	32871	32695	32775	
2294	0	103	1262	29	1926	1384	0	32935	32621	32763	32715	32919	32919	32637	32850	
2295	0	101	1224	28	1985	1385	0	32924	32739	32557	32919	32803	32551	32655	32662	
2296	0	169	1217	28	1955	1386	0	32852	32507	32685	32823	32699	32503	32723	32466	
2297	0	141	1201	30	1991	1387	0	32933	32690	32511	32803	32686	32509	32725	32527	
2298	0	105	1234	28	1945	1388	0	32937	32612	32090	32623	32647	32461	32695	32623	
2299	0	133	1249	29	1929	1389	0	32951	32726	32233	32791	32527	32759	32713	32615	
2300	0	134	1237	30	1969	1390	0	32980	32485	32361	32717	32998	32663	32825	32695	
2301	0	74	1223	29	1984	1391	0	32853	32505	32399	32791	32502	32795	32962	32587	
2302	0	179	1264	28	1992	1392	0	32751	32731	32642	32814	32540	32967	32767	32591	
2303	0	116	1250	28	1995	1393	0	32641	32663	32681	32809	32937	32903	32723	32669	
2304	0	126	1241	29	1981	1394	0	32635	32663	32654	32771	33065	32811	32703	32743	
2305	0	164	1268	29	1934	1395	0	32661	32817	32967	32946	32511	32911	32789	32681	
2306	0	113	1246	30	1954	1396	0	32668	32795	33026	32759	32679	33031	32743	32809	
2307	0	165	1270	30	2025	1397	0	32718	32687	33159	32739	32775	33145	32757	32710	
2308	0	86	1255	27	1998	1398	0	32704	32661	33081	32615	32735	33076	32761	32761	
2309	0	113	1253	29	1904	1399	0	32623	32823	33174	32573	32617	32839	32702	32503	
2310	0	109	1220	28	1954	1400	0	32566	32813	33011	32595	32681	32797	32639	32557	
2311	0	124	1254	28	1971	1401	0	32605	32939	32647	32639	32373	32719	32759	32791	
2312	0	117	1247	29	1971	1402	0	32641	32927	32766	32534	32959	32868	32759	32711	
2313	0	164	1252	29	1968	1403	0	32732	32879	32493	32606	32895	32819	32742	32611	
2314	0	147	1256	29	1998	1404	0	32653	32710	32383	32893	32850	32726	32743	32684	
2315	0	156	1269	29	1972	1405	0	32686	32659	32471	32819	33087	32676	32854	32691	
2316	0	139	1183	29	1989	1406	0	32719	32748	32892	32823	33127	32658	32859	32743	
2317	0	145	1246	28	2030	1407	0	32778	32767	32883	32755	32804	32669	32839	32678	
2318	0	87	1237	29	1992	1408	0	32696	32899	32919	32723	32647	32619	32745	32495	
2319	0	137	1220	29	1954	1409	0	32598	32877	32612	32411	32887	32599	32834	32806	
2320	0	107	1244	28	1967	1410	0	32698	32751	32763	32406	32795	32613	32759	32609	
2321	0	98	1257	28	1976	1411	0	32775	32573	33010	32391	32710	32903	32805	32737	
2322	0	131	1221	29	1968	1412	0	32771	32759	33004	32485	32711	32895	32797	32837	
2323	0	106	1253	29	1922	1413	0	32799	32887	32775	32577	32712	32757	32655	32735	
2324	0	109	1203	29	1964	1414	0	32711	32921	32703	32868	32655	32694	32643	32567	
2325	0	130	1213	28	1946	1415	0	32743	32706	32716	33309	32730	32802	32675	32742	
2326	0	119	1252	30	1982	1416	0	32707	32710	32823	33322	32654	32809	32667	32733	
2327	0	64	1196	30	1940	1417	0	32790	32799	32487	33398	32373	32891	32615	32799	
2328	0	158	1220	28	1966	1418	0	32732	32743	32437	33351	32647	32937	32951	32555	
2329	0	128	1196	30	1961	1419	0	32658	32835	32577	33039	33323	32975	32871	32683	
2330	0	128	1244	31	1984	1420	0	32701	32835	32589	33003	33195	32927	32854	32619	
2331	0	151	1224	28	1991	1421	0	32615	32667	32691	32955	32847	32775	32803	32685	
2332	0	94	1253	30	1963	1422	0	32710	32839	32841	32710	32894	33093	32784	32723	
2333	0	149	1212	28	1958	1423	0	32786	32749	32884	32685	33091	32972	32823	32834	
2334	0	99	1195	29	1957	1424	0	32861	32743	32789	32570	32963	32873	32851	32647	
2335	0	132	1279	29	2016	1425	0	32791	32807	32917	32451	32804	32561	32765	32495	
2336	0	83	1239	30	1949	1426	0	32762	32655	32919	32263	32693	32477	32759	32535	
2337	0	149	1234	30	1918	1427	0	32733	32831	32855	32391	32582	32604	32647	32735	
2338	0	115	1231	29	1964	1428	0	32836	32759	33027	32373	32839	32645	32679	32854	
2339	0	117	1220	30	1997	1429	0	32844	32789	33023	32881	32698	32561	32732	32823	
2340	0	90	1266	29	1971	1430	0	32834	32847	32759	33199	32709	32556	32683	32635	
2341	0	134	1222	29	1948	1431	0	32846	32692	32612	33517	32615	32773	32687	32551	
2342	0	114	1221	28	1966	1432	0	32764	32628	32179	33343	32771	32725	32610	32681	
2343	0	121	1278	30	1916	1433	0	32790	32791	32199	33301	32839	32685	32727	32687	
2344	0	117	1225	29	1968	1434	0	32722	32863	31802	32916	32666	32495	32775	32619	
2345	0	120	1252	28	1956	1435	0	32708	32775	31263	32707	32663	32740	32848	32594	
2346	0	160	1228	29	1954	1436	0	32727	32811	31187	32449	32725	32899	32774	32727	
2347	0	98	1220	28	1936	1437	0	32778	32823	31765	32350	32807	32808	32817	32835	
2348	0	127	1273	29	1956	1438	0	32717	32791	31999	32391	32811	32877	32705	32666	
2349	0	77	1249	30	1990	1439	0	32669	32733	32041	32155	32743	32919	32767	32725	
2350	0	136	1220	28	1901	1440	0	32736	32679	32711	32041	32671	32797	32759	32715	
2351	0	101	1261	28	1981	1441	0	32797	32586	33082	31991	32469	32807	32811	32843	
2352	0	137	1165	30	1981	1442	0	32865	32749	33303	32023	32435	32583	32793	32791	
2353	0	178	1239	29	1941	1443	0	32842	32759	33197	32423	32887	32830	32824	32620	
2354	0	168	1241	30	1964	1444	0	32754	32844	32674	32588	33455	32617	32723	32719	
2355	0	149	1290	29	1974	1445	0	32812	32973	32763	32585	33013	32581	32834	32695	
2356	0	134	1280	29	2006	1446	0	32732	32919	33068	32745	32863	32537	32775	32695	
2357	0	97	1265	30	1997	1447	0	32752	32631	32983	32957	32818	32565	32826	32759	
2358	0	107	1247	28	1980	1448	0	32843	32749	32751	33481	32730	32495	32863	32743	
2359	0	119	1259	30	1987	1449	0	32761	32807	32807	33967	32796	32271	32697	32433	
2360	0	133	1232	29	1954	1450	0	32726	32732	32711	33837	32711	32474	32879	32551	
2361	0	138	1255	31	1960	1451	0	32720	32547	32525	33399	32718	32557	32718	32743	
2362	0	121	1218	30	1992	1452	0	32732	32557	32412	33170	32839	32703	32660	32647	
2363	0	108	1239	29	1968	1453	0	32727	32799	32399	32935	32684	32671	32797	32712	
2364	0	133	1187	28	1963	1454	0	32659	32775	32466	32874	32775	32855	32679	32623	
2365	0	139	1230	30	1927	1455	0	32750	32775	32372	32711	33147	32967	32876	32579	
2366	0	123	1225	30	1988	1456	0	32735	32619	32645	32663	32957	33027	32831	32669	
2367	0	108	1260	28	1953	1457	0	32754	32605	33155	32668	32822	32902	32731	32623	
2368	0	117	1285	29	1984	1458	0	32761	32810	33314	32613	32656	33071	32721	32727	
2369	0	129	1233	29	1961	1459	0	32726	32803	32933	32643	32756	33010	32719	32591	
2370	0	115	1257	30	1960	1460	0	32671	32858	32812	32516	32753	32847	32727	32553	
2371	0	151	1261	29	1999	1461	0	32774	32620	32775	32543	32702	32815	32711	32677	
2372	0	138	1190	28	1989	1462	0	32742	32767	32626	32523	32732	32811	32764	32751	
2373	0	123	1249	29	1986	1463	0	32751	32807	32451	32429	32807	32740	32795	32639	
2374	0	54	1256	30	1944	1464	0	32802	32871	32231	32524	32734	32611	32783	32643	
2375	0	147	1241	29	1978	1465	0	32807	32611	32439	32677	32714	32540	32858	32685	
2376	0	155	1230	28	2003	1466	0	32743	32805	32295	32863	32709	32564	32875	32609	
2377	0	133	1263	28	1971	1467	0	32680	32861	32674	32847	32783	32606	32791	32475	
2378	0	133	1240	30	1949	1468	0	32665	33031	32823	32898	32791	32551	32739	32655	
2379	0	155	1278	29	1967	1469	0	32583	32829	32807	32899	32775	32551	32719	32731	
2380	0	117	1266	28	1996	1470	0	32511	32943	32921	32745	32847	32639	32743	32647	
2381	0	126	1261	29	1950	1471	0	32431	32859	32727	32749	32700	32662	32749	32623	
2382	0	118	1180	28	1999	1472	0	32508	32871	32857	32711	32703	32687	32654	32647	
2383	0	139	1254	28	1957	1473	0	32445	32759	32666	32871	32531	32539	32623	32583	
2384	0	111	1230	29	1988	1474	0	32477	32607	32623	32883	32469	32631	32735	32729	
2385	0	143	1275	30	1998	1475	0	32578	32479	32490	32762	32533	32975	32851	32708	
2386	0	75	1215	29	1944	1476	0	32690	32589	32327	32583	33053	32903	32751	32519	
2387	0	134	1236	30	1942	1477	0	32793	32553	32479	32459	32974	32718	32807	32515	
2388	0	125	1252	28	1984	1478	0	32876	32631	32661	32571	33013	32757	32835	32607	
2389	0	109	1228	28	1946	1479	0	32985	32643	32919	32612	32919	32507	32903	32559	
2390	0	94	1243	30	1981	1480	0	33024	32406	33215	32715	32647	32631	32853	32647	
2391	0	147	1226	29	1986	1481	0	33309	32467	33481	32658	32607	32665	32835	32709	
2392	0	138	1210	29	1988	1482	0	33430	32638	33199	32683	32606	32459	32691	32567	
2393	0	124	1221	28	1954	1483	0	33455	32673	32847	32647	33039	32541	32676	32599	
2394	0	124	1227	29	1955	1484	0	33372	32647	32425	32699	32927	32549	32671	32735	
2395	0	110	1232	29	1962	1485	0	33244	32591	31927	32731	33121	32498	32543	32695	
2396	0	130	1249	30	1978	1486	0	33141	32845	31856	32978	32818	32271	32556	32615	
2397	0	154	1240	29	1955	1487	0	32952	32831	32343	32921	32475	32348	32717	32797	
2398	0	113	1221	29	1962	1488	0	32966	32820	32561	32924	32583	32437	32820	32607	
2399	0	129	1233	29	1971	1489	0	32833	32583	32804	32733	33111	32571	32612	32797	
2400	0	123	1260	29	1994	1490	0	32705	32749	32600	32775	32902	32449	32531	32815	
2401	0	139	1221	29	1958	1491	0	32609	32787	32319	32663	32271	32499	32604	32693	
2402	0	101	1185	28	1978	1492	0	32638	32846	32548	32636	32327	32439	32714	32724	
2403	0	78	1262	28	1946	1493	0	32687	32787	32831	32605	32743	32773	33007	32595	
2404	0	132	1214	29	1971	1494	0	32678	32571	33059	32796	33223	32695	32878	32573	
2405	0	165	1252	28	2013	1495	0	32647	32787	33655	32973	33037	32865	32887	32636	
2406	0	104	1232	29	2011	1496	0	32677	32839	34597	32965	32461	32799	32859	32719	
2407	0	129	1216	27	1923	1497	0	32669	32855	34692	32867	32359	32759	32823	32775	
2408	0	117	1218	28	2009	1498	0	32703	32950	34372	32946	32920	32738	32739	32679	
2409	0	134	1289	29	1962	1499	0	32711	32765	33659	32692	33295	32759	32717	32593	
