# OpenSignals Text File Format
# {"00:07:80:3B:46:38": {"sensor": ["CUSTOM/0.5/1.0/V", "CUSTOM/0.5/1.0/V", "CUSTOM/0.5/1.0/V", "CUSTOM/0.5/1.0/V", "CUSTOM/0.5/1.0/V", "CUSTOM/0.5/1.0/V", "CUSTOM/0.5/1.0/V", "CUSTOM/0.5/1.0/V"], "device name": "EMGs", "column": ["nSeq", "DI", "RA_L", "RA_R", "OE_L", "OE:R", "IL_L", "IL_R", "MF_L", "MF_R"], "sync interval": 2, "time": "10:48:16.293", "comments": "", "device connection": "BTH00:07:80:3B:46:38", "channels": [1, 2, 3, 4, 5, 6, 7, 8], "date": "2017-6-2", "mode": 0, "digital IO": [0, 1], "firmware version": 772, "device": "biosignalsplux", "position": 0, "sampling rate": 1000, "label": ["RA_L", "RA_R", "OE_L", "OE:R", "IL_L", "IL_R", "MF_L", "MF_R"], "resolution": [16, 16, 16, 16, 16, 16, 16, 16], "special": [{}, {}, {}, {}, {}, {}, {}, {}]}}
# EndOfHeader
0	0	32701	32903	32644	32742	32708	32739	32662	33733	
1	0	32760	32679	32785	32711	32601	32708	32724	33463	
2	0	32721	32665	32749	32571	32603	32749	32735	32998	
3	0	32684	32845	32679	32838	32638	32886	32775	32479	
4	0	32782	32886	32647	32850	32439	33010	32809	31931	
5	0	32790	32735	32743	32707	32659	32852	32799	31797	
6	0	32810	32543	32715	32735	32586	32877	32742	31914	
7	0	32759	32791	32681	32725	32673	32873	32711	32415	
8	0	32671	32927	32767	32615	32595	33159	32500	33239	
9	0	32719	32679	32691	32705	32566	32927	32519	33499	
10	0	32758	32619	32683	32615	32694	32682	32743	33281	
11	0	32738	32740	32759	32631	32575	32727	32676	33182	
12	0	32757	32764	32719	32563	32818	32679	32685	33117	
13	0	32711	32791	32719	32655	32725	32717	32755	33158	
14	0	32700	32527	32667	32634	32542	32854	32770	33104	
15	0	32756	32761	32759	32607	32699	32669	32751	33247	
16	0	32811	32834	32738	32725	32572	32554	32775	33041	
17	0	32749	32587	32690	32775	32787	32576	32823	32695	
18	0	32815	32733	32791	32685	32601	32725	32807	32418	
19	0	32731	32804	32663	32807	32710	32739	32791	32383	
20	0	32786	32766	32743	32771	32701	32670	32615	32431	
21	0	32782	32708	32759	32725	32775	32825	32615	32375	
22	0	32756	32763	32767	32775	32727	32839	32647	32235	
23	0	32782	32815	32727	32647	32759	32787	32589	32399	
24	0	32775	32647	32775	32767	32771	32758	32608	32571	
25	0	32710	32877	32754	32687	32741	32721	32599	32751	
26	0	32713	32873	32767	32791	32703	32759	32519	32855	
27	0	32714	32655	32653	32762	32731	32806	32679	32828	
28	0	32732	32787	32623	32735	32647	32966	32714	32755	
29	0	32760	32855	32682	32797	32711	32926	32775	32914	
30	0	32794	32757	32690	32803	32727	32844	32805	32735	
31	0	32807	32642	32703	32858	32615	32839	32775	32598	
32	0	32786	32839	32694	32841	32695	32679	32727	32679	
33	0	32790	32804	32683	32879	32557	32623	32850	32955	
34	0	32794	32855	32762	32673	32795	32557	32767	32801	
35	0	32772	32711	32717	32791	32785	32679	32755	32223	
36	0	32754	32551	32742	32647	32631	32855	32615	32407	
37	0	32743	32723	32647	32475	32811	32683	32679	32533	
38	0	32747	32823	32635	32595	32654	32711	32557	32444	
39	0	32807	32711	32647	32703	32745	32755	32701	32262	
40	0	32740	32583	32687	32518	32487	32932	32578	33083	
41	0	32709	32861	32758	32775	32645	32879	32583	33499	
42	0	32723	32847	32710	32771	32503	32911	32775	32700	
43	0	32748	32707	32706	32751	32647	32910	32823	32501	
44	0	32733	32702	32639	32839	32541	32829	32743	33143	
45	0	32694	32821	32645	32966	32765	32701	32846	33015	
46	0	32723	32895	32685	33046	32721	32773	32775	32999	
47	0	32727	32885	32701	33259	32775	32875	32675	32715	
48	0	32731	32722	32759	33108	32763	32858	32743	32775	
49	0	32685	32639	32647	33175	32607	32879	32743	32927	
50	0	32769	32759	32655	33107	32751	32839	32799	33143	
51	0	32771	32713	32718	32775	32755	32691	32810	33287	
52	0	32705	32580	32708	32578	32786	32701	32647	33199	
53	0	32807	32647	32730	32565	32821	32620	32635	32847	
54	0	32773	32747	32708	32529	32585	32527	32724	32642	
55	0	32708	32839	32631	32580	32750	32703	32698	32551	
56	0	32769	32706	32774	32383	32801	32717	32733	32077	
57	0	32775	32557	32715	32605	32687	32743	32444	32375	
58	0	32765	32764	32703	32498	32671	32839	32471	32677	
59	0	32703	32810	32642	32679	32485	32959	32662	32407	
60	0	32768	32717	32703	32709	32671	32946	32755	32535	
61	0	32758	32647	32775	32756	32671	32695	32870	32735	
62	0	32769	32773	32751	32873	32615	33041	32671	33086	
63	0	32807	32743	32733	32837	32707	32971	32643	33175	
64	0	32809	32582	32733	32847	32663	33067	32725	32562	
65	0	32753	32795	32655	32647	32843	32703	33018	32686	
66	0	32707	32892	32633	32743	32819	32405	32885	32831	
67	0	32775	32721	32699	32621	32699	32570	32578	33271	
68	0	32840	32741	32671	32539	32795	32673	32644	32834	
69	0	32763	32829	32687	32637	32715	32771	32662	32367	
70	0	32786	32863	32711	32537	32766	32725	32711	32647	
71	0	32742	32701	32677	32591	32629	32867	32615	32565	
72	0	32769	32815	32711	32463	32661	32689	32597	32659	
73	0	32770	32815	32762	32683	32533	32660	32517	33351	
74	0	32815	32631	32807	32699	32711	32567	32451	33411	
75	0	32812	32758	32727	32807	32515	32775	32547	32811	
76	0	32836	32813	32710	32815	32647	32815	32607	32685	
77	0	32758	32727	32683	32807	32575	32703	32583	32955	
78	0	32750	32806	32707	32916	32815	32671	32621	32937	
79	0	32764	32838	32729	32893	32740	32817	32671	32749	
80	0	32771	32638	32703	32941	32707	32810	32677	32743	
81	0	32751	32567	32739	32767	32754	32769	32647	32647	
82	0	32729	32702	32677	32661	32763	32877	32739	32437	
83	0	32739	32757	32726	32490	32491	32775	32774	32538	
84	0	32742	32758	32743	32479	32671	32719	32733	32567	
85	0	32719	32563	32667	32583	32695	32837	32775	32432	
86	0	32706	32703	32617	32591	32731	32859	32709	32559	
87	0	32771	32821	32662	32687	32684	32931	32685	32815	
88	0	32850	32663	32771	32759	32715	32759	32743	32726	
89	0	32722	32839	32703	32946	32719	32627	32887	32514	
90	0	32775	32850	32775	32998	32837	32647	32875	32383	
91	0	32743	32743	32759	32829	32739	32719	32743	32355	
92	0	32714	32859	32690	33015	32715	32742	32583	32915	
93	0	32729	32839	32735	33059	32765	32711	32570	33031	
94	0	32745	32890	32745	32943	32717	32765	32595	33495	
95	0	32730	32715	32619	33031	32681	32898	32637	33431	
96	0	32760	32612	32635	32999	32511	32967	32811	33111	
97	0	32771	32767	32773	32750	32583	32973	32811	32565	
98	0	32742	32849	32726	32829	32613	32807	32891	32445	
99	0	32734	32627	32711	32799	32767	32731	32884	32487	
100	0	32677	32775	32751	32829	32565	32903	32703	32647	
101	0	32739	32853	32749	32815	32658	32862	32756	32349	
102	0	32738	32662	32738	32748	32567	32703	32783	32231	
103	0	32730	32671	32603	32711	32719	32887	32819	32439	
104	0	32819	32765	32695	32703	32775	32891	32590	32959	
105	0	32797	32913	32691	32547	32799	32535	32607	33052	
106	0	32736	32647	32695	32559	32806	32398	32708	32511	
107	0	32743	32733	32691	32471	32673	32709	32607	32570	
108	0	32708	32743	32713	32603	32727	32790	32489	32799	
109	0	32732	32783	32631	32623	32551	32647	32491	32908	
110	0	32771	32583	32697	32564	32823	32735	32660	32615	
111	0	32790	32743	32761	32763	32830	32791	32743	32882	
112	0	32788	32711	32767	32754	32683	32437	32863	33363	
113	0	32771	32879	32675	32635	32771	32355	32839	32902	
114	0	32793	32764	32657	32711	32759	32850	32814	32431	
115	0	32749	32573	32759	32690	32642	33202	32783	32295	
116	0	32741	32791	32775	32643	32677	33225	32762	33012	
117	0	32769	32832	32762	32756	32455	33195	32726	33927	
118	0	32735	32660	32763	32684	32584	32999	32689	34153	
119	0	32758	32762	32773	32724	32767	32617	32647	34119	
120	0	32775	32768	32691	32863	32743	32367	32577	33379	
121	0	32775	32834	32665	32758	32750	32607	32545	32883	
122	0	32789	32642	32738	32505	32608	32711	32871	32429	
123	0	32740	32823	32738	32631	32671	32693	32915	31943	
124	0	32758	32759	32728	32481	32715	32799	32748	32155	
125	0	32756	32791	32637	32516	32529	32775	32631	32066	
126	0	32715	32671	32751	32524	32687	32837	32775	31995	
127	0	32773	32756	32791	32739	32631	32890	32811	32391	
128	0	32769	32763	32786	32855	32609	32775	32731	32658	
129	0	32734	32759	32647	32877	32711	32860	32722	32967	
130	0	32706	32773	32679	33005	32783	32699	32583	33024	
131	0	32771	32721	32646	33123	32557	32655	32563	32851	
132	0	32774	32647	32734	33077	32809	32687	32759	32517	
133	0	32780	32740	32647	33055	32822	32738	32746	32534	
134	0	32767	32711	32639	33027	32663	32723	32716	32567	
135	0	32807	32811	32759	32967	32745	32753	32775	32482	
136	0	32775	32627	32755	32853	32707	32609	32715	32671	
137	0	32807	32583	32833	32809	32695	32823	32631	33052	
138	0	32778	32794	32835	32739	32815	32734	32503	33023	
139	0	32702	32923	32679	32626	32591	32759	32583	32751	
140	0	32766	32743	32699	32662	32610	32871	32749	32703	
141	0	32742	32851	32711	32601	32518	32925	32695	32711	
142	0	32728	32799	32703	32493	32587	32891	32735	32475	
143	0	32726	32773	32690	32667	32519	32818	32647	32423	
144	0	32762	32671	32671	32810	32663	32807	32612	32670	
145	0	32692	32845	32679	32825	32574	32832	32563	32854	
146	0	32718	32927	32732	32830	32719	32798	32771	32303	
147	0	32799	32559	32639	32597	32743	32749	32799	32703	
148	0	32743	32751	32623	32687	32755	32636	32863	32797	
149	0	32809	32817	32687	32615	32749	32623	32804	32647	
150	0	32770	32862	32705	32719	32615	32541	32669	32927	
151	0	32764	32709	32690	32670	32677	32523	32446	33575	
152	0	32716	32631	32599	32621	32787	32731	32455	33381	
153	0	32729	32835	32662	32626	32743	32903	32727	32988	
154	0	32734	32874	32702	32759	32727	33146	32727	32523	
155	0	32739	32942	32727	32879	32575	32999	32711	32532	
156	0	32729	32701	32759	32758	32681	32821	32749	32853	
157	0	32749	32722	32663	32814	32733	32697	32759	33022	
158	0	32699	32799	32701	32815	32819	32659	32763	33172	
159	0	32709	32847	32762	32943	32823	32703	32794	32647	
160	0	32780	32559	32791	32793	32647	32816	32735	32252	
161	0	32760	32812	32733	32841	32639	32759	32721	32375	
162	0	32706	32879	32706	32982	32564	32880	32711	32609	
163	0	32710	32599	32727	32967	32700	32982	32748	32587	
164	0	32769	32767	32759	32863	32535	32775	32839	32647	
165	0	32714	32837	32673	32679	32723	32675	32739	32573	
166	0	32722	32711	32580	32579	32702	32855	32723	32702	
167	0	32738	32775	32640	32523	32754	32866	32654	32973	
168	0	32734	32771	32700	32647	32742	32903	32782	33077	
169	0	32769	32823	32719	32563	32553	33047	32835	33182	
170	0	32742	32591	32745	32723	32647	32855	32753	32763	
171	0	32737	32756	32738	32767	32623	32617	32911	32391	
172	0	32817	32819	32723	32726	32843	32522	32868	32362	
173	0	32806	32611	32745	32839	32722	32631	32687	32484	
174	0	32732	32814	32751	32595	32733	32915	32595	32943	
175	0	32848	32854	32775	32775	32548	32852	32615	33507	
176	0	32754	32513	32742	32644	32663	32595	32629	33721	
177	0	32754	32757	32731	32711	32674	32451	32639	33287	
178	0	32754	32889	32663	32845	32761	32447	32671	33223	
179	0	32762	32600	32647	32791	32683	32543	32735	32406	
180	0	32746	32852	32647	32940	32795	32682	32743	31326	
181	0	32812	32701	32659	32948	32540	32815	32835	31497	
182	0	32860	32751	32731	32927	32615	33027	32765	32103	
183	0	32711	32914	32697	32871	32489	32997	32663	33143	
184	0	32782	32781	32719	32773	32605	33055	32555	33835	
185	0	32681	32636	32727	32807	32543	33059	32727	33503	
186	0	32676	32771	32742	32839	32667	32867	32901	33217	
187	0	32775	32797	32727	32630	32693	32893	32827	33189	
188	0	32734	32679	32646	32681	32601	32629	32873	32919	
189	0	32797	32567	32699	32638	32799	32583	32738	33028	
190	0	32702	32707	32783	32567	32719	32630	32623	32934	
191	0	32793	32747	32678	32545	32545	32748	32647	32583	
192	0	32837	32724	32775	32489	32642	32895	32791	32647	
193	0	32759	32619	32699	32581	32679	32773	32775	32602	
194	0	32767	32775	32755	32359	32661	32685	32727	32531	
195	0	32810	32754	32735	32587	32722	32802	32727	32425	
196	0	32820	32823	32663	32599	32551	32743	32742	32366	
197	0	32755	32612	32702	32448	32787	32707	32734	32421	
198	0	32804	32771	32635	32663	32787	32704	32663	32578	
199	0	32797	32812	32662	32655	32678	32706	32671	32589	
200	0	32754	32842	32731	32809	32703	32747	32613	32758	
201	0	32775	32639	32756	32859	32605	32662	32692	33061	
202	0	32750	32791	32740	32871	32769	32747	32734	33132	
203	0	32756	32775	32647	32899	32726	32691	32647	32991	
204	0	32775	32916	32675	32951	32637	32597	32727	32677	
205	0	32743	32583	32759	32805	32655	32891	32806	32263	
206	0	32694	32772	32751	32894	32487	32935	32735	32132	
207	0	32711	32863	32735	32791	32710	32742	32581	32531	
208	0	32737	32775	32786	32787	32754	32841	32567	32898	
209	0	32775	32547	32734	32719	32543	32799	32615	32895	
210	0	32754	32735	32786	32647	32726	32763	32775	32647	
211	0	32745	32773	32738	32663	32735	32925	32837	32429	
212	0	32703	32659	32707	32823	32775	32870	32775	32503	
213	0	32682	32757	32715	32785	32669	32820	32607	32892	
214	0	32671	32815	32699	32725	32770	32703	32641	32775	
215	0	32684	32669	32711	32793	32756	32647	32759	32749	
216	0	32745	32775	32659	32786	32634	32735	32615	33303	
217	0	32762	32743	32673	32809	32731	32738	32757	32911	
218	0	32727	32867	32675	32866	32633	32711	32775	32803	
219	0	32775	32611	32698	32875	32829	32631	32698	32878	
220	0	32735	32775	32681	32694	32802	32493	32635	32135	
221	0	32733	32903	32735	32747	32669	32587	32626	32175	
222	0	32767	32798	32647	32846	32711	32685	32566	32339	
223	0	32758	32599	32631	32645	32623	32941	32631	32204	
224	0	32751	32815	32743	32727	32582	33191	32759	32527	
225	0	32765	32837	32699	32711	32605	33257	32799	33481	
226	0	32713	32861	32722	32534	32535	33095	32871	34191	
227	0	32801	32683	32630	32688	32639	32855	33003	33467	
228	0	32751	32603	32647	32727	32677	32825	33012	32979	
229	0	32732	32751	32691	32658	32655	32561	32932	32965	
230	0	32748	32846	32775	32871	32784	32599	32751	32757	
231	0	32726	32613	32746	32755	32745	32645	32725	32704	
232	0	32829	32693	32757	32626	32615	32787	32615	32730	
233	0	32784	32729	32679	32727	32743	32703	32582	32983	
234	0	32754	32863	32659	32738	32686	32749	32516	32969	
235	0	32702	32671	32645	32819	32799	32647	32498	32769	
236	0	32740	32839	32699	32739	32767	32790	32507	32423	
237	0	32751	32867	32761	32626	32617	32711	32658	32187	
238	0	32798	32823	32759	32711	32663	32683	32549	32402	
239	0	32763	32597	32710	32705	32626	32789	32611	32757	
240	0	32855	32619	32600	32693	32617	32751	32639	32639	
241	0	32850	32791	32775	32793	32671	32699	32662	32327	
242	0	32826	32871	32732	32943	32643	32818	32677	32351	
243	0	32775	32925	32703	33031	32686	32815	32769	32167	
244	0	32735	32753	32707	32884	32647	32982	32866	32403	
245	0	32775	32599	32694	33092	32578	33101	32871	33007	
246	0	32723	32802	32775	33026	32711	32911	32810	33719	
247	0	32772	32809	32688	32763	32765	32862	32902	33666	
248	0	32710	32855	32623	32783	32698	32851	32749	33159	
249	0	32735	32860	32663	32567	32775	32609	32674	33021	
250	0	32775	32647	32755	32495	32747	32543	32795	32551	
251	0	32748	32727	32772	32487	32611	32735	32735	32540	
252	0	32762	32679	32710	32461	32739	32715	32705	32668	
253	0	32702	32799	32707	32415	32699	32685	32583	32603	
254	0	32658	32707	32638	32557	32691	32815	32579	32933	
255	0	32711	32566	32647	32673	32812	32767	32549	33145	
256	0	32729	32785	32775	32532	32607	32662	32647	33011	
257	0	32741	32743	32706	32558	32862	32743	32705	32455	
258	0	32838	32823	32725	32578	32826	32738	32715	32439	
259	0	32742	32607	32751	32588	32685	32547	32837	32721	
260	0	32725	32727	32666	32903	32785	32671	32903	32525	
261	0	32823	32803	32642	32927	32543	32877	32806	32671	
262	0	32856	32695	32637	33159	32561	33107	32638	32839	
263	0	32771	32823	32679	33133	32400	33031	32687	32589	
264	0	32754	32791	32759	33093	32627	32950	32732	32423	
265	0	32756	32890	32706	33043	32729	32884	32850	32263	
266	0	32806	32758	32749	32943	32502	32679	32763	32850	
267	0	32775	32599	32711	32991	32767	32698	32726	33103	
268	0	32812	32687	32577	32807	32790	32626	32590	32959	
269	0	32748	32711	32743	32448	32599	32571	32550	32735	
270	0	32769	32807	32723	32565	32775	32579	32724	32530	
271	0	32745	32935	32647	32508	32727	32639	32663	32471	
272	0	32767	32775	32709	32583	32639	32762	32711	32457	
273	0	32748	32707	32769	32631	32743	32815	32799	32786	
274	0	32749	32823	32715	32606	32775	32802	32667	32815	
275	0	32735	32873	32732	32530	32725	32658	32662	32767	
276	0	32710	32581	32775	32601	32703	32671	32627	33069	
277	0	32810	32542	32611	32671	32735	32717	32663	33203	
278	0	32749	32719	32751	32707	32511	32813	32725	32775	
279	0	32772	32787	32710	32805	32711	32785	32749	32516	
280	0	32773	32863	32722	32810	32687	32715	32786	32565	
281	0	32713	32623	32644	32725	32797	32765	32730	32413	
282	0	32710	32797	32694	32809	32727	32747	32583	32748	
283	0	32642	32855	32821	32887	32594	32793	32695	32903	
284	0	32686	32791	32763	32727	32515	32847	32604	32993	
285	0	32724	32805	32735	32848	32655	32823	32538	32957	
286	0	32730	32587	32691	32799	32583	32685	32604	32503	
287	0	32743	32578	32758	32647	32791	32655	32659	31998	
288	0	32878	32771	32743	32817	32708	32764	32818	32135	
289	0	32790	32799	32755	32834	32558	32799	32999	32193	
290	0	32799	32835	32673	32623	32775	32839	32796	32738	
291	0	32823	32671	32667	32847	32765	32850	32617	33250	
292	0	32808	32623	32756	32807	32583	32854	32557	33927	
293	0	32771	32711	32799	32773	32713	32702	32607	33830	
294	0	32742	32754	32753	32669	32775	32739	32635	33191	
295	0	32764	32867	32627	32775	32450	33007	32722	32758	
296	0	32740	32833	32707	32687	32642	32979	32767	32683	
297	0	32749	32631	32690	32589	32687	32813	32895	32773	
298	0	32664	32762	32679	32751	32707	32983	32967	32541	
299	0	32703	32815	32775	32735	32639	33091	32811	32671	
300	0	32741	32877	32690	32685	32671	32821	32673	33135	
301	0	32714	32647	32647	32827	32787	32551	32638	33587	
302	0	32769	32821	32727	32859	32891	32335	32588	33195	
303	0	32662	32879	32756	32851	32784	32419	32631	32910	
304	0	32722	32699	32749	32751	32735	32727	32716	32549	
305	0	32750	32519	32775	32732	32559	32717	32810	32149	
306	0	32727	32767	32767	32767	32607	32775	32786	31967	
307	0	32759	32879	32738	32850	32499	32743	32727	32047	
308	0	32759	32685	32647	32694	32647	32775	32646	32605	
309	0	32749	32606	32747	32671	32735	32967	32445	32885	
310	0	32685	32863	32756	32717	32543	33007	32751	32647	
311	0	32684	32811	32679	32733	32698	32999	32863	32555	
312	0	32696	32790	32635	32626	32619	32873	32891	32821	
313	0	32733	32614	32586	32623	32727	32614	32748	33346	
314	0	32775	32771	32670	32615	32722	32624	32573	33455	
315	0	32790	32695	32687	32738	32550	32859	32589	33255	
316	0	32763	32743	32679	32663	32647	32836	32698	33079	
317	0	32745	32644	32755	32687	32641	32647	32660	32897	
318	0	32745	32612	32623	32791	32683	32647	32751	32882	
319	0	32822	32769	32731	32786	32732	32591	32902	32149	
320	0	32862	32807	32735	32935	32692	32556	32890	31945	
321	0	32813	32830	32773	32871	32839	32621	32767	32069	
322	0	32769	32763	32647	32935	32671	32607	32561	32540	
323	0	32749	32591	32701	32847	32692	32767	32410	33189	
324	0	32739	32755	32711	32686	32755	32850	32617	33234	
325	0	32751	33027	32685	32849	32723	32734	32703	33117	
326	0	32711	32735	32663	32811	32627	32687	32717	32919	
327	0	32748	32735	32729	32893	32735	32786	32695	32525	
328	0	32846	32706	32693	32876	32559	32883	32621	32475	
329	0	32769	32623	32663	32669	32735	32799	32727	32287	
330	0	32722	32647	32711	32791	32635	32809	32924	32119	
331	0	32673	32819	32757	32679	32617	33067	32893	32295	
332	0	32766	32790	32775	32507	32579	33076	32765	32677	
333	0	32759	32847	32679	32509	32567	32979	32851	32599	
334	0	32743	32679	32659	32517	32703	32809	32762	33019	
335	0	32797	32594	32695	32719	32721	32855	32791	33063	
336	0	32775	32806	32743	32711	32570	32807	32719	33159	
337	0	32801	32858	32689	32770	32659	32830	32667	32959	
338	0	32760	32887	32669	32790	32487	32903	32647	32851	
339	0	32747	32631	32639	32871	32698	32702	32686	32983	
340	0	32847	32839	32775	32807	32597	32503	32662	33295	
341	0	32789	32911	32746	32831	32708	32521	32591	33087	
342	0	32743	33041	32738	32981	32635	32674	32501	32874	
343	0	32804	32689	32813	33091	32768	32631	32569	32532	
344	0	32815	32917	32811	32965	32703	32691	32599	32418	
345	0	32775	32910	32691	32883	32729	32933	32591	32209	
346	0	32797	32898	32741	32631	32701	33028	32562	32463	
347	0	32654	32727	32766	32775	32591	32955	32603	32263	
348	0	32692	32914	32767	32735	32711	32727	32647	32691	
349	0	32628	33007	32731	32763	32548	32732	32695	33239	
350	0	32626	32715	32671	32692	32700	32787	32530	33349	
351	0	32686	32763	32692	32551	32565	32769	32463	33519	
352	0	32621	32722	32611	32615	32749	32671	32487	33693	
353	0	32632	32749	32567	32455	32689	32575	32594	33495	
354	0	32530	32567	32558	32252	32529	32667	32623	33213	
355	0	32503	32709	32479	32351	32679	32871	32527	33121	
356	0	32415	32679	32468	32454	32605	32903	32603	33082	
357	0	32442	32743	32500	32358	32485	32843	32717	32834	
358	0	32533	32535	32455	32541	32647	32773	32631	32611	
359	0	32455	32500	32470	32540	32615	32783	32647	32330	
360	0	32509	32630	32519	32423	32575	32807	32771	32036	
361	0	32492	32740	32518	32686	32687	32859	32734	32165	
362	0	32565	32455	32556	32843	32599	32751	32687	32570	
363	0	32494	32577	32506	32982	32693	32583	32663	32564	
364	0	32572	32565	32419	32867	32703	32609	32634	32589	
365	0	32758	32542	32471	32726	32711	32583	32811	32483	
366	0	32791	32260	32625	32757	32710	32749	32793	32190	
367	0	32788	32358	32669	32623	32694	32719	32836	32356	
368	0	32775	32407	32690	32619	32775	32742	32719	32131	
369	0	32830	32579	32775	32679	32647	32935	32855	31751	
370	0	32804	32527	32801	32620	32711	33051	32915	31903	
371	0	32761	32734	32791	32580	32599	33091	32843	32534	
372	0	32647	32827	32826	32674	32716	32930	32757	32983	
373	0	32769	32711	32807	32771	32679	32834	32827	33015	
374	0	32911	32997	32875	32811	32851	32500	32903	33317	
375	0	32929	32895	32974	32734	32700	32450	32933	32844	
376	0	32943	32898	32934	32870	32804	32543	32846	32783	
377	0	32959	32645	32891	32855	32804	32635	32813	33159	
378	0	32991	32765	32879	32831	32719	32762	32855	33159	
379	0	33114	32691	32871	32747	32861	32623	33091	33063	
380	0	33254	32839	33020	33030	32835	32501	33073	32691	
381	0	33460	32669	33221	33099	32873	32847	33207	32633	
382	0	33568	32912	33252	33207	32954	32831	33247	32542	
383	0	33535	33002	33265	33327	32955	32711	33155	32690	
384	0	33434	32851	33183	33218	32822	32709	32974	33023	
385	0	33263	32955	33027	33204	32850	32862	32803	33212	
386	0	33146	32947	32887	33003	32865	32822	32718	33191	
387	0	33104	32994	32919	33225	32573	32679	32583	33135	
388	0	33106	32831	32891	33199	32742	32799	32727	32639	
389	0	33078	32743	32846	32938	32670	32790	32831	32201	
390	0	33014	32850	32734	32983	32684	32698	32783	32089	
391	0	32845	32839	32634	32885	32757	32703	32701	32143	
392	0	32738	32939	32615	32822	32599	32582	32623	31975	
393	0	32622	32681	32599	32668	32643	32619	32463	32314	
394	0	32566	32647	32543	32418	32655	32939	32359	32787	
395	0	32546	32823	32591	32593	32423	32946	32381	33159	
396	0	32408	32895	32455	32525	32575	33095	32443	33367	
397	0	32357	33023	32530	32623	32610	32961	32669	33579	
398	0	32558	32679	32599	32500	32647	32755	32636	33759	
399	0	32548	32765	32617	32599	32597	32895	32527	33511	
400	0	32606	32899	32647	32722	32478	32831	32683	32937	
401	0	32594	32999	32653	32807	32690	32603	32613	32517	
402	0	32672	32711	32571	32804	32564	32644	32630	32441	
403	0	32642	32791	32599	32593	32743	32667	32614	32189	
404	0	32647	32874	32533	32619	32562	32607	32591	32053	
405	0	32641	32647	32643	32533	32734	32574	32623	32041	
406	0	32675	32751	32647	32579	32663	32743	32575	32515	
407	0	32703	32735	32619	32679	32703	32748	32548	33003	
408	0	32578	32883	32630	32585	32708	32763	32583	33031	
409	0	32665	32599	32627	32730	32739	32823	32594	32743	
410	0	32671	32764	32589	32711	32710	33049	32671	32487	
411	0	32614	32801	32609	32959	32679	33159	32695	32999	
412	0	32663	32733	32692	32943	32647	33111	32687	33341	
413	0	32639	32607	32703	32884	32547	33131	32775	33654	
414	0	32674	32740	32679	32837	32628	32775	32727	33626	
415	0	32674	32887	32677	32753	32580	32541	32689	32965	
416	0	32689	32638	32587	32843	32773	32534	32707	32439	
417	0	32718	32747	32627	32737	32647	32829	32765	32182	
418	0	32739	32830	32700	32647	32721	32903	32895	32423	
419	0	32763	32617	32667	32623	32715	32743	32877	32705	
420	0	32786	32799	32698	32581	32685	32741	32679	33339	
421	0	32716	32845	32751	32755	32625	32773	32586	33380	
422	0	32732	32551	32759	32754	32751	32795	32684	32866	
423	0	32767	32727	32679	32703	32754	32708	32821	32883	
424	0	32745	32647	32666	32391	32708	32631	32794	32941	
425	0	32775	32823	32747	32399	32685	32718	32502	33046	
426	0	32775	32583	32691	32466	32575	32714	32491	32775	
427	0	32765	32727	32772	32581	32687	32748	32615	32131	
428	0	32804	32815	32699	32673	32772	32659	32703	31967	
429	0	32778	32849	32619	32862	32691	32774	32775	31859	
430	0	32717	32655	32766	32914	32707	32813	32871	32044	
431	0	32707	32887	32676	33145	32732	32690	32791	32647	
432	0	32666	32869	32658	33007	32503	32821	32615	33324	
433	0	32660	32834	32689	33269	32647	32831	32519	33534	
434	0	32751	32823	32773	33207	32763	32797	32663	32983	
435	0	32722	32822	32723	33170	32603	32647	32700	32932	
436	0	32742	32687	32685	32876	32667	32771	32830	32823	
437	0	32736	32647	32655	32775	32679	32924	32894	32639	
438	0	32838	32699	32759	32543	32479	32841	32679	32807	
439	0	32703	32719	32749	32439	32726	32775	32655	32895	
440	0	32775	32799	32663	32283	32727	32671	32821	32555	
441	0	32735	32767	32605	32413	32527	32875	32804	32333	
442	0	32735	32775	32748	32365	32727	32847	32828	32391	
443	0	32775	32771	32739	32283	32663	32771	32801	32121	
444	0	32869	32868	32671	32487	32708	32754	32735	32423	
445	0	32775	32715	32658	32518	32763	32674	32635	32644	
446	0	32775	32535	32634	32517	32719	32594	32534	33059	
447	0	32791	32747	32691	32757	32821	32647	32647	33076	
448	0	32806	32795	32733	32724	32743	32789	32627	33281	
449	0	32788	32849	32697	32775	32661	32803	32578	33607	
450	0	32738	32671	32631	32966	32739	32636	32553	33743	
451	0	32752	32666	32646	32939	32703	32843	32575	33007	
452	0	32743	32675	32710	32957	32532	32903	32775	32277	
453	0	32727	32764	32775	32879	32620	32847	32935	32019	
454	0	32709	32759	32668	32876	32556	32831	32833	32374	
455	0	32726	32898	32667	32869	32733	32825	32703	32581	
456	0	32735	32867	32734	32698	32715	32749	32839	32309	
457	0	32738	32691	32733	32799	32551	32938	32803	32005	
458	0	32775	32621	32791	32719	32661	32941	32811	32165	
459	0	32862	32722	32686	32647	32607	32837	32671	32378	
460	0	32819	32772	32731	32797	32711	32923	32775	32607	
461	0	32790	32687	32751	32825	32727	32773	32567	33035	
462	0	32712	32895	32740	32855	32799	32610	32642	33287	
463	0	32690	32731	32619	32839	32835	32559	32644	33231	
464	0	32711	32682	32681	32976	32754	32684	32735	32955	
465	0	32753	32829	32759	33074	32579	32679	32694	32941	
466	0	32775	32807	32727	32827	32706	32660	32701	33191	
467	0	32815	32743	32593	32724	32717	32751	32791	32693	
468	0	32908	32719	32769	32843	32503	32854	32670	33069	
469	0	32775	32839	32727	32769	32751	32868	32639	32887	
470	0	32736	32903	32635	32804	32826	32575	32757	32606	
471	0	32734	32686	32639	32527	32679	32559	32732	32727	
472	0	32763	32749	32719	32574	32691	32755	32818	32723	
473	0	32727	32727	32775	32493	32612	32821	32739	32534	
474	0	32740	32743	32775	32479	32715	32903	32660	32749	
475	0	32663	32534	32786	32551	32583	32945	32615	32711	
476	0	32739	32703	32677	32643	32725	32891	32710	32894	
477	0	32768	32851	32674	32831	32769	32867	32806	32831	
478	0	32716	32841	32685	32703	32535	32911	32719	32715	
479	0	32721	32615	32703	32515	32647	32719	32727	32879	
480	0	32676	32727	32723	32599	32607	32667	32611	33053	
481	0	32759	32750	32669	32587	32771	32738	32583	32867	
482	0	32796	32866	32684	32739	32743	32567	32770	32579	
483	0	32790	32791	32775	32719	32568	32802	32775	32353	
484	0	32748	32786	32721	32899	32695	32771	32767	32799	
485	0	32743	32679	32775	32950	32775	32675	32749	32887	
486	0	32765	32863	32655	32856	32607	32860	32629	32767	
487	0	32764	32838	32659	32943	32647	32866	32538	32642	
488	0	32753	32791	32725	32919	32513	32759	32515	32687	
489	0	32741	32626	32743	32717	32678	32647	32623	32386	
490	0	32743	32790	32718	32790	32679	32726	32607	32605	
491	0	32804	32743	32705	32703	32830	32775	32567	32804	
492	0	32771	32746	32679	32567	32829	32763	32839	33035	
493	0	32769	32559	32708	32675	32599	32705	32903	33081	
494	0	32758	32565	32751	32755	32701	32816	32739	32836	
495	0	32775	32743	32703	32831	32775	32729	32679	32697	
496	0	32725	32812	32647	32725	32597	32711	32695	32583	
497	0	32679	32815	32634	32844	32613	32980	32805	32587	
498	0	32716	32658	32658	32903	32483	33103	32885	32835	
499	0	32823	32751	32675	32854	32694	32999	32821	33111	
500	0	32809	32903	32740	32863	32607	32829	32791	33263	
501	0	32786	32679	32769	32831	32810	32734	32766	33144	
502	0	32748	32775	32765	32881	32799	32647	32743	32823	
503	0	32734	32850	32806	32839	32637	32686	32727	32723	
504	0	32750	32791	32692	32814	32715	32623	32764	32477	
505	0	32707	32681	32647	32665	32665	32716	32567	32592	
506	0	32718	32839	32722	32647	32758	32676	32463	32567	
507	0	32738	32850	32671	32725	32799	32655	32587	32514	
508	0	32714	32919	32743	32748	32677	32577	32823	32601	
509	0	32751	32583	32668	32749	32627	32876	32721	32941	
510	0	32812	32815	32615	32647	32613	32919	32706	32655	
511	0	32759	32754	32732	32361	32767	32775	32791	32957	
512	0	32734	32855	32663	32445	32787	32647	32733	33245	
513	0	32742	32579	32687	32495	32647	32717	32621	33321	
514	0	32703	32763	32709	32513	32663	32707	32679	32763	
515	0	32665	32885	32663	32707	32519	32815	32762	32039	
516	0	32748	32662	32667	32839	32690	32738	32720	31839	
517	0	32758	32565	32758	32785	32695	32807	32603	31957	
518	0	32726	32773	32694	32921	32751	32788	32743	32105	
519	0	32791	32731	32743	32869	32625	32767	32743	32247	
520	0	32753	32809	32662	32943	32525	32991	32759	32483	
521	0	32806	32581	32666	32862	32695	33011	32719	32925	
522	0	32748	32754	32694	32822	32551	32890	32742	33483	
523	0	32699	32868	32715	32775	32673	32789	32743	33849	
524	0	32721	32732	32685	32869	32721	32819	32801	33643	
525	0	32798	32615	32727	32790	32711	32647	32675	33374	
526	0	32813	32727	32717	32706	32767	32471	32676	32955	
527	0	32805	32790	32675	32671	32699	32543	32583	32677	
528	0	32765	32724	32727	32715	32677	32717	32551	32487	
529	0	32738	32621	32709	32711	32718	32735	32695	32367	
530	0	32742	32782	32671	32605	32708	32783	32769	32263	
531	0	32772	32820	32677	32726	32678	32993	32790	32567	
532	0	32773	32700	32639	32831	32551	32839	32866	32609	
533	0	32780	32542	32719	32783	32723	32747	32806	32413	
534	0	32764	32743	32746	33012	32547	32735	32617	32711	
535	0	32756	32877	32711	33143	32647	32730	32671	32719	
536	0	32740	32677	32735	33061	32765	32799	32786	32799	
537	0	32729	32843	32699	33039	32736	32782	32934	33207	
538	0	32660	33021	32687	32775	32599	32717	32878	33467	
539	0	32690	32767	32694	32847	32783	32647	32799	33311	
540	0	32740	32813	32628	32687	32591	32723	32811	33138	
541	0	32759	32831	32685	32475	32647	32790	32551	32989	
542	0	32711	32662	32707	32579	32621	32767	32501	32836	
543	0	32727	32786	32783	32506	32739	32914	32570	32487	
544	0	32750	32785	32683	32315	32731	32794	32631	32311	
545	0	32723	32821	32679	32470	32584	32687	32742	32171	
546	0	32807	32606	32671	32375	32733	32687	32734	32088	
547	0	32795	32503	32621	32399	32789	32711	32647	32447	
548	0	32749	32713	32743	32436	32547	32687	32614	32767	
549	0	32804	32669	32724	32679	32695	32795	32567	33019	
550	0	32720	32807	32823	32663	32711	32871	32627	33175	
551	0	32754	32591	32717	32687	32598	32795	32621	32946	
552	0	32738	32725	32687	32771	32703	32817	32786	32179	
553	0	32722	32759	32770	32735	32485	32922	32791	32301	
554	0	32775	32690	32767	32711	32687	32987	32739	32642	
555	0	32794	32647	32711	32775	32563	33071	32845	32775	
556	0	32740	32807	32743	32733	32695	32995	32859	32711	
557	0	32771	32903	32772	32866	32599	32817	32864	32658	
558	0	32775	32687	32655	32755	32719	32709	32887	32731	
559	0	32724	32644	32601	32765	32759	32765	32762	33211	
560	0	32758	32811	32733	32927	32679	32734	32607	33571	
561	0	32805	32869	32683	32951	32679	32638	32597	33693	
562	0	32762	32727	32668	32935	32627	32515	32571	33447	
563	0	32820	32773	32695	32978	32732	32740	32500	33079	
564	0	32765	32821	32723	33027	32559	32807	32493	32391	
565	0	32793	32727	32673	33052	32775	32743	32439	32391	
566	0	32735	32591	32667	32975	32631	32539	32623	32439	
567	0	32762	32821	32690	32931	32797	32459	32673	32596	
568	0	32748	32895	32681	32865	32613	32583	32667	32661	
569	0	32770	32591	32791	32687	32754	32775	32759	32567	
570	0	32827	32725	32729	32551	32718	32811	32883	32191	
571	0	32792	32770	32791	32679	32579	32782	32834	32295	
572	0	32654	32897	32591	32698	32639	32825	32855	32407	
573	0	32701	32709	32631	32644	32493	33011	32815	32615	
574	0	32739	32614	32735	32645	32614	33047	32703	32935	
575	0	32703	32791	32694	32647	32519	32891	32769	33014	
576	0	32722	32831	32683	32551	32668	32761	32685	32869	
577	0	32727	32615	32747	32700	32613	32870	32685	32511	
578	0	32740	32535	32666	32735	32751	32910	32644	32663	
579	0	32766	32733	32637	32574	32867	32786	32599	33138	
580	0	32754	32751	32738	32682	32775	32711	32572	33263	
581	0	32823	32703	32829	32647	32722	32841	32519	33155	
582	0	32818	32533	32734	32583	32647	32839	32567	33125	
583	0	32748	32755	32743	32763	32791	32711	32719	32759	
584	0	32806	32893	32695	32807	32791	32639	32815	32169	
585	0	32848	32767	32719	32829	32819	32707	32930	32319	
586	0	32766	32612	32723	32794	32791	32729	32794	32731	
587	0	32676	32753	32639	32802	32770	32727	32918	32429	
588	0	32743	32749	32755	32687	32601	32787	32863	32463	
589	0	32738	32819	32759	32855	32723	32817	32730	32956	
590	0	32767	32765	32782	32783	32731	32647	32559	33021	
591	0	32775	32859	32633	32772	32621	32601	32563	33039	
592	0	32750	32821	32737	32738	32759	32738	32621	33039	
593	0	32784	32635	32727	32839	32725	32787	32662	32843	
594	0	32827	32633	32814	32865	32523	32934	32707	32306	
595	0	32793	32804	32663	32758	32735	32804	32671	32127	
596	0	32734	32787	32623	32836	32729	32813	32743	32370	
597	0	32784	32801	32767	32937	32487	32998	32601	32601	
598	0	32839	32817	32755	32691	32758	32818	32711	32666	
599	0	32800	32719	32771	32868	32877	32535	32703	33319	
600	0	32815	32599	32591	32911	32663	32559	32703	33567	
601	0	32772	32749	32659	32887	32742	32718	32751	32951	
602	0	32731	32846	32677	32870	32603	32940	32799	32474	
603	0	32727	32730	32711	32739	32767	32923	32819	32599	
604	0	32752	32613	32719	32756	32756	32966	32823	32571	
605	0	32711	32790	32695	32687	32551	32834	32817	32757	
606	0	32729	32767	32767	32655	32687	32754	32661	32901	
607	0	32761	32759	32711	32527	32659	32801	32642	32868	
608	0	32703	32609	32687	32492	32742	32775	32676	32975	
609	0	32698	32506	32799	32671	32693	32699	32607	33191	
610	0	32801	32761	32731	32643	32619	32663	32775	32878	
611	0	32870	32855	32711	32645	32803	32807	32847	32272	
612	0	32702	32901	32711	32543	32821	32738	32923	32047	
613	0	32775	32751	32837	32731	32611	32757	32751	32191	
614	0	32762	32515	32805	32713	32742	32823	32575	32607	
615	0	32731	32845	32783	32833	32719	32866	32619	32933	
616	0	32775	32895	32813	32771	32635	32751	32617	33365	
617	0	32781	32923	32663	32723	32761	32585	32721	33615	
618	0	32759	32819	32740	32626	32735	32614	32684	33311	
619	0	32782	32627	32730	32708	32605	32762	32713	32867	
620	0	32762	32747	32738	32775	32727	32786	32709	32647	
621	0	32783	32769	32666	32617	32767	32748	32642	32538	
622	0	32709	32775	32677	32807	32686	32730	32687	32455	
623	0	32749	32919	32679	32855	32763	32903	32759	32131	
624	0	32775	32719	32783	32757	32565	32871	32823	32164	
625	0	32795	32673	32733	32749	32695	32787	32771	32887	
626	0	32768	32795	32783	32835	32645	32671	32800	33174	
627	0	32829	32751	32687	32695	32699	32683	32747	33279	
628	0	32789	32775	32793	32789	32679	32745	32642	33370	
629	0	32801	32813	32727	32834	32719	32846	32523	33287	
630	0	32822	32879	32637	33023	32647	32763	32556	33029	
631	0	32790	32646	32646	32949	32715	32820	32679	32477	
632	0	32758	32559	32775	33015	32630	32773	32719	32035	
633	0	32775	32735	32739	32967	32667	32832	32962	31895	
634	0	32782	32787	32621	32793	32671	32821	32823	31981	
635	0	32868	32775	32671	32843	32703	32717	32767	32354	
636	0	32834	32895	32773	32700	32743	32773	32695	32827	
637	0	32804	32783	32716	32523	32695	32807	32717	32819	
638	0	32741	32615	32785	32599	32563	32749	32791	32532	
639	0	32854	32748	32805	32550	32719	32671	32679	32503	
640	0	32878	32903	32690	32615	32519	32703	32733	32550	
641	0	32918	32731	32642	32795	32766	32607	32748	33255	
642	0	32805	32791	32757	32583	32659	32646	32739	33373	
643	0	32786	32798	32783	32502	32679	32811	32754	32947	
644	0	32743	32775	32733	32391	32519	32811	32797	32819	
645	0	32727	32599	32765	32575	32647	32763	32756	32937	
646	0	32745	32814	32732	32669	32525	32747	32719	32983	
647	0	32723	32750	32714	32639	32639	33085	32797	32481	
648	0	32700	32742	32703	32819	32706	33103	32734	32455	
649	0	32753	32603	32692	32949	32647	32870	32831	32883	
650	0	32729	32775	32775	32959	32773	32681	32619	33735	
651	0	32775	32709	32711	32973	32560	32647	32613	33541	
652	0	32788	32858	32759	33011	32735	32579	32775	32937	
653	0	32819	32646	32715	33065	32679	32599	32871	32315	
654	0	32782	32775	32647	32983	32839	32535	32826	32431	
655	0	32811	32822	32583	32927	32801	32763	32738	32554	
656	0	32775	32874	32758	32775	32660	32807	32681	32742	
657	0	32789	32663	32631	32519	32743	32859	32677	32891	
658	0	32696	32623	32669	32661	32543	32765	32726	32783	
659	0	32701	32747	32669	32767	32633	32900	32598	32703	
660	0	32756	32831	32613	32570	32595	32951	32605	32903	
661	0	32668	32927	32663	32667	32735	32786	32658	32875	
662	0	32719	32695	32731	32719	32769	32791	32769	32575	
663	0	32760	32533	32718	32541	32626	32691	32789	32367	
664	0	32786	32638	32751	32666	32709	32717	32660	32647	
665	0	32755	32643	32771	32705	32531	32862	32701	32743	
666	0	32748	32587	32673	32757	32662	32706	32647	32804	
667	0	32758	32775	32646	32708	32574	32743	32645	32967	
668	0	32662	32731	32663	32727	32708	32803	32733	32709	
669	0	32679	32874	32767	32903	32679	32726	32737	32559	
670	0	32699	32733	32723	32680	32815	32643	32694	32091	
671	0	32743	32815	32740	32610	32660	32647	32559	31751	
672	0	32762	32933	32687	32895	32826	32429	32719	32004	
673	0	32749	32671	32771	32926	32813	32689	32708	32432	
674	0	32775	32683	32819	32759	32567	33217	32583	32837	
675	0	32759	32690	32703	32693	32308	33311	32647	33053	
676	0	32770	32785	32739	32854	32645	32988	32903	33550	
677	0	32756	32799	32687	32630	32683	32775	32829	33671	
678	0	32703	32687	32634	32487	32756	32804	32775	33357	
679	0	32759	32893	32607	32531	32687	32743	32647	33330	
680	0	32735	32875	32795	32546	32814	32587	32723	33105	
681	0	32727	32831	32701	32655	32775	32620	32706	32635	
682	0	32699	32634	32710	32607	32610	32713	32671	32591	
683	0	32726	32815	32725	32580	32701	32804	32711	32750	
684	0	32760	32827	32612	32812	32593	32692	32748	32851	
685	0	32769	32775	32620	32863	32719	32639	32741	32903	
686	0	32694	32587	32647	32995	32579	32775	32698	32993	
687	0	32660	32822	32771	32929	32727	32794	32599	33172	
688	0	32741	32754	32655	32903	32643	32711	32647	32827	
689	0	32717	32881	32709	32991	32767	32706	32655	32655	
690	0	32701	32671	32700	32930	32759	32790	32707	32478	
691	0	32766	32758	32679	32763	32626	32683	32659	32020	
692	0	32726	32775	32687	32839	32715	32803	32612	31988	
693	0	32799	32863	32647	32767	32612	32699	32666	32131	
694	0	32790	32599	32727	32647	32735	32835	32699	32263	
695	0	32769	32711	32745	32686	32540	33044	32769	32575	
696	0	32723	32749	32717	32615	32655	32929	32807	33303	
697	0	32752	32850	32693	32679	32775	32789	32749	33443	
698	0	32799	32583	32679	32629	32815	32775	32635	33347	
699	0	32765	32748	32733	32516	32736	32775	32642	33063	
700	0	32734	32786	32699	32507	32639	32643	32973	32683	
701	0	32754	32845	32711	32605	32771	32839	32811	32552	
702	0	32799	32635	32747	32641	32638	32947	32685	32617	
703	0	32834	32799	32679	32924	32775	32819	32701	32482	
704	0	32780	32947	32645	32943	32775	32561	32807	32071	
705	0	32789	32758	32725	32670	32615	32691	32846	32007	
706	0	32758	32790	32749	32701	32799	32738	32655	32647	
707	0	32815	32748	32763	32647	32646	32879	32493	33359	
708	0	32785	32590	32751	32839	32741	32710	32711	33617	
709	0	32770	32749	32711	32834	32574	32690	32959	32960	
710	0	32798	32726	32750	32853	32635	32937	32703	32475	
711	0	32690	32812	32630	32853	32547	32970	32603	32029	
712	0	32688	32689	32571	33005	32715	32799	32655	32335	
713	0	32706	32790	32647	32727	32722	32861	32813	32886	
714	0	32707	32843	32729	32830	32749	32804	32874	32850	
715	0	32716	32831	32727	32756	32733	32813	32789	32991	
716	0	32756	32615	32662	32831	32547	32775	32621	33391	
717	0	32731	32823	32717	32843	32709	32703	32655	33571	
718	0	32742	32924	32679	32745	32561	32981	32647	33332	
719	0	32713	32699	32775	32698	32718	33029	32735	33238	
720	0	32726	32647	32763	32710	32499	32959	32829	32895	
721	0	32703	32861	32674	32749	32647	32741	32799	32962	
722	0	32764	32899	32717	32711	32630	32479	32833	33203	
723	0	32824	32587	32771	32663	32660	32532	32658	32798	
724	0	32804	32711	32775	32551	32553	32655	32605	32610	
725	0	32829	32678	32695	32423	32710	32745	32591	32341	
726	0	32705	32692	32739	32641	32719	32711	32583	32287	
727	0	32764	32647	32693	32679	32744	32679	32489	32559	
728	0	32732	32559	32719	32615	32771	32743	32563	32833	
729	0	32767	32799	32725	32946	32612	32775	32615	32767	
730	0	32740	32717	32691	32941	32703	32811	32727	32633	
731	0	32687	32839	32747	32852	32545	32903	32743	32756	
732	0	32751	32679	32679	32698	32717	32839	32843	32584	
733	0	32767	32647	32694	32571	32754	32843	33004	32263	
734	0	32720	32836	32697	32546	32738	32819	32735	32291	
735	0	32742	32866	32719	32569	32829	32695	32725	32591	
736	0	32715	32622	32727	32719	32669	32667	32667	32713	
737	0	32724	32771	32703	32603	32672	32647	32575	32677	
738	0	32764	32839	32685	32427	32690	32709	32673	32589	
739	0	32735	32675	32671	32636	32739	32823	32551	32940	
740	0	32758	32631	32687	32703	32510	32751	32682	32897	
741	0	32753	32747	32740	32605	32743	32773	32788	32770	
742	0	32775	32852	32727	32706	32742	32695	32901	32746	
743	0	32748	32655	32740	32871	32773	32655	32814	32646	
744	0	32802	32783	32759	32811	32690	32717	32735	32575	
745	0	32820	32827	32749	32915	32763	32855	32743	32519	
746	0	32818	32625	32751	32871	32681	32899	32575	32914	
747	0	32757	32763	32722	32939	32735	32815	32487	33031	
748	0	32763	32819	32691	33041	32735	32811	32696	32894	
749	0	32735	32919	32668	32964	32590	32791	32785	32775	
750	0	32788	32705	32747	32983	32647	32773	32817	32791	
751	0	32754	32790	32759	32754	32615	32833	32795	32775	
752	0	32825	32819	32751	32815	32763	32869	32695	32991	
753	0	32748	32823	32695	32887	32583	32791	32669	32855	
754	0	32765	32681	32711	32827	32668	32679	32702	32823	
755	0	32711	32863	32711	32957	32685	32663	32751	32807	
756	0	32730	32791	32727	32863	32815	32631	32770	32646	
757	0	32864	32575	32719	32783	32772	32711	32827	32670	
758	0	32769	32775	32641	32615	32815	32759	32781	32525	
759	0	32810	32875	32619	32687	32635	32771	32698	32567	
760	0	32801	32671	32671	32471	32667	32875	32575	32996	
761	0	32775	32685	32691	32525	32581	32751	32647	33047	
762	0	32717	32702	32723	32643	32748	32879	32687	32461	
763	0	32751	32775	32704	32621	32623	33006	32775	32477	
764	0	32707	32547	32735	32724	32751	32829	32815	32775	
765	0	32711	32738	32647	32855	32775	32628	32719	32939	
766	0	32730	32766	32628	32719	32500	32627	32679	32711	
767	0	32754	32863	32643	32891	32692	32733	32621	32646	
768	0	32796	32603	32812	32884	32721	32719	32623	32997	
769	0	32759	32587	32751	32784	32621	32645	32581	33122	
770	0	32757	32735	32690	32998	32681	32871	32609	32941	
771	0	32766	32775	32641	32955	32708	32964	32659	32627	
772	0	32655	32767	32775	32998	32450	32919	32671	32663	
773	0	32766	32894	32734	32863	32678	32750	32578	32820	
774	0	32791	32748	32749	32765	32706	32895	32627	32638	
775	0	32832	32666	32647	32733	32738	33019	32727	32529	
776	0	32765	32818	32692	32700	32815	32915	32802	32815	
777	0	32718	32854	32599	32661	32593	32643	32775	33074	
778	0	32775	32823	32683	32551	32807	32517	32839	32991	
779	0	32799	32580	32727	32633	32609	32703	32727	32879	
780	0	32729	32727	32775	32583	32695	32860	32727	32883	
781	0	32757	32788	32751	32643	32658	32733	32762	32807	
782	0	32775	32845	32759	32436	32767	32547	32586	32753	
783	0	32697	32823	32811	32639	32743	32745	32791	32167	
784	0	32689	32635	32766	32447	32665	32819	32927	31941	
785	0	32638	32791	32763	32433	32540	32903	32903	31612	
786	0	32726	32713	32704	32563	32675	32819	32765	32163	
787	0	32817	32808	32687	32726	32706	32893	32546	32996	
788	0	32787	32596	32748	32647	32571	32759	32575	33095	
789	0	32781	32775	32705	32837	32750	32711	32612	33206	
790	0	32731	32761	32645	32725	32706	32749	32613	33863	
791	0	32836	32775	32671	32647	32452	32763	32643	34031	
792	0	32743	32721	32796	32668	32732	32675	32727	33699	
793	0	32759	32586	32751	32765	32767	32583	32807	33389	
794	0	32770	32615	32671	32775	32711	32543	32804	33359	
795	0	32754	32711	32637	32694	32669	32695	32582	32810	
796	0	32766	32722	32695	32670	32686	33060	32747	32082	
797	0	32771	32813	32663	32786	32558	33167	32847	31834	
798	0	32716	32775	32681	32772	32631	33136	32767	32187	
799	0	32758	32636	32655	32815	32715	33027	32759	32527	
800	0	32802	32862	32647	32951	32566	32687	32775	32547	
801	0	32781	32815	32742	33127	32775	32646	32757	32409	
802	0	32775	32918	32723	33099	32805	32519	32706	31877	
803	0	32775	32679	32772	32935	32767	32562	32621	32022	
804	0	32799	32775	32687	32980	32715	32708	32591	32500	
805	0	32722	32855	32646	32983	32543	32943	32639	32855	
806	0	32652	32876	32615	32716	32698	32971	32627	33145	
807	0	32739	32665	32711	32719	32738	32743	32599	33711	
808	0	32742	32798	32766	32631	32691	32563	32751	33069	
809	0	32698	32863	32721	32743	32761	32582	32823	32695	
810	0	32672	32611	32674	32619	32559	32827	32783	32439	
811	0	32713	32735	32743	32454	32703	32898	32719	32463	
812	0	32657	32754	32642	32567	32745	32775	32679	32851	
813	0	32715	32742	32636	32524	32789	32727	32698	33045	
814	0	32770	32525	32638	32493	32700	32682	32679	32869	
815	0	32754	32699	32739	32647	32575	32871	32525	32918	
816	0	32681	32756	32735	32764	32701	32927	32514	33635	
817	0	32738	32775	32719	32630	32759	32791	32639	33743	
818	0	32746	32748	32647	32791	32519	32775	32794	33320	
819	0	32767	32563	32605	32773	32655	32895	32887	32543	
820	0	32807	32763	32681	32786	32539	32955	32821	32233	
821	0	32839	32815	32739	32879	32723	32663	32791	32106	
822	0	32854	32721	32774	32871	32695	32630	32807	32059	
823	0	32775	32773	32747	33002	32715	32767	32922	32061	
824	0	32775	32815	32717	32950	32814	32756	32871	32303	
825	0	32736	32897	32764	32800	32523	32855	32783	32469	
826	0	32743	32953	32738	32887	32635	32831	32610	32727	
827	0	32782	32757	32703	32673	32629	32710	32587	33014	
828	0	32829	32620	32747	32674	32789	32595	32615	32972	
829	0	32818	32698	32736	32677	32767	32684	32901	32533	
830	0	32827	32718	32758	32575	32638	32771	32823	32539	
831	0	32731	32663	32693	32448	32631	32749	32727	33055	
832	0	32764	32815	32748	32559	32635	32807	32538	33358	
833	0	32716	32811	32749	32701	32617	32759	32571	33287	
834	0	32719	32703	32679	32851	32687	32797	32660	32710	
835	0	32716	32615	32713	32793	32723	32655	32748	32599	
836	0	32734	32807	32628	32891	32631	32747	32692	32527	
837	0	32779	32871	32677	32883	32735	32817	32655	32524	
838	0	32775	32845	32757	32871	32559	32866	32717	32431	
839	0	32775	32603	32775	32703	32687	32797	32773	32549	
840	0	32775	32765	32787	32767	32756	32855	32740	32801	
841	0	32805	32719	32643	32611	32635	32823	32721	33087	
842	0	32806	32813	32647	32747	32739	32900	32706	33353	
843	0	32795	32743	32691	32847	32619	32823	32803	33335	
844	0	32791	32580	32717	32751	32711	32829	32823	33343	
845	0	32797	32807	32758	32797	32747	32727	32807	33238	
846	0	32718	32835	32739	32759	32628	32621	32787	32973	
847	0	32722	32819	32702	32489	32747	32647	32751	32784	
848	0	32724	32871	32717	32615	32679	32879	32629	32533	
849	0	32797	32843	32719	32594	32807	32799	32678	32531	
850	0	32732	32603	32766	32631	32711	32687	32703	32534	
851	0	32771	32723	32683	32886	32519	32645	32795	32289	
852	0	32769	32809	32695	32955	32683	32655	32683	32507	
853	0	32812	32831	32699	32841	32623	32732	32707	32391	
854	0	32745	32759	32751	33005	32763	32698	32751	32323	
855	0	32739	32615	32683	32948	32789	32719	32679	32532	
856	0	32788	32559	32751	32855	32563	32860	32589	32615	
857	0	32735	32763	32675	32925	32726	32889	32687	32748	
858	0	32733	32775	32723	32957	32699	32852	32621	33238	
859	0	32716	32847	32719	32833	32597	32863	32750	32871	
860	0	32771	32789	32725	32730	32759	32736	32679	32915	
861	0	32735	33028	32647	32830	32740	32908	32685	32851	
862	0	32737	32911	32658	32703	32577	32805	32587	32689	
863	0	32751	32627	32747	32703	32647	32771	32665	32631	
864	0	32718	32787	32727	32714	32633	32674	32743	32647	
865	0	32784	32749	32703	32615	32723	32747	32691	32771	
866	0	32736	32887	32727	32599	32807	32773	32766	32607	
867	0	32734	32707	32645	32658	32568	32655	32845	32821	
868	0	32775	32581	32637	32695	32630	32843	32789	32870	
869	0	32764	32790	32663	32609	32574	32879	32694	32859	
870	0	32734	32919	32628	32671	32657	32867	32738	32228	
871	0	32698	32663	32631	32679	32566	32765	32801	32322	
872	0	32758	32732	32695	32617	32719	32623	32811	32103	
873	0	32749	32851	32757	32739	32527	32811	32783	32255	
874	0	32742	32763	32759	32594	32731	32937	32734	32943	
875	0	32768	32598	32819	32627	32735	32710	32658	33656	
876	0	32714	32775	32674	32781	32591	32443	32703	33471	
877	0	32791	32789	32695	32694	32751	32647	32788	32603	
878	0	32769	32747	32703	32771	32774	32735	32775	32214	
879	0	32765	32615	32694	32799	32727	32787	32598	32894	
880	0	32804	32835	32668	32681	32689	32774	32530	33247	
881	0	32771	32811	32775	32783	32535	32735	32530	33302	
882	0	32740	32935	32683	32790	32775	32599	32531	33107	
883	0	32759	32683	32714	32751	32747	32793	32627	33005	
884	0	32758	32759	32663	32859	32531	32882	32807	32822	
885	0	32744	32751	32663	32750	32672	32959	32738	32554	
886	0	32668	32812	32647	32690	32621	32845	32775	32807	
887	0	32724	32567	32668	32735	32791	32873	32726	32679	
888	0	32697	32751	32647	32707	32803	32871	32749	32460	
889	0	32700	32742	32709	32698	32509	32901	32844	32594	
890	0	32749	32795	32738	32875	32663	32775	32851	32692	
891	0	32791	32634	32781	32875	32483	32815	32783	33039	
892	0	32790	32819	32605	32879	32614	32885	32746	32852	
893	0	32775	32839	32621	32735	32533	32969	32759	32583	
894	0	32782	32723	32757	32587	32770	32759	32727	32417	
895	0	32815	32580	32815	32477	32799	32697	32667	32309	
896	0	32823	32758	32719	32623	32583	32644	32743	32275	
897	0	32839	32775	32783	32583	32767	32692	32591	32523	
898	0	32820	32719	32685	32599	32743	32733	32623	32719	
899	0	32720	32643	32647	32747	32784	32682	32655	32962	
900	0	32689	32727	32676	32695	32706	32775	32595	33190	
901	0	32771	32731	32676	32807	32756	32655	32619	33350	
902	0	32750	32567	32737	32887	32743	32549	32734	33356	
903	0	32763	32703	32775	32763	32646	32725	32710	33101	
904	0	32775	32847	32715	32663	32749	32882	32716	32815	
905	0	32772	32606	32709	32677	32574	32958	32851	32346	
906	0	32743	32803	32667	32727	32626	32896	32827	32355	
907	0	32748	32789	32733	32681	32559	32867	32734	32945	
908	0	32731	32748	32756	32595	32671	32814	32699	33287	
909	0	32804	32745	32799	32669	32490	32691	32694	33298	
910	0	32819	32767	32810	32662	32775	32641	32590	32959	
911	0	32799	32699	32707	32605	32557	32743	32571	32695	
912	0	32792	32699	32711	32698	32701	32815	32723	32563	
913	0	32663	32819	32743	32831	32687	32794	32836	32135	
914	0	32701	32893	32742	32879	32682	32772	32789	32159	
915	0	32703	32757	32716	32935	32723	32703	32703	32759	
916	0	32710	32823	32675	32893	32594	32655	32719	32947	
917	0	32731	32873	32637	32967	32699	32775	32761	32198	
918	0	32742	32684	32731	32935	32583	32834	32795	32256	
919	0	32764	32564	32717	32757	32660	32738	32775	32391	
920	0	32719	32741	32719	32822	32539	32786	32678	32671	
921	0	32780	32817	32635	32850	32699	32791	32647	33067	
922	0	32752	32598	32647	32806	32647	32773	32601	33039	
923	0	32709	32739	32617	32695	32691	32817	32603	32871	
924	0	32674	32900	32639	32591	32595	32823	32671	32870	
925	0	32726	32711	32674	32773	32815	32623	32819	32635	
926	0	32729	32815	32628	32851	32747	32791	32706	32902	
927	0	32767	32838	32629	32723	32727	32827	32813	32731	
928	0	32839	32700	32706	32917	32703	32676	32735	32823	
929	0	32863	32835	32756	32854	32731	32642	32710	32615	
930	0	32775	32875	32783	32759	32795	32687	32703	32599	
931	0	32813	32789	32827	32602	32828	32819	32770	32720	
932	0	32743	32551	32681	32638	32739	32847	32582	32915	
933	0	32721	32754	32799	32647	32513	32884	32612	32770	
934	0	32763	32775	32743	32827	32751	32817	32718	33015	
935	0	32726	32854	32821	32883	32814	32630	32709	33151	
936	0	32762	32691	32687	32599	32525	32775	32627	32922	
937	0	32715	32683	32698	32639	32659	32689	32644	32733	
938	0	32655	32847	32738	32633	32661	32751	32863	32463	
939	0	32708	32877	32775	32541	32735	32805	32850	32135	
940	0	32736	32623	32710	32679	32775	32844	32685	32359	
941	0	32831	32743	32743	32581	32617	32743	32743	32507	
942	0	32827	32775	32763	32407	32711	32711	32671	32687	
943	0	32807	32718	32607	32492	32579	32819	32747	32387	
944	0	32822	32498	32621	32647	32745	32840	32801	32431	
945	0	32839	32673	32703	32655	32751	32647	32711	33047	
946	0	32802	32751	32690	32851	32535	32581	32492	33391	
947	0	32726	32918	32687	32941	32716	32591	32621	32775	
948	0	32778	32633	32739	32859	32655	32676	32627	32804	
949	0	32769	32775	32679	32911	32757	32919	32771	33181	
950	0	32664	32931	32615	32903	32722	33159	32795	33159	
951	0	32705	32947	32717	32959	32490	33151	32679	33471	
952	0	32669	32775	32660	32843	32739	32903	32623	33605	
953	0	32687	32709	32703	32887	32786	32773	32747	33286	
954	0	32706	32997	32716	32727	32798	32559	32741	32854	
955	0	32729	32709	32749	32821	32718	32725	32695	32332	
956	0	32800	32684	32702	32818	32663	32811	32667	32466	
957	0	32797	32719	32743	32677	32683	32841	32694	33012	
958	0	32799	32807	32639	32816	32558	32647	32685	33777	
959	0	32794	32540	32806	32823	32775	32660	32740	33267	
960	0	32786	32611	32775	32775	32767	32897	32895	32596	
961	0	32750	32845	32733	33044	32727	32919	32703	32883	
962	0	32743	32743	32799	32871	32637	32879	32583	32607	
963	0	32778	32733	32789	32807	32605	33079	32627	31852	
964	0	32726	32902	32719	32854	32577	32791	32919	31938	
965	0	32728	32763	32723	32647	32763	32591	32887	32243	
966	0	32807	32804	32751	32621	32715	32683	32735	32562	
967	0	32802	32901	32735	32524	32692	32675	32687	32335	
968	0	32796	32815	32654	32607	32736	32762	32647	32634	
969	0	32801	32669	32709	32550	32571	32823	32679	32559	
970	0	32796	32735	32703	32385	32681	32821	32715	32339	
971	0	32804	32834	32846	32615	32725	32714	32799	32858	
972	0	32775	32638	32719	32743	32804	32647	32827	33415	
973	0	32743	32805	32713	32742	32775	32694	32802	33407	
974	0	32788	32759	32765	32833	32661	32715	32615	32965	
975	0	32805	32821	32668	32890	32717	32773	32626	32710	
976	0	32786	32637	32669	32722	32601	32669	32719	32495	
977	0	32667	32786	32684	32787	32713	32830	32549	32815	
978	0	32773	32763	32739	32679	32534	32834	32460	33149	
979	0	32767	32581	32740	32855	32767	32679	32725	32599	
980	0	32720	32676	32698	32831	32763	32741	32775	32314	
981	0	32756	32679	32685	32853	32699	32755	32613	32415	
982	0	32733	32847	32755	32743	32727	32721	32751	32521	
983	0	32796	32615	32679	32719	32625	32677	32663	32691	
984	0	32770	32805	32722	32549	32812	32612	32786	32794	
985	0	32743	32798	32743	32615	32807	32797	32775	33054	
986	0	32788	32813	32796	32751	32567	32879	32631	33098	
987	0	32737	32647	32699	32769	32573	32935	32701	32955	
988	0	32703	32862	32647	33063	32575	32695	32740	32815	
989	0	32700	32823	32578	32967	32759	32751	32791	32485	
990	0	32724	32829	32679	32783	32679	32817	32646	32223	
991	0	32726	32847	32658	32635	32601	32805	32647	32297	
992	0	32759	32548	32722	32640	32695	32775	32759	32437	
993	0	32745	32782	32717	32639	32567	32921	32799	32711	
994	0	32748	32855	32691	32637	32693	32862	32736	32951	
995	0	32778	32919	32767	32567	32812	32762	32679	32712	
996	0	32740	32630	32661	32590	32658	32703	32733	32655	
997	0	32756	32695	32711	32327	32690	32655	32814	32611	
998	0	32786	32756	32773	32397	32576	32679	32691	32936	
999	0	32696	32805	32759	32453	32671	32775	32509	33011	
1000	0	32794	32681	32743	32447	32766	32743	32415	33038	
1001	0	32774	32719	32751	32755	32809	32623	32493	33122	
1002	0	32730	32767	32676	32850	32743	32743	32647	32929	
1003	0	32742	32871	32657	32775	32503	32861	32730	33271	
1004	0	32738	32691	32702	33007	32736	32829	32813	33359	
1005	0	32730	32751	32674	33061	32590	33031	32704	33348	
1006	0	32701	32743	32647	33011	32647	32841	32887	32645	
1007	0	32788	32879	32667	32996	32692	32919	32971	31991	
1008	0	32806	32679	32683	32927	32657	32790	32958	32159	
1009	0	32786	32631	32672	32869	32647	32871	32843	32377	
1010	0	32726	32877	32775	32655	32529	32957	32743	32315	
1011	0	32763	32891	32721	32695	32715	32839	32689	32071	
1012	0	32756	32887	32732	32683	32753	32845	32717	32427	
1013	0	32740	32606	32820	32775	32647	32695	32669	33004	
1014	0	32749	32756	32663	32695	32695	32802	32764	32799	
1015	0	32766	32835	32595	32823	32575	32707	32751	32699	
1016	0	32752	32873	32727	32947	32743	32607	32647	33230	
1017	0	32782	32739	32719	32831	32821	32640	32591	33338	
1018	0	32759	32515	32764	32931	32647	32678	32615	33251	
1019	0	32793	32765	32706	32915	32775	32733	32647	32738	
1020	0	32798	32831	32659	32842	32695	32702	32719	32962	
1021	0	32828	32804	32763	32775	32715	32685	32593	33191	
1022	0	32771	32858	32732	33001	32746	32593	32622	32582	
1023	0	32830	32727	32718	32959	32772	32766	32683	32435	
1024	0	32717	32701	32702	32903	32685	32730	32817	32445	
1025	0	32716	32773	32742	32655	32706	32661	32767	33021	
1026	0	32719	32797	32667	32735	32762	32887	32707	33159	
1027	0	32720	32817	32615	32646	32507	32903	32718	32915	
1028	0	32729	32963	32602	32615	32691	32775	32775	32702	
1029	0	32735	32783	32677	32491	32753	32902	32701	32415	
1030	0	32722	32687	32669	32493	32525	32764	32751	32279	
1031	0	32756	32577	32703	32487	32717	32756	32767	32339	
1032	0	32797	32621	32727	32538	32683	32917	32714	32579	
1033	0	32747	32815	32839	32523	32510	32850	32727	32597	
1034	0	32813	32823	32669	32615	32754	32687	32753	32743	
1035	0	32761	32722	32743	32623	32783	32743	32775	32839	
1036	0	32761	32775	32735	32683	32783	32882	32733	32772	
1037	0	32800	32749	32641	32815	32671	32796	32727	32841	
1038	0	32838	32683	32741	32922	32647	32711	32719	33063	
1039	0	32743	32821	32783	32775	32759	32799	32507	33157	
1040	0	32773	32507	32695	32809	32636	32837	32559	33015	
1041	0	32748	32767	32726	32794	32690	32855	32647	32773	
1042	0	32713	32773	32642	32615	32711	32723	32583	32902	
1043	0	32719	32787	32619	32731	32557	32747	32519	32787	
1044	0	32719	32677	32717	32787	32675	32783	32623	32566	
1045	0	32689	32804	32811	32758	32609	32647	32703	32275	
1046	0	32723	32846	32767	32818	32722	32655	32767	32519	
1047	0	32707	32791	32755	32694	32670	32662	32669	32573	
1048	0	32769	32839	32647	32551	32615	32679	32679	33005	
1049	0	32782	32799	32679	32667	32807	32852	32647	32939	
1050	0	32742	32659	32719	32773	32757	32903	32666	32495	
1051	0	32679	32821	32670	32879	32638	33019	32801	32109	
1052	0	32781	32856	32765	32947	32701	32817	32724	32094	
1053	0	32743	32763	32782	33103	32559	32647	32620	32047	
1054	0	32698	32643	32631	33185	32621	32959	32641	32327	
1055	0	32735	32595	32751	32902	32687	32771	32764	32511	
1056	0	32713	32812	32735	32989	32807	32615	32851	32916	
1057	0	32769	32647	32605	32903	32725	32830	32754	33202	
1058	0	32766	32827	32791	32850	32731	32831	32722	33829	
1059	0	32729	32791	32755	32662	32647	32415	32743	33887	
1060	0	32783	32875	32766	32588	32775	32598	32775	33463	
1061	0	32801	32677	32742	32491	32751	32647	32707	33170	
1062	0	32749	32622	32749	32543	32715	32975	32743	33005	
1063	0	32782	32735	32759	32647	32686	32996	32683	33078	
1064	0	32775	32862	32711	32631	32619	32663	32667	33115	
1065	0	32774	32623	32587	32619	32839	32655	32621	33375	
1066	0	32708	32463	32702	32606	32615	32559	32633	33187	
1067	0	32775	32690	32755	32685	32799	32628	32771	32933	
1068	0	32794	32831	32735	32763	32629	32881	32832	32538	
1069	0	32770	32807	32717	32851	32683	33007	32813	32399	
1070	0	32828	32621	32695	32811	32645	32939	32886	32279	
1071	0	32832	32531	32679	32903	32580	32646	32789	32175	
1072	0	32791	32858	32795	32811	32647	32851	32717	31751	
1073	0	32683	32866	32713	32895	32735	32738	32759	31846	
1074	0	32738	32699	32735	32711	32807	32577	32665	32359	
1075	0	32775	32762	32689	32671	32719	32533	32471	32855	
1076	0	32764	32721	32693	32626	32687	32743	32365	33401	
1077	0	32735	32815	32775	32551	32741	32917	32516	33627	
1078	0	32686	32719	32638	32703	32598	32811	32809	33386	
1079	0	32712	32573	32718	32662	32711	32914	32715	33411	
1080	0	32633	32854	32663	32716	32657	33078	32763	32887	
1081	0	32702	32871	32662	32594	32563	33001	32679	32860	
1082	0	32709	32838	32626	32847	32727	32902	32663	32646	
1083	0	32709	32894	32631	32718	32703	32875	32699	32339	
1084	0	32718	32787	32646	32785	32487	32879	32859	32115	
1085	0	32734	32613	32706	32899	32676	32850	32771	32364	
1086	0	32732	32799	32691	32918	32715	32639	32639	32596	
1087	0	32775	32773	32660	32895	32711	32465	32647	32617	
1088	0	32697	32931	32799	32805	32790	32587	32719	32663	
1089	0	32736	32641	32751	32998	32798	32771	32599	32621	
1090	0	32839	32621	32751	32949	32703	32738	32583	32695	
1091	0	32727	32667	32743	32854	32804	32573	32814	32471	
1092	0	32711	32855	32629	32785	32527	32677	32802	32231	
1093	0	32762	32671	32667	32749	32749	32826	32711	32583	
1094	0	32774	32519	32749	32604	32811	32725	32661	32676	
1095	0	32734	32523	32671	32357	32530	32693	32743	32724	
1096	0	32751	32751	32735	32237	32671	32981	32789	32935	
1097	0	32762	32947	32771	32427	32514	32935	32639	33647	
1098	0	32787	32723	32675	32471	32767	32629	32871	33500	
1099	0	32759	32831	32807	32767	32666	32715	32871	33119	
1100	0	32824	32855	32851	32854	32716	32775	32819	33073	
1101	0	32797	32687	32850	32791	32711	32642	32733	33111	
1102	0	32759	32914	32819	32980	32715	32564	32643	33106	
1103	0	32783	32831	32818	32986	32770	32655	32599	32828	
1104	0	32853	32815	32812	33052	32642	32839	32567	32525	
1105	0	32806	32743	32823	33074	32666	32917	32515	32466	
1106	0	32775	32885	32695	33118	32647	32967	32673	32263	
1107	0	32713	32893	32605	32797	32647	32895	32797	32106	
1108	0	32653	32995	32679	32837	32723	32955	32660	32211	
1109	0	32643	32871	32743	32893	32587	32821	32537	32277	
1110	0	32669	32759	32742	32875	32560	32901	32419	32420	
1111	0	32658	32934	32770	32602	32626	32999	32560	32274	
1112	0	32660	32903	32623	32674	32524	32971	32607	32319	
1113	0	32660	32875	32565	32749	32646	32863	32671	32461	
1114	0	32668	32943	32701	32751	32717	32886	32617	32982	
1115	0	32647	32643	32631	32661	32582	32997	32613	33470	
1116	0	32555	32807	32615	32690	32711	32815	32623	34119	
1117	0	32564	32674	32495	32692	32474	32799	32567	34125	
1118	0	32514	32707	32478	32590	32631	32641	32643	33631	
1119	0	32612	32454	32467	32662	32631	32567	32647	33303	
1120	0	32513	32594	32487	32532	32719	32571	32635	33031	
1121	0	32448	32580	32516	32551	32687	32522	32628	32329	
1122	0	32455	32635	32551	32365	32563	32591	32607	32017	
1123	0	32459	32559	32573	32509	32576	32676	32628	32181	
1124	0	32527	32515	32479	32601	32639	32757	32517	32702	
1125	0	32499	32583	32398	32551	32747	32879	32637	32761	
1126	0	32529	32503	32516	32509	32742	32973	32749	32295	
1127	0	32639	32519	32518	32596	32623	32810	32711	32463	
1128	0	32749	32359	32615	32535	32795	32775	32707	32255	
1129	0	32689	32311	32582	32627	32866	32602	32756	32525	
1130	0	32764	32435	32527	32509	32686	32503	32655	32847	
1131	0	32797	32599	32569	32700	32677	32759	32571	33135	
1132	0	32785	32623	32713	32595	32575	32725	32605	33379	
1133	0	32723	32573	32693	32518	32737	32647	32791	32638	
1134	0	32712	32833	32676	32639	32581	32878	32923	32347	
1135	0	32899	32805	32819	32671	32751	32979	33113	32478	
1136	0	32952	32927	32977	32727	32833	32745	33181	32455	
1137	0	32975	32735	32979	32861	32862	32767	33075	32525	
1138	0	32903	32699	32854	33125	32749	32711	33043	32467	
1139	0	32966	32788	32823	33273	32581	32855	32926	32345	
1140	0	33057	32817	32786	33213	32756	32887	32950	32607	
1141	0	33155	32798	32967	33343	32619	32831	32987	32733	
1142	0	33260	32642	33022	33343	32867	32655	33113	32771	
1143	0	33399	32931	33197	33267	32783	32471	33279	32765	
1144	0	33513	32983	33250	33281	33004	32481	33251	32850	
1145	0	33518	32733	33274	33154	32875	32486	33191	32706	
1146	0	33471	32908	33207	33023	32853	32720	33053	32631	
1147	0	33318	32963	33066	32755	32890	32698	32935	32543	
1148	0	33175	32855	33015	32671	32867	32598	32823	32636	
1149	0	33116	32941	33038	32775	32839	32703	32775	32631	
1150	0	33081	32959	32991	32679	32745	32634	32783	32610	
1151	0	33071	32795	32889	32711	32903	32587	32852	32499	
1152	0	32960	32703	32838	32661	32829	32623	32681	32601	
1153	0	32810	32835	32750	32647	32583	32812	32628	33047	
1154	0	32719	32939	32619	32655	32647	32903	32445	33463	
1155	0	32592	32727	32556	32625	32557	32978	32431	33294	
1156	0	32592	32847	32573	32621	32551	32999	32383	33063	
1157	0	32471	32959	32495	32601	32583	32983	32471	32647	
1158	0	32527	32711	32525	32597	32415	32933	32391	32563	
1159	0	32524	32863	32559	32770	32624	32869	32557	32614	
1160	0	32540	32871	32679	32754	32598	32855	32687	32619	
1161	0	32620	32850	32659	32669	32597	32887	32631	33047	
1162	0	32620	32674	32564	32825	32647	32731	32626	32950	
1163	0	32647	32919	32566	32796	32775	32735	32775	32467	
1164	0	32676	32869	32692	32816	32707	32687	32599	32975	
1165	0	32623	32919	32613	32935	32477	32743	32445	33231	
1166	0	32521	32855	32549	32839	32663	32799	32562	32790	
1167	0	32487	32859	32567	32839	32500	32722	32647	32919	
1168	0	32561	32775	32643	32963	32621	32717	32615	32507	
1169	0	32580	32837	32687	32803	32561	32725	32658	31685	
1170	0	32623	32532	32742	32666	32699	32791	32738	31367	
1171	0	32602	32719	32615	32657	32647	32919	32631	31743	
1172	0	32671	32787	32615	32502	32692	33050	32706	32091	
1173	0	32698	32583	32605	32339	32557	33069	32769	32829	
1174	0	32743	32734	32626	32378	32693	32839	32774	34116	
1175	0	32768	32709	32722	32391	32755	32599	32757	34468	
1176	0	32766	32775	32775	32419	32772	32647	32647	33825	
1177	0	32762	32503	32731	32610	32790	32748	32763	33479	
1178	0	32822	32692	32757	32687	32683	32631	32795	33466	
1179	0	32799	32795	32733	32587	32822	32615	32767	33367	
1180	0	32779	32599	32711	32742	32615	32823	32706	33302	
1181	0	32862	32679	32724	32877	32647	32871	32655	32933	
1182	0	32686	32799	32660	32735	32453	32890	32647	32686	
1183	0	32668	32903	32617	32751	32624	32839	32669	32399	
1184	0	32692	32638	32671	32715	32599	32838	32695	32019	
1185	0	32685	32797	32699	32775	32702	32867	32797	32071	
1186	0	32679	32819	32639	32847	32724	32719	32751	32543	
1187	0	32738	32861	32665	32679	32810	32511	32647	32986	
1188	0	32729	32951	32615	32831	32694	32766	32676	32731	
1189	0	32720	32687	32589	32822	32535	32734	32724	32167	
1190	0	32751	32799	32702	32875	32671	32775	32725	32037	
1191	0	32877	32742	32775	32999	32727	32693	32674	32079	
1192	0	32818	32687	32803	32949	32775	32839	32626	32383	
1193	0	32775	32617	32743	32951	32799	32914	32690	32439	
1194	0	32759	32749	32759	32819	32658	32987	32773	32737	
1195	0	32791	32733	32745	32928	32739	32686	32567	33765	
1196	0	32765	32851	32695	32863	32643	32548	32575	33791	
1197	0	32718	32663	32677	32855	32690	32682	32655	33230	
1198	0	32775	32813	32673	32769	32519	32681	32741	32830	
1199	0	32792	32823	32607	32583	32685	32749	32647	32715	
1200	0	32753	32599	32671	32647	32483	32799	32803	32391	
1201	0	32746	32771	32703	32518	32677	32865	32968	32429	
1202	0	32709	32806	32639	32407	32756	32815	32757	32766	
1203	0	32694	32791	32639	32375	32638	32639	32603	33074	
1204	0	32687	32715	32660	32607	32679	32758	32615	32679	
1205	0	32639	32533	32605	32587	32519	32748	32693	32333	
1206	0	32760	32686	32667	32578	32759	32647	32563	32806	
1207	0	32726	32831	32670	32758	32691	32483	32591	32851	
1208	0	32785	32735	32738	32724	32803	32571	32527	33187	
1209	0	32726	32629	32688	32875	32647	32813	32603	32786	
1210	0	32712	32847	32724	32790	32695	32919	32727	32211	
1211	0	32742	32821	32775	32783	32719	32985	32711	31943	
1212	0	32695	32791	32727	32831	32683	33071	32692	32551	
1213	0	32715	32711	32637	32802	32703	33057	32807	33095	
1214	0	32686	32799	32663	32863	32533	32992	32903	33308	
1215	0	32738	32795	32683	32639	32661	32891	32855	33354	
1216	0	32772	32763	32729	32789	32749	32775	32902	33149	
1217	0	32766	32799	32738	32727	32622	32645	32804	32895	
1218	0	32761	32827	32711	32927	32714	32695	32519	32839	
1219	0	32663	32647	32717	32826	32659	32902	32530	32507	
1220	0	32832	32731	32759	33003	32700	32897	32477	32571	
1221	0	32801	32749	32675	32775	32765	32691	32677	32783	
1222	0	32764	32887	32677	32671	32621	32687	32932	32787	
1223	0	32731	32741	32736	32791	32687	32749	32874	32610	
1224	0	32775	32837	32666	32629	32625	32807	32709	32775	
1225	0	32757	32863	32694	32590	32732	32726	32869	32429	
1226	0	32743	32738	32639	32827	32619	32719	32871	32202	
1227	0	32759	32570	32663	32775	32631	32919	32724	32335	
1228	0	32729	32735	32751	32598	32588	32658	32745	32319	
1229	0	32855	32765	32771	32571	32727	32685	32571	32910	
1230	0	32808	32773	32763	32445	32767	32639	32564	32871	
1231	0	32793	32557	32815	32215	32847	32711	32674	33191	
1232	0	32719	32579	32687	32351	32797	32639	32879	32919	
1233	0	32677	32863	32671	32450	32588	32491	32769	32818	
1234	0	32700	32854	32775	32462	32783	32711	32551	32890	
1235	0	32724	32853	32725	32659	32645	32823	32569	32598	
1236	0	32740	32741	32691	32769	32505	32733	32691	32531	
1237	0	32756	32583	32655	32926	32718	32786	32658	32721	
1238	0	32717	32759	32587	32862	32740	32862	32903	32525	
1239	0	32756	32740	32735	33111	32647	32775	32902	32583	
1240	0	32749	32970	32724	33196	32684	32771	32815	32239	
1241	0	32710	32738	32735	33143	32495	32805	32663	32686	
1242	0	32735	32671	32775	33172	32621	32823	32578	32989	
1243	0	32767	32775	32735	33014	32694	32838	32579	33468	
1244	0	32844	32799	32749	33029	32553	33117	32717	33087	
1245	0	32749	32839	32677	32916	32642	33121	32740	33101	
1246	0	32742	32685	32633	32861	32585	32719	32775	33370	
1247	0	32733	32620	32678	32791	32788	32679	32775	33159	
1248	0	32766	32818	32623	32662	32813	32582	32685	33025	
1249	0	32743	32801	32619	32721	32658	32610	32561	32771	
1250	0	32757	32759	32698	32708	32766	32794	32619	32702	
1251	0	32794	32522	32739	32519	32566	32823	32638	32607	
1252	0	32694	32772	32709	32647	32710	32900	32634	32808	
1253	0	32722	32822	32703	32639	32647	32573	32637	33232	
1254	0	32807	32839	32715	32567	32816	32387	32607	33357	
1255	0	32747	32527	32743	32544	32619	32662	32639	32854	
1256	0	32780	32717	32819	32388	32679	32843	32647	32370	
1257	0	32780	32863	32738	32534	32563	32766	32689	32241	
1258	0	32807	32590	32695	32484	32729	32703	32599	32591	
1259	0	32746	32749	32695	32583	32585	32699	32633	32447	
1260	0	32748	32814	32805	32603	32751	32710	32619	32550	
1261	0	32743	32743	32758	32711	32581	32847	32687	32570	
1262	0	32699	32846	32708	33015	32773	32764	32647	32818	
1263	0	32757	32838	32621	33085	32535	32865	32599	32863	
1264	0	32719	33008	32723	33146	32703	32931	32829	32306	
1265	0	32704	32796	32647	32943	32724	33039	32911	32315	
1266	0	32765	32629	32617	33026	32626	32821	32745	32620	
1267	0	32768	32690	32754	33022	32703	32789	32719	32591	
1268	0	32782	32748	32723	32935	32550	32787	32795	32644	
1269	0	32741	32775	32711	32827	32684	32775	32751	32767	
1270	0	32743	32767	32726	32647	32735	32813	32605	32839	
1271	0	32745	32587	32679	32829	32721	32843	32647	32903	
1272	0	32758	32760	32679	32813	32708	32851	32691	33007	
1273	0	32751	32826	32741	32711	32583	32711	32773	32971	
1274	0	32731	32919	32700	32713	32694	32727	32749	32763	
1275	0	32743	32791	32799	32663	32713	32723	32740	32407	
1276	0	32775	32654	32663	32515	32769	32694	32671	32427	
1277	0	32729	32803	32623	32455	32631	32734	32729	32571	
1278	0	32784	32871	32643	32500	32775	32807	32756	32771	
1279	0	32810	32565	32693	32489	32583	32764	32679	32991	
1280	0	32742	32821	32711	32675	32692	32834	32717	32811	
1281	0	32771	32876	32677	32799	32715	32666	32647	32903	
1282	0	32815	32731	32684	32775	32855	32668	32679	33023	
1283	0	32771	32853	32695	32686	32733	32603	32662	33155	
1284	0	32775	32854	32701	32587	32647	32759	32773	32687	
1285	0	32713	32647	32711	32911	32527	32787	32716	32711	
1286	0	32708	32739	32700	32786	32631	32791	32726	32677	
1287	0	32722	32723	32775	33017	32531	32743	32703	32391	
1288	0	32679	32519	32797	32954	32699	32869	32749	32401	
1289	0	32681	32703	32679	32735	32729	32775	32647	33266	
1290	0	32725	32799	32615	32847	32815	32775	32747	32895	
1291	0	32687	32895	32735	32718	32845	32850	32667	32986	
1292	0	32741	32671	32735	32617	32677	32570	32599	33263	
1293	0	32726	32797	32679	32751	32761	32692	32738	32551	
1294	0	32800	32796	32727	32711	32749	32765	32762	31853	
1295	0	32724	32607	32749	32605	32731	32728	32674	31870	
1296	0	32743	32711	32751	32409	32737	32695	32614	32359	
1297	0	32722	32823	32743	32415	32539	32882	32508	32127	
1298	0	32796	32543	32797	32719	32775	33018	32635	32199	
1299	0	32854	32775	32775	32758	32519	33027	32914	32103	
1300	0	32834	32871	32781	32879	32711	33031	32836	32771	
1301	0	32748	32677	32671	32927	32678	33025	32757	33117	
1302	0	32739	32815	32634	32919	32765	32973	32715	34055	
1303	0	32767	32863	32739	33183	32839	32565	32623	34708	
1304	0	32739	32859	32809	32971	32647	32505	32581	34402	
1305	0	32734	32605	32699	32795	32647	32598	32631	34035	
1306	0	32765	32829	32639	32797	32589	32612	32555	33047	
1307	0	32708	32983	32703	32749	32765	32662	32647	32327	
1308	0	32703	32655	32677	32659	32647	32775	32675	32111	
1309	0	32658	32789	32647	32643	32743	32831	32763	32053	
1310	0	32738	32889	32663	32479	32511	32751	32726	32263	
1311	0	32797	32621	32700	32671	32663	32775	32663	32477	
1312	0	32793	32751	32655	32663	32559	32839	32599	32441	
1313	0	32775	32876	32637	32608	32775	32727	32546	32629	
1314	0	32859	32628	32671	32693	32582	32703	32570	32863	
1315	0	32805	32559	32611	32622	32667	32823	32591	32863	
1316	0	32781	32775	32643	32711	32559	32775	32647	32519	
1317	0	32795	32753	32679	32811	32740	32743	32635	32511	
1318	0	32727	32719	32692	32759	32628	32731	32607	32998	
1319	0	32775	32687	32733	32685	32754	32647	32687	32943	
1320	0	32757	32787	32791	32683	32534	32804	32645	32482	
1321	0	32735	32591	32727	32758	32559	32978	32711	32199	
1322	0	32748	32847	32723	32671	32545	32890	32663	32635	
1323	0	32767	32860	32775	32695	32628	32807	32615	33129	
1324	0	32719	32655	32735	32713	32583	32775	32559	32527	
1325	0	32818	32735	32748	32611	32787	32715	32655	32239	
1326	0	32787	32775	32830	32723	32635	32623	32567	32515	
1327	0	32785	32571	32719	32764	32743	32671	32679	32797	
1328	0	32759	32667	32683	32519	32580	32735	32711	32919	
1329	0	32733	32743	32716	32621	32759	32727	32763	33066	
1330	0	32686	32687	32641	32695	32578	32677	32759	33184	
1331	0	32754	32793	32729	32791	32685	32731	32756	32898	
1332	0	32791	32698	32729	32775	32620	32661	32631	32575	
1333	0	32743	32775	32703	32679	32717	32701	32703	32425	
1334	0	32721	32599	32675	32643	32583	32743	32797	31879	
1335	0	32766	32718	32686	32583	32647	32834	32535	32567	
1336	0	32775	32834	32690	32743	32595	32973	32540	33191	
1337	0	32690	32730	32711	32775	32659	33127	32735	33159	
1338	0	32711	32817	32583	32917	32493	32862	32828	33039	
1339	0	32775	32775	32636	32917	32699	32707	32839	32727	
1340	0	32784	32671	32679	33006	32577	32695	32790	32617	
1341	0	32726	32911	32695	32951	32726	32784	32805	32509	
1342	0	32781	32855	32708	32933	32467	32965	32733	32706	
1343	0	32690	32755	32683	33027	32663	32916	32708	32983	
1344	0	32703	32685	32754	32955	32461	32919	32900	33123	
1345	0	32698	32839	32759	32992	32671	32849	32949	33235	
1346	0	32766	32887	32775	32871	32530	32839	32785	33229	
1347	0	32663	32626	32852	32795	32692	32831	32662	33343	
1348	0	32759	32763	32703	32710	32679	32669	32743	33285	
1349	0	32745	32786	32628	32679	32823	32655	32647	32912	
1350	0	32690	32852	32667	32717	32795	32639	32749	32201	
1351	0	32714	32615	32695	32722	32666	32775	32743	31907	
1352	0	32751	32807	32751	32647	32699	32919	32669	32134	
1353	0	32795	32804	32732	32642	32578	32775	32764	32575	
1354	0	32869	32608	32695	32443	32713	32519	32793	32925	
1355	0	32708	32823	32711	32551	32658	32475	32775	32903	
1356	0	32724	32804	32727	32455	32686	32843	32721	32678	
1357	0	32748	32694	32804	32558	32658	32748	32725	32582	
1358	0	32811	32603	32678	32551	32740	32647	32596	32679	
1359	0	32841	32719	32635	32565	32604	32751	32583	32858	
1360	0	32801	32655	32723	32775	32654	32773	32738	32943	
1361	0	32834	32551	32655	32891	32528	32855	32843	32903	
1362	0	32798	32807	32615	32941	32727	32799	32724	33175	
1363	0	32839	32890	32663	32871	32660	32695	32615	33287	
1364	0	32773	32653	32703	32958	32731	32679	32655	32927	
1365	0	32783	32783	32708	32735	32675	32597	32623	32571	
1366	0	32741	32827	32715	32803	32731	32788	32613	32405	
1367	0	32768	32767	32659	32823	32751	32879	32606	32244	
1368	0	32731	32599	32789	32629	32577	32871	32686	32399	
1369	0	32747	32543	32659	32807	32719	32811	32623	32525	
1370	0	32756	32743	32643	32919	32821	32623	32639	32435	
1371	0	32785	32855	32715	32642	32679	32658	32703	32199	
1372	0	32747	32639	32699	32740	32739	32794	32775	32635	
1373	0	32757	32850	32733	32829	32543	32775	32843	32999	
1374	0	32698	33055	32727	32799	32647	32923	32782	32947	
1375	0	32751	32795	32719	32711	32519	32815	32707	33263	
1376	0	32695	32629	32799	32471	32759	32775	32647	33783	
1377	0	32732	32811	32743	32687	32810	32775	32691	33411	
1378	0	32805	32767	32698	32733	32569	32901	32739	32647	
1379	0	32759	32903	32738	32691	32711	33047	32818	32566	
1380	0	32710	32719	32757	32756	32682	32911	32759	32575	
1381	0	32851	32531	32731	32727	32634	32903	32839	32765	
1382	0	32834	32767	32743	32679	32701	32692	32751	32963	
1383	0	32774	32789	32791	32813	32659	32723	32775	32941	
1384	0	32762	32620	32845	32662	32710	32641	32699	32657	
1385	0	32839	32828	32795	32731	32642	32723	32739	32773	
1386	0	32855	32902	32711	32597	32787	32679	32623	32791	
1387	0	32857	32635	32756	32733	32775	32652	32690	32763	
1388	0	32862	32573	32795	32738	32531	32751	32775	32525	
1389	0	32838	32738	32702	32707	32724	32751	32731	32484	
1390	0	32826	32805	32615	32770	32767	32838	32751	32567	
1391	0	32816	32762	32643	32583	32586	32797	32739	32610	
1392	0	32796	32531	32767	32756	32767	32726	32816	32667	
1393	0	32797	32741	32773	32751	32615	32763	32759	32603	
1394	0	32666	32855	32647	32718	32711	32715	32711	32655	
1395	0	32644	32577	32634	32677	32567	32703	32694	32943	
1396	0	32667	32821	32590	32695	32698	32738	32743	32991	
1397	0	32736	32959	32623	32847	32695	32843	32876	32839	
1398	0	32754	32723	32674	32914	32703	32831	32755	33222	
1399	0	32775	32743	32813	32971	32655	32821	32733	33396	
1400	0	32775	32772	32811	32950	32759	32615	32667	33053	
1401	0	32722	32563	32819	33090	32643	32582	32737	31963	
1402	0	32771	32739	32833	33122	32677	32719	32785	31735	
1403	0	32852	32723	32830	32985	32810	32757	32788	32045	
1404	0	32844	32687	32703	33029	32631	32698	32765	32647	
1405	0	32794	32859	32718	32871	32739	32818	32839	32671	
1406	0	32812	32922	32685	32695	32583	32914	32850	33199	
1407	0	32745	32963	32711	32421	32620	32871	32793	33597	
1408	0	32787	32646	32743	32382	32575	32877	32739	33415	
1409	0	32758	32775	32726	32489	32717	32709	32858	32325	
1410	0	32718	32885	32734	32508	32631	32507	32743	32367	
1411	0	32731	32578	32775	32603	32596	32799	32643	32727	
1412	0	32783	32743	32846	32645	32587	33091	32719	32543	
1413	0	32754	32847	32678	32563	32719	33030	32890	32603	
1414	0	32760	32764	32647	32775	32783	32709	32766	33223	
1415	0	32740	32631	32709	32851	32614	32647	32675	32974	
1416	0	32692	32759	32660	32773	32738	32671	32659	32759	
1417	0	32708	32731	32670	32903	32735	32775	32631	33206	
1418	0	32722	32879	32639	32881	32699	32866	32591	33212	
1419	0	32708	32626	32701	32563	32709	32996	32809	32815	
1420	0	32758	32746	32661	32546	32659	32707	32761	32617	
1421	0	32775	32655	32637	32551	32703	32786	32775	32583	
1422	0	32754	32437	32708	32580	32759	32684	32697	32591	
1423	0	32771	32646	32859	32813	32741	32587	32634	32911	
1424	0	32818	32731	32722	32999	32631	32815	32636	32582	
1425	0	32789	32967	32735	32950	32575	32735	32727	32302	
1426	0	32768	32737	32693	32951	32695	32775	32803	32037	
1427	0	32766	32999	32731	33045	32491	32871	32775	32202	
1428	0	32694	33001	32769	32998	32647	32965	32815	32655	
1429	0	32681	32699	32673	32819	32463	32815	32759	33238	
1430	0	32796	32740	32695	32823	32708	32893	32743	33366	
1431	0	32782	32799	32699	32787	32775	32583	32629	33455	
1432	0	32771	32820	32707	32683	32887	32438	32549	33551	
1433	0	32799	32804	32694	32732	32831	32763	32567	32918	
1434	0	32727	32707	32687	32756	32615	32775	32612	32391	
1435	0	32707	32821	32591	32823	32711	32687	32811	32205	
1436	0	32696	32711	32631	32747	32716	32881	32759	32471	
1437	0	32647	32761	32587	32723	32743	32919	32719	32742	
1438	0	32698	32822	32658	32797	32756	32831	32718	32695	
1439	0	32700	32918	32715	32578	32551	32789	32769	32955	
1440	0	32746	32735	32727	32490	32687	32745	32695	32873	
1441	0	32751	32603	32727	32587	32775	32708	32615	32766	
1442	0	32800	32767	32684	32551	32763	32743	32647	32813	
1443	0	32745	32795	32669	32327	32788	32775	32659	32711	
1444	0	32801	32591	32682	32331	32759	32775	32692	32595	
1445	0	32785	32535	32783	32443	32743	32647	32699	32623	
1446	0	32790	32643	32754	32454	32655	32635	32591	32335	
1447	0	32713	32775	32717	32695	32703	32679	32711	32081	
1448	0	32802	32497	32815	32834	32619	32619	32727	32050	
1449	0	32786	32535	32732	32825	32743	32631	32707	32709	
1450	0	32791	32804	32647	33021	32751	32859	32647	32981	
1451	0	32739	32759	32642	32977	32493	32919	32592	33579	
1452	0	32712	32933	32660	33155	32603	33023	32471	33645	
1453	0	32701	32747	32607	32999	32690	32937	32561	32958	
1454	0	32788	32571	32643	33121	32646	32835	32668	32655	
1455	0	32747	32847	32647	33031	32739	32775	32799	32389	
1456	0	32731	33018	32743	32791	32607	32971	32941	32348	
1457	0	32766	32855	32710	32963	32658	33039	32927	32460	
1458	0	32749	32775	32785	32791	32639	32959	32868	32487	
1459	0	32751	32951	32647	32755	32583	32868	32807	32954	
1460	0	32749	32871	32719	32437	32626	32783	32647	33570	
1461	0	32775	32870	32767	32655	32495	32519	32700	33308	
1462	0	32679	32615	32715	32722	32695	32538	32752	32947	
1463	0	32669	32711	32723	32933	32559	32667	32559	32859	
1464	0	32722	32711	32713	32747	32717	32633	32459	32495	
1465	0	32788	32762	32666	32553	32804	32587	32587	32335	
1466	0	32789	32751	32634	32499	32731	32606	32655	32431	
1467	0	32763	32607	32720	32432	32741	32723	32715	32710	
1468	0	32799	32774	32742	32466	32527	32901	32595	33207	
1469	0	32769	32719	32716	32583	32631	33042	32689	32866	
1470	0	32734	32815	32708	32509	32673	32982	32783	33058	
1471	0	32717	32630	32607	32602	32667	32900	32857	32796	
1472	0	32698	32630	32703	32743	32703	32722	32762	32898	
1473	0	32715	32741	32671	32826	32742	32539	32738	32863	
1474	0	32769	32727	32719	32877	32791	32699	32687	32956	
1475	0	32767	32877	32631	32743	32735	32866	32691	33028	
1476	0	32759	32706	32638	32922	32539	32775	32684	32929	
1477	0	32679	32735	32671	32884	32716	32663	32727	32809	
1478	0	32767	32717	32775	32871	32691	32673	32739	32622	
1479	0	32701	32785	32690	32930	32743	32674	32719	32623	
1480	0	32709	32607	32743	32903	32723	32723	32743	32809	
1481	0	32743	32527	32605	32963	32530	32834	32599	32415	
1482	0	32769	32707	32646	32815	32675	32875	32645	32173	
1483	0	32722	32793	32658	32703	32700	32715	32855	31945	
1484	0	32782	32851	32737	32735	32519	32694	32782	32357	
1485	0	32732	32667	32706	32769	32685	32802	32621	32951	
1486	0	32664	32805	32739	32694	32542	32736	32679	32730	
1487	0	32740	32900	32719	32823	32671	32807	32731	32640	
1488	0	32855	32583	32734	32723	32535	32723	32706	32538	
1489	0	32876	32543	32803	32491	32742	32798	32703	32257	
1490	0	32804	32734	32719	32659	32750	32562	32629	32110	
1491	0	32744	32775	32771	32646	32530	32856	32739	32551	
1492	0	32783	32795	32675	32621	32687	33001	32733	33353	
1493	0	32797	32615	32681	32819	32749	32891	32786	33350	
1494	0	32755	32603	32699	32667	32727	33015	32823	33279	
1495	0	32738	32743	32735	32694	32775	32870	32811	33261	
1496	0	32735	32818	32703	32715	32755	32819	32823	33250	
1497	0	32820	32599	32747	32501	32834	32603	32775	33143	
1498	0	32735	32799	32799	32678	32587	32775	32644	33213	
1499	0	32760	32762	32733	32659	32743	32831	32655	33071	
1500	0	32741	32911	32823	32783	32811	32537	32631	33159	
1501	0	32788	32763	32734	32903	32717	32679	32646	32850	
1502	0	32770	32630	32739	32898	32615	32754	32773	31879	
1503	0	32815	32743	32756	32786	32577	32599	32658	31807	
1504	0	32728	32843	32679	32612	32679	32754	32545	32415	
1505	0	32734	32853	32642	32667	32687	32759	32611	32913	
1506	0	32672	32679	32708	32707	32671	32873	32855	32786	
1507	0	32750	32878	32702	32702	32679	32807	32876	32911	
1508	0	32663	32859	32687	32900	32739	32498	32807	33519	
1509	0	32688	32807	32742	32823	32626	32495	32751	33087	
1510	0	32719	32831	32803	32823	32707	32551	32747	32351	
1511	0	32754	32535	32735	32711	32477	32935	32834	31919	
1512	0	32794	32742	32710	32803	32669	33069	32829	32129	
1513	0	32789	32773	32700	32834	32663	32959	32763	32231	
1514	0	32745	32809	32623	32623	32711	33033	32647	32663	
1515	0	32775	32583	32582	32721	32743	32890	32725	32450	
1516	0	32818	32759	32692	32711	32831	32886	32734	32793	
1517	0	32722	32924	32747	32621	32711	32799	32612	33001	
1518	0	32754	32711	32722	32797	32738	32631	32583	32646	
1519	0	32686	32644	32699	32834	32690	32672	32764	32230	
1520	0	32684	32820	32759	32673	32647	32758	32677	32529	
1521	0	32728	32930	32703	32795	32718	32971	32575	32855	
1522	0	32777	32573	32706	32794	32721	32919	32681	33165	
1523	0	32764	32775	32711	32615	32837	32748	32643	33457	
1524	0	32765	32810	32762	32474	32630	32647	32687	33775	
1525	0	32711	32758	32775	32564	32803	32399	32742	33870	
1526	0	32839	32579	32795	32703	32635	32390	32775	33377	
1527	0	32781	32733	32749	32717	32713	32503	32815	33047	
1528	0	32742	32813	32793	32773	32668	32827	32741	32911	
1529	0	32716	32742	32630	32532	32475	33005	32769	32415	
1530	0	32687	32631	32679	32708	32646	32971	32760	32131	
1531	0	32742	32580	32607	32899	32645	32863	32750	32161	
1532	0	32700	32751	32607	33043	32686	32955	32685	32205	
1533	0	32726	32726	32592	32962	32710	32859	32700	32187	
1534	0	32789	32833	32693	33063	32549	32911	32739	32203	
1535	0	32783	32599	32696	33085	32594	32966	32710	32435	
1536	0	32785	32759	32725	33060	32640	32755	32671	33029	
1537	0	32844	32775	32839	32945	32711	32796	32615	33229	
1538	0	32840	32870	32690	32943	32791	32703	32669	33093	
1539	0	32816	32767	32754	32708	32633	32639	32673	32990	
1540	0	32819	32578	32787	32772	32733	32737	32706	32925	
1541	0	32775	32804	32729	32759	32553	32791	32759	32882	
1542	0	32714	32789	32705	32567	32827	32677	32739	32903	
1543	0	32734	32745	32668	32574	32807	32626	32791	32571	
1544	0	32708	32529	32624	32599	32743	32701	32849	32679	
1545	0	32728	32719	32670	32481	32647	32799	32711	32844	
1546	0	32722	32743	32717	32638	32471	32839	32647	32815	
1547	0	32738	32890	32698	32692	32662	32738	32553	32807	
1548	0	32725	32710	32743	32731	32613	32601	32535	32759	
1549	0	32753	32804	32691	32763	32787	32583	32631	32379	
1550	0	32715	32692	32798	32571	32690	32655	32647	32371	
1551	0	32713	32759	32679	32659	32727	32775	32679	32439	
1552	0	32808	32726	32700	32607	32741	32879	32679	32375	
1553	0	32812	32647	32801	32423	32493	32858	32683	32772	
1554	0	32788	32810	32791	32487	32780	32845	32759	32943	
1555	0	32772	32787	32725	32588	32751	33027	32647	33153	
1556	0	32811	32839	32672	32795	32628	32845	32775	33079	
1557	0	32722	32947	32623	32713	32799	32609	32655	33102	
1558	0	32705	32771	32754	32989	32599	32465	32579	33086	
1559	0	32834	32606	32709	33034	32713	32515	32647	32764	
1560	0	32796	32875	32703	32958	32547	32626	32775	31956	
1561	0	32727	32897	32661	33106	32685	32815	32722	31869	
1562	0	32743	32918	32596	33134	32723	32731	32820	32639	
1563	0	32743	32647	32697	33003	32729	32703	32839	33115	
1564	0	32764	32647	32743	33047	32708	32883	32775	33091	
1565	0	32738	32793	32666	32819	32483	32951	32571	33255	
1566	0	32774	32737	32754	32751	32695	32969	32575	33155	
1567	0	32788	32757	32727	32629	32634	32823	32955	32450	
1568	0	32802	32527	32601	32669	32775	32903	32871	32567	
1569	0	32747	32757	32647	32725	32738	32738	32735	33007	
1570	0	32761	32804	32771	32601	32551	32771	32724	33371	
1571	0	32775	32863	32733	32605	32634	32858	32797	32929	
1572	0	32786	32655	32687	32558	32609	32871	32690	32692	
1573	0	32715	32807	32647	32485	32647	32951	32611	32769	
1574	0	32752	32775	32647	32732	32658	32974	32647	32556	
1575	0	32734	32964	32707	32895	32644	32735	32915	32703	
1576	0	32748	32756	32711	32955	32747	32708	32783	32739	
1577	0	32738	32823	32742	32923	32646	32551	32690	32887	
1578	0	32710	32927	32734	32935	32845	32577	32684	32668	
1579	0	32798	32638	32782	32715	32663	32834	32675	32734	
1580	0	32788	32701	32727	32710	32743	32789	32630	32609	
1581	0	32775	32803	32685	32607	32695	32790	32698	32710	
1582	0	32812	32839	32647	32466	32733	32862	32713	32767	
1583	0	32743	32634	32628	32551	32498	32895	32667	33127	
1584	0	32758	32813	32659	32468	32658	32845	32695	32845	
1585	0	32736	32858	32715	32546	32590	32733	32733	32661	
1586	0	32728	32626	32719	32599	32737	32489	32771	32421	
1587	0	32751	32765	32701	32567	32660	32757	32845	32357	
1588	0	32713	32775	32775	32719	32775	32747	32691	32783	
1589	0	32752	32887	32758	32735	32647	32695	32555	32941	
1590	0	32682	32539	32641	32605	32727	32667	32663	32623	
1591	0	32730	32749	32677	32811	32711	32679	32740	32319	
1592	0	32688	32787	32615	32939	32799	32858	32647	32477	
1593	0	32774	32775	32743	32775	32734	32884	32743	32428	
1594	0	32743	32621	32827	32927	32725	32887	32666	32607	
1595	0	32705	32787	32807	32864	32706	32598	32628	33345	
1596	0	32751	32835	32743	32961	32758	32517	32711	33445	
1597	0	32873	32639	32759	32833	32805	32516	32719	33047	
1598	0	32783	32831	32795	32591	32659	32807	32711	32647	
1599	0	32727	32730	32647	32782	32714	32799	32676	32604	
1600	0	32807	32717	32621	32844	32617	32743	32735	32775	
1601	0	32809	32630	32661	32735	32817	32540	32639	32498	
1602	0	32761	32879	32762	32766	32538	32751	32582	32359	
1603	0	32775	32817	32675	32738	32719	32919	32707	32411	
1604	0	32758	32819	32705	32675	32530	33132	32823	32621	
1605	0	32787	32587	32775	32732	32647	33263	32805	32623	
1606	0	32760	32711	32739	32662	32526	33023	32823	32870	
1607	0	32738	32891	32647	32733	32759	32807	32807	33113	
1608	0	32738	32647	32663	32724	32846	32602	32709	33474	
1609	0	32775	32743	32695	32647	32741	32594	32761	33187	
1610	0	32784	32772	32676	32667	32583	32718	32607	33067	
1611	0	32727	32574	32700	32463	32711	32666	32558	32953	
1612	0	32732	32799	32631	32635	32577	32771	32519	32923	
1613	0	32804	32749	32663	32743	32719	32805	32545	32685	
1614	0	32788	32613	32701	32835	32566	32854	32647	32045	
1615	0	32722	32822	32677	32943	32698	32903	32733	31999	
1616	0	32713	32850	32718	32867	32567	32871	32871	31987	
1617	0	32690	32839	32767	32911	32687	32791	32865	32659	
1618	0	32737	32795	32738	32807	32671	32583	32751	33087	
1619	0	32775	32669	32645	32775	32647	32595	32700	33037	
1620	0	32739	32762	32687	32701	32799	32603	32707	32747	
1621	0	32745	32774	32623	32775	32655	32723	32647	32803	
1622	0	32788	32834	32715	32749	32659	32869	32567	32943	
1623	0	32724	32663	32735	32612	32793	32835	32642	32683	
1624	0	32725	32630	32685	32591	32643	32699	32773	32340	
1625	0	32769	32791	32737	32519	32749	32599	32743	32487	
1626	0	32771	32746	32709	32365	32639	32757	32807	32681	
1627	0	32780	32913	32732	32519	32775	32893	32797	32983	
1628	0	32747	32695	32738	32745	32667	32967	32727	33287	
1629	0	32715	32861	32810	32791	32636	32747	32756	33901	
1630	0	32746	32859	32721	32933	32610	32487	32660	33790	
1631	0	32807	32860	32710	32767	32745	32613	32525	33454	
1632	0	32822	32670	32743	32791	32658	32839	32637	32887	
1633	0	32695	32623	32594	32811	32507	32791	32767	32383	
1634	0	32716	32759	32698	32883	32709	32931	32811	31943	
1635	0	32746	32743	32759	32814	32719	33003	32798	32175	
1636	0	32750	32790	32769	32931	32717	32978	32828	32562	
1637	0	32767	32615	32702	32871	32741	32949	32818	32670	
1638	0	32704	32763	32788	32775	32602	32799	32775	32743	
1639	0	32731	32791	32663	32797	32727	32771	32692	32813	
1640	0	32735	32773	32763	32855	32771	32805	32695	32451	
1641	0	32824	32771	32711	32943	32689	32684	32643	32487	
1642	0	32770	32597	32723	32775	32783	32726	32693	32324	
1643	0	32780	32791	32695	32937	32631	32623	32663	32359	
1644	0	32714	32811	32759	32971	32730	32723	32576	32692	
1645	0	32699	32615	32655	32839	32556	32847	32595	32903	
1646	0	32743	32775	32715	32911	32725	32711	32759	33003	
1647	0	32729	32878	32637	32697	32583	32567	32775	33241	
1648	0	32698	32726	32726	32573	32751	32541	32738	32923	
1649	0	32806	32740	32767	32669	32543	32679	32731	32612	
1650	0	32713	32711	32726	32570	32655	32730	32695	32342	
1651	0	32775	32852	32721	32506	32685	32633	32623	32311	
1652	0	32818	32547	32771	32695	32834	32606	32583	32617	
1653	0	32748	32807	32723	32831	32754	32658	32645	32799	
1654	0	32733	32839	32646	32782	32751	33063	32851	32537	
1655	0	32785	32837	32643	32935	32839	33020	32710	33035	
1656	0	32715	32639	32637	32839	32633	32841	32660	33455	
1657	0	32749	32707	32668	32613	32741	32809	32543	33333	
1658	0	32703	32821	32666	32765	32562	33054	32737	32477	
1659	0	32706	32935	32683	32713	32742	32941	32835	32405	
1660	0	32775	32775	32646	32799	32742	32711	32811	32529	
1661	0	32835	32629	32721	32615	32559	32699	32687	32698	
1662	0	32870	32782	32804	32631	32647	32587	32679	32723	
1663	0	32733	32759	32759	32611	32573	32639	32711	32815	
1664	0	32819	32821	32721	32539	32699	32695	32756	32729	
1665	0	32845	32647	32715	32662	32615	32987	32637	32682	
1666	0	32804	32735	32741	32694	32681	32754	32839	32676	
1667	0	32796	32762	32710	32580	32751	32639	32727	32877	
1668	0	32736	32711	32655	32702	32751	32692	32583	32871	
1669	0	32766	32759	32658	32743	32594	32832	32699	32677	
1670	0	32765	32759	32700	32717	32725	32970	32775	32711	
1671	0	32767	32891	32709	32635	32660	32747	32559	33231	
1672	0	32796	32845	32711	32660	32570	32784	32564	33495	
1673	0	32734	32647	32727	32529	32719	32837	32731	33017	
1674	0	32902	32617	32609	32588	32723	32775	32735	32370	
1675	0	32837	32761	32718	32695	32687	32757	32813	31899	
1676	0	32804	32791	32773	32769	32739	32803	32599	32127	
1677	0	32806	32825	32775	32797	32559	32769	32530	32612	
1678	0	32727	32871	32775	32945	32747	32694	32524	32879	
1679	0	32698	32647	32707	33095	32487	32927	32559	33193	
1680	0	32674	32815	32662	32935	32791	32881	32831	32711	
1681	0	32674	32797	32681	32985	32711	32951	32989	32519	
1682	0	32745	32886	32655	33101	32551	32915	32939	32914	
1683	0	32746	32715	32731	32923	32735	32671	32943	33316	
1684	0	32773	32759	32763	32894	32685	32563	32703	33215	
1685	0	32730	32756	32644	32807	32829	32519	32479	33007	
1686	0	32748	32717	32647	32742	32583	32743	32588	32729	
1687	0	32716	32683	32707	32711	32719	32615	32819	32511	
1688	0	32647	32647	32758	32833	32738	32641	32647	32583	
1689	0	32687	32845	32727	32726	32599	32815	32647	32455	
1690	0	32747	32747	32665	32759	32671	32855	32647	32535	
1691	0	32705	32895	32711	32727	32639	32847	32745	32687	
1692	0	32679	32679	32710	32551	32754	32789	32721	32846	
1693	0	32672	32799	32749	32629	32655	33055	32855	32592	
1694	0	32663	32795	32748	32711	32570	32983	32917	32637	
1695	0	32738	32903	32709	32731	32671	32735	32755	33059	
1696	0	32765	32772	32635	32823	32535	32743	32615	32972	
1697	0	32687	32571	32679	32866	32714	32681	32706	32799	
1698	0	32766	32775	32735	32827	32802	32749	32775	32719	
1699	0	32802	32797	32729	32732	32633	32635	32743	32617	
1700	0	32837	32879	32614	32711	32772	32613	32767	32487	
1701	0	32817	32581	32655	32636	32527	32733	32671	32623	
1702	0	32801	32559	32745	32639	32694	32694	32588	32599	
1703	0	32796	32724	32767	32461	32767	32732	32571	32694	
1704	0	32755	32702	32743	32549	32567	32816	32644	32575	
1705	0	32700	32765	32765	32519	32695	32924	32711	32762	
1706	0	32750	32668	32647	32445	32605	32895	32631	33257	
1707	0	32815	32599	32758	32705	32742	32867	32702	33287	
1708	0	32790	32639	32754	32709	32669	32681	32775	32986	
1709	0	32751	32810	32699	32863	32559	32807	32647	32718	
1710	0	32787	32845	32647	32762	32663	32787	32621	32823	
1711	0	32729	32919	32658	32859	32635	32703	32748	32809	
1712	0	32749	32679	32631	32858	32736	32723	32826	32831	
1713	0	32759	32609	32719	32900	32813	32643	32743	32631	
1714	0	32809	32735	32676	32745	32679	32647	32671	32351	
1715	0	32796	32784	32678	32791	32847	32613	32727	32301	
1716	0	32804	32666	32718	32692	32815	32614	32831	32382	
1717	0	32786	32811	32775	32799	32791	32763	32654	32972	
1718	0	32767	32859	32730	32719	32617	32827	32637	33223	
1719	0	32743	32900	32763	32619	32663	32867	32679	33266	
1720	0	32761	32847	32647	32775	32487	32873	32679	33093	
1721	0	32773	32670	32647	32751	32703	32711	32718	32940	
1722	0	32749	32639	32743	32797	32735	32661	32839	32815	
1723	0	32736	32613	32732	32647	32647	32579	32813	32567	
1724	0	32736	32767	32647	32785	32791	32757	32775	31885	
1725	0	32748	32810	32711	32795	32695	32697	32702	32301	
1726	0	32749	32709	32749	32595	32643	32962	32621	32359	
1727	0	32730	32589	32694	32643	32415	32939	32659	32479	
1728	0	32782	32612	32631	32639	32619	32973	32643	32775	
1729	0	32735	32765	32699	32699	32679	33067	32607	33671	
1730	0	32662	32803	32646	32534	32575	32811	32775	33607	
1731	0	32750	32759	32703	32743	32659	32871	32925	32995	
1732	0	32804	32821	32692	32767	32599	32783	32775	32701	
1733	0	32775	32695	32690	32990	32756	32871	32724	32531	
1734	0	32765	32599	32766	32903	32795	32951	32711	32051	
1735	0	32871	32699	32839	33067	32711	32817	32570	32324	
1736	0	32791	32751	32759	33116	32727	32655	32541	32775	
1737	0	32675	32958	32668	32941	32626	32627	32623	32527	
1738	0	32735	32729	32775	33141	32694	32869	32743	32647	
1739	0	32736	32621	32668	32941	32675	32854	32775	33091	
1740	0	32790	32639	32739	32965	32518	32687	32838	33799	
1741	0	32795	32759	32759	32574	32823	32371	32799	33818	
1742	0	32824	32771	32791	32687	32687	32487	32719	33343	
1743	0	32781	32853	32767	32647	32789	32658	32603	32647	
1744	0	32750	32767	32711	32327	32714	32821	32640	32443	
1745	0	32685	32647	32623	32543	32583	32671	32690	32388	
1746	0	32695	32877	32637	32711	32773	32647	32635	32259	
1747	0	32678	32855	32655	32475	32535	32815	32717	32255	
1748	0	32729	32735	32671	32594	32644	32903	32719	32829	
1749	0	32731	32549	32710	32617	32631	32894	32617	33207	
1750	0	32767	32839	32682	32629	32692	32765	32667	33315	
1751	0	32813	32775	32724	32641	32579	32513	32681	33524	
1752	0	32863	32583	32738	32773	32783	32591	32551	33755	
1753	0	32818	32755	32727	32932	32635	32627	32673	33031	
1754	0	32765	32835	32751	32933	32703	32935	32775	32062	
1755	0	32795	32611	32767	32807	32487	32921	32894	31759	
1756	0	32791	32717	32735	32885	32700	32806	32893	31835	
1757	0	32714	32795	32647	32803	32508	32903	32887	31867	
1758	0	32727	32887	32706	32715	32638	33039	32741	32223	
1759	0	32783	32647	32759	32962	32591	33037	32546	32530	
1760	0	32764	32850	32725	32902	32732	32721	32759	32675	
1761	0	32671	32839	32679	32595	32727	32694	32775	33019	
1762	0	32738	32807	32787	32551	32665	32769	32679	33587	
1763	0	32762	32541	32819	32595	32702	32727	32702	33783	
1764	0	32820	32646	32711	32471	32611	32711	32675	33350	
1765	0	32763	32647	32663	32575	32797	32599	32707	32572	
1766	0	32703	32727	32673	32743	32773	32559	32931	32170	
1767	0	32725	32551	32767	32671	32773	32663	32871	32102	
1768	0	32769	32726	32692	32642	32554	32691	32775	32100	
1769	0	32743	32775	32759	32711	32732	32775	32526	32612	
1770	0	32714	32819	32631	32831	32751	32775	32467	32753	
1771	0	32733	32855	32679	32749	32524	32805	32605	32738	
1772	0	32757	32596	32743	32903	32719	32834	32620	33036	
1773	0	32772	32799	32748	33003	32583	32807	32614	33095	
1774	0	32732	32869	32668	32835	32781	32698	32622	33287	
1775	0	32743	32755	32749	32935	32694	32671	32734	33140	
1776	0	32749	32531	32734	32811	32799	32678	32756	32587	
1777	0	32790	32759	32647	32832	32767	32685	32775	32391	
1778	0	32748	32743	32751	32614	32577	32871	32727	32609	
1779	0	32747	32764	32751	32699	32759	32823	32708	32543	
1780	0	32769	32815	32671	32751	32671	32885	32693	32859	
1781	0	32774	32639	32663	32657	32689	33053	32655	33019	
1782	0	32677	32759	32638	32747	32673	32945	32849	32751	
1783	0	32726	32721	32711	32681	32571	32895	32893	32350	
1784	0	32730	32851	32703	32679	32675	32819	32815	32371	
1785	0	32679	32699	32624	32786	32607	32807	32770	32868	
1786	0	32754	32639	32675	32871	32589	32643	32711	33005	
1787	0	32748	32735	32642	32828	32743	32472	32647	32390	
1788	0	32757	32742	32646	32822	32795	32671	32532	32311	
1789	0	32678	32747	32707	32676	32619	32751	32583	32621	
1790	0	32727	32751	32641	32818	32764	32727	32637	32531	
1791	0	32782	32551	32699	32786	32592	32871	32801	32694	
1792	0	32737	32675	32763	32548	32748	32865	32745	33319	
1793	0	32783	32786	32587	32687	32775	32758	32647	33439	
1794	0	32734	32925	32595	32790	32766	32591	32698	33275	
1795	0	32737	32694	32634	32671	32738	32727	32647	33499	
1796	0	32729	32869	32759	32850	32647	32739	32548	33589	
1797	0	32783	32903	32717	32837	32711	32789	32589	32885	
1798	0	32749	32711	32741	32765	32670	32775	32647	32068	
1799	0	32789	32647	32742	33045	32704	32837	32679	31975	
1800	0	32786	32823	32731	33030	32575	32844	32743	32223	
1801	0	32752	32743	32647	32930	32641	32882	32743	32465	
1802	0	32767	32837	32679	32966	32534	32871	32743	32659	
1803	0	32797	32811	32667	32811	32740	32743	32658	33195	
1804	0	32700	32838	32683	32690	32747	32634	32747	33035	
1805	0	32743	32567	32815	32718	32711	32655	32723	32877	
1806	0	32727	32827	32847	32621	32730	32663	32839	32639	
1807	0	32717	32916	32775	32703	32510	32627	32743	32679	
1808	0	32751	32677	32725	32769	32823	32823	32807	32750	
1809	0	32729	32871	32687	32698	32715	32814	32812	32647	
1810	0	32711	32903	32698	32701	32809	32725	32860	32505	
1811	0	32678	32623	32692	32671	32786	32743	32740	32598	
1812	0	32671	32750	32727	32565	32759	32709	32751	32895	
1813	0	32728	32795	32707	32399	32724	32647	32677	33076	
1814	0	32766	32635	32763	32289	32722	32754	32695	32978	
1815	0	32785	32583	32804	32477	32623	32864	32695	32978	
1816	0	32839	32597	32719	32407	32639	32859	32765	32962	
1817	0	32811	32735	32667	32517	32511	32831	32804	32757	
1818	0	32833	32613	32647	32685	32746	32807	32791	32703	
1819	0	32773	32703	32612	32785	32543	32887	32731	32895	
1820	0	32829	32703	32679	32695	32821	32719	32747	32830	
1821	0	32815	32898	32695	33007	32719	32681	32755	32711	
1822	0	32796	32647	32717	33185	32723	32694	32708	32489	
1823	0	32783	32789	32742	33068	32623	32843	32679	32272	
1824	0	32790	32807	32655	33167	32466	32822	32731	32371	
1825	0	32766	32810	32675	32851	32669	32831	32775	32693	
1826	0	32767	32743	32669	32563	32655	32958	32798	32898	
1827	0	32770	32751	32647	32495	32692	32943	32813	32855	
1828	0	32775	32819	32655	32591	32571	32885	32685	32959	
1829	0	32751	32683	32687	32677	32751	32804	32715	32732	
1830	0	32760	32559	32687	32723	32587	32754	32785	32595	
1831	0	32767	32803	32605	32716	32726	32669	32757	32615	
1832	0	32765	32911	32682	32830	32638	32757	32754	32507	
1833	0	32784	32615	32701	32859	32727	32759	32914	32406	
1834	0	32775	32765	32681	32852	32587	32679	32751	32379	
1835	0	32817	32822	32743	32806	32758	32645	32647	32751	
1836	0	32789	32661	32755	32937	32702	32683	32590	32903	
1837	0	32797	32677	32711	32927	32626	32767	32501	32775	
1838	0	32852	32767	32615	32846	32753	32722	32516	32935	
1839	0	32911	32823	32739	32829	32607	32662	32530	32898	
1840	0	32812	32727	32667	32929	32742	32854	32507	33423	
1841	0	32748	32834	32732	32891	32487	32854	32583	33450	
1842	0	32762	32811	32719	32829	32715	32741	32603	33221	
1843	0	32743	32639	32709	32678	32582	32677	32639	32695	
1844	0	32693	32775	32743	32611	32695	32711	32707	32375	
1845	0	32708	32845	32735	32615	32667	32775	32731	32387	
1846	0	32703	32867	32735	32607	32678	32983	32717	32397	
1847	0	32724	32586	32772	32742	32704	32773	32734	33195	
1848	0	32738	32773	32731	32671	32802	32564	32747	33495	
1849	0	32710	32887	32719	32761	32692	32543	32734	32805	
1850	0	32676	32596	32770	32879	32706	32887	32663	32206	
1851	0	32678	32801	32679	32775	32550	32831	32807	31707	
1852	0	32647	32775	32662	32647	32722	32703	32858	31297	
1853	0	32703	32927	32695	32594	32790	32647	32701	31732	
1854	0	32687	32680	32765	32638	32647	32854	32711	32018	
1855	0	32717	32801	32716	32723	32647	33152	32703	32574	
1856	0	32704	32945	32727	32843	32633	33047	32769	33735	
1857	0	32688	33030	32742	32878	32684	32769	32711	34595	
1858	0	32749	32675	32641	32767	32742	32677	32671	34466	
1859	0	32843	32711	32663	32765	32797	32687	32511	34247	
1860	0	32738	32729	32612	32743	32823	32771	32426	33372	
1861	0	32816	32694	32643	32791	32645	32847	32558	32859	
1862	0	32771	32495	32625	32859	32743	32806	32621	32631	
1863	0	32799	32721	32658	32927	32659	32613	32643	32703	
1864	0	32818	32850	32657	33026	32687	32722	32647	32179	
1865	0	32795	32599	32707	32935	32509	32894	32579	31999	
1866	0	32796	32758	32771	32861	32631	32900	32639	32391	
1867	0	32724	32835	32751	32853	32535	32786	32751	32533	
1868	0	32696	32711	32670	32647	32725	32711	32757	32535	
1869	0	32727	32551	32698	32775	32655	32763	32707	32572	
1870	0	32739	32798	32615	32767	32679	32698	32607	32738	
1871	0	32688	32838	32606	32583	32743	32607	32598	32642	
1872	0	32782	32915	32646	32583	32567	32733	32711	32339	
1873	0	32721	32643	32711	32527	32717	32751	32699	32247	
1874	0	32804	32559	32747	32367	32813	32722	32743	32279	
1875	0	32801	32702	32775	32617	32557	32869	32578	32790	
1876	0	32813	32706	32669	32549	32754	32903	32663	33030	
1877	0	32734	32915	32687	32635	32725	32883	32629	33181	
1878	0	32775	32682	32786	32687	32533	32916	32755	32961	
1879	0	32744	32575	32707	32570	32691	32789	32796	32647	
1880	0	32695	32747	32734	32461	32775	32892	32709	32863	
1881	0	32703	32710	32643	32549	32519	32771	32725	32957	
1882	0	32746	32795	32735	32818	32699	32775	32639	33007	
1883	0	32775	32847	32743	32903	32807	32747	32623	32743	
1884	0	32755	32646	32771	32803	32621	32701	32679	32611	
1885	0	32748	32764	32767	32943	32703	32815	32588	32992	
1886	0	32769	32791	32726	32927	32713	32719	32662	32885	
1887	0	32821	32839	32643	32871	32723	32490	32775	32834	
1888	0	32843	32711	32732	32983	32756	32587	32786	32795	
1889	0	32727	32655	32775	32935	32669	32663	32783	33079	
1890	0	32755	32854	32702	32804	32694	32690	32717	32723	
1891	0	32754	32935	32735	32975	32660	32850	32714	32431	
1892	0	32673	32765	32720	33061	32655	32951	32703	32431	
1893	0	32756	32615	32621	32943	32663	32911	32677	32199	
1894	0	32762	32831	32703	33055	32719	32831	32723	32164	
1895	0	32797	32825	32740	32915	32627	32823	32759	32538	
1896	0	32839	32931	32711	32821	32694	32796	32854	32571	
1897	0	32862	32685	32775	32615	32629	32740	32770	33014	
1898	0	32816	32853	32796	32773	32811	32843	32730	33412	
1899	0	32838	32887	32703	32845	32757	32735	32751	33287	
1900	0	32815	32935	32741	32743	32780	32681	32791	32775	
1901	0	32782	32675	32707	32675	32739	32775	32732	32775	
1902	0	32774	32862	32727	32503	32638	32785	32679	32863	
1903	0	32762	33044	32739	32691	32641	32797	32655	32771	
1904	0	32647	32812	32695	32647	32509	32829	32647	32719	
1905	0	32747	32859	32791	32641	32594	32796	32591	33052	
1906	0	32712	32919	32775	32627	32543	32835	32519	33085	
1907	0	32727	32914	32743	32615	32703	32859	32583	33007	
1908	0	32660	32759	32737	32667	32663	32775	32556	33269	
1909	0	32646	32724	32583	32742	32639	32839	32575	33476	
1910	0	32512	32839	32534	32709	32718	32903	32690	33174	
1911	0	32540	32767	32561	32820	32524	32595	32583	33093	
1912	0	32511	32647	32581	32615	32717	32586	32607	32705	
1913	0	32449	32677	32414	32692	32701	32775	32647	32546	
1914	0	32433	32719	32429	32423	32426	32807	32487	32647	
1915	0	32419	32475	32479	32469	32663	32871	32489	32557	
1916	0	32391	32695	32423	32567	32685	32775	32597	32350	
1917	0	32458	32677	32466	32390	32615	32861	32607	32335	
1918	0	32569	32739	32547	32546	32615	32775	32538	32407	
1919	0	32460	32453	32413	32599	32559	32876	32591	32383	
1920	0	32477	32575	32391	32445	32677	32871	32630	32263	
1921	0	32533	32498	32427	32423	32479	32797	32597	32143	
1922	0	32607	32615	32495	32342	32683	32801	32818	31931	
1923	0	32713	32317	32603	32322	32783	32717	32800	32419	
1924	0	32736	32175	32585	32190	32604	32750	32775	32679	
1925	0	32748	32335	32674	32483	32763	32659	32754	32797	
1926	0	32817	32519	32689	32613	32583	32655	32804	32868	
1927	0	32798	32675	32743	32589	32838	32799	32847	32678	
1928	0	32718	32611	32823	32741	32853	32797	32863	32758	
1929	0	32761	32591	32795	32951	32809	32763	32797	33249	
1930	0	32841	32839	32758	33199	32807	32763	32900	33463	
1931	0	32922	32935	32866	33166	32663	32751	33051	33415	
1932	0	32962	32975	32991	33319	32839	32481	33069	33351	
1933	0	32954	32811	32999	33284	32903	32359	32886	33102	
1934	0	33005	32807	32939	33035	32791	32575	32799	32717	
1935	0	33020	32775	32919	32974	32839	32732	32883	32443	
1936	0	33167	32811	32999	33066	32812	32721	32991	32180	
1937	0	33316	32631	33091	33031	32855	32843	33159	32031	
1938	0	33479	32694	33140	33235	32749	32802	33303	32070	
1939	0	33577	32970	33287	33339	32955	32799	33203	32459	
1940	0	33633	33035	33319	33066	32991	32751	33198	32734	
1941	0	33464	32967	33203	33015	32853	32775	33178	32556	
1942	0	33350	32739	33094	32879	32791	32851	33063	32775	
1943	0	33180	32871	33043	32583	32700	32927	32884	33095	
1944	0	33097	32881	32914	32787	32733	32793	32685	32975	
1945	0	33068	32926	32886	32775	32639	32679	32643	32703	
1946	0	33058	32833	32819	32751	32647	32807	32647	32510	
1947	0	32964	32710	32787	32839	32713	32662	32735	32742	
1948	0	32861	32607	32726	32769	32679	32818	32548	33091	
1949	0	32736	32834	32681	32801	32679	32816	32536	32900	
1950	0	32626	32894	32473	32662	32631	32703	32487	32949	
1951	0	32519	32854	32453	32781	32455	32871	32562	33093	
1952	0	32461	32747	32594	32647	32663	32847	32503	33074	
1953	0	32462	32687	32511	32635	32582	32755	32563	32818	
1954	0	32527	32871	32587	32626	32471	32821	32514	32759	
1955	0	32493	33015	32561	32647	32623	32759	32588	32811	
1956	0	32550	32718	32609	32527	32465	32691	32562	32803	
1957	0	32591	32709	32519	32773	32687	32741	32484	32973	
1958	0	32577	32871	32525	32807	32645	32735	32613	32770	
1959	0	32596	32877	32669	32822	32580	32747	32675	32619	
1960	0	32554	32957	32677	32775	32727	32758	32721	32607	
1961	0	32599	32647	32685	32679	32755	32693	32673	32500	
1962	0	32616	32797	32681	32745	32620	32674	32719	32297	
1963	0	32617	32771	32591	32605	32743	32711	32644	32373	
1964	0	32663	32839	32601	32685	32631	32742	32546	32775	
1965	0	32686	32789	32615	32551	32775	32741	32461	32679	
1966	0	32662	32551	32658	32579	32711	32839	32559	32503	
1967	0	32718	32699	32706	32708	32566	32911	32634	32463	
1968	0	32723	32775	32647	32578	32745	32805	32621	32327	
1969	0	32666	32769	32685	32697	32541	32647	32525	32455	
1970	0	32685	32545	32647	32723	32671	32668	32485	32615	
1971	0	32643	32683	32711	32709	32589	32870	32629	32866	
1972	0	32669	32757	32751	32639	32655	33081	32623	33399	
1973	0	32775	32677	32765	32845	32596	33184	32685	33991	
1974	0	32734	32563	32687	32834	32687	32824	32719	34207	
1975	0	32749	32759	32676	32713	32754	32565	32763	33906	
1976	0	32785	32786	32639	32775	32683	32467	32817	33193	
1977	0	32771	32763	32621	32726	32719	32645	32633	32631	
1978	0	32762	32556	32647	32635	32647	32751	32684	32357	
1979	0	32749	32722	32677	32639	32773	32666	32823	32146	
1980	0	32736	32854	32726	32543	32551	32802	32717	32633	
1981	0	32699	32609	32759	32631	32715	32811	32730	32471	
1982	0	32710	32737	32701	32711	32567	32799	32765	32727	
1983	0	32765	32893	32767	32657	32683	32805	32677	33126	
1984	0	32701	32759	32740	32839	32508	32775	32764	32823	
1985	0	32738	32767	32703	32775	32711	32791	32758	32579	
1986	0	32726	32775	32699	32995	32532	32891	32711	32308	
1987	0	32797	32847	32765	32894	32769	32755	32717	32471	
1988	0	32808	32635	32683	32871	32762	32793	32711	32443	
1989	0	32839	32589	32617	32767	32615	32836	32775	32439	
1990	0	32780	32767	32671	32824	32735	32775	32705	32829	
1991	0	32724	32921	32661	32775	32571	32662	32647	32941	
1992	0	32729	32647	32708	32621	32717	32861	32700	32962	
1993	0	32748	32489	32678	32703	32663	32755	32781	32567	
1994	0	32711	32730	32674	32687	32791	32711	32798	32263	
1995	0	32756	32837	32687	32610	32855	32563	32739	32335	
1996	0	32791	32694	32733	32639	32799	32524	32769	32474	
1997	0	32730	32605	32767	32846	32683	32843	32588	33039	
1998	0	32751	32797	32722	32759	32633	32915	32599	33065	
1999	0	32751	32916	32647	32887	32693	32983	32557	33090	
2000	0	32694	32695	32662	32879	32598	32684	32577	33087	
2001	0	32713	32877	32607	32753	32791	32610	32813	32687	
2002	0	32647	32958	32615	32707	32630	32767	32855	32713	
2003	0	32699	32723	32724	32674	32703	32743	32854	32775	
2004	0	32775	32807	32764	32639	32519	32871	32794	32705	
2005	0	32782	32841	32719	32500	32707	32705	32771	32787	
2006	0	32722	32831	32687	32519	32685	32795	32711	32795	
2007	0	32713	32662	32711	32493	32700	32742	32743	33061	
2008	0	32758	32502	32823	32567	32615	32859	32607	33207	
2009	0	32767	32717	32679	32740	32565	32838	32601	33661	
2010	0	32758	32845	32675	32979	32788	32735	32767	32794	
2011	0	32786	32557	32719	32988	32583	32811	32610	32367	
2012	0	32775	32547	32749	32977	32720	32735	32561	32549	
2013	0	32780	32733	32765	33037	32690	32963	32566	32487	
2014	0	32749	32914	32727	32881	32735	33087	32631	32491	
2015	0	32723	32676	32751	32747	32721	32817	32729	32827	
2016	0	32686	32795	32726	32771	32745	32725	32725	32963	
2017	0	32728	32850	32751	32699	32677	32647	32567	32838	
2018	0	32751	32702	32714	32468	32748	32623	32671	32261	
2019	0	32697	32647	32751	32503	32791	32611	32703	32375	
2020	0	32733	32629	32621	32591	32623	32553	32631	32676	
2021	0	32740	32821	32711	32835	32763	32823	32583	32420	
2022	0	32758	32807	32663	32775	32647	32935	32583	32495	
2023	0	32775	32839	32747	32845	32479	32833	32603	32799	
2024	0	32788	32637	32747	32788	32717	32983	32845	32985	
2025	0	32735	32620	32647	32715	32765	32899	33015	33069	
2026	0	32749	32631	32725	32658	32518	32867	33042	32873	
2027	0	32757	32788	32762	32727	32700	32807	32947	32787	
2028	0	32788	32815	32751	32783	32663	32694	32684	32921	
2029	0	32751	32850	32767	32682	32791	32603	32719	32713	
2030	0	32785	32566	32647	32637	32823	32669	32634	32738	
2031	0	32734	32759	32679	32734	32663	32703	32679	32702	
2032	0	32773	32763	32668	32781	32730	32701	32703	32745	
2033	0	32700	32823	32791	32815	32726	32715	32786	32647	
2034	0	32703	32773	32755	32786	32695	32745	32751	32695	
2035	0	32726	32603	32738	32702	32751	32745	32663	32869	
2036	0	32711	32807	32775	32771	32647	32748	32702	32892	
2037	0	32708	32823	32773	32774	32731	32615	32663	32846	
2038	0	32719	32566	32749	32879	32751	32826	32600	33103	
2039	0	32678	32796	32609	32853	32698	32858	32669	32971	
2040	0	32759	32868	32733	32892	32731	32804	32709	32819	
2041	0	32775	32671	32599	32831	32719	32772	32690	32487	
2042	0	32818	32763	32662	32765	32709	32698	32583	32263	
2043	0	32786	32834	32643	32883	32615	32757	32691	32215	
2044	0	32719	32631	32631	32801	32727	32709	32785	32253	
2045	0	32773	32771	32629	32746	32562	32830	32773	32356	
2046	0	32823	32759	32631	32709	32647	32887	32731	32482	
2047	0	32790	32690	32679	32611	32647	32935	32687	32927	
2048	0	32751	32596	32723	32749	32735	32751	32679	33134	
2049	0	32800	32775	32723	32695	32773	32564	32663	33378	
2050	0	32775	32871	32722	32527	32843	32487	32611	33330	
2051	0	32758	32742	32735	32570	32727	32581	32527	33515	
2052	0	32850	32631	32749	32775	32661	32723	32591	33734	
2053	0	32746	32889	32747	32732	32739	32775	32718	32727	
2054	0	32775	32870	32613	32706	32591	32868	32727	31868	
2055	0	32725	32581	32647	32683	32647	32977	32839	31427	
2056	0	32784	32775	32695	32775	32559	33004	32885	31716	
2057	0	32756	32863	32647	32841	32647	33052	32668	32391	
2058	0	32713	32647	32647	32834	32743	33047	32614	33116	
2059	0	32740	32775	32655	32775	32819	32924	32789	32732	
2060	0	32767	32799	32749	32855	32667	32655	32707	32773	
2061	0	32764	32847	32765	32957	32671	32605	32607	33115	
2062	0	32743	32653	32775	32829	32529	32839	32636	33191	
2063	0	32763	32775	32791	32719	32635	32693	32681	33692	
2064	0	32864	32733	32839	32644	32677	32647	32559	34030	
2065	0	32814	32822	32661	32693	32692	32711	32604	33113	
2066	0	32713	32764	32623	32631	32639	32759	32845	31843	
2067	0	32775	32575	32747	32642	32725	32643	32756	31623	
2068	0	32742	32703	32718	32455	32639	32903	32619	31907	
2069	0	32731	32695	32724	32527	32711	32879	32655	32631	
2070	0	32735	32711	32629	32495	32671	32891	32727	33287	
2071	0	32706	32809	32578	32589	32691	32983	32743	33567	
2072	0	32727	32594	32672	32583	32707	32721	32790	33111	
2073	0	32710	32533	32683	32863	32756	32435	32775	32635	
2074	0	32735	32751	32679	32951	32671	32513	32545	32643	
2075	0	32745	32818	32647	33086	32733	32615	32619	32631	
2076	0	32760	32803	32685	32933	32593	32767	32711	32639	
2077	0	32819	32757	32631	32927	32719	32951	32700	32775	
2078	0	32773	32646	32757	32855	32797	32845	32837	32713	
2079	0	32676	32877	32743	32967	32587	32672	32893	33082	
2080	0	32712	32843	32757	32827	32710	32703	32759	33175	
2081	0	32719	32893	32741	32812	32758	32775	32603	33123	
2082	0	32791	32699	32711	32821	32751	32775	32566	33103	
2083	0	32715	32788	32708	32687	32742	32877	32631	33074	
2084	0	32742	32903	32660	32527	32586	32767	32647	32838	
2085	0	32716	32756	32684	32563	32642	32756	32801	32239	
2086	0	32784	32561	32759	32585	32642	32852	32807	32012	
2087	0	32765	32722	32708	32719	32754	32813	32831	32101	
2088	0	32782	32765	32757	32575	32775	32783	32812	32335	
2089	0	32685	32789	32658	32722	32567	32749	32747	32514	
2090	0	32769	32751	32703	32792	32703	32784	32615	32621	
2091	0	32742	32582	32737	32597	32660	32733	32684	32759	
2092	0	32775	32759	32791	32756	32748	32612	32647	32935	
2093	0	32775	32789	32789	32766	32751	32695	32603	32858	
2094	0	32754	32790	32738	32669	32594	32709	32635	32553	
2095	0	32710	32823	32647	32831	32687	32741	32676	32554	
2096	0	32711	32623	32665	32711	32583	32903	32673	32487	
2097	0	32737	32845	32738	32788	32736	32865	32775	32315	
2098	0	32726	32855	32757	32853	32759	32722	32723	32549	
2099	0	32742	32893	32743	32867	32647	32863	32715	33049	
2100	0	32736	32711	32770	32898	32663	32853	32761	33266	
2101	0	32716	32847	32759	32855	32579	32763	32775	33047	
2102	0	32731	32745	32761	32595	32663	32805	32775	32748	
2103	0	32687	32897	32639	32583	32644	32883	32671	32543	
2104	0	32708	32619	32559	32634	32775	32717	32694	32471	
2105	0	32790	32671	32709	32583	32897	32599	32715	32484	
2106	0	32768	32759	32717	32543	32669	32479	32676	33193	
2107	0	32761	32871	32727	32391	32695	32749	32493	33919	
2108	0	32771	32628	32719	32582	32563	32692	32450	34087	
2109	0	32813	32681	32729	32703	32693	32699	32643	33519	
2110	0	32822	32758	32678	32613	32607	32621	32829	33135	
2111	0	32816	32839	32631	32807	32707	32855	32943	32511	
2112	0	32743	32597	32671	32808	32647	33039	32877	31869	
2113	0	32703	32642	32729	33079	32532	33071	32871	31751	
2114	0	32708	32789	32659	33057	32591	33203	32819	32179	
2115	0	32714	32829	32669	33007	32617	33159	32775	32527	
2116	0	32701	32775	32659	33193	32459	33045	32811	32587	
2117	0	32698	32927	32687	33127	32671	32892	32741	32946	
2118	0	32679	32911	32739	32989	32775	32589	32711	33117	
2119	0	32742	32759	32735	32767	32679	32434	32659	33055	
2120	0	32734	32581	32623	32503	32725	32502	32647	32957	
2121	0	32741	32699	32647	32367	32775	32723	32667	32974	
2122	0	32781	32827	32663	32535	32615	32743	32642	32735	
2123	0	32751	32775	32743	32676	32710	32767	32667	32525	
2124	0	32755	32681	32687	32767	32711	32751	32663	32611	
2125	0	32680	32742	32751	32683	32708	32839	32658	32883	
2126	0	32719	32786	32639	32700	32739	32775	32695	32775	
2127	0	32743	32854	32678	32591	32613	32636	32727	32975	
2128	0	32772	32823	32761	32613	32803	32733	32587	32847	
2129	0	32798	32615	32756	32547	32844	32842	32623	32623	
2130	0	32801	32719	32775	32501	32690	32714	32534	32695	
2131	0	32839	32759	32717	32683	32681	32853	32623	32518	
2132	0	32790	32879	32598	32619	32477	32804	32633	32463	
2133	0	32759	32679	32785	32662	32679	32775	32801	32382	
2134	0	32775	32659	32669	32578	32763	32877	32827	32187	
2135	0	32756	32827	32708	32943	32583	32815	32821	32415	
2136	0	32734	32829	32635	33007	32642	32749	32765	32687	
2137	0	32834	32867	32702	32962	32644	32739	32710	32739	
2138	0	32758	32865	32828	33037	32687	32684	32868	32647	
2139	0	32748	32647	32775	32917	32775	32699	32755	32794	
2140	0	32786	32510	32671	32990	32527	32755	32607	33094	
2141	0	32772	32727	32631	32829	32733	32743	32669	33031	
2142	0	32767	32771	32766	32903	32828	32719	32705	32925	
2143	0	32730	32885	32671	32716	32668	32677	32724	32861	
2144	0	32726	32655	32671	32718	32727	32634	32727	32530	
2145	0	32718	32613	32533	32757	32695	32867	32626	32623	
2146	0	32736	32775	32735	32663	32660	32903	32547	32983	
2147	0	32751	32820	32726	32559	32690	32903	32566	32819	
