# OpenSignals Text File Format
# {"00:07:80:3B:46:38": {"sensor": ["CUSTOM/0.5/1.0/V", "CUSTOM/0.5/1.0/V", "CUSTOM/0.5/1.0/V", "CUSTOM/0.5/1.0/V", "CUSTOM/0.5/1.0/V", "CUSTOM/0.5/1.0/V", "CUSTOM/0.5/1.0/V", "CUSTOM/0.5/1.0/V"], "device name": "EMGs", "column": ["nSeq", "DI", "RA_L", "RA_R", "OE_L", "OE:R", "IL_L", "IL_R", "MF_L", "MF_R"], "sync interval": 2, "time": "17:40:41.217", "comments": "", "device connection": "BTH00:07:80:3B:46:38", "channels": [1, 2, 3, 4, 5, 6, 7, 8], "date": "2017-6-1", "mode": 0, "digital IO": [0, 1], "firmware version": 772, "device": "biosignalsplux", "position": 0, "sampling rate": 1000, "label": ["RA_L", "RA_R", "OE_L", "OE:R", "IL_L", "IL_R", "MF_L", "MF_R"], "resolution": [16, 16, 16, 16, 16, 16, 16, 16], "special": [{}, {}, {}, {}, {}, {}, {}, {}]}}
# EndOfHeader
0	0	32754	32775	32703	32647	32844	32623	32801	32635	
1	0	32823	32615	32759	32775	32858	32743	32767	32603	
2	0	32760	32709	32711	32770	32843	32735	32775	32647	
3	0	32731	32695	32631	32767	32684	32710	32795	32695	
4	0	32798	32647	32657	32764	32769	32749	32711	32751	
5	0	32771	32694	32660	32823	32843	32735	32671	32679	
6	0	32748	32709	32634	32847	32635	32775	32846	32795	
7	0	32847	32807	32615	32793	32818	32711	32743	32645	
8	0	32793	32627	32743	32786	32839	32715	32647	32584	
9	0	32775	32570	32775	32847	32566	32647	32766	32645	
10	0	32728	32738	32801	32887	32807	32799	32900	32735	
11	0	32709	32733	32643	32809	32759	32829	32647	32694	
12	0	32673	32749	32621	32662	32683	32807	32783	32625	
13	0	32681	32846	32631	32730	32771	32791	32820	32655	
14	0	32630	32703	32767	32730	32870	32790	32668	32451	
15	0	32657	32635	32701	32775	32759	32807	32823	32491	
16	0	32703	32623	32729	32733	32847	32799	32797	32663	
17	0	32738	32783	32735	32599	32823	32679	32754	32663	
18	0	32770	32868	32911	32647	32693	32780	32691	32661	
19	0	32751	32847	32919	32687	32835	32775	32730	32707	
20	0	32818	32879	32966	32647	32814	32863	32467	32527	
21	0	32801	32822	32865	32620	32667	32797	32671	32677	
22	0	32852	32685	33015	32481	32732	32890	32810	32711	
23	0	32825	32769	32775	32603	32759	32822	32679	32743	
24	0	32763	32773	32663	32661	32667	32835	32743	32722	
25	0	32834	32775	32695	32543	32749	32804	32738	32771	
26	0	32894	32683	32647	32524	32861	32745	32799	32797	
27	0	32887	32791	32590	32527	32707	32759	32604	32573	
28	0	32766	32743	32578	32613	32869	32871	32762	32567	
29	0	32826	32775	32639	32429	32843	32833	32843	32725	
30	0	32788	32693	32585	32485	32827	32764	32613	32615	
31	0	32828	32711	32543	32357	32748	32709	32790	32708	
32	0	32783	32799	32555	32592	32775	32774	32810	32631	
33	0	32741	32717	32583	32628	32775	32700	32879	32737	
34	0	32808	32707	32619	32623	32733	32698	32691	32863	
35	0	32823	32613	32591	32871	32667	32687	32851	32823	
36	0	32713	32839	32577	32815	32823	32676	32934	32685	
37	0	32709	32735	32587	32967	32836	32642	32646	32725	
38	0	32661	32595	32623	33031	32755	32749	32822	32725	
39	0	32691	32633	32732	33187	32773	32611	32830	32788	
40	0	32629	32683	32850	33204	32735	32797	32633	32700	
41	0	32700	32757	32943	33283	32685	32840	32725	32791	
42	0	32749	32701	32827	33183	32673	32814	32830	32598	
43	0	32761	32609	32811	32967	32859	32823	32845	32615	
44	0	32846	32695	32885	33021	32758	32762	32636	32573	
45	0	32838	32721	32859	32749	32887	32773	32717	32695	
46	0	32897	32675	32679	32837	32695	32855	32804	32485	
47	0	32911	32719	32850	32823	32802	32867	32869	32663	
48	0	32752	32647	32735	32647	32854	32795	32644	32629	
49	0	32742	32635	32748	32695	32933	32787	32823	32748	
50	0	32740	32671	32702	32535	32718	32642	32941	32646	
51	0	32773	32727	32767	32573	32790	32707	32690	32798	
52	0	32773	32629	32691	32340	32765	32739	32831	32743	
53	0	32756	32783	32677	32391	32733	32757	32829	32759	
54	0	32758	32821	32673	32279	32749	32669	32583	32791	
55	0	32741	32725	32663	32343	32720	32741	32715	32503	
56	0	32738	32615	32631	32178	32802	32818	32788	32623	
57	0	32804	32705	32644	32298	32605	32903	32595	32654	
58	0	32775	32711	32703	32237	32727	32741	32759	32714	
59	0	32735	32757	32621	32333	32671	32775	32771	32587	
60	0	32700	32861	32647	32303	32707	32735	32775	32641	
61	0	32782	32871	32775	32375	32793	32748	32787	32663	
62	0	32735	32813	32683	32501	32627	32773	32636	32679	
63	0	32706	32803	32773	32658	32783	32811	32741	32556	
64	0	32660	32887	32806	32775	32738	32743	32767	32647	
65	0	32564	32862	32759	32694	32757	32854	32761	32574	
66	0	32647	32831	32759	32719	32855	32855	32647	32519	
67	0	32729	32644	32797	32646	32719	32670	32821	32660	
68	0	32729	32619	32734	32711	32838	32583	32867	32773	
69	0	32773	32702	32759	32581	32813	32731	32591	32694	
70	0	32743	32739	32851	32671	32691	32845	32771	32511	
71	0	32882	32731	32771	32669	32823	32842	32903	32483	
72	0	32822	32721	32719	32844	32767	32673	32551	32483	
73	0	32806	32823	32711	32677	32783	32661	32727	32644	
74	0	32826	32925	32689	32533	32615	32694	32855	32729	
75	0	32773	32911	32639	32711	32855	32740	32775	32601	
76	0	32812	32791	32679	32718	32902	32823	32647	32713	
77	0	32743	32811	32707	32672	32697	32767	32812	32783	
78	0	32735	32687	32749	32791	32756	32695	32876	32747	
79	0	32727	32615	32791	32847	32775	32723	32731	32823	
80	0	32756	32639	32775	32855	32841	32740	32637	32615	
81	0	32799	32611	32793	32733	32607	32821	32866	32647	
82	0	32780	32743	32674	32717	32757	32771	32903	32698	
83	0	32794	32807	32706	32719	32666	32743	32617	32717	
84	0	32856	32775	32647	32637	32743	32765	32707	32679	
85	0	32831	32630	32644	32973	32887	32837	32721	32605	
86	0	32751	32613	32631	33071	32765	32701	32607	32717	
87	0	32794	32621	32699	32900	32855	32735	32793	32599	
88	0	32783	32574	32665	32749	32623	32717	32859	32708	
89	0	32783	32647	32732	32614	32819	32772	32951	32613	
90	0	32788	32767	32679	32413	32742	32815	32623	32653	
91	0	32748	32805	32701	32507	32727	32881	32685	32630	
92	0	32781	32802	32743	32367	32720	32815	32671	32566	
93	0	32748	32718	32807	32483	32838	32707	32735	32713	
94	0	32662	32670	32797	32453	32785	32903	32602	32450	
95	0	32673	32870	32790	32573	32679	32967	32783	32455	
96	0	32714	32843	32817	32647	32833	32836	32858	32629	
97	0	32732	32787	32721	32561	32807	32775	32804	32711	
98	0	32810	32675	32775	32853	32747	32683	32557	32703	
99	0	32747	32645	32761	32802	32673	32508	32783	32803	
100	0	32725	32733	32798	32876	32790	32567	32821	32831	
101	0	32746	32687	32791	32915	32695	32709	32685	32775	
102	0	32812	32717	32747	32926	32807	32703	32583	32763	
103	0	32860	32627	32647	32955	32799	32731	32751	32605	
104	0	32860	32654	32676	32967	32765	32703	32815	32751	
105	0	32827	32740	32647	32903	32815	32767	32661	32723	
106	0	32783	32577	32707	32815	32806	32727	32774	32710	
107	0	32773	32687	32671	32783	32787	32762	32823	32631	
108	0	32798	32722	32663	32719	32919	32799	32583	32565	
109	0	32684	32719	32773	32559	32825	32839	32815	32676	
110	0	32734	32711	32610	32583	32847	32807	32820	32691	
111	0	32725	32771	32639	32555	32765	32755	32733	32620	
112	0	32698	32807	32587	32561	32623	32660	32754	32621	
113	0	32766	32627	32605	32493	32766	32863	32783	32511	
114	0	32802	32749	32671	32695	32773	32775	32669	32647	
115	0	32790	32726	32615	32801	32631	32871	32551	32687	
116	0	32743	32743	32748	32501	32784	32877	32759	32723	
117	0	32713	32635	32676	32476	32846	32794	32882	32511	
118	0	32735	32822	32751	32231	32923	32903	32619	32519	
119	0	32749	32804	32815	32206	32601	32804	32631	32621	
120	0	32736	32954	32751	32039	32804	32806	32759	32621	
121	0	32731	32767	32766	32302	32807	32775	32804	32551	
122	0	32740	32719	32791	32415	32749	32711	32743	32711	
123	0	32732	32731	32787	32509	32703	32631	32687	32733	
124	0	32715	32699	32833	32629	32675	32755	32829	32599	
125	0	32790	32655	32803	32711	32810	32799	32883	32851	
126	0	32838	32549	32769	32958	32709	32701	32879	32883	
127	0	32743	32385	32731	32957	32738	32863	32687	32707	
128	0	32807	32431	32707	33319	32623	32743	32807	32839	
129	0	32738	32553	32751	33333	32817	32690	32756	32571	
130	0	32866	32858	32765	33031	32811	32647	32835	32699	
131	0	32839	32756	32623	33043	32789	32799	32685	32639	
132	0	32795	32899	32625	33111	32638	32789	32675	32731	
133	0	32756	32993	32623	33149	32797	32804	32858	32502	
134	0	32728	32854	32623	32925	32723	32772	32819	32726	
135	0	32688	32751	32719	32691	32823	32737	32695	32799	
136	0	32783	32727	32647	32747	32787	32631	32609	32670	
137	0	32717	32783	32705	32595	32615	32687	32799	32687	
138	0	32753	32715	32679	32351	32773	32741	32806	32679	
139	0	32756	32741	32643	32335	32755	32735	32852	32519	
140	0	32726	32775	32611	32359	32805	32791	32762	32681	
141	0	32679	32847	32607	32367	32639	32715	32679	32692	
142	0	32701	32802	32639	32587	32815	32725	32788	32751	
143	0	32798	32935	32647	32583	32751	32724	32864	32707	
144	0	32752	32863	32639	32836	32791	32703	32708	32543	
145	0	32863	32786	32717	32802	32879	32743	32700	32601	
146	0	32829	32613	32786	32959	32787	32759	32738	32627	
147	0	32775	32818	32837	32837	32869	32871	32899	32635	
148	0	32743	32837	32829	32832	32735	32839	32663	32676	
149	0	32756	32635	32703	32806	32743	32775	32817	32503	
150	0	32782	32685	32735	32621	32735	32887	32763	32583	
151	0	32796	32708	32844	32534	32820	32903	32637	32565	
152	0	32839	32581	32793	32519	32724	32799	32815	32711	
153	0	32698	32639	32599	32591	32807	32701	32851	32628	
154	0	32630	32839	32413	32391	32676	32741	32563	32671	
155	0	32726	32873	32666	32575	32767	32810	32723	32741	
156	0	32681	32855	32831	32365	32699	32997	32813	32676	
157	0	32586	32821	32733	32587	32683	32764	32636	32669	
158	0	32601	32795	32765	32475	32804	32677	32831	32711	
159	0	32709	32815	32698	32558	32773	32775	32803	32715	
160	0	32797	32759	32723	32423	32714	32743	32596	32647	
161	0	32708	32789	32679	32539	32643	32791	32739	32637	
162	0	32724	32679	32647	32535	32677	32683	32799	32674	
163	0	32750	32687	32759	32681	32823	32709	32579	32825	
164	0	32754	32807	32804	32542	32685	32773	32735	32703	
165	0	32783	32655	32679	32555	32783	32815	32868	32727	
166	0	32796	32775	32697	32549	32785	32718	32621	32679	
167	0	32857	32863	32647	32599	32663	32685	32787	32743	
168	0	32921	32813	32662	32421	32870	32749	32775	32453	
169	0	32857	32668	32679	32562	32807	32775	32809	32575	
170	0	32877	32763	32736	32555	32767	32719	32891	32625	
171	0	32873	32746	32713	32683	32804	32692	32583	32556	
172	0	32841	32567	32793	32539	32859	32743	32726	32615	
173	0	32788	32519	32735	32701	32687	32726	32898	32495	
174	0	32775	32597	32765	32639	32815	32847	32609	32615	
175	0	32753	32646	32711	32709	32802	32775	32773	32661	
176	0	32763	32612	32639	32756	32611	32803	32765	32775	
177	0	32727	32647	32605	32679	32786	32813	32659	32539	
178	0	32775	32692	32719	32669	32823	32845	32797	32515	
179	0	32781	32655	32785	32575	32775	32745	32629	32487	
180	0	32831	32743	32811	32727	32731	32831	32717	32566	
181	0	32820	32655	32660	32547	32773	32943	32795	32599	
182	0	32751	32687	32623	32551	32821	32887	32595	32573	
183	0	32745	32759	32663	32450	32789	32759	32772	32637	
184	0	32783	32846	32799	32602	32684	32845	32700	32775	
185	0	32743	32655	32695	32495	32807	32935	32761	32567	
186	0	32705	32693	32748	32567	32869	32601	32848	32663	
187	0	32705	32677	32662	32487	32751	32676	32703	32807	
188	0	32694	32711	32647	32514	32795	32769	32797	32668	
189	0	32684	32661	32610	32583	32763	32711	32865	32685	
190	0	32758	32558	32690	32668	32677	32687	32638	32815	
191	0	32799	32613	32897	32591	32831	32615	32754	32647	
192	0	32796	32525	32830	32763	32705	32607	32723	32571	
193	0	32717	32647	32647	32799	32765	32683	32551	32833	
194	0	32677	32727	32647	32927	32861	32693	32764	32855	
195	0	32640	32852	32609	32885	32911	32758	32839	32691	
196	0	32655	32771	32679	32871	32823	32667	32775	32486	
197	0	32715	32965	32751	32884	32692	32699	32799	32730	
198	0	32745	32867	32623	32974	32869	32564	32883	32799	
199	0	32688	32735	32671	33071	32775	32679	32815	32773	
200	0	32767	32619	32796	32937	32762	32811	32639	32469	
201	0	32718	32671	32711	32957	32749	32767	32775	32623	
202	0	32783	32601	32677	32711	32717	32903	32775	32642	
203	0	32797	32661	32703	32756	32813	32895	32791	32683	
204	0	32788	32633	32747	32647	32788	32863	32794	32545	
205	0	32813	32879	32751	32847	32791	32763	32791	32701	
206	0	32903	32903	32679	32671	32783	32759	32581	32655	
207	0	32858	32710	32764	32823	32790	32696	32699	32703	
208	0	32847	32803	32723	32981	32679	32855	32599	32591	
209	0	32813	32708	32639	32967	32718	32748	32759	32610	
210	0	32789	32756	32660	32903	32823	32706	32807	32759	
211	0	32711	32791	32589	32802	32798	32740	32791	32551	
212	0	32839	32814	32743	32586	32717	32791	32775	32717	
213	0	32739	32695	32775	32733	32747	32692	32727	32764	
214	0	32726	32647	32732	32487	32714	32695	32656	32707	
215	0	32741	32799	32738	32501	32742	32821	32615	32831	
216	0	32820	32881	32751	32307	32677	32741	32783	32756	
217	0	32806	32645	32711	32436	32839	32814	32903	32807	
218	0	32710	32635	32719	32231	32775	32839	32595	32677	
219	0	32702	32791	32655	32231	32803	32756	32775	32543	
220	0	32782	32791	32707	32329	32827	32763	32969	32390	
221	0	32742	32709	32635	32378	32818	32903	32761	32581	
222	0	32738	32751	32577	32391	32862	32833	32819	32584	
223	0	32727	32903	32759	32352	32644	32869	32855	32607	
224	0	32767	32950	32839	32439	32895	32943	32601	32628	
225	0	32742	32767	32759	32364	32855	32887	32729	32615	
226	0	32782	32915	32731	32486	32691	32863	32854	32732	
227	0	32805	32948	32845	32391	32719	32923	32655	32687	
228	0	32851	32955	32839	32311	32599	32722	32729	32663	
229	0	32895	32839	32727	32031	32767	32726	32871	32713	
230	0	32889	32855	32773	32127	32751	32615	32663	32663	
231	0	32782	32878	32751	32111	32711	32805	32811	32583	
232	0	32711	32711	32813	32541	32819	32719	32903	32581	
233	0	32744	32559	32723	32621	32683	32559	32711	32910	
234	0	32743	32676	32733	33001	32805	32640	32583	32663	
235	0	32820	32557	32671	33055	32827	32771	32775	32567	
236	0	32743	32572	32627	33036	32831	32727	32719	32485	
237	0	32751	32516	32747	32987	32761	32667	32767	32690	
238	0	32714	32607	32742	33107	32796	32671	32759	32725	
239	0	32685	32628	32613	33234	32754	32644	32798	32769	
240	0	32667	32599	32633	33543	32670	32647	32615	32743	
241	0	32711	32491	32635	33631	32839	32628	32722	32804	
242	0	32754	32475	32647	33519	32743	32599	32763	32815	
243	0	32711	32573	32647	33515	32867	32758	32855	32773	
244	0	32687	32631	32686	33207	32643	32787	32555	32786	
245	0	32771	32503	32775	32954	32763	32765	32757	32543	
246	0	32655	32556	32695	32789	32711	32756	32917	32503	
247	0	32729	32603	32641	32799	32679	32843	32715	32693	
248	0	32690	32611	32671	32621	32775	32876	32867	32627	
249	0	32760	32594	32647	32527	32795	32795	32883	32555	
250	0	32694	32607	32675	32543	32659	32799	32675	32675	
251	0	32828	32575	32775	32343	32807	32735	32802	32535	
252	0	32801	32620	32775	32405	32759	32858	32903	32525	
253	0	32791	32757	32783	32320	32847	32791	32655	32635	
254	0	32799	32839	32694	32275	32825	32885	32823	32690	
255	0	32805	32775	32769	32133	32767	32833	32771	32587	
256	0	32803	32919	32758	32370	32813	32943	32535	32782	
257	0	32841	32943	32823	32475	32757	32832	32643	32713	
258	0	32821	32957	32803	32527	32713	32759	32751	32675	
259	0	32743	32877	32675	32471	32763	32791	32647	32647	
260	0	32791	33039	32767	32517	32815	32842	32767	32722	
261	0	32741	32927	32720	32562	32695	32763	32774	32644	
262	0	32788	32975	32762	32533	32823	32727	32803	32604	
263	0	32764	32870	32767	32615	32659	32717	32647	32748	
264	0	32797	32997	32791	32495	32783	32627	32755	32695	
265	0	32773	32935	32729	32599	32855	32765	32854	32815	
266	0	32726	32764	32719	32593	32775	32819	32511	32839	
267	0	32807	32837	32631	32515	32615	32647	32718	32485	
268	0	32786	32733	32605	32687	32833	32783	32871	32557	
269	0	32783	32703	32679	32621	32770	32871	32663	32501	
270	0	32742	32471	32663	32436	32807	32831	32711	32597	
271	0	32800	32603	32694	32157	32687	32831	32711	32812	
272	0	32743	32731	32709	32081	32927	32791	32647	32735	
273	0	32704	32725	32612	32115	32863	32854	32679	32399	
274	0	32698	32773	32630	32335	32789	32791	32843	32715	
275	0	32703	32827	32766	32527	32875	32677	32839	32791	
276	0	32775	32751	32759	33021	32751	32627	32699	32747	
277	0	32703	32701	32711	33285	32682	32625	32879	32836	
278	0	32578	32525	32735	33611	32821	32551	32739	32935	
279	0	32647	32467	32910	33622	32679	32551	32699	32823	
280	0	32660	32439	32863	33565	32807	32555	32647	32730	
281	0	32704	32465	32883	33377	32686	32550	32470	32785	
282	0	32713	32563	32747	33349	32775	32582	32577	32991	
283	0	32707	32491	32639	32962	32813	32541	32655	32937	
284	0	32751	32602	32791	32913	32655	32677	32325	32949	
285	0	32743	32507	32703	32699	32723	32747	32447	32911	
286	0	32742	32659	32679	32703	32719	32775	32516	32933	
287	0	32682	32743	32545	32447	32542	32663	32373	32743	
288	0	32658	32789	32549	32382	32738	32726	32535	32815	
289	0	32687	32775	32495	32263	32667	32855	32613	32854	
290	0	32665	32863	32442	32413	32705	32755	32531	32707	
291	0	32601	32825	32383	32301	32565	32823	32692	32791	
292	0	32557	32735	32455	32531	32565	32927	32749	32588	
293	0	32596	32807	32365	32399	32562	32947	32743	32507	
294	0	32666	32757	32453	32461	32581	32966	32887	32484	
295	0	32686	32721	32319	32391	32615	33097	32709	32525	
296	0	32764	32969	32301	32275	32514	33012	33059	32499	
297	0	32852	33053	32391	32207	32658	32957	33051	32436	
298	0	32758	32954	32439	32099	32623	33055	33031	32501	
299	0	32780	33012	32389	32071	32535	33091	33199	32566	
300	0	32747	33053	32359	31894	32633	33135	32885	32431	
301	0	32743	33055	32337	32071	32524	33142	32977	32515	
302	0	32717	32983	32335	32127	32590	33125	32941	32514	
303	0	32679	32919	32322	32199	32398	33061	32741	32495	
304	0	32673	32973	32335	32165	32589	33123	32799	32647	
305	0	32701	32967	32447	32048	32497	33088	32828	32519	
306	0	32786	32955	32463	32135	32556	33215	32686	32485	
307	0	32800	33060	32487	32191	32583	33143	32863	32524	
308	0	32786	33055	32605	32199	32607	33027	32954	32495	
309	0	32814	32871	32647	32454	32711	32914	32903	32299	
310	0	32814	32833	32723	32693	32735	32775	33159	32329	
311	0	32797	32679	32855	32943	32991	32668	33399	32379	
312	0	32883	32429	32947	32900	32971	32591	33132	32455	
313	0	32967	32391	33054	32975	33063	32371	33159	32557	
314	0	32989	32399	33209	33031	32974	32338	33087	32471	
315	0	32940	32479	33204	32867	33076	32257	32943	32717	
316	0	33063	32579	33410	33146	33167	32235	32705	32735	
317	0	33116	32477	33281	33391	33159	32330	32835	32797	
318	0	33189	32493	33473	33567	33267	32355	32868	32584	
319	0	33217	32459	33441	34039	33266	32375	32980	32655	
320	0	33230	32543	33502	34017	33205	32483	32772	32623	
321	0	33250	32583	33567	34007	33383	32387	32899	32575	
322	0	33287	32591	33693	33915	33213	32489	33039	32543	
323	0	33190	32423	33563	33497	33287	32503	32668	32747	
324	0	33100	32371	33508	33383	33143	32461	32647	32813	
325	0	32935	32379	33395	33133	33247	32455	32685	32943	
326	0	32820	32391	33330	33095	33139	32615	32647	32599	
327	0	32788	32311	33159	32866	33021	32551	32671	32515	
328	0	32711	32485	33039	33009	33046	32455	32459	32687	
329	0	32698	32519	32911	32791	32893	32615	32501	32810	
330	0	32564	32655	32738	32839	32895	32549	32534	32775	
331	0	32481	32580	32687	32753	32710	32543	32359	32869	
332	0	32487	32511	32703	32767	32829	32647	32335	32783	
333	0	32516	32665	32489	32679	32684	32613	32333	32799	
334	0	32578	32806	32479	32498	32487	32751	32255	32795	
335	0	32600	32711	32383	32479	32615	32885	32419	32647	
336	0	32597	32875	32255	32411	32595	32943	32647	32733	
337	0	32575	32844	32270	32477	32455	32869	32559	32765	
338	0	32523	32681	32367	32375	32575	32957	32854	32503	
339	0	32474	32555	32311	32391	32559	33131	33029	32543	
340	0	32511	32732	32231	32367	32492	32886	32711	32578	
341	0	32571	32727	32335	32340	32548	32967	32855	32733	
342	0	32599	32789	32367	32407	32445	33007	32790	32531	
343	0	32516	32893	32367	32335	32629	32999	32535	32573	
344	0	32544	32879	32427	32191	32483	32822	32645	32695	
345	0	32596	32903	32487	32339	32647	32713	32699	32846	
346	0	32710	32749	32543	32493	32668	32671	32693	32676	
347	0	32713	32831	32605	32375	32611	32647	32549	32999	
348	0	32703	32932	32663	32527	32623	32751	32725	32810	
349	0	32711	32859	32701	32415	32559	32775	32787	32871	
350	0	32687	32829	32705	32319	32727	32703	32727	32773	
351	0	32671	32807	32623	32455	32702	32822	32557	32695	
352	0	32788	32817	32641	32439	32787	32865	32727	32687	
353	0	32804	32883	32655	32663	32722	32871	32858	32788	
354	0	32828	32739	32587	32719	32735	32903	32641	32539	
355	0	32812	32735	32623	32983	32837	32823	32815	32715	
356	0	32756	32623	32643	32802	32663	32759	32878	32710	
357	0	32717	32647	32615	32541	32775	32676	32726	32807	
358	0	32783	32633	32621	32571	32702	32821	32859	32855	
359	0	32800	32749	32756	32557	32807	32791	32767	32642	
360	0	32791	32935	32699	32637	32681	32839	32767	32767	
361	0	32827	32866	32788	32563	32775	32806	32639	32829	
362	0	32772	32822	32727	32666	32791	32801	32756	32659	
363	0	32855	32885	32661	32635	32716	32797	32806	32721	
364	0	32804	32983	32719	32775	32799	32830	32831	32679	
365	0	32808	32813	32647	32571	32647	32847	32658	32497	
366	0	32804	32722	32719	32564	32823	32749	32795	32645	
367	0	32788	32747	32806	32613	32758	32709	32924	32583	
368	0	32850	32695	32757	32639	32717	32823	32767	32668	
369	0	32818	32749	32711	32647	32679	32839	32913	32679	
370	0	32793	32647	32646	32543	32820	32775	32871	32459	
371	0	32839	32583	32735	32775	32836	32745	32532	32647	
372	0	32796	32703	32663	32773	32722	32783	32756	32641	
373	0	32783	32673	32727	32647	32660	32749	32822	32803	
374	0	32769	32703	32723	32735	32836	32641	32837	32751	
375	0	32760	32588	32743	32631	32759	32765	32599	32427	
376	0	32655	32647	32759	32727	32745	32759	32732	32559	
377	0	32710	32703	32757	32669	32647	32788	32839	32671	
378	0	32732	32671	32758	32454	32847	32795	32783	32613	
379	0	32782	32787	32709	32437	32719	32765	32807	32545	
380	0	32752	32647	32703	32367	32803	32787	32820	32688	
381	0	32775	32787	32647	32551	32775	32677	32679	32743	
382	0	32654	32737	32615	32603	32734	32739	32601	32723	
383	0	32588	32815	32647	32549	32851	32823	32775	32577	
384	0	32678	32709	32711	32763	32647	32796	32802	32767	
385	0	32745	32711	32703	32919	32791	32684	32615	32681	
386	0	32798	32743	32815	32835	32775	32775	32681	32791	
387	0	32761	32718	32799	32921	32807	32743	32838	32655	
388	0	32825	32595	32767	32775	32823	32703	32647	32549	
389	0	32816	32703	32725	33075	32879	32578	32759	32762	
390	0	32839	32759	32735	32963	32749	32731	32789	32743	
391	0	32775	32796	32654	32847	32671	32713	32611	32686	
392	0	32791	32623	32701	32911	32871	32818	32775	32727	
393	0	32768	32578	32618	32865	32705	32797	32827	32751	
394	0	32794	32615	32621	32893	32775	32710	32743	32578	
395	0	32775	32687	32666	32796	32673	32735	32677	32639	
396	0	32773	32727	32706	32557	32647	32727	32810	32587	
397	0	32738	32621	32719	32595	32789	32763	32797	32715	
398	0	32815	32647	32818	32550	32726	32722	32615	32513	
399	0	32833	32706	32719	32479	32771	32772	32758	32687	
400	0	32827	32798	32737	32475	32851	32795	32887	32685	
401	0	32761	32642	32799	32545	32741	32759	32631	32647	
402	0	32748	32846	32785	32527	32775	32719	32763	32690	
403	0	32820	32855	32806	32670	32647	32867	32847	32583	
404	0	32805	32662	32828	32661	32743	32823	32591	32683	
405	0	32835	32789	32806	32593	32803	32837	32741	32683	
406	0	32780	32799	32629	32701	32743	32851	32825	32687	
407	0	32780	32759	32527	32707	32630	32809	32775	32533	
408	0	32813	32690	32683	32759	32738	32814	32775	32707	
409	0	32796	32665	32829	32743	32677	32801	32773	32677	
410	0	32802	32679	32759	32573	32807	32803	32879	32663	
411	0	32820	32686	32789	32684	32749	32756	32639	32690	
412	0	32780	32775	32745	32567	32715	32749	32787	32679	
413	0	32719	32767	32758	32422	32873	32839	32855	32773	
414	0	32710	32823	32727	32634	32823	32813	32869	32681	
415	0	32710	32743	32679	32621	32783	32765	32607	32598	
416	0	32682	32821	32655	32667	32801	32807	32717	32726	
417	0	32672	32775	32663	32585	32861	32806	32775	32756	
418	0	32689	32811	32675	32481	32767	32691	32605	32743	
419	0	32735	32692	32647	32615	32688	32647	32845	32535	
420	0	32783	32733	32595	32671	32799	32807	32815	32687	
421	0	32823	32823	32583	32810	32743	32740	32631	32671	
422	0	32791	32787	32665	32815	32839	32839	32751	32756	
423	0	32796	32759	32643	32743	32839	32719	32775	32703	
424	0	32788	32773	32739	32823	32711	32775	32663	32647	
425	0	32799	32677	32647	32875	32763	32711	32595	32749	
426	0	32732	32687	32679	32841	32818	32639	32635	32739	
427	0	32738	32662	32669	32815	32691	32658	32823	32567	
428	0	32713	32629	32741	32748	32839	32663	32935	32628	
429	0	32687	32743	32692	32679	32737	32827	32791	32587	
430	0	32695	32822	32637	32457	32894	32765	32775	32583	
431	0	32766	32699	32628	32498	32697	32918	32612	32501	
432	0	32695	32659	32743	32553	32683	32859	32647	32662	
433	0	32710	32687	32685	32591	32769	32735	32723	32615	
434	0	32667	32723	32711	32639	32775	32763	32799	32671	
435	0	32716	32631	32775	32611	32799	32739	32839	32775	
436	0	32749	32629	32788	32695	32700	32771	32775	32612	
437	0	32763	32719	32834	32687	32749	32795	32815	32727	
438	0	32743	32699	32761	32639	32721	32804	32901	32703	
439	0	32726	32787	32764	32635	32658	32719	32799	32557	
440	0	32791	32655	32847	32751	32781	32767	32763	32671	
441	0	32799	32671	32727	32724	32719	32793	32758	32647	
442	0	32748	32767	32755	32583	32803	32735	32705	32775	
443	0	32787	32804	32751	32775	32711	32755	32613	32574	
444	0	32719	32751	32749	32811	32719	32759	32661	32735	
445	0	32770	32668	32813	32739	32749	32682	32865	32669	
446	0	32762	32838	32711	32785	32759	32795	32607	32701	
447	0	32793	32799	32787	32535	32795	32834	32797	32603	
448	0	32790	32763	32847	32727	32601	32857	32791	32553	
449	0	32802	32663	32757	32567	32759	32818	32639	32715	
450	0	32740	32767	32560	32647	32783	32782	32767	32669	
451	0	32811	32751	32599	32687	32851	32829	32673	32740	
452	0	32814	32692	32711	32727	32647	32822	32723	32839	
453	0	32793	32725	32707	32647	32844	32647	32819	32527	
454	0	32808	32707	32697	32703	32844	32719	32540	32623	
455	0	32784	32617	32731	32526	32714	32735	32799	32739	
456	0	32723	32743	32555	32663	32837	32785	32763	32628	
457	0	32764	32679	32647	32682	32797	32613	32769	32775	
458	0	32862	32715	32683	32715	32805	32727	32783	32887	
459	0	32871	32736	32724	32703	32597	32733	32578	32619	
460	0	32782	32743	32711	32541	32785	32791	32799	32695	
461	0	32775	32743	32647	32635	32835	32706	32884	32775	
462	0	32727	32654	32679	32687	32712	32756	32633	32702	
463	0	32759	32716	32663	32634	32855	32843	32915	32791	
464	0	32698	32647	32751	32643	32839	32757	32647	32783	
465	0	32720	32686	32797	32685	32805	32751	32762	32647	
466	0	32718	32793	32737	32642	32767	32773	32903	32751	
467	0	32751	32851	32743	32719	32701	32799	32647	32774	
468	0	32773	32695	32711	32647	32833	32707	32841	32637	
469	0	32742	32759	32647	32723	32677	32707	32747	32612	
470	0	32756	32815	32708	32885	32611	32689	32660	32701	
471	0	32799	32757	32757	32903	32757	32751	32773	32731	
472	0	32760	32622	32743	32827	32757	32791	32839	32654	
473	0	32736	32575	32750	32830	32793	32751	32647	32646	
474	0	32821	32621	32689	32823	32687	32727	32701	32685	
475	0	32820	32749	32623	32775	32703	32747	32738	32660	
476	0	32773	32615	32573	32775	32855	32647	32699	32551	
477	0	32809	32647	32630	32764	32775	32687	32582	32575	
478	0	32790	32851	32681	32607	32821	32757	32807	32692	
479	0	32705	32751	32669	32725	32743	32815	32924	32679	
480	0	32743	32767	32743	32741	32711	32847	32675	32700	
481	0	32779	32620	32735	32663	32854	32894	32860	32574	
482	0	32822	32645	32740	32751	32877	32877	32791	32673	
483	0	32799	32775	32741	32559	32820	32734	32629	32643	
484	0	32761	32853	32679	32655	32775	32739	32755	32668	
485	0	32796	32797	32678	32589	32621	32791	32787	32571	
486	0	32713	32753	32711	32663	32771	32825	32820	32647	
487	0	32714	32756	32799	32654	32793	32805	32627	32677	
488	0	32745	32703	32893	32575	32791	32815	32767	32709	
489	0	32806	32785	32835	32615	32771	32718	32876	32612	
490	0	32701	32683	32729	32471	32647	32699	32631	32575	
491	0	32714	32734	32621	32483	32775	32737	32775	32719	
492	0	32727	32717	32669	32389	32751	32821	32785	32630	
493	0	32710	32742	32827	32631	32583	32711	32610	32661	
494	0	32671	32647	32743	32459	32775	32700	32815	32751	
495	0	32726	32767	32683	32587	32705	32717	32735	32549	
496	0	32808	32741	32599	32429	32849	32830	32612	32727	
497	0	32763	32797	32690	32587	32583	32783	32775	32751	
498	0	32769	32615	32679	32579	32869	32681	32739	32754	
499	0	32761	32678	32743	32759	32827	32703	32559	32637	
500	0	32765	32705	32743	32793	32803	32735	32811	32532	
501	0	32790	32733	32687	32787	32681	32855	32839	32647	
502	0	32730	32615	32716	32748	32855	32871	32613	32669	
503	0	32711	32667	32775	32647	32787	32815	32735	32695	
504	0	32685	32719	32687	32822	32827	32700	32833	32679	
505	0	32676	32807	32793	32615	32647	32743	32599	32567	
506	0	32763	32709	32703	32727	32861	32767	32807	32557	
507	0	32762	32819	32735	32605	32887	32743	32679	32509	
508	0	32796	32803	32791	32639	32685	32761	32815	32690	
509	0	32865	32734	32823	32577	32771	32687	32899	32647	
510	0	32839	32726	32757	32604	32695	32739	32690	32585	
511	0	32811	32755	32711	32605	32807	32749	32834	32629	
512	0	32783	32647	32733	32703	32771	32847	33061	32639	
513	0	32726	32576	32663	32698	32772	32789	32774	32751	
514	0	32721	32693	32863	32733	32799	32735	32831	32613	
515	0	32684	32751	32807	32743	32579	32791	32863	32611	
516	0	32647	32647	32796	32647	32751	32815	32518	32697	
517	0	32668	32663	32743	32687	32679	32767	32729	32839	
518	0	32690	32773	32801	32479	32797	32775	32805	32844	
519	0	32662	32775	32769	32687	32740	32751	32599	32739	
520	0	32757	32767	32583	32676	32759	32742	32743	32711	
521	0	32801	32858	32554	32755	32604	32783	32607	32734	
522	0	32783	32821	32525	32549	32791	32769	32723	32835	
523	0	32836	32717	32495	32738	32727	32759	32694	32599	
524	0	32807	32726	32583	32525	32813	32703	32791	32727	
525	0	32706	32790	32673	32742	32887	32827	32583	32695	
526	0	32679	32743	32823	32717	32845	32823	32802	32624	
527	0	32767	32863	32837	32679	32639	32818	32775	32557	
528	0	32748	32821	32707	32748	32871	32788	32662	32643	
529	0	32790	32807	32689	32731	32718	32786	32740	32573	
530	0	32845	32735	32623	32567	32715	32797	32775	32462	
531	0	32889	32767	32685	32639	32803	32805	32630	32599	
532	0	32851	32669	32669	32731	32757	32713	32941	32582	
533	0	32815	32663	32609	32773	32695	32766	32708	32667	
534	0	32768	32765	32551	32727	32843	32799	32765	32703	
535	0	32751	32831	32471	32698	32767	32775	32878	32735	
536	0	32822	32577	32555	32647	32727	32735	32759	32765	
537	0	32839	32671	32611	32662	32788	32805	32733	32647	
538	0	32878	32775	32671	32487	32823	32699	32871	32775	
539	0	32826	32797	32727	32679	32827	32663	32903	32807	
540	0	32784	32843	32679	32695	32634	32647	32607	32807	
541	0	32821	32699	32729	32763	32847	32711	32721	32607	
542	0	32847	32671	32660	32703	32786	32733	32774	32723	
543	0	32797	32751	32731	32607	32815	32775	32663	32639	
544	0	32784	32666	32667	32646	32691	32775	32693	32662	
545	0	32740	32599	32791	32573	32755	32703	32748	32797	
546	0	32782	32771	32765	32711	32803	32663	32731	32626	
547	0	32676	32708	32796	32743	32754	32699	32595	32643	
548	0	32677	32731	32793	32799	32669	32719	32718	32663	
549	0	32677	32623	32655	32749	32885	32687	32823	32759	
550	0	32666	32670	32683	32673	32817	32775	32603	32466	
551	0	32729	32799	32723	32846	32678	32813	32757	32635	
552	0	32738	32733	32730	32710	32807	32793	32860	32641	
553	0	32804	32679	32751	32745	32799	32703	32716	32738	
554	0	32775	32595	32707	32735	32830	32871	32745	32569	
555	0	32723	32663	32570	32743	32677	32743	32852	32525	
556	0	32737	32671	32563	32775	32801	32839	32647	32683	
557	0	32721	32663	32810	32751	32655	32839	32815	32662	
558	0	32681	32655	32879	32631	32641	32727	32903	32684	
559	0	32655	32834	32823	32663	32641	32775	32639	32732	
560	0	32726	32675	32825	32630	32759	32799	32751	32601	
561	0	32754	32719	32807	32429	32689	32732	32764	32767	
562	0	32826	32727	32847	32677	32754	32839	32625	32735	
563	0	32825	32743	32829	32612	32859	32740	32663	32781	
564	0	32879	32603	32787	32759	32773	32644	32735	32647	
565	0	32846	32719	32671	32634	32843	32655	32719	32671	
566	0	32847	32679	32695	32701	32671	32822	32605	32709	
567	0	32822	32767	32687	32663	32855	32751	32775	32727	
568	0	32711	32647	32637	32501	32807	32758	32927	32455	
569	0	32673	32638	32693	32623	32767	32807	32743	32647	
570	0	32812	32640	32755	32699	32731	32763	32603	32758	
571	0	32778	32759	32797	32591	32657	32833	32731	32611	
572	0	32758	32815	32726	32666	32839	32775	32790	32584	
573	0	32754	32727	32747	32663	32819	32743	32579	32663	
574	0	32751	32725	32823	32742	32633	32765	32786	32754	
575	0	32801	32747	32769	32611	32775	32767	32671	32685	
576	0	32847	32699	32775	32705	32743	32815	32615	32783	
577	0	32868	32645	32737	32583	32834	32766	32739	32537	
578	0	32789	32759	32647	32771	32646	32711	32854	32775	
579	0	32813	32749	32593	32743	32775	32716	32715	32698	
580	0	32796	32819	32663	32567	32723	32734	32559	32811	
581	0	32732	32646	32567	32743	32796	32663	32767	32555	
582	0	32747	32735	32711	32661	32705	32775	32753	32582	
583	0	32697	32765	32713	32775	32841	32695	32791	32732	
584	0	32724	32807	32807	32701	32773	32745	32859	32727	
585	0	32694	32719	32734	32796	32795	32644	32823	32671	
586	0	32692	32775	32731	32775	32655	32701	32621	32601	
587	0	32736	32763	32645	32738	32831	32607	32770	32591	
588	0	32720	32679	32564	32677	32803	32739	32873	32637	
589	0	32687	32771	32711	32671	32715	32847	32815	32643	
590	0	32735	32759	32733	32619	32843	32820	32831	32731	
591	0	32751	32661	32677	32730	32743	32772	32770	32551	
592	0	32759	32564	32799	32641	32807	32791	32631	32682	
593	0	32869	32639	32847	32427	32887	32762	32747	32687	
594	0	32854	32723	32719	32607	32647	32695	32799	32593	
595	0	32843	32719	32647	32587	32775	32791	32810	32748	
596	0	32828	32757	32771	32655	32749	32743	32583	32687	
597	0	32879	32656	32757	32647	32754	32797	32775	32663	
598	0	32829	32644	32735	32547	32629	32785	32836	32613	
599	0	32843	32726	32759	32690	32829	32837	32630	32719	
600	0	32775	32705	32799	32807	32854	32805	32799	32759	
601	0	32724	32797	32719	32607	32692	32795	32786	32583	
602	0	32663	32669	32697	32804	32775	32711	32903	32695	
603	0	32729	32709	32719	32615	32695	32719	32628	32675	
604	0	32750	32723	32775	32775	32799	32730	32735	32691	
605	0	32752	32767	32821	32841	32783	32741	32775	32767	
606	0	32743	32799	32802	32645	32825	32775	32903	32639	
607	0	32751	32695	32807	32647	32835	32813	32615	32637	
608	0	32694	32595	32707	32687	32647	32735	32815	32599	
609	0	32646	32662	32709	32593	32799	32801	32767	32675	
610	0	32665	32695	32715	32676	32839	32869	32881	32677	
611	0	32676	32687	32687	32638	32803	32825	32647	32734	
612	0	32733	32713	32713	32675	32738	32668	32791	32565	
613	0	32732	32668	32709	32687	32695	32667	32842	32711	
614	0	32769	32775	32775	32647	32775	32687	32695	32702	
615	0	32780	32801	32751	32691	32670	32749	32799	32767	
616	0	32742	32732	32685	32613	32773	32757	32847	32620	
617	0	32871	32636	32642	32717	32647	32827	32799	32659	
618	0	32818	32875	32663	32541	32796	32775	32615	32615	
619	0	32785	32759	32671	32787	32715	32733	32742	32719	
620	0	32780	32804	32758	32623	32647	32839	32775	32614	
621	0	32818	32731	32791	32647	32863	32791	32701	32471	
622	0	32789	32886	32733	32573	32807	32775	32807	32557	
623	0	32807	32854	32686	32690	32713	32870	32863	32567	
624	0	32792	32887	32711	32699	32863	32807	32607	32717	
625	0	32815	32671	32739	32500	32591	32691	32757	32647	
626	0	32781	32701	32751	32698	32775	32831	32759	32662	
627	0	32756	32861	32720	32676	32847	32775	32775	32759	
628	0	32764	32775	32706	32647	32721	32707	32569	32575	
629	0	32761	32787	32716	32583	32799	32684	32758	32717	
630	0	32719	32621	32721	32479	32657	32687	32895	32655	
631	0	32698	32742	32773	32623	32775	32767	32631	32702	
632	0	32718	32727	32847	32663	32791	32773	32745	32599	
633	0	32723	32789	32843	32675	32749	32839	32834	32575	
634	0	32740	32615	32819	32647	32643	32775	32587	32687	
635	0	32751	32711	32738	32711	32789	32748	32719	32626	
636	0	32751	32731	32635	32663	32725	32851	32866	32667	
637	0	32764	32671	32741	32775	32751	32843	32775	32662	
638	0	32749	32791	32691	32647	32853	32737	32807	32613	
639	0	32749	32775	32682	32660	32814	32769	32665	32498	
640	0	32732	32685	32575	32586	32815	32803	32775	32667	
641	0	32732	32823	32483	32673	32663	32813	32751	32629	
642	0	32710	32771	32599	32555	32843	32670	32711	32644	
643	0	32711	32687	32666	32719	32807	32751	32859	32683	
644	0	32756	32731	32611	32571	32827	32775	32566	32767	
645	0	32804	32757	32687	32647	32807	32771	32775	32559	
646	0	32796	32735	32767	32605	32663	32796	32799	32772	
647	0	32793	32699	32823	32756	32807	32745	32611	32692	
648	0	32743	32772	32805	32726	32605	32757	32722	32725	
649	0	32839	32716	32735	32592	32757	32708	32771	32519	
650	0	32812	32755	32647	32687	32799	32834	32719	32703	
651	0	32810	32636	32647	32541	32738	32803	32756	32647	
652	0	32832	32695	32715	32662	32807	32775	32817	32767	
653	0	32836	32791	32763	32535	32819	32775	32715	32679	
654	0	32833	32763	32799	32629	32786	32725	32797	32647	
655	0	32796	32674	32767	32447	32795	32686	32796	32731	
656	0	32850	32623	32685	32577	32719	32640	32839	32829	
657	0	32786	32707	32615	32663	32852	32727	32647	32551	
658	0	32743	32759	32605	32525	32751	32732	32783	32731	
659	0	32700	32791	32614	32612	32800	32765	32877	32655	
660	0	32718	32667	32665	32513	32697	32775	32615	32727	
661	0	32725	32831	32739	32731	32767	32742	32767	32495	
662	0	32727	32759	32775	32793	32795	32701	32762	32707	
663	0	32740	32765	32855	32725	32694	32685	32751	32655	
664	0	32676	32733	32797	32751	32895	32775	32575	32587	
665	0	32657	32679	32844	32695	32607	32807	32757	32598	
666	0	32658	32803	32701	32819	32811	32775	32903	32647	
667	0	32718	32767	32671	32751	32762	32791	32647	32727	
668	0	32628	32535	32645	32790	32749	32698	32829	32797	
669	0	32789	32596	32633	32679	32629	32738	32903	32639	
670	0	32752	32663	32623	32582	32858	32794	32679	32761	
671	0	32812	32663	32613	32717	32820	32711	32794	32687	
672	0	32722	32637	32679	32799	32787	32741	32749	32743	
673	0	32746	32614	32740	32621	32687	32862	32789	32559	
674	0	32809	32692	32847	32627	32851	32829	32562	32591	
675	0	32761	32839	32812	32469	32778	32790	32735	32675	
676	0	32748	32676	32775	32636	32877	32684	32727	32623	
677	0	32719	32847	32855	32531	32796	32775	32783	32673	
678	0	32765	32831	32785	32681	32647	32807	32827	32589	
679	0	32799	32719	32670	32571	32771	32848	32694	32546	
680	0	32783	32839	32663	32709	32817	32719	32759	32534	
681	0	32828	32863	32775	32631	32759	32798	32903	32713	
682	0	32836	32763	32705	32675	32813	32791	32617	32706	
683	0	32873	32799	32687	32513	32854	32861	32742	32717	
684	0	32804	32741	32605	32749	32711	32711	32790	32775	
685	0	32791	32658	32647	32639	32835	32703	32563	32512	
686	0	32821	32663	32629	32757	32869	32743	32711	32595	
687	0	32743	32745	32564	32669	32719	32761	32844	32747	
688	0	32775	32663	32618	32727	32615	32711	32759	32726	
689	0	32756	32767	32683	32495	32757	32667	32855	32731	
690	0	32766	32759	32679	32647	32759	32767	32639	32623	
691	0	32703	32668	32805	32527	32733	32850	32839	32663	
692	0	32711	32789	32703	32677	32775	32735	32858	32751	
693	0	32738	32737	32667	32501	32863	32715	32679	32543	
694	0	32711	32540	32617	32674	32727	32794	32871	32523	
695	0	32785	32623	32644	32603	32737	32833	32866	32668	
696	0	32751	32717	32647	32677	32809	32839	32637	32663	
697	0	32758	32783	32775	32730	32643	32727	32797	32811	
698	0	32781	32647	32806	32765	32821	32711	32870	32638	
699	0	32781	32789	32775	32645	32706	32739	32679	32783	
700	0	32810	32806	32765	32621	32745	32711	32759	32609	
701	0	32916	32796	32759	32764	32737	32805	32764	32660	
702	0	32820	32687	32850	32605	32787	32742	32803	32710	
703	0	32687	32805	32767	32655	32862	32633	32762	32543	
704	0	32543	32839	32687	32615	32859	32835	32629	32692	
705	0	32486	32711	32567	32613	32757	32791	32639	32674	
706	0	32544	32647	32745	32629	32743	32767	32623	32641	
707	0	32692	32775	32663	32647	32789	32851	32809	32751	
708	0	32775	32711	32773	32717	32661	32795	32911	32775	
709	0	32806	32773	32846	32645	32711	32796	32891	32703	
710	0	32814	32713	32919	32698	32679	32735	32767	32730	
711	0	32820	32705	32775	32673	32719	32815	32759	32726	
712	0	32743	32638	32741	32549	32795	32835	32735	32845	
713	0	32806	32747	32638	32567	32725	32743	32763	32739	
714	0	32847	32711	32735	32598	32789	32834	32593	32647	
715	0	32910	32735	32679	32465	32793	32775	32578	32735	
716	0	32851	32655	32583	32479	32767	32717	32708	32703	
717	0	32804	32623	32704	32555	32611	32734	32743	32607	
718	0	32823	32687	32751	32635	32645	32743	32766	32661	
719	0	32795	32645	32759	32751	32638	32789	32578	32685	
720	0	32773	32749	32751	32595	32813	32799	32734	32587	
721	0	32782	32775	32717	32731	32759	32774	32763	32604	
722	0	32761	32709	32742	32525	32775	32775	32557	32662	
723	0	32826	32789	32677	32747	32773	32789	32831	32669	
724	0	32903	32787	32722	32711	32691	32642	32621	32615	
725	0	32909	32799	32711	32647	32844	32775	32775	32613	
726	0	32911	32772	32759	32683	32837	32834	32812	32647	
727	0	32882	32669	32663	32597	32821	32683	32775	32647	
728	0	32821	32839	32646	32726	32735	32799	32858	32732	
729	0	32804	32844	32781	32677	32775	32759	32668	32799	
730	0	32775	32743	32791	32721	32759	32817	32806	32629	
731	0	32640	32831	32743	32495	32839	32832	32751	32709	
732	0	32596	32806	32660	32629	32847	32711	32819	32703	
733	0	32638	32734	32647	32484	32671	32751	32556	32717	
734	0	32704	32686	32595	32661	32754	32753	32849	32685	
735	0	32792	32690	32551	32588	32715	32800	32933	32617	
736	0	32727	32711	32641	32713	32820	32743	32727	32690	
737	0	32762	32631	32722	32519	32687	32682	32784	32640	
738	0	32775	32743	32615	32675	32855	32743	32875	32719	
739	0	32734	32740	32759	32619	32751	32814	32631	32722	
740	0	32752	32607	32917	32763	32635	32775	32757	32535	
741	0	32685	32703	32775	32647	32743	32732	32867	32557	
742	0	32698	32658	32763	32719	32835	32754	32623	32681	
743	0	32545	32595	32711	32561	32697	32798	32756	32647	
744	0	32560	32731	32703	32723	32890	32827	32882	32735	
745	0	32743	32759	32695	32535	32827	32723	32677	32663	
746	0	32760	32665	32815	32647	32671	32739	32733	32726	
747	0	32721	32884	32867	32501	32805	32767	32786	32667	
748	0	32836	32795	32769	32599	32743	32773	32727	32531	
749	0	32793	32795	32726	32567	32775	32815	32572	32711	
750	0	32793	32758	32687	32737	32671	32799	32739	32647	
751	0	32889	32787	32679	32734	32835	32765	32852	32710	
752	0	32807	32789	32639	32759	32775	32771	32815	32635	
753	0	32941	32715	32579	32630	32791	32742	32635	32587	
754	0	32875	32717	32555	32489	32630	32791	32719	32679	
755	0	32914	32775	32439	32685	32807	32725	32817	32697	
756	0	32885	32759	32515	32543	32738	32711	32519	32782	
757	0	32737	32690	32690	32637	32672	32687	32706	32863	
758	0	32623	32773	32719	32495	32719	32827	32787	32775	
759	0	32676	32715	32717	32707	32759	32823	32663	32515	
760	0	32667	32757	32829	32556	32709	32876	32743	32593	
761	0	32790	32679	32847	32703	32663	32685	32871	32708	
762	0	32832	32763	32935	32583	32839	32791	32629	32629	
763	0	32780	32838	32827	32696	32714	32813	32807	32647	
764	0	32753	32727	32707	32739	32831	32734	32829	32684	
765	0	32697	32719	32747	32790	32703	32711	32701	32497	
766	0	32666	32751	32685	32813	32831	32735	32767	32658	
767	0	32613	32751	32690	32753	32757	32701	32871	32719	
768	0	32691	32647	32730	32802	32775	32719	32731	32685	
769	0	32710	32658	32759	32583	32846	32694	32793	32629	
770	0	32826	32724	32763	32741	32789	32811	32895	32596	
771	0	32822	32751	32676	32534	32729	32702	32687	32754	
772	0	32809	32543	32681	32693	32775	32767	32751	32719	
773	0	32819	32620	32623	32551	32707	32733	32811	32759	
774	0	32828	32605	32701	32701	32834	32670	32636	32635	
775	0	32817	32589	32683	32605	32743	32751	32701	32633	
776	0	32861	32646	32647	32703	32703	32811	32719	32627	
777	0	32791	32679	32615	32639	32775	32839	32546	32751	
778	0	32783	32747	32628	32804	32615	32802	32710	32708	
779	0	32793	32587	32655	32791	32829	32694	32775	32814	
780	0	32699	32623	32630	32644	32783	32796	32625	32582	
781	0	32747	32605	32675	32719	32718	32770	32831	32548	
782	0	32825	32799	32742	32743	32861	32839	32775	32669	
783	0	32803	32847	32951	32727	32847	32807	32829	32636	
784	0	32821	32935	33055	32659	32581	32839	32935	32621	
785	0	32703	32932	32959	32754	32807	32829	32673	32693	
786	0	32699	32847	32807	32615	32708	32834	32739	32509	
787	0	32659	32915	32507	32646	32797	32821	32823	32623	
788	0	32720	32847	32593	32575	32703	32703	32583	32631	
789	0	32769	32927	32642	32643	32819	32767	32823	32733	
790	0	32856	32743	32595	32443	32723	32803	32860	32679	
791	0	32700	32796	32535	32645	32731	32798	32639	32561	
792	0	32532	32683	32550	32591	32903	32647	32807	32647	
793	0	32566	32643	32677	32707	32855	32718	32739	32692	
794	0	32750	32699	32695	32747	32655	32775	32731	32731	
795	0	32813	32722	32783	32770	32763	32775	32713	32679	
796	0	32829	32612	32853	32724	32639	32766	32772	32716	
797	0	32794	32775	32951	32702	32829	32726	32597	32511	
798	0	32733	32751	32987	32549	32659	32831	32717	32631	
799	0	32782	32634	32801	32647	32763	32819	32799	32621	
800	0	32887	32790	32799	32599	32839	32702	32647	32615	
801	0	32767	32707	32859	32767	32661	32805	32807	32663	
802	0	32855	32709	32767	32663	32753	32837	32863	32691	
803	0	32864	32723	32731	32719	32809	32795	32615	32789	
804	0	32861	32822	32703	32698	32703	32604	32775	32647	
805	0	32818	32723	32667	32663	32890	32653	32607	32573	
806	0	32823	32695	32723	32735	32772	32751	32707	32772	
807	0	32757	32801	32643	32699	32769	32807	32791	32708	
808	0	32775	32795	32646	32719	32803	32675	32575	32694	
809	0	32755	32803	32647	32687	32757	32787	32703	32644	
810	0	32670	32871	32701	32740	32723	32749	32795	32611	
811	0	32698	32848	32767	32685	32787	32749	32615	32722	
812	0	32678	32621	32739	32759	32748	32775	32791	32689	
813	0	32716	32695	32671	32775	32793	32733	32911	32703	
814	0	32700	32671	32679	32717	32751	32834	32679	32727	
815	0	32720	32749	32679	32543	32663	32829	32823	32645	
816	0	32780	32695	32640	32614	32647	32715	32605	32565	
817	0	32832	32733	32623	32535	32839	32834	32805	32681	
818	0	32751	32663	32647	32662	32839	32844	32775	32636	
819	0	32813	32719	32708	32575	32663	32831	32615	32733	
820	0	32806	32829	32715	32711	32775	32740	32838	32511	
821	0	32863	32691	32775	32601	32771	32719	32724	32631	
822	0	32831	32660	32773	32663	32791	32769	32751	32663	
823	0	32787	32687	32670	32605	32859	32756	32821	32679	
824	0	32747	32615	32637	32647	32679	32759	32615	32591	
825	0	32789	32562	32667	32555	32831	32679	32829	32749	
826	0	32799	32635	32756	32751	32803	32722	32829	32707	
827	0	32821	32773	32879	32626	32787	32833	32557	32686	
828	0	32806	32791	32871	32751	32790	32791	32695	32759	
829	0	32726	32679	32762	32775	32883	32829	32775	32561	
830	0	32622	32617	32684	32551	32679	32809	32757	32748	
831	0	32575	32743	32658	32678	32727	32711	32495	32709	
832	0	32508	32711	32613	32475	32799	32693	32803	32713	
833	0	32590	32631	32708	32705	32719	32783	32823	32655	
834	0	32685	32587	32709	32583	32829	32755	32749	32762	
835	0	32736	32679	32679	32677	32667	32835	32915	32683	
836	0	32745	32751	32807	32684	32813	32783	32903	32643	
837	0	32738	32747	32796	32571	32686	32733	32787	32599	
838	0	32795	32765	32764	32645	32707	32667	32679	32638	
839	0	32841	32663	32783	32543	32669	32743	32799	32723	
840	0	32820	32646	32900	32687	32815	32762	32807	32591	
841	0	32869	32767	32903	32739	32703	32782	32591	32789	
842	0	32848	32679	32850	32679	32866	32767	32701	32799	
843	0	32791	32727	32731	32743	32663	32775	32711	32877	
844	0	32887	32711	32631	32543	32831	32804	32663	32630	
845	0	32782	32717	32525	32697	32729	32793	32533	32687	
846	0	32823	32757	32519	32566	32741	32647	32711	32647	
847	0	32865	32807	32615	32681	32847	32734	32802	32591	
848	0	32713	32724	32535	32583	32805	32775	32663	32735	
849	0	32733	32751	32591	32743	32823	32759	32799	32551	
850	0	32711	32739	32647	32615	32661	32807	32767	32655	
851	0	32714	32773	32661	32735	32839	32699	32663	32629	
852	0	32745	32652	32663	32644	32807	32731	32564	32673	
853	0	32781	32775	32807	32691	32663	32802	32807	32775	
854	0	32796	32799	32815	32674	32843	32839	32679	32479	
855	0	32748	32695	32690	32775	32791	32843	32785	32679	
856	0	32726	32685	32775	32579	32849	32797	32831	32679	
857	0	32736	32785	32749	32415	32850	32687	32887	32519	
858	0	32684	32698	32719	32644	32735	32749	32590	32507	
859	0	32759	32763	32681	32623	32839	32783	32756	32749	
860	0	32845	32707	32739	32727	32663	32745	32885	32727	
861	0	32801	32666	32767	32671	32743	32763	32855	32563	
862	0	32811	32747	32695	32607	32667	32723	32598	32711	
863	0	32864	32817	32726	32775	32852	32807	32775	32669	
864	0	32812	32787	32747	32725	32696	32847	32883	32775	
865	0	32830	32663	32799	32637	32812	32783	32667	32561	
866	0	32807	32687	32743	32797	32854	32743	32549	32704	
867	0	32722	32775	32635	32820	32711	32738	32743	32775	
868	0	32812	32731	32687	32749	32719	32713	32831	32638	
869	0	32791	32775	32623	32694	32739	32790	32626	32775	
870	0	32721	32695	32603	32551	32775	32817	32807	32631	
871	0	32694	32673	32599	32658	32743	32775	32823	32516	
872	0	32687	32667	32685	32647	32725	32815	32834	32676	
873	0	32594	32743	32559	32519	32743	32775	32662	32653	
874	0	32470	32763	32535	32634	32807	32869	32734	32605	
875	0	32644	32815	32615	32638	32797	32835	32749	32695	
876	0	32741	32775	32719	32455	32676	32847	32739	32647	
877	0	32756	32669	32789	32635	32791	32787	32807	32602	
878	0	32782	32695	32805	32663	32769	32755	32621	32695	
879	0	32801	32783	32793	32527	32647	32659	32743	32659	
880	0	32839	32697	32830	32724	32821	32724	32751	32752	
881	0	32847	32775	32823	32633	32783	32802	32692	32532	
882	0	32791	32605	32859	32706	32666	32791	32629	32639	
883	0	32823	32695	32903	32717	32787	32775	32718	32675	
884	0	32823	32806	32756	32575	32749	32823	32815	32759	
885	0	32788	32775	32571	32727	32790	32831	32767	32593	
886	0	32708	32863	32695	32786	32679	32765	32639	32702	
887	0	32742	32828	32732	32647	32695	32722	32787	32676	
888	0	32724	32711	32613	32771	32775	32751	32796	32557	
889	0	32808	32677	32644	32627	32757	32775	32609	32644	
890	0	32788	32775	32571	32709	32623	32804	32807	32707	
891	0	32771	32773	32663	32759	32721	32775	32821	32811	
892	0	32825	32789	32723	32604	32831	32751	32847	32671	
893	0	32823	32759	32741	32709	32815	32807	32749	32795	
894	0	32770	32567	32674	32745	32895	32743	32668	32719	
895	0	32690	32759	32679	32743	32667	32775	32775	32671	
896	0	32730	32715	32615	32708	32871	32679	32855	32719	
897	0	32739	32739	32647	32468	32855	32727	32594	32655	
898	0	32801	32611	32663	32605	32711	32807	32679	32534	
899	0	32791	32623	32713	32514	32823	32797	32858	32561	
900	0	32816	32682	32735	32655	32775	32785	32703	32574	
901	0	32802	32791	32746	32727	32799	32833	32751	32699	
902	0	32745	32775	32711	32773	32668	32766	32775	32711	
903	0	32740	32799	32679	32715	32847	32743	32680	32516	
904	0	32637	32761	32615	32479	32763	32817	32634	32663	
905	0	32641	32773	32655	32767	32733	32759	32727	32687	
906	0	32767	32746	32719	32740	32893	32737	32884	32551	
907	0	32753	32647	32733	32603	32719	32749	32843	32723	
908	0	32759	32635	32786	32775	32828	32740	32647	32775	
909	0	32713	32725	32767	32691	32895	32843	32839	32610	
910	0	32766	32751	32798	32543	32751	32879	32805	32671	
911	0	32726	32799	32766	32719	32842	32775	32863	32839	
912	0	32636	32754	32717	32737	32647	32773	32671	32587	
913	0	32700	32775	32703	32515	32751	32679	32739	32679	
914	0	32773	32662	32684	32690	32813	32662	32783	32775	
915	0	32830	32679	32643	32673	32741	32691	32854	32563	
916	0	32745	32765	32689	32743	32821	32701	32577	32793	
917	0	32641	32679	32683	32656	32647	32775	32717	32764	
918	0	32558	32695	32629	32535	32647	32815	32716	32551	
919	0	32667	32765	32621	32658	32767	32748	32841	32671	
920	0	32759	32676	32643	32643	32775	32771	32623	32679	
921	0	32856	32647	32759	32493	32715	32807	32757	32495	
922	0	32829	32747	32653	32693	32855	32862	32775	32641	
923	0	32764	32631	32741	32775	32815	32823	32821	32663	
924	0	32921	32695	32801	32709	32717	32839	32823	32539	
925	0	32876	32708	32711	32721	32775	32839	32691	32609	
926	0	32882	32727	32823	32719	32813	32915	32875	32765	
927	0	32869	32695	32726	32669	32759	32871	32847	32606	
928	0	32792	32723	32695	32662	32863	32845	32911	32647	
929	0	32820	32705	32631	32671	32647	32679	32762	32789	
930	0	32737	32775	32614	32571	32819	32639	32647	32607	
931	0	32829	32716	32711	32804	32879	32647	32775	32630	
932	0	32821	32807	32663	32794	32845	32703	32799	32681	
933	0	32812	32739	32621	32623	32637	32717	32797	32773	
934	0	32820	32903	32607	32623	32798	32727	32639	32647	
935	0	32871	32931	32595	32637	32783	32775	32703	32775	
936	0	32833	32845	32731	32551	32735	32751	32743	32852	
937	0	32842	32769	32903	32699	32831	32751	32775	32612	
938	0	32804	32821	32773	32789	32807	32820	32809	32668	
939	0	32676	32775	32828	32583	32658	32847	32713	32679	
940	0	32705	32727	32821	32795	32743	32867	32647	32735	
941	0	32748	32775	32862	32679	32775	32903	32770	32663	
942	0	32703	32711	32895	32470	32783	32885	32797	32585	
943	0	32717	32700	32831	32647	32805	32797	32793	32657	
944	0	32764	32805	32685	32631	32808	32647	32671	32623	
945	0	32751	32740	32621	32574	32742	32735	32525	32711	
946	0	32769	32726	32591	32785	32775	32735	32629	32611	
947	0	32731	32786	32581	32671	32749	32806	32743	32647	
948	0	32773	32755	32563	32715	32741	32735	32821	32799	
949	0	32773	32613	32642	32603	32759	32727	32612	32635	
950	0	32724	32657	32662	32627	32766	32826	32732	32663	
951	0	32747	32751	32715	32660	32679	32866	32833	32596	
952	0	32757	32682	32740	32645	32839	32797	32902	32641	
953	0	32805	32700	32802	32749	32786	32799	32775	32660	
954	0	32834	32769	32820	32638	32661	32766	32571	32565	
955	0	32866	32785	32795	32698	32775	32815	32711	32681	
956	0	32838	32621	32765	32669	32644	32759	32791	32695	
957	0	32827	32775	32711	32561	32815	32677	32775	32797	
958	0	32738	32723	32679	32708	32839	32679	32611	32575	
959	0	32712	32757	32675	32733	32871	32809	32775	32743	
960	0	32617	32743	32671	32581	32735	32751	32863	32677	
961	0	32657	32623	32647	32645	32831	32797	32694	32715	
962	0	32694	32679	32735	32545	32783	32791	32663	32551	
963	0	32713	32802	32694	32716	32827	32793	32807	32751	
964	0	32729	32735	32775	32694	32815	32742	32797	32759	
965	0	32734	32727	32801	32643	32751	32663	32917	32607	
966	0	32742	32617	32711	32836	32807	32775	32695	32590	
967	0	32752	32575	32767	32827	32799	32765	32614	32580	
968	0	32813	32647	32814	32545	32863	32791	32765	32703	
969	0	32770	32719	32763	32705	32687	32735	32767	32509	
970	0	32765	32647	32651	32677	32740	32863	32871	32711	
971	0	32786	32693	32564	32661	32703	32733	32660	32623	
972	0	32807	32611	32631	32631	32834	32694	32807	32742	
973	0	32736	32700	32692	32611	32669	32761	32933	32530	
974	0	32716	32685	32775	32647	32796	32743	32673	32711	
975	0	32753	32723	32767	32453	32839	32825	32866	32754	
976	0	32810	32637	32725	32675	32639	32862	32807	32695	
977	0	32663	32659	32743	32671	32775	32816	32722	32643	
978	0	32598	32711	32619	32530	32839	32807	32609	32657	
979	0	32692	32703	32647	32719	32719	32743	32775	32753	
980	0	32799	32607	32647	32885	32721	32668	32747	32691	
981	0	32826	32751	32617	32675	32583	32691	32799	32647	
982	0	32775	32685	32619	32708	32765	32717	32581	32791	
983	0	32807	32764	32659	32775	32754	32804	32685	32549	
984	0	32818	32836	32607	32685	32775	32799	32684	32689	
985	0	32772	32821	32615	32695	32722	32757	32807	32711	
986	0	32722	32771	32647	32674	32635	32791	32695	32495	
987	0	32793	32797	32633	32579	32741	32823	32683	32663	
988	0	32744	32881	32745	32693	32806	32839	32739	32819	
989	0	32760	32823	32815	32671	32740	32819	32735	32566	
990	0	32809	32671	32823	32587	32871	32790	32839	32738	
991	0	32730	32845	32759	32621	32583	32677	32623	32765	
992	0	32786	32834	32722	32413	32813	32703	32739	32727	
993	0	32800	32893	32723	32577	32715	32788	32839	32647	
994	0	32842	32795	32659	32533	32813	32705	32705	32707	
995	0	32788	32749	32691	32711	32699	32722	32607	32756	
996	0	32766	32893	32751	32599	32706	32843	32775	32647	
997	0	32720	32711	32719	32455	32839	32851	32834	32639	
998	0	32765	32679	32711	32631	32827	32775	32687	32647	
999	0	32812	32623	32759	32627	32805	32703	32804	32721	
1000	0	32855	32641	32718	32623	32759	32627	32839	32615	
1001	0	32871	32695	32827	32717	32874	32623	32867	32637	
1002	0	32897	32711	32826	32626	32869	32694	32742	32662	
1003	0	32854	32703	32782	32599	32819	32671	32583	32523	
1004	0	32815	32693	32741	32787	32822	32759	32743	32655	
1005	0	32800	32669	32747	32811	32751	32745	32742	32685	
1006	0	32794	32607	32631	32769	32727	32693	32903	32681	
1007	0	32735	32655	32647	32807	32751	32717	32806	32795	
1008	0	32765	32703	32589	32813	32858	32727	32571	32741	
1009	0	32783	32719	32647	32732	32812	32683	32740	32615	
1010	0	32735	32647	32685	32837	32743	32703	32675	32809	
1011	0	32671	32556	32751	32849	32791	32655	32726	32847	
1012	0	32614	32637	32816	32895	32629	32679	32495	32974	
1013	0	32609	32585	32743	32754	32638	32647	32382	32902	
1014	0	32698	32579	32819	32799	32809	32666	32487	32902	
1015	0	32686	32613	32759	32837	32693	32737	32535	33065	
1016	0	32661	32734	32867	32755	32759	32755	32575	32839	
1017	0	32582	32773	32743	32479	32575	32711	32403	32903	
1018	0	32679	32812	32605	32607	32541	32706	32499	32783	
1019	0	32663	32846	32559	32555	32695	32759	32509	32875	
1020	0	32623	32725	32548	32461	32543	32815	32647	32667	
1021	0	32631	32811	32573	32451	32580	32791	32527	32799	
1022	0	32592	32891	32519	32341	32716	32843	32694	32685	
1023	0	32588	32855	32367	32455	32678	32973	32809	32623	
1024	0	32548	32817	32451	32515	32533	32885	32772	32635	
1025	0	32655	32796	32359	32495	32629	32973	32647	32647	
1026	0	32726	32855	32353	32434	32615	32889	32910	32687	
1027	0	32789	32959	32341	32447	32549	33015	33049	32583	
1028	0	32821	32867	32343	32246	32455	33101	32989	32563	
1029	0	32815	32951	32321	32411	32500	33110	33058	32498	
1030	0	32725	33099	32284	32263	32623	32973	33039	32477	
1031	0	32694	33063	32239	32157	32583	33086	32935	32429	
1032	0	32760	33047	32105	32175	32447	33047	32831	32367	
1033	0	32756	33043	32278	32263	32482	33089	32898	32443	
1034	0	32701	32959	32287	32111	32463	33071	32823	32487	
1035	0	32667	32835	32321	32227	32425	33035	32815	32602	
1036	0	32740	32927	32415	32239	32625	33063	32719	32575	
1037	0	32813	32919	32487	32047	32663	33073	32707	32451	
1038	0	32877	33031	32498	32143	32635	33031	32959	32471	
1039	0	32900	33081	32555	32327	32637	32994	33031	32381	
1040	0	32832	32967	32631	32367	32837	32903	33135	32362	
1041	0	32775	32804	32679	32787	32763	32789	33332	32333	
1042	0	32823	32705	32815	32919	32851	32647	33245	32217	
1043	0	32885	32579	33031	33159	33071	32577	33250	32331	
1044	0	32885	32463	33125	33151	33053	32559	33195	32504	
1045	0	32912	32367	33191	33123	33089	32391	33127	32551	
1046	0	32902	32403	33305	33342	33139	32411	33115	32626	
1047	0	32982	32508	33361	33357	33319	32338	32935	32659	
1048	0	33092	32407	33445	33193	33159	32351	32735	32626	
1049	0	33103	32407	33415	33345	33141	32350	32823	32701	
1050	0	33206	32511	33542	33331	33372	32335	32989	32676	
1051	0	33293	32475	33565	33219	33403	32351	33014	32748	
1052	0	33335	32322	33559	33439	33261	32391	32932	32460	
1053	0	33166	32341	33554	33455	33287	32406	32751	32695	
1054	0	33105	32451	33563	33235	33167	32423	32693	32715	
1055	0	33052	32391	33487	33379	33259	32447	32679	32844	
1056	0	32868	32409	33431	33355	33257	32375	32615	32756	
1057	0	32775	32463	33335	33199	33087	32391	32559	32903	
1058	0	32685	32369	33236	33138	33125	32463	32261	33015	
1059	0	32681	32327	33087	32941	32911	32479	32284	32791	
1060	0	32647	32440	32903	32935	32835	32583	32429	32855	
1061	0	32596	32619	32839	32807	32891	32663	32351	32878	
1062	0	32581	32671	32699	32547	32759	32663	32367	32733	
1063	0	32640	32755	32595	32694	32863	32676	32367	32901	
1064	0	32557	32847	32607	32506	32731	32785	32497	32807	
1065	0	32520	32855	32535	32325	32565	32825	32421	32903	
1066	0	32466	32751	32381	32469	32459	32935	32457	32566	
1067	0	32548	32691	32367	32477	32551	32911	32551	32726	
1068	0	32546	32743	32237	32431	32487	32890	32655	32903	
1069	0	32526	32747	32237	32385	32487	32989	32755	32761	
1070	0	32532	32804	32143	32338	32518	32987	32869	32774	
1071	0	32490	32791	32194	32221	32515	32899	32701	32775	
1072	0	32538	32823	32295	32260	32461	32983	32623	32690	
1073	0	32628	32772	32359	32399	32407	32997	32687	32667	
1074	0	32581	32823	32423	32423	32383	33018	32703	32543	
1075	0	32568	32911	32546	32375	32389	32967	32724	32705	
1076	0	32586	32717	32607	32457	32669	32974	32647	32859	
1077	0	32654	32687	32506	32679	32727	32899	32766	32795	
1078	0	32791	32647	32595	32703	32684	32763	32727	32783	
1079	0	32756	32775	32577	32539	32655	32756	32788	32687	
1080	0	32799	32787	32489	32629	32655	32751	32709	32791	
1081	0	32771	32899	32508	32578	32662	32819	32631	32810	
1082	0	32732	32866	32607	32583	32687	32805	32667	32739	
1083	0	32772	32815	32647	32513	32571	32823	32643	32647	
1084	0	32784	32767	32629	32622	32597	32823	32775	32517	
1085	0	32850	32775	32647	32589	32719	32831	32773	32489	
1086	0	32862	32658	32628	32571	32735	32863	32897	32687	
1087	0	32908	32676	32679	32679	32703	32860	32743	32727	
1088	0	32830	32751	32754	32663	32855	32817	32671	32481	
1089	0	32791	32817	32887	32501	32823	32877	32663	32611	
1090	0	32766	32763	32943	32623	32740	32863	32811	32692	
1091	0	32799	32807	32791	32663	32685	32821	32854	32493	
1092	0	32753	32765	32764	32503	32844	32843	32887	32593	
1093	0	32831	32791	32641	32685	32836	32873	32849	32707	
1094	0	32823	32791	32662	32587	32834	32831	32849	32709	
1095	0	32775	32695	32645	32437	32751	32835	32899	32722	
1096	0	32743	32695	32623	32739	32789	32783	32786	32647	
1097	0	32775	32685	32629	32831	32581	32775	32642	32829	
1098	0	32778	32789	32589	32647	32631	32769	32627	32791	
1099	0	32727	32799	32600	32769	32787	32743	32702	32581	
1100	0	32767	32822	32635	32795	32775	32705	32733	32715	
1101	0	32780	32758	32661	32629	32811	32676	32845	32897	
1102	0	32716	32823	32599	32705	32819	32693	32915	32647	
1103	0	32727	32661	32579	32583	32647	32695	32667	32783	
1104	0	32694	32767	32587	32690	32710	32639	32761	32819	
1105	0	32759	32739	32749	32647	32753	32714	32771	32845	
1106	0	32799	32847	32711	32679	32843	32839	32788	32791	
1107	0	32820	32868	32739	32509	32823	32801	32791	32507	
1108	0	32803	32775	32727	32674	32745	32865	32833	32683	
1109	0	32754	32771	32679	32700	32847	32775	32714	32615	
1110	0	32823	32667	32814	32559	32708	32775	32567	32607	
1111	0	32796	32639	32854	32726	32765	32759	32694	32407	
1112	0	32751	32743	32822	32773	32815	32755	32823	32640	
1113	0	32828	32715	32845	32754	32743	32711	32749	32607	
1114	0	32812	32774	32804	32827	32637	32763	32647	32749	
1115	0	32790	32687	32789	32605	32789	32765	32833	32647	
1116	0	32798	32647	32763	32773	32831	32814	32883	32706	
1117	0	32828	32807	32749	32602	32773	32813	32801	32669	
1118	0	32801	32773	32681	32431	32809	32733	32590	32775	
1119	0	32771	32790	32738	32639	32694	32685	32877	32487	
1120	0	32744	32763	32797	32689	32903	32623	32876	32775	
1121	0	32754	32743	32815	32677	32787	32671	32961	32775	
1122	0	32775	32751	32799	32847	32708	32646	32647	32463	
1123	0	32800	32687	32731	32869	32855	32636	32797	32736	
1124	0	32692	32743	32709	32563	32834	32711	32749	32671	
1125	0	32680	32761	32705	32767	32694	32679	32775	32463	
1126	0	32691	32631	32714	32758	32644	32669	32745	32694	
1127	0	32694	32775	32745	32743	32771	32675	32877	32711	
1128	0	32734	32831	32775	32502	32815	32749	32871	32558	
1129	0	32812	32749	32767	32635	32863	32734	32639	32645	
1130	0	32771	32631	32739	32591	32787	32709	32703	32663	
1131	0	32823	32667	32757	32501	32759	32727	32737	32615	
1132	0	32862	32725	32675	32615	32675	32821	32819	32647	
1133	0	32833	32718	32679	32646	32847	32831	32685	32684	
1134	0	32823	32725	32663	32495	32829	32831	32557	32823	
1135	0	32762	32706	32743	32663	32711	32855	32742	32647	
1136	0	32786	32657	32775	32725	32807	32879	32751	32725	
1137	0	32826	32794	32786	32611	32647	32863	32859	32687	
1138	0	32810	32735	32767	32695	32822	32879	32681	32638	
1139	0	32736	32799	32711	32727	32773	32735	32577	32615	
1140	0	32818	32735	32686	32630	32707	32745	32799	32711	
1141	0	32806	32661	32724	32767	32787	32813	32823	32748	
1142	0	32692	32735	32695	32727	32635	32681	32751	32583	
1143	0	32565	32862	32722	32579	32629	32663	32958	32668	
1144	0	32647	32803	32731	32821	32764	32660	32805	32759	
1145	0	32632	32787	32790	32615	32733	32707	32567	32511	
1146	0	32709	32799	32631	32535	32775	32743	32743	32647	
1147	0	32729	32695	32639	32677	32805	32803	32738	32663	
1148	0	32760	32663	32623	32549	32679	32817	32787	32599	
1149	0	32761	32679	32562	32562	32793	32727	32839	32695	
1150	0	32749	32767	32615	32621	32759	32727	32639	32695	
1151	0	32740	32717	32813	32557	32819	32839	32773	32763	
1152	0	32767	32735	32843	32515	32743	32851	32679	32612	
1153	0	32728	32663	32895	32730	32589	32807	32732	32702	
1154	0	32709	32629	32943	32773	32823	32791	32807	32715	
1155	0	32770	32647	32967	32669	32831	32689	32583	32575	
1156	0	32852	32815	32870	32717	32775	32641	32849	32677	
1157	0	32882	32745	32807	32685	32762	32690	32767	32677	
1158	0	32938	32707	32691	32607	32611	32668	32854	32563	
1159	0	32900	32807	32567	32805	32771	32669	32881	32686	
1160	0	32903	32687	32503	32621	32759	32719	32683	32679	
1161	0	32947	32757	32485	32596	32767	32741	32765	32831	
1162	0	32871	32851	32621	32799	32866	32795	32765	32605	
1163	0	32837	32743	32583	32751	32647	32791	32751	32727	
1164	0	32770	32756	32495	32647	32837	32757	32775	32719	
1165	0	32748	32743	32555	32775	32809	32843	32659	32539	
1166	0	32746	32767	32647	32732	32802	32791	32615	32679	
1167	0	32717	32667	32599	32671	32732	32799	32796	32701	
1168	0	32760	32631	32579	32586	32821	32798	32786	32539	
1169	0	32708	32723	32585	32637	32662	32823	32927	32689	
1170	0	32639	32701	32604	32673	32665	32818	32818	32703	
1171	0	32677	32694	32703	32487	32855	32834	32639	32533	
1172	0	32736	32711	32740	32703	32815	32807	32612	32723	
1173	0	32683	32813	32661	32655	32803	32775	32745	32707	
1174	0	32675	32702	32623	32627	32839	32879	32717	32534	
1175	0	32644	32663	32702	32499	32743	32855	32739	32703	
1176	0	32661	32703	32671	32615	32711	32815	32815	32697	
1177	0	32727	32818	32687	32647	32789	32806	32647	32471	
1178	0	32790	32711	32850	32612	32662	32711	32737	32723	
1179	0	32771	32658	32823	32735	32829	32749	32812	32751	
1180	0	32708	32683	32737	32594	32647	32835	32775	32811	
1181	0	32765	32803	32787	32647	32819	32791	32619	32615	
1182	0	32795	32845	32839	32699	32831	32827	32769	32685	
1183	0	32743	32855	32869	32663	32855	32837	32743	32694	
1184	0	32742	32791	32811	32727	32747	32797	32885	32505	
1185	0	32819	32711	32775	32557	32834	32751	32780	32685	
1186	0	32822	32775	32727	32749	32795	32687	32668	32749	
1187	0	32773	32739	32748	32663	32787	32687	32846	32550	
1188	0	32800	32730	32762	32655	32829	32703	32839	32663	
1189	0	32865	32741	32775	32647	32676	32854	32890	32711	
1190	0	32780	32647	32703	32685	32807	32797	32695	32638	
1191	0	32755	32699	32623	32589	32791	32763	32495	32695	
1192	0	32735	32767	32635	32738	32761	32775	32679	32685	
1193	0	32703	32716	32639	32731	32751	32757	32738	32799	
1194	0	32711	32725	32647	32595	32631	32813	32821	32719	
1195	0	32645	32791	32695	32691	32638	32747	32763	32635	
1196	0	32711	32711	32717	32639	32787	32764	32695	32685	
1197	0	32739	32726	32828	32647	32869	32823	32773	32695	
1198	0	32710	32679	32787	32747	32749	32753	32911	32525	
1199	0	32687	32839	32851	32539	32641	32715	32691	32647	
1200	0	32690	32741	32871	32772	32847	32659	32612	32691	
1201	0	32692	32827	32717	32638	32775	32685	32831	32749	
1202	0	32767	32739	32667	32799	32658	32695	32873	32591	
1203	0	32823	32789	32703	32711	32763	32767	32695	32695	
1204	0	32843	32687	32757	32710	32679	32847	32630	32671	
1205	0	32808	32883	32730	32695	32775	32727	32819	32719	
1206	0	32856	32788	32689	32564	32692	32703	32911	32612	
1207	0	32858	32767	32643	32759	32855	32681	32727	32647	
1208	0	32868	32807	32695	32685	32813	32671	32661	32804	
1209	0	32854	32644	32699	32635	32775	32719	32711	32716	
1210	0	32807	32623	32710	32621	32692	32887	32833	32707	
1211	0	32793	32753	32742	32551	32771	32775	32903	32784	
1212	0	32769	32661	32799	32828	32903	32711	32647	32587	
1213	0	32660	32614	32775	32790	32820	32645	32815	32731	
1214	0	32673	32585	32771	32570	32687	32695	32775	32694	
1215	0	32727	32655	32732	32703	32607	32759	32895	32604	
1216	0	32784	32731	32666	32562	32760	32805	32679	32675	
1217	0	32752	32738	32676	32679	32751	32785	32715	32641	
1218	0	32692	32718	32683	32599	32727	32815	32731	32527	
1219	0	32742	32690	32714	32583	32837	32722	32775	32639	
1220	0	32773	32660	32749	32807	32717	32715	32818	32647	
1221	0	32799	32671	32754	32691	32658	32810	32911	32540	
1222	0	32818	32695	32679	32734	32679	32802	32871	32701	
1223	0	32780	32713	32647	32611	32799	32775	32709	32607	
1224	0	32703	32711	32641	32717	32791	32823	32676	32703	
1225	0	32727	32775	32742	32743	32727	32838	32617	32738	
1226	0	32762	32819	32737	32615	32823	32814	32759	32561	
1227	0	32829	32815	32709	32695	32621	32775	32839	32747	
1228	0	32836	32783	32655	32589	32801	32753	32839	32700	
1229	0	32810	32663	32663	32759	32757	32735	32722	32589	
1230	0	32773	32669	32731	32677	32775	32759	32587	32711	
1231	0	32702	32679	32711	32661	32821	32687	32681	32707	
1232	0	32698	32839	32643	32562	32675	32803	32757	32823	
1233	0	32676	32674	32623	32717	32647	32762	32759	32609	
1234	0	32663	32703	32659	32565	32891	32811	32827	32644	
1235	0	32701	32765	32671	32715	32815	32809	32663	32757	
1236	0	32713	32679	32663	32631	32871	32823	32671	32609	
1237	0	32751	32666	32726	32551	32739	32759	32818	32590	
1238	0	32726	32617	32846	32759	32675	32765	32807	32727	
1239	0	32799	32647	32838	32775	32839	32829	32767	32621	
1240	0	32799	32659	32835	32834	32775	32796	32842	32647	
1241	0	32855	32676	32845	32599	32808	32868	32883	32658	
1242	0	32845	32831	32761	32703	32775	32823	32786	32759	
1243	0	32855	32748	32723	32758	32873	32797	32586	32763	
1244	0	32903	32803	32759	32575	32731	32725	32762	32583	
1245	0	32872	32875	32721	32702	32617	32731	32799	32662	
1246	0	32807	32719	32673	32695	32743	32703	32899	32647	
1247	0	32799	32639	32642	32603	32731	32844	32735	32698	
1248	0	32777	32743	32707	32575	32743	32813	32623	32592	
1249	0	32813	32771	32791	32455	32675	32771	32751	32647	
1250	0	32765	32658	32799	32620	32807	32775	32775	32687	
1251	0	32708	32621	32737	32619	32785	32658	32811	32571	
1252	0	32729	32687	32613	32546	32743	32683	32677	32708	
1253	0	32685	32711	32693	32593	32769	32698	32547	32669	
1254	0	32674	32721	32735	32564	32629	32727	32748	32611	
1255	0	32725	32739	32733	32626	32750	32786	32811	32627	
1256	0	32769	32679	32727	32698	32707	32834	32634	32658	
1257	0	32772	32751	32683	32476	32852	32791	32615	32708	
1258	0	32775	32798	32729	32726	32626	32785	32751	32549	
1259	0	32761	32787	32764	32695	32783	32829	32812	32720	
1260	0	32783	32833	32684	32741	32759	32821	32820	32711	
1261	0	32799	32669	32647	32742	32839	32803	32594	32669	
1262	0	32805	32722	32695	32698	32647	32793	32711	32740	
1263	0	32743	32783	32615	32879	32743	32747	32746	32594	
1264	0	32705	32732	32641	32854	32755	32743	32789	32797	
1265	0	32749	32701	32663	32665	32694	32749	32871	32692	
1266	0	32759	32751	32645	32711	32853	32727	32662	32703	
1267	0	32800	32715	32579	32829	32671	32787	32597	32477	
1268	0	32775	32571	32655	32508	32693	32837	32679	32603	
1269	0	32870	32647	32605	32563	32871	32795	32845	32647	
1270	0	32825	32743	32597	32557	32783	32749	32812	32719	
1271	0	32752	32749	32617	32642	32788	32711	32813	32581	
1272	0	32764	32723	32721	32583	32793	32719	32694	32660	
1273	0	32721	32699	32807	32646	32699	32738	32615	32739	
1274	0	32668	32647	32726	32549	32791	32775	32749	32607	
1275	0	32697	32684	32759	32683	32773	32835	32794	32785	
1276	0	32740	32675	32831	32698	32703	32725	32843	32639	
1277	0	32802	32767	32775	32579	32839	32745	32819	32751	
1278	0	32827	32772	32799	32756	32833	32815	32647	32631	
1279	0	32825	32732	32727	32710	32743	32789	32581	32743	
1280	0	32823	32757	32706	32742	32679	32775	32775	32697	
1281	0	32801	32846	32743	32575	32601	32795	32775	32549	
1282	0	32773	32759	32713	32743	32761	32775	32811	32727	
1283	0	32751	32595	32715	32789	32789	32723	32899	32706	
1284	0	32847	32679	32753	32557	32730	32823	32739	32823	
1285	0	32769	32847	32735	32747	32839	32773	32579	32615	
1286	0	32775	32773	32733	32671	32761	32727	32709	32717	
1287	0	32708	32735	32668	32711	32716	32762	32771	32783	
1288	0	32695	32655	32732	32735	32805	32754	32644	32711	
1289	0	32745	32727	32755	32755	32847	32801	32759	32703	
1290	0	32628	32671	32707	32701	32759	32603	32790	32663	
1291	0	32676	32677	32758	32571	32703	32659	32831	32797	
1292	0	32662	32634	32663	32711	32580	32729	32647	32580	
1293	0	32775	32655	32662	32727	32815	32775	32739	32721	
1294	0	32813	32756	32767	32639	32801	32807	32811	32661	
1295	0	32775	32757	32863	32727	32818	32826	32773	32685	
1296	0	32775	32732	32811	32514	32844	32751	32549	32787	
1297	0	32791	32791	32801	32683	32623	32695	32731	32647	
1298	0	32781	32707	32687	32703	32807	32743	32751	32721	
1299	0	32789	32735	32703	32621	32727	32711	32839	32697	
1300	0	32754	32756	32749	32712	32724	32711	32639	32749	
1301	0	32769	32767	32647	32655	32829	32748	32577	32591	
1302	0	32796	32790	32731	32556	32899	32647	32815	32735	
1303	0	32820	32731	32694	32739	32695	32806	32775	32775	
1304	0	32884	32667	32782	32787	32807	32775	32767	32767	
1305	0	32813	32822	32793	32773	32711	32846	32759	32575	
1306	0	32793	32751	32739	32791	32733	32739	32775	32495	
1307	0	32775	32727	32695	32726	32628	32655	32860	32627	
1308	0	32760	32711	32655	32701	32879	32731	32691	32575	
1309	0	32701	32783	32695	32535	32822	32775	32639	32734	
1310	0	32663	32767	32722	32739	32879	32775	32781	32601	
1311	0	32671	32775	32769	32759	32655	32799	32887	32637	
1312	0	32621	32663	32671	32599	32846	32860	32663	32731	
1313	0	32634	32645	32635	32647	32865	32805	32647	32775	
1314	0	32630	32764	32624	32543	32855	32689	32791	32839	
1315	0	32700	32751	32631	32743	32702	32735	32775	32541	
1316	0	32711	32719	32677	32687	32831	32803	32566	32694	
1317	0	32679	32599	32663	32711	32787	32795	32719	32690	
1318	0	32743	32607	32743	32719	32855	32840	32823	32591	
1319	0	32810	32639	32831	32635	32567	32783	32749	32719	
1320	0	32839	32759	32789	32733	32791	32726	32809	32495	
1321	0	32874	32763	32814	32575	32739	32705	32799	32563	
1322	0	32911	32703	32921	32715	32669	32765	32766	32675	
1323	0	32879	32669	32871	32742	32693	32751	32642	32628	
1324	0	32831	32775	32868	32585	32817	32803	32743	32703	
1325	0	32813	32750	32933	32730	32742	32811	32831	32719	
1326	0	32801	32767	32830	32707	32859	32775	32772	32539	
1327	0	32767	32671	32815	32717	32613	32738	32647	32547	
1328	0	32740	32687	32775	32659	32751	32719	32821	32676	
1329	0	32824	32799	32735	32516	32738	32811	32903	32621	
1330	0	32828	32835	32719	32661	32821	32708	32639	32695	
1331	0	32881	32743	32815	32605	32663	32732	32815	32751	
1332	0	32895	32685	32711	32703	32765	32749	32879	32711	
1333	0	32751	32766	32591	32639	32743	32669	32688	32643	
1334	0	32708	32798	32676	32663	32851	32719	32584	32783	
1335	0	32671	32734	32577	32647	32647	32741	32766	32668	
1336	0	32745	32705	32541	32487	32805	32775	32793	32707	
1337	0	32667	32619	32441	32699	32692	32847	32643	32575	
1338	0	32607	32727	32516	32731	32843	32711	32767	32547	
1339	0	32627	32791	32445	32751	32690	32727	32762	32647	
1340	0	32657	32812	32523	32767	32801	32721	32859	32670	
1341	0	32749	32775	32503	32623	32822	32735	32645	32729	
1342	0	32796	32727	32615	32791	32775	32815	32719	32601	
1343	0	32768	32647	32671	32767	32789	32814	32815	32699	
1344	0	32773	32698	32610	32533	32663	32791	32878	32643	
1345	0	32731	32775	32631	32671	32773	32833	32783	32665	
1346	0	32730	32767	32623	32610	32699	32852	32623	32572	
1347	0	32732	32857	32553	32587	32722	32821	32627	32551	
1348	0	32773	32735	32605	32687	32811	32834	32735	32638	
1349	0	32838	32631	32689	32693	32671	32725	32715	32711	
1350	0	32814	32685	32711	32719	32903	32727	32743	32795	
1351	0	32845	32788	32685	32658	32791	32813	32587	32647	
1352	0	32805	32855	32775	32711	32708	32771	32797	32557	
1353	0	32780	32719	32751	32695	32827	32859	32863	32647	
1354	0	32819	32627	32771	32527	32775	32797	32835	32681	
1355	0	32781	32671	32703	32701	32743	32775	32647	32735	
1356	0	32786	32755	32706	32694	32695	32715	32615	32627	
1357	0	32817	32737	32823	32679	32820	32765	32743	32741	
1358	0	32786	32772	32845	32687	32763	32732	32775	32732	
1359	0	32793	32647	32804	32566	32663	32739	32738	32831	
1360	0	32838	32740	32823	32775	32795	32765	32530	32623	
1361	0	32839	32736	32917	32703	32615	32699	32775	32697	
1362	0	32721	32803	32847	32607	32812	32783	32836	32655	
1363	0	32724	32797	32903	32679	32751	32817	32918	32679	
1364	0	32735	32799	32898	32687	32791	32827	32721	32573	
1365	0	32817	32707	32827	32621	32727	32667	32551	32711	
1366	0	32833	32723	32683	32677	32805	32613	32668	32687	
1367	0	32831	32797	32590	32543	32801	32789	32869	32647	
1368	0	32756	32722	32603	32660	32834	32820	32719	32725	
1369	0	32698	32756	32660	32495	32775	32804	32617	32571	
1370	0	32695	32647	32702	32783	32813	32815	32811	32698	
1371	0	32791	32639	32707	32747	32788	32773	32927	32685	
1372	0	32820	32785	32771	32725	32805	32725	32847	32713	
1373	0	32783	32775	32817	32620	32775	32679	32711	32559	
1374	0	32727	32747	32698	32605	32681	32678	32795	32732	
1375	0	32733	32814	32667	32706	32821	32703	32815	32699	
1376	0	32715	32708	32642	32677	32723	32791	32847	32751	
1377	0	32684	32617	32647	32511	32807	32898	32707	32575	
1378	0	32692	32719	32511	32682	32613	32836	32763	32511	
1379	0	32671	32731	32626	32581	32729	32731	32775	32647	
1380	0	32671	32615	32751	32738	32803	32775	32605	32656	
1381	0	32647	32686	32679	32586	32706	32812	32527	32519	
1382	0	32543	32735	32621	32749	32864	32773	32787	32675	
1383	0	32538	32807	32685	32710	32831	32787	32815	32557	
1384	0	32636	32897	32747	32541	32723	32771	32819	32717	
1385	0	32751	32734	32757	32679	32831	32893	32615	32694	
1386	0	32831	32695	32815	32657	32679	32757	32747	32733	
1387	0	32848	32699	32895	32633	32743	32735	32764	32613	
1388	0	32840	32775	32867	32699	32838	32647	32921	32551	
1389	0	32852	32709	32773	32527	32767	32694	32719	32660	
1390	0	32859	32735	32847	32630	32861	32748	32690	32687	
1391	0	32853	32731	32855	32647	32853	32727	32666	32693	
1392	0	32807	32643	32749	32575	32671	32839	32815	32829	
1393	0	32698	32639	32551	32663	32767	32797	32797	32658	
1394	0	32645	32799	32483	32615	32793	32735	32719	32669	
1395	0	32694	32807	32610	32614	32717	32735	32583	32706	
1396	0	32703	32719	32739	32772	32775	32743	32775	32575	
1397	0	32694	32715	32729	32755	32614	32783	32863	32613	
1398	0	32670	32668	32771	32639	32795	32849	32662	32662	
1399	0	32731	32769	32716	32742	32751	32717	32743	32670	
1400	0	32775	32731	32711	32767	32862	32685	32809	32735	
1401	0	32815	32711	32727	32721	32634	32679	32747	32759	
1402	0	32852	32605	32793	32687	32775	32723	32629	32823	
1403	0	32844	32735	32871	32719	32755	32725	32799	32621	
1404	0	32873	32716	32787	32699	32766	32829	32852	32661	
1405	0	32892	32719	32775	32610	32674	32805	32687	32681	
1406	0	32865	32791	32831	32713	32775	32823	32549	32739	
1407	0	32855	32747	32711	32671	32795	32749	32562	32577	
1408	0	32731	32695	32591	32659	32791	32799	32749	32695	
1409	0	32647	32647	32615	32708	32862	32751	32807	32692	
1410	0	32621	32799	32555	32661	32743	32762	32943	32722	
1411	0	32582	32877	32615	32687	32799	32775	32639	32775	
1412	0	32644	32859	32591	32623	32775	32803	32722	32583	
1413	0	32785	32718	32647	32399	32791	32797	32765	32607	
1414	0	32838	32791	32617	32611	32611	32775	32791	32694	
1415	0	32916	32830	32679	32523	32717	32783	32662	32741	
1416	0	32843	32847	32786	32707	32787	32727	32615	32669	
1417	0	32840	32732	32775	32645	32727	32639	32846	32775	
1418	0	32913	32631	32775	32755	32725	32679	32735	32537	
1419	0	32885	32642	32647	32903	32783	32713	32859	32749	
1420	0	32852	32765	32671	32647	32731	32722	32723	32695	
1421	0	32831	32762	32751	32594	32865	32727	32695	32793	
1422	0	32871	32703	32739	32701	32775	32735	32825	32583	
1423	0	32841	32726	32761	32626	32711	32666	32775	32639	
1424	0	32812	32663	32773	32529	32867	32745	32775	32647	
1425	0	32707	32735	32666	32663	32833	32799	32802	32723	
1426	0	32701	32731	32647	32464	32625	32789	32861	32614	
1427	0	32652	32623	32679	32761	32742	32783	32854	32723	
1428	0	32647	32631	32694	32743	32825	32785	32711	32493	
1429	0	32605	32615	32775	32479	32719	32803	32551	32663	
1430	0	32644	32823	32802	32717	32818	32835	32743	32687	
1431	0	32727	32691	32757	32698	32669	32847	32716	32691	
1432	0	32786	32707	32775	32615	32789	32835	32829	32535	
1433	0	32783	32681	32845	32647	32817	32791	32663	32647	
1434	0	32780	32595	32940	32647	32767	32711	32558	32639	
1435	0	32757	32669	32767	32743	32701	32783	32787	32671	
1436	0	32804	32707	32698	32639	32799	32807	32868	32805	
1437	0	32735	32581	32634	32751	32810	32797	32615	32755	
1438	0	32699	32687	32647	32719	32825	32759	32601	32663	
1439	0	32669	32799	32599	32503	32587	32863	32790	32711	
1440	0	32679	32852	32605	32705	32767	32853	32873	32751	
1441	0	32697	32781	32543	32668	32735	32813	32647	32668	
1442	0	32750	32727	32591	32612	32807	32738	32742	32541	
1443	0	32812	32863	32635	32732	32628	32699	32805	32677	
1444	0	32841	32783	32599	32631	32861	32765	32756	32658	
1445	0	32845	32799	32733	32763	32919	32784	32621	32697	
1446	0	32811	32730	32743	32767	32861	32720	32705	32755	
1447	0	32829	32719	32711	32519	32703	32755	32775	32470	
1448	0	32832	32829	32736	32740	32617	32769	32705	32727	
1449	0	32837	32775	32835	32757	32822	32701	32587	32687	
1450	0	32756	32797	32714	32549	32801	32703	32775	32567	
1451	0	32729	32775	32735	32655	32819	32707	32795	32619	
1452	0	32738	32727	32673	32647	32683	32707	32955	32695	
1453	0	32759	32673	32692	32543	32831	32723	32887	32775	
1454	0	32708	32575	32717	32703	32903	32831	32730	32590	
1455	0	32774	32493	32798	32685	32729	32813	32806	32647	
1456	0	32762	32631	32887	32564	32815	32894	32758	32689	
1457	0	32710	32719	32836	32570	32817	32859	32899	32601	
1458	0	32753	32746	32775	32407	32807	32885	32605	32656	
1459	0	32720	32815	32710	32578	32729	32807	32759	32661	
1460	0	32775	32711	32780	32743	32613	32823	32775	32466	
1461	0	32823	32691	32827	32549	32733	32764	32731	32731	
1462	0	32740	32679	32791	32773	32743	32692	32795	32761	
1463	0	32778	32775	32711	32679	32711	32647	32607	32706	
1464	0	32775	32807	32781	32767	32823	32694	32757	32775	
1465	0	32834	32815	32603	32746	32607	32771	32743	32511	
1466	0	32849	32613	32643	32767	32787	32825	32775	32647	
1467	0	32846	32675	32791	32679	32692	32829	32663	32711	
1468	0	32807	32703	32695	32540	32739	32789	32802	32723	
1469	0	32828	32687	32655	32737	32831	32725	32765	32637	
1470	0	32887	32807	32615	32764	32663	32765	32833	32503	
1471	0	32854	32647	32647	32748	32879	32823	32749	32647	
1472	0	32825	32668	32583	32654	32894	32839	32613	32623	
1473	0	32751	32678	32607	32518	32855	32807	32775	32643	
1474	0	32708	32773	32594	32743	32775	32903	32817	32677	
1475	0	32671	32823	32597	32757	32621	32757	32898	32619	
1476	0	32679	32699	32612	32603	32800	32710	32611	32517	
1477	0	32645	32646	32727	32659	32735	32719	32726	32605	
1478	0	32717	32655	32755	32451	32847	32660	32838	32735	
1479	0	32723	32786	32767	32639	32719	32695	32847	32757	
1480	0	32780	32796	32775	32731	32610	32715	32775	32804	
1481	0	32798	32746	32785	32583	32845	32783	32638	32647	
1482	0	32783	32711	32727	32662	32647	32854	32601	32691	
1483	0	32750	32743	32692	32666	32787	32853	32763	32693	
1484	0	32659	32843	32685	32573	32647	32882	32741	32659	
1485	0	32679	32775	32690	32819	32669	32743	32823	32710	
1486	0	32559	32771	32743	32837	32834	32781	32721	32530	
1487	0	32559	32775	32767	32727	32775	32737	32626	32671	
1488	0	32594	32676	32785	32827	32802	32739	32723	32701	
1489	0	32591	32671	32861	32663	32692	32743	32827	32733	
1490	0	32702	32624	32829	32743	32662	32806	32666	32607	
1491	0	32843	32733	32854	32691	32863	32741	32599	32575	
1492	0	32860	32716	32877	32521	32859	32775	32773	32759	
1493	0	32826	32727	32818	32679	32694	32775	32791	32655	
1494	0	32876	32668	32751	32666	32871	32775	32791	32724	
1495	0	32850	32706	32775	32631	32709	32827	32575	32767	
1496	0	32807	32759	32647	32607	32877	32759	32781	32731	
1497	0	32695	32775	32679	32513	32811	32809	32758	32569	
1498	0	32668	32647	32655	32629	32773	32763	32602	32674	
1499	0	32660	32727	32631	32630	32631	32807	32756	32815	
1500	0	32710	32802	32589	32724	32788	32743	32801	32727	
1501	0	32846	32722	32637	32748	32721	32755	32847	32725	
1502	0	32869	32775	32674	32647	32842	32713	32601	32823	
1503	0	32863	32691	32633	32797	32741	32783	32785	32621	
1504	0	32801	32643	32685	32767	32683	32787	32815	32743	
1505	0	32826	32666	32727	32647	32725	32743	32850	32653	
1506	0	32903	32735	32804	32702	32783	32607	32739	32567	
1507	0	32839	32775	32807	32535	32901	32647	32803	32597	
1508	0	32775	32660	32797	32681	32882	32767	32775	32684	
1509	0	32775	32789	32735	32562	32743	32799	32781	32676	
1510	0	32800	32845	32713	32671	32786	32826	32827	32598	
1511	0	32845	32739	32787	32739	32731	32839	32834	32601	
1512	0	32873	32659	32743	32629	32847	32830	32771	32647	
1513	0	32771	32647	32638	32647	32837	32770	32821	32743	
1514	0	32784	32665	32701	32708	32799	32818	32611	32531	
1515	0	32718	32807	32583	32663	32535	32858	32775	32507	
1516	0	32703	32751	32535	32603	32735	32775	32831	32725	
1517	0	32740	32675	32577	32547	32679	32826	32644	32693	
1518	0	32749	32655	32711	32775	32771	32769	32727	32730	
1519	0	32746	32706	32685	32791	32667	32737	32807	32775	
1520	0	32746	32756	32739	32519	32775	32733	32893	32615	
1521	0	32788	32775	32726	32621	32831	32831	32796	32715	
1522	0	32647	32767	32691	32578	32727	32793	32615	32809	
1523	0	32698	32698	32693	32477	32710	32711	32733	32630	
1524	0	32742	32679	32703	32710	32676	32793	32851	32563	
1525	0	32756	32661	32677	32721	32858	32613	32759	32767	
1526	0	32807	32811	32743	32814	32711	32647	32775	32820	
1527	0	32807	32699	32743	32711	32807	32647	32825	32709	
1528	0	32813	32692	32773	32539	32589	32647	32839	32735	
1529	0	32799	32711	32775	32658	32747	32660	32569	32749	
1530	0	32861	32791	32775	32723	32723	32751	32711	32581	
1531	0	32911	32743	32747	32617	32861	32687	32751	32694	
1532	0	32812	32727	32627	32751	32803	32727	32822	32658	
1533	0	32762	32743	32543	32805	32687	32717	32666	32711	
1534	0	32702	32751	32623	32559	32807	32743	32799	32639	
1535	0	32748	32679	32703	32665	32733	32799	32773	32567	
1536	0	32780	32790	32751	32578	32854	32802	32858	32525	
1537	0	32732	32745	32797	32732	32845	32775	32711	32717	
1538	0	32765	32749	32707	32738	32643	32733	32661	32655	
1539	0	32801	32797	32751	32579	32847	32735	32817	32745	
1540	0	32732	32646	32718	32711	32877	32742	32822	32812	
1541	0	32714	32700	32771	32707	32771	32732	32815	32595	
1542	0	32784	32799	32783	32647	32846	32825	32699	32669	
1543	0	32775	32788	32749	32647	32791	32859	32754	32583	
1544	0	32793	32771	32715	32671	32543	32869	32708	32619	
1545	0	32666	32837	32667	32677	32773	32861	32765	32557	
1546	0	32638	32695	32655	32685	32811	32839	32620	32574	
1547	0	32628	32653	32597	32598	32814	32807	32750	32671	
1548	0	32669	32689	32535	32703	32826	32831	32833	32693	
1549	0	32726	32742	32589	32727	32647	32845	32804	32563	
1550	0	32769	32693	32615	32583	32735	32813	32735	32613	
1551	0	32750	32705	32611	32687	32775	32711	32606	32733	
1552	0	32832	32612	32587	32540	32860	32717	32775	32679	
1553	0	32871	32695	32643	32689	32647	32831	32793	32691	
1554	0	32804	32759	32721	32623	32804	32747	32562	32775	
1555	0	32769	32743	32703	32698	32743	32745	32743	32647	
1556	0	32791	32630	32791	32730	32861	32731	32879	32555	
1557	0	32822	32659	32729	32563	32762	32786	32759	32735	
1558	0	32772	32710	32795	32725	32736	32855	32643	32663	
1559	0	32710	32775	32759	32787	32801	32819	32724	32738	
1560	0	32841	32799	32759	32578	32723	32866	32826	32582	
1561	0	32824	32733	32815	32673	32775	32706	32715	32509	
1562	0	32775	32647	32807	32647	32603	32731	32775	32683	
1563	0	32729	32767	32732	32754	32755	32751	32861	32725	
1564	0	32637	32829	32676	32622	32673	32735	32675	32658	
1565	0	32662	32823	32759	32647	32741	32722	32636	32725	
1566	0	32827	32711	32815	32749	32711	32763	32759	32815	
1567	0	32722	32692	32863	32575	32679	32839	32875	32723	
1568	0	32758	32749	32717	32691	32917	32813	32775	32669	
1569	0	32814	32796	32681	32677	32799	32839	32570	32642	
1570	0	32745	32799	32679	32487	32799	32818	32700	32721	
1571	0	32742	32735	32661	32607	32835	32804	32771	32795	
1572	0	32709	32628	32596	32543	32686	32754	32855	32586	
1573	0	32621	32686	32677	32595	32790	32647	32621	32569	
1574	0	32509	32708	32693	32705	32822	32647	32717	32619	
1575	0	32639	32674	32606	32612	32723	32647	32820	32725	
1576	0	32617	32719	32535	32765	32727	32703	32773	32644	
1577	0	32622	32711	32595	32731	32647	32737	32578	32669	
1578	0	32761	32703	32673	32635	32685	32719	32775	32631	
1579	0	32903	32839	32789	32719	32817	32732	32813	32655	
1580	0	32872	32787	32799	32590	32748	32789	32759	32662	
1581	0	32764	32699	32795	32647	32694	32775	32539	32773	
1582	0	32786	32711	32729	32573	32803	32871	32727	32663	
1583	0	32799	32794	32727	32695	32791	32799	32763	32599	
1584	0	32761	32885	32598	32681	32863	32717	32789	32559	
1585	0	32821	32791	32698	32647	32738	32747	32759	32627	
1586	0	32868	32703	32749	32767	32683	32719	32866	32647	
1587	0	32804	32701	32763	32685	32751	32731	32742	32615	
1588	0	32815	32707	32799	32749	32725	32687	32602	32751	
1589	0	32788	32694	32839	32695	32727	32755	32793	32551	
1590	0	32775	32548	32813	32631	32607	32811	32838	32671	
1591	0	32699	32551	32687	32638	32797	32711	32611	32767	
1592	0	32782	32698	32556	32495	32740	32735	32799	32725	
1593	0	32847	32629	32597	32699	32854	32775	32815	32634	
1594	0	32995	32675	32615	32661	32773	32791	32860	32560	
1595	0	32991	32647	32635	32501	32634	32715	32623	32698	
1596	0	32910	32587	32646	32703	32799	32763	32819	32719	
1597	0	32850	32655	32732	32671	32682	32823	32841	32647	
1598	0	32831	32735	32941	32773	32828	32839	32708	32699	
1599	0	32682	32829	32999	32695	32711	32866	32582	32604	
1600	0	32621	32861	32927	32541	32719	32882	32786	32701	
1601	0	32658	32875	32935	32655	32738	32775	32883	32714	
1602	0	32698	32871	32903	32717	32819	32701	32595	32679	
1603	0	32694	32859	32838	32609	32863	32663	32726	32787	
1604	0	32742	32759	32783	32757	32767	32639	32787	32643	
1605	0	32671	32751	32882	32879	32694	32647	32766	32559	
1606	0	32764	32711	32877	32605	32855	32659	32922	32626	
1607	0	32742	32767	32854	32725	32775	32725	32679	32605	
1608	0	32590	32711	32855	32661	32681	32759	32762	32647	
1609	0	32487	32691	32661	32619	32684	32687	32743	32731	
1610	0	32442	32642	32539	32663	32775	32773	32695	32749	
1611	0	32607	32663	32551	32511	32675	32759	32578	32711	
1612	0	32742	32621	32669	32663	32821	32829	32791	32599	
1613	0	32708	32773	32877	32687	32727	32822	32787	32711	
1614	0	32775	32735	32929	32450	32687	32838	32861	32685	
1615	0	32967	32727	32855	32676	32775	32897	32852	32559	
1616	0	33159	32783	32783	32679	32767	32837	32645	32725	
1617	0	33229	32739	32687	32635	32794	32826	32623	32695	
1618	0	33115	32767	32533	32513	32743	32775	32743	32551	
1619	0	33011	32775	32311	32663	32803	32751	32748	32770	
1620	0	32925	32727	32437	32679	32867	32783	32838	32757	
1621	0	32669	32599	32551	32743	32733	32818	32918	32598	
1622	0	32533	32599	32551	32677	32571	32813	32838	32669	
1623	0	32551	32643	32466	32902	32609	32802	32647	32693	
1624	0	32585	32670	32579	32773	32810	32775	32590	32535	
1625	0	32638	32612	32583	32775	32735	32847	32735	32645	
1626	0	32809	32629	32687	32839	32845	32807	32869	32751	
1627	0	32967	32786	32845	32695	32719	32791	32860	32607	
1628	0	33063	32829	32881	32556	32788	32697	32631	32625	
1629	0	33167	32911	32771	32639	32818	32723	32767	32679	
1630	0	33250	32873	32827	32663	32758	32719	32743	32743	
1631	0	32932	32690	32890	32481	32855	32751	32805	32623	
1632	0	32617	32707	32875	32619	32803	32739	32815	32638	
1633	0	32541	32711	32791	32567	32647	32775	32663	32693	
1634	0	32460	32702	32747	32391	32862	32794	32781	32551	
1635	0	32256	32563	32637	32479	32751	32727	32871	32775	
1636	0	31960	32679	32642	32543	32826	32845	32609	32503	
1637	0	31927	32741	32599	32564	32742	32831	32754	32583	
1638	0	32191	32767	32551	32505	32634	32745	32767	32775	
1639	0	32474	32679	32399	32743	32655	32775	32791	32706	
1640	0	32615	32719	32473	32531	32604	32716	32612	32743	
1641	0	32738	32833	32565	32743	32743	32647	32799	32844	
1642	0	32764	32807	32671	32786	32727	32692	32866	32571	
1643	0	32836	32791	32724	32741	32791	32789	32677	32711	
1644	0	32932	32895	32902	32837	32723	32831	32698	32675	
1645	0	32920	32911	33061	32795	32843	32815	32751	32643	
1646	0	32844	32815	32879	32765	32823	32815	32811	32691	
1647	0	32799	32839	32767	32646	32767	32763	32843	32513	
1648	0	32948	32839	32731	32599	32821	32757	32603	32583	
1649	0	33116	32711	32727	32615	32675	32756	32717	32715	
1650	0	33158	32704	32823	32537	32805	32759	32803	32679	
1651	0	33177	32759	32819	32444	32715	32831	32945	32773	
1652	0	33153	32703	32835	32589	32823	32819	32811	32637	
1653	0	33099	32694	32674	32679	32619	32871	32621	32770	
1654	0	32938	32629	32591	32791	32775	32902	32745	32637	
1655	0	32970	32511	32605	32730	32751	32991	32747	32707	
1656	0	32866	32655	32711	32735	32692	32941	32899	32583	
1657	0	32734	32627	32621	32615	32788	32837	32877	32722	
1658	0	32749	32701	32525	32743	32700	32743	32734	32695	
1659	0	32692	32695	32470	32742	32754	32807	32810	32519	
1660	0	32677	32826	32436	32533	32818	32804	32807	32709	
1661	0	32647	32795	32494	32674	32738	32735	32833	32666	
1662	0	32644	32845	32642	32748	32823	32724	32845	32647	
1663	0	32727	32743	32815	32589	32834	32671	32681	32819	
1664	0	32863	32802	32900	32727	32703	32727	32623	32775	
1665	0	32796	32857	32981	32765	32815	32769	32775	32814	
1666	0	32798	32754	32862	32561	32679	32759	32853	32591	
1667	0	32769	32731	32807	32681	32839	32775	32791	32725	
1668	0	32705	32609	32810	32613	32646	32775	32831	32687	
1669	0	32705	32690	32751	32679	32749	32903	32839	32621	
1670	0	32629	32609	32742	32557	32668	32791	32815	32663	
1671	0	32620	32639	32785	32677	32839	32751	32831	32606	
1672	0	32725	32646	32767	32679	32865	32815	32732	32603	
1673	0	32775	32687	32661	32575	32751	32813	32471	32551	
1674	0	32586	32707	32557	32647	32844	32887	32511	32611	
1675	0	32570	32631	32642	32533	32659	32731	32627	32675	
1676	0	32731	32527	32805	32533	32815	32711	32602	32799	
1677	0	32943	32605	32846	32723	32789	32719	32613	32555	
1678	0	32941	32695	32775	32619	32767	32801	32882	32690	
1679	0	32853	32879	32813	32477	32762	32819	32879	32580	
1680	0	32831	32951	32839	32557	32735	32796	32786	32635	
1681	0	32818	32861	32903	32647	32867	32727	32717	32433	
1682	0	32802	32709	32887	32826	32847	32639	32803	32647	
1683	0	32705	32782	32831	32685	32833	32682	32895	32711	
1684	0	32636	32727	32885	32713	32743	32708	32914	32642	
1685	0	32622	32855	33078	32695	32677	32775	32769	32583	
1686	0	32962	32797	33170	32757	32871	32698	32859	32700	
1687	0	33112	32757	33119	32771	32741	32655	32871	32789	
1688	0	33020	32763	33031	32735	32819	32638	32895	32717	
1689	0	32941	32687	32981	32718	32690	32671	32675	32691	
1690	0	32914	32555	32802	32749	32699	32639	32628	32659	
1691	0	32970	32607	32549	32759	32865	32673	32751	32738	
1692	0	33021	32743	32247	32858	32711	32775	32764	32722	
1693	0	32847	32702	32175	32677	32791	32822	32871	32591	
1694	0	32716	32725	32193	32529	32691	32802	32623	32727	
1695	0	32647	32723	32147	32831	32767	32747	32551	32730	
1696	0	32615	32539	32182	32669	32839	32707	32595	32790	
1697	0	32632	32575	32462	32327	32721	32711	32626	32647	
1698	0	32357	32627	32519	32229	32821	32711	32727	32754	
1699	0	31915	32551	32647	32203	32675	32756	32535	32751	
1700	0	31834	32583	32647	32207	32708	32773	32493	32653	
1701	0	32153	32757	32693	32527	32775	32933	32744	32679	
1702	0	32578	32663	32707	32795	32835	32943	32767	32693	
1703	0	32713	32599	32485	32741	32621	32763	32764	32695	
1704	0	32833	32769	32267	33183	32767	32749	32621	32755	
1705	0	33063	32801	32181	33332	32804	32775	32533	32543	
1706	0	33142	32795	32186	33092	32797	32815	32689	32683	
1707	0	33215	32815	32406	33013	32879	32756	32687	32626	
1708	0	32910	32763	32646	32583	32707	32747	32717	32647	
1709	0	32460	32647	32601	32564	32862	32723	32607	32711	
1710	0	32352	32775	32722	32583	32701	32759	32847	32591	
1711	0	32348	33071	33069	32391	32707	32771	33014	32803	
1712	0	32578	33069	33303	32684	32699	32765	32983	32727	
1713	0	32609	33095	33332	32701	32609	32743	32979	32766	
1714	0	32816	32866	33154	32589	32751	32852	32711	32440	
1715	0	32903	32745	33050	32949	32775	32867	32627	32612	
1716	0	32789	32719	33043	32962	32731	32789	32726	32697	
1717	0	32770	32631	33062	33023	32717	32739	32735	32609	
1718	0	32868	32699	32939	32835	32775	32643	32815	32710	
1719	0	33199	32784	32941	32660	32623	32613	32757	32844	
1720	0	33323	32845	32943	32687	32743	32719	32629	32738	
1721	0	33518	32933	33191	32677	32854	32723	32587	32786	
1722	0	33560	32903	33265	32903	32823	32673	32751	32615	
1723	0	33271	32711	33084	32861	32767	32742	32773	32745	
1724	0	33084	32735	32869	32647	32813	32749	32903	32639	
1725	0	32756	32715	32599	32646	32721	32828	32818	32675	
1726	0	32765	32573	32509	32551	32869	32831	32715	32447	
1727	0	32816	32615	32400	32407	32728	32839	32804	32595	
1728	0	32780	32627	32373	32595	32843	32850	32749	32594	
1729	0	32519	32504	32295	32629	32717	32864	32853	32727	
1730	0	32258	32319	32347	32298	32903	32933	32609	32477	
1731	0	32151	32285	32450	32516	32927	32884	32573	32687	
1732	0	32105	32348	32527	32711	32805	32765	32722	32679	
1733	0	31948	32594	32423	32647	32860	32643	32747	32697	
1734	0	32018	32745	32375	32859	32743	32748	32731	32687	
1735	0	32293	32803	32593	32619	32758	32867	32671	32605	
1736	0	32658	32839	32669	32226	32732	32963	32508	32461	
1737	0	32957	32924	32627	32151	32775	32831	32673	32675	
1738	0	32903	32845	32846	32325	32775	32765	32791	32759	
1739	0	32706	32861	32983	32292	32661	32791	32815	32551	
1740	0	32591	32895	32983	32429	32921	32582	32741	32731	
1741	0	32702	33060	32820	32341	32734	32671	33015	32803	
1742	0	32921	33019	32735	32558	32709	32641	32987	32801	
1743	0	33108	32738	32775	32847	32519	32738	32879	32691	
1744	0	33086	32631	32723	32775	32725	32687	32621	32630	
1745	0	33117	32589	32806	33022	32855	32623	32743	32750	
1746	0	33255	32421	32699	33129	32781	32655	32767	32679	
1747	0	33342	32391	32620	33372	32580	32869	32659	32643	
1748	0	33261	32658	32367	33475	32767	32775	32692	32731	
1749	0	33099	32959	32473	33159	32708	32791	32715	32719	
1750	0	32968	32989	32834	32971	32716	32833	32787	32559	
1751	0	33062	32807	33159	32540	32727	32916	32577	32559	
1752	0	32996	32735	33238	32573	32677	32903	32725	32629	
1753	0	32921	32703	32947	32438	32663	32843	32703	32647	
1754	0	32680	32791	32724	32559	32773	32805	32628	32646	
1755	0	32869	32787	32623	32383	32791	32875	32877	32613	
1756	0	32644	32996	32547	32617	32933	32775	32925	32647	
1757	0	32225	32871	32357	32586	32823	32758	32695	32702	
1758	0	31717	32831	32349	32571	32910	32795	32845	32595	
1759	0	31858	32761	32415	32486	32829	32751	32971	32793	
1760	0	32044	32791	32510	31989	32931	32732	32935	32575	
1761	0	32089	32859	32655	31590	32735	32671	32645	32837	
1762	0	32286	32871	32950	31587	32869	32642	32731	32787	
1763	0	32764	32921	33391	31911	32823	32837	32765	32767	
1764	0	32949	32767	33515	32103	32869	32647	32706	32933	
1765	0	32983	32637	33626	32199	32709	32647	32479	32796	
1766	0	33025	32716	33863	32626	32519	32639	32391	32999	
1767	0	33119	32833	34404	32871	32619	32735	32442	32915	
1768	0	33460	32871	34293	33116	32681	32863	32507	32885	
1769	0	33359	32987	33687	33511	32791	32879	32579	32686	
1770	0	32933	32877	32961	33539	32603	32842	32391	32638	
1771	0	33058	32799	32477	33645	32743	32773	32563	32815	
1772	0	33535	32559	32129	33630	32691	32647	32692	32789	
1773	0	33743	32404	31619	33353	32543	32677	32581	32819	
1774	0	33518	32196	31143	33335	32767	32717	32743	32903	
1775	0	33221	32227	31236	33027	32623	32847	32775	32609	
1776	0	32860	32495	31339	32775	32587	33026	32807	32620	
1777	0	32286	32559	31887	32391	32378	33111	32769	32597	
1778	0	32132	32671	32359	32319	32622	32948	32903	32571	
1779	0	32013	32711	32455	32100	32639	32867	33005	32575	
1780	0	32128	32791	32359	31999	32541	32817	32823	32423	
1781	0	32359	32831	32417	31687	32439	32967	32943	32545	
1782	0	32554	32943	32372	31381	32591	33134	33047	32455	
1783	0	32887	32967	31939	31447	32623	33231	33069	32423	
1784	0	32772	32901	31287	31617	32451	33283	32811	32547	
1785	0	32681	33179	31188	31703	32487	33127	32965	32405	
1786	0	32717	33431	31973	31874	32534	32931	32941	32557	
1787	0	32554	33390	32437	31875	32611	32983	32789	32631	
1788	0	32303	33339	32647	31957	32495	33012	32655	32638	
1789	0	32399	33263	33006	32109	32663	33071	32854	32598	
1790	0	32347	33234	33015	32343	32647	33095	32979	32583	
1791	0	32348	33015	32885	32191	32774	32996	32869	32323	
1792	0	32284	33005	32407	32253	32617	32955	33063	32479	
1793	0	32054	32647	31990	32825	32935	32891	33191	32297	
1794	0	32103	32603	31743	33271	32957	32838	33223	32439	
1795	0	32052	32621	31490	33591	32815	32647	33229	32295	
1796	0	32223	32483	31385	33955	33005	32431	33073	32459	
1797	0	32668	32223	31810	34037	32993	32303	33079	32559	
1798	0	32954	31975	32303	34226	32921	32287	32911	32718	
1799	0	33188	31811	32763	34192	33155	32324	32941	32543	
1800	0	33506	31623	33031	33870	33108	32399	32740	32699	
1801	0	33318	31693	33231	33719	33285	32401	32711	32593	
1802	0	33050	32101	33444	33511	33122	32431	32799	32748	
1803	0	33084	32146	34013	33220	33414	32415	32967	32500	
1804	0	33428	32359	34546	33243	33395	32487	32839	32534	
1805	0	33693	32309	34511	33141	33461	32407	32669	32556	
1806	0	33971	32447	34383	33145	33203	32538	32748	32525	
1807	0	34476	32439	34615	32852	33245	32687	32787	32631	
1808	0	34407	32381	34383	32809	33115	32617	32519	32465	
1809	0	33734	32438	33799	32943	33119	32748	32569	32362	
1810	0	32980	32583	33695	33092	32923	32469	32503	32708	
1811	0	32237	32775	33828	32767	33043	32195	32533	32955	
1812	0	31936	33125	34091	32739	32867	32127	32332	33181	
1813	0	31629	33283	33855	32609	32861	32256	32409	32933	
1814	0	31290	33382	33653	32407	32685	32391	32349	32970	
1815	0	31780	33354	33580	32538	32807	32389	32383	33095	
1816	0	32156	33308	33335	32317	32655	32455	32379	32955	
1817	0	32421	33026	32895	32269	32702	32489	32507	32903	
1818	0	32735	32743	32455	32215	32549	32599	32434	32671	
1819	0	33068	32815	32006	32279	32607	32861	32640	32695	
1820	0	33159	32861	31561	32423	32693	32963	32558	32719	
1821	0	32855	32775	31223	32599	32666	33059	32743	32699	
1822	0	32677	32977	31175	32445	32540	32962	32871	32671	
1823	0	32810	32959	31235	32567	32662	33018	32763	32741	
1824	0	32610	32677	31495	32612	32564	33115	32622	32735	
1825	0	32327	32467	31935	32935	32571	33127	32833	32537	
1826	0	31978	32639	32404	32783	32565	33089	32875	32529	
1827	0	32099	32750	32991	32629	32525	33093	32647	32693	
1828	0	32194	32837	33263	32261	32499	33005	32836	32726	
1829	0	32197	32733	33402	32069	32570	33069	32919	32812	
1830	0	32679	32979	33635	32098	32567	32919	32623	32839	
1831	0	33277	33039	33559	32012	32668	32830	32607	32954	
1832	0	33334	33046	33520	32027	32815	32863	32743	32759	
1833	0	33346	33037	33605	32164	32645	32853	32871	32725	
1834	0	33311	33175	33911	32095	32743	32863	32607	32763	
1835	0	33495	33187	33653	32151	32772	32884	32639	32639	
1836	0	33457	33135	33715	32263	32803	32895	32855	32690	
1837	0	33095	32925	33159	32167	32811	32861	32837	32583	
1838	0	33092	32754	32799	32387	32555	32811	32719	32607	
1839	0	33479	32631	32359	32479	32727	32879	32647	32704	
1840	0	33536	32690	31983	32799	32564	32804	32508	32583	
1841	0	33234	32491	31815	32810	32829	32773	32711	32598	
1842	0	32754	32346	31149	32559	32647	32851	32799	32391	
1843	0	32487	32199	30569	32823	32794	32835	32870	32597	
1844	0	32567	31812	30471	32487	32807	32687	32647	32771	
1845	0	32619	31895	30589	32481	32839	32574	32767	32726	
1846	0	32615	32103	30967	32570	32721	32681	32877	32589	
1847	0	32796	32181	32197	33047	32693	32799	32655	32709	
1848	0	33031	32326	32981	33287	32839	32684	32855	32746	
1849	0	33284	32391	33661	33309	32755	32548	32879	32743	
1850	0	32945	32442	34383	33557	32576	32563	32957	32803	
1851	0	32206	32502	34790	33941	32548	32646	32771	32711	
1852	0	32272	32479	34659	34039	32639	32711	32858	32799	
1853	0	31978	32639	34307	33781	32615	32790	32877	32583	
1854	0	31554	32861	33915	33454	32788	32850	32890	32735	
1855	0	31335	33103	33079	33210	32647	32717	32628	32748	
1856	0	31508	33278	32473	32763	32959	32771	32863	32658	
1857	0	31835	33562	32055	32487	32892	32835	32815	32687	
1858	0	32065	33353	31363	32335	32759	32845	32852	32515	
1859	0	32597	33423	31142	31973	32691	32925	32671	32575	
1860	0	32911	33223	30803	32039	32847	32885	32762	32699	
1861	0	32917	33191	30775	32063	32999	32869	32879	32583	
1862	0	33127	33147	30907	32111	32719	32939	32647	32567	
1863	0	33187	32987	31326	31829	32716	32885	32658	32623	
1864	0	33302	32647	31937	32106	32766	32775	32726	32829	
1865	0	33474	32639	32565	32379	32595	32743	32725	32565	
1866	0	33434	32591	33155	32588	32782	32759	32837	32703	
1867	0	33132	32583	33159	32860	32835	32702	32829	32671	
1868	0	33065	32519	33023	32911	32828	32655	32855	32613	
1869	0	32829	32535	32895	32995	32833	32677	32845	32759	
1870	0	32919	32431	32839	33025	32647	32803	32596	32629	
1871	0	33148	32463	32673	32892	32815	32941	32621	32748	
1872	0	32992	32379	32683	32663	32834	33011	32579	32615	
1873	0	33043	32275	33010	32898	32898	33014	32611	32695	
1874	0	33166	32372	33343	32789	32751	32914	32647	32641	
1875	0	33106	32429	33345	32671	32643	32751	32595	32871	
1876	0	32568	32575	32871	32509	32511	32671	32494	32771	
1877	0	31945	32641	32775	32606	32540	32711	32759	32809	
1878	0	32429	32635	32598	32487	32775	32683	32850	32687	
1879	0	32973	32535	32698	32583	32804	32764	32983	32551	
1880	0	33159	32483	32964	32404	32734	32847	32991	32602	
1881	0	33111	32593	33234	32263	32773	32811	32943	32653	
1882	0	32914	32775	33303	32318	32929	32711	32851	32757	
1883	0	33373	32893	33564	32383	32807	32764	32790	32467	
1884	0	33821	33026	33439	32253	32932	32798	32903	32559	
1885	0	33204	33247	33111	32244	32836	32899	32875	32631	
1886	0	32571	33311	32959	32054	32769	32903	32807	32599	
1887	0	32229	33179	32833	32279	32852	32847	32829	32775	
1888	0	31920	33135	32903	32205	32858	32813	32827	32775	
1889	0	31618	33199	32903	31965	32655	32823	32530	32961	
1890	0	31518	33151	32574	32215	32647	32883	32455	32717	
1891	0	31970	32771	32881	32461	32851	32857	32615	32756	
1892	0	32525	32548	33511	33062	32809	32743	32693	32759	
1893	0	32836	32418	33445	33439	32799	32637	32756	32903	
1894	0	32852	32315	33154	33463	32621	32631	32773	32685	
1895	0	32807	32322	32875	33444	32701	32679	32551	32822	
1896	0	33147	32343	32775	33199	32417	32775	32567	32791	
1897	0	33345	32511	32775	33207	32457	32799	32711	32821	
1898	0	33283	32767	32891	33103	32722	32799	32811	32739	
1899	0	33324	33027	32602	33220	32717	32871	32825	32714	
1900	0	33113	33142	32241	33101	32823	32831	32595	32532	
1901	0	32581	33012	31959	32951	32805	32854	32687	32695	
1902	0	31980	32850	31958	33015	32791	32821	32745	32551	
1903	0	31892	32913	32315	32867	32903	32834	32820	32571	
1904	0	32258	32759	32543	32719	32823	32785	32839	32698	
1905	0	32570	32579	32278	32454	32705	32815	32741	32479	
1906	0	32991	32571	32255	32699	32901	32835	32630	32634	
1907	0	33329	32687	32217	32500	32919	32855	32825	32604	
1908	0	33441	32903	32301	32531	32903	32835	32829	32594	
1909	0	33487	32903	32311	32431	32871	32818	32839	32629	
1910	0	33867	32953	32549	32623	32703	32883	32831	32615	
1911	0	33814	32801	32947	32617	32932	32895	32687	32647	
1912	0	33645	32623	33519	32903	32843	32775	32839	32709	
1913	0	33240	32475	33783	32633	32933	32783	32805	32586	
1914	0	33195	32574	33549	32388	32741	32791	32861	32655	
1915	0	32455	32531	33043	32511	32884	32764	32890	32655	
1916	0	31608	32350	32623	32405	32827	32689	32706	32757	
1917	0	31879	32148	32535	32237	32647	32679	32619	32603	
1918	0	32839	32206	32645	32171	32727	32727	32735	32623	
1919	0	32942	32059	32553	31927	32555	32597	32861	32702	
1920	0	32308	32115	32491	32287	32663	32546	32903	32623	
1921	0	32023	32427	32303	32199	32637	32597	32699	32659	
1922	0	32169	32699	32629	31989	32567	32621	32647	32709	
1923	0	31879	32943	32799	32309	32701	32615	32567	32775	
1924	0	31129	33195	32356	32025	32684	32695	32535	32599	
1925	0	31270	33474	32428	32191	32625	32695	32503	32595	
1926	0	31740	33399	32237	32167	32675	32685	32671	32775	
1927	0	32225	33223	32067	32689	32807	32923	32719	32375	
1928	0	32569	33067	31717	32695	32722	32969	32823	32625	
1929	0	32914	32955	31668	32850	32863	32787	32775	32792	
1930	0	33170	32914	31852	32998	32695	32726	32639	32783	
1931	0	33287	32662	31887	33093	32839	32670	32795	32817	
1932	0	33343	32423	31969	33557	32862	32713	32756	32703	
1933	0	33538	32399	32428	34017	32761	32735	32763	32682	
1934	0	33408	32427	32823	33997	32797	32717	32847	32755	
1935	0	33220	32321	32914	33799	32715	32703	32676	32815	
1936	0	32957	32391	32821	33637	32745	32703	32663	32662	
1937	0	32751	32410	33263	33625	32839	32665	32755	32823	
1938	0	32979	32523	33731	33383	32878	32766	32839	32687	
1939	0	33188	32615	33685	33251	32863	32751	32951	32718	
1940	0	33159	32996	33470	32985	32978	32810	32919	32638	
1941	0	33159	33055	33295	32582	32850	32743	32647	32795	
1942	0	33102	33093	33010	32546	32743	32671	32758	32671	
1943	0	33061	33183	32503	32463	32741	32753	32796	32698	
1944	0	33250	33011	32671	32594	32633	32765	32647	32551	
1945	0	33389	33014	32818	32389	32711	32719	32589	32693	
1946	0	33243	32935	32899	32067	32742	32759	32735	32569	
1947	0	33089	32823	32933	31855	32764	32742	32780	32525	
1948	0	33088	32875	33111	31775	32681	32647	32815	32547	
1949	0	33295	32853	33141	31879	32647	32669	32850	32575	
1950	0	33159	32570	33194	31999	32751	32751	32647	32647	
1951	0	32686	32503	33087	32165	32791	32735	32838	32598	
1952	0	32581	32495	32957	32247	32685	32771	32773	32699	
1953	0	32479	32379	32663	32538	32765	32771	32759	32589	
1954	0	32422	32439	32630	32647	32607	32775	32563	32763	
1955	0	32307	32411	32613	32691	32583	32817	32640	32565	
1956	0	32260	32461	32583	32513	32751	32889	32853	32647	
1957	0	32275	32315	32383	32434	32846	32873	32821	32598	
1958	0	32441	32527	32381	32259	32850	32735	32947	32492	
1959	0	32464	32839	32711	31810	32823	32931	32667	32612	
1960	0	32410	33063	32833	32007	32834	32887	32621	32749	
1961	0	32311	33135	32638	32231	32845	32732	32815	32586	
1962	0	32050	33159	32409	32501	32642	32611	32855	32825	
1963	0	32129	32943	32479	33051	32784	32615	32929	32775	
1964	0	32532	32835	32757	33264	32790	32679	32764	32749	
1965	0	32759	32815	32941	33387	32827	32723	32676	32684	
1966	0	32894	32799	32735	33385	32738	32647	32810	32868	
1967	0	33014	32693	32479	33271	32834	32589	32809	32883	
1968	0	33031	32706	32661	33271	32877	32587	32839	32591	
1969	0	33081	32695	32743	33173	32819	32745	32695	32719	
1970	0	32845	32796	32351	33231	32718	32853	32567	32719	
1971	0	32647	32846	31996	33047	32738	32811	32523	32507	
1972	0	32638	32927	32247	32799	32560	32796	32614	32646	
1973	0	32908	32757	32573	32965	32727	32831	32775	32663	
1974	0	33024	32647	32935	32811	32741	32844	32780	32549	
1975	0	33003	32503	33103	32551	32642	32895	32775	32615	
1976	0	33120	32463	33116	32685	32783	32860	32687	32597	
1977	0	33129	32549	33213	32509	32647	32851	32623	32642	
1978	0	33081	32519	33355	32263	32675	32835	32763	32515	
1979	0	32967	32607	33319	32509	32831	32818	32817	32679	
1980	0	33050	32615	33191	32487	32835	32743	32775	32678	
1981	0	33036	32571	33171	32468	32807	32815	32854	32587	
1982	0	33058	32603	33053	32563	32681	32847	32583	32515	
1983	0	32949	32701	32847	32501	32815	32743	32683	32519	
1984	0	32834	32798	32803	32418	32845	32745	32789	32621	
1985	0	32732	32871	32719	32365	32927	32709	32847	32623	
1986	0	32446	32822	32767	32407	32909	32816	33027	32557	
1987	0	32375	32845	32821	32202	32575	32731	32999	32749	
1988	0	32231	32843	32655	32421	32599	32758	32747	32638	
1989	0	32167	32871	32299	32447	32834	32723	32930	32679	
1990	0	32285	32989	32151	32428	32765	32631	32863	32583	
1991	0	32577	33091	32209	32690	32820	32703	32775	32695	
1992	0	32830	32863	32101	32833	32691	32667	32741	32763	
1993	0	32992	32723	32343	32749	32877	32749	32573	32797	
1994	0	32847	32563	32341	32769	32791	32767	32682	32590	
1995	0	32498	32489	32103	32591	32796	32741	32810	32773	
1996	0	32285	32589	32135	32631	32807	32747	32692	32722	
1997	0	32423	32583	32263	32629	32743	32773	32635	32759	
1998	0	32792	32519	32435	32543	32902	32773	32795	32599	
1999	0	32932	32742	32981	32659	32775	32811	32852	32705	
2000	0	32883	32869	33065	32635	32839	32686	32829	32719	
2001	0	32589	32799	32678	32357	32661	32855	32583	32615	
2002	0	32381	32739	32631	32547	32643	32771	32519	32657	
2003	0	32469	32634	33159	32486	32663	32839	32689	32660	
2004	0	32463	32661	33519	32615	32647	32803	32683	32695	
2005	0	32839	32759	33654	32527	32695	32823	32707	32662	
2006	0	33049	32789	33405	32784	32743	32806	32796	32692	
2007	0	33134	32769	32959	32893	32639	32791	32982	32519	
2008	0	33060	32871	32615	32759	32703	32852	32775	32647	
2009	0	32914	32871	32647	32859	32711	32819	32749	32639	
2010	0	32956	32721	32503	32935	32695	32859	32847	32583	
2011	0	33154	32741	32503	32841	32956	32862	32839	32695	
2012	0	33251	32628	32435	32827	32846	32764	32815	32714	
2013	0	33120	32559	32439	33101	32775	32702	32799	32567	
2014	0	32935	32566	32491	33167	32919	32667	32707	32676	
2015	0	32915	32579	32683	32805	32811	32775	32551	32643	
2016	0	32839	32515	32869	32955	32667	32767	32722	32719	
2017	0	32799	32572	32863	32623	32903	32743	32885	32602	
2018	0	32754	32875	32795	32319	32826	32730	32915	32727	
2019	0	32695	32867	32919	32559	32900	32764	32679	32703	
2020	0	32567	32746	32743	32677	32767	32667	32590	32589	
2021	0	32399	32897	32751	32578	32623	32628	32759	32733	
2022	0	32510	32871	32703	32708	32774	32725	32721	32635	
2023	0	32551	32735	32247	32911	32718	32783	32759	32570	
2024	0	32745	32705	32313	32965	32739	32803	32899	32773	
2025	0	32885	32789	32727	33229	32743	32811	32806	32740	
2026	0	32964	32732	32983	33149	32823	32740	32630	32647	
2027	0	32952	32671	33123	32861	32788	32727	32819	32687	
2028	0	32913	32727	32960	32708	32807	32735	32805	32668	
2029	0	32832	32693	32955	32476	32687	32831	32718	32738	
2030	0	32625	32743	33159	32535	32850	32853	32590	32607	
2031	0	32535	32829	32937	32509	32786	32839	32727	32749	
2032	0	32557	32687	32599	32373	32695	32854	32740	32703	
2033	0	32561	32699	32327	32495	32874	32850	32846	32771	
2034	0	32537	32655	32281	32506	32829	32911	32675	32847	
2035	0	32783	32575	32627	32261	32823	32851	32639	32583	
2036	0	32807	32701	32839	32444	32775	32869	32822	32725	
2037	0	32765	32751	32495	32439	32743	32763	32783	32677	
2038	0	32713	32775	32365	32359	32730	32698	32799	32599	
2039	0	32812	32815	32479	32359	32831	32757	32593	32550	
2040	0	32866	32821	32519	32310	32784	32743	32567	32674	
2041	0	32812	32698	32669	32567	32719	32695	32805	32661	
2042	0	32788	32740	32733	32543	32791	32703	32723	32635	
2043	0	32751	32763	32667	32539	32827	32639	32732	32603	
2044	0	32718	32829	32557	32679	32876	32773	32588	32686	
2045	0	32671	32930	32599	32474	32774	32723	32740	32684	
2046	0	32615	32805	32661	32587	32718	32791	32839	32662	
2047	0	32570	32847	32580	32470	32711	32726	32625	32675	
2048	0	32719	32903	32637	32750	32831	32703	32847	32705	
2049	0	32868	32690	32735	32736	32711	32751	32869	32722	
2050	0	32946	32663	32823	32895	32663	32775	32631	32775	
2051	0	32885	32631	32997	32763	32773	32847	32773	32621	
2052	0	32823	32599	33010	32803	32657	32724	32822	32583	
2053	0	32782	32675	33159	32621	32804	32663	32597	32759	
2054	0	32843	32681	32950	32724	32742	32757	32727	32679	
2055	0	32879	32599	33109	32694	32710	32789	32821	32661	
2056	0	32919	32575	32949	32823	32764	32842	32767	32773	
2057	0	32937	32535	32983	32935	32695	32845	32637	32615	
2058	0	32935	32575	33244	32503	32719	32767	32759	32660	
2059	0	32972	32590	33158	32681	32893	32685	32775	32746	
2060	0	33033	32647	33103	32767	32839	32751	32791	32576	
2061	0	32925	32617	33087	32621	32799	32775	32811	32484	
2062	0	32791	32647	32941	32471	32715	32815	32655	32694	
2063	0	32711	32637	32603	32461	32903	32759	32754	32704	
2064	0	32663	32647	32172	32411	32854	32737	32883	32687	
2065	0	32556	32685	32143	32364	32839	32839	32645	32717	
2066	0	32541	32791	32381	32563	32698	32764	32607	32551	
2067	0	32647	32822	32647	32621	32813	32799	32743	32679	
2068	0	32601	32771	32663	32647	32740	32751	32765	32684	
2069	0	32612	32791	32543	33147	32660	32815	32815	32763	
2070	0	32534	32950	32365	33171	32855	32700	32636	32636	
2071	0	32623	32871	32071	32931	32727	32626	32799	32759	
2072	0	32810	32807	32119	32951	32791	32701	32756	32705	
2073	0	32573	32711	32063	32705	32853	32711	32845	32725	
2074	0	32585	32631	32219	32799	32774	32743	32644	32597	
2075	0	32417	32691	32143	32763	32783	32755	32502	32743	
2076	0	32420	32671	32047	32531	32887	32703	32714	32641	
2077	0	32357	32647	32475	32663	32791	32731	32735	32694	
2078	0	32571	32670	32813	32612	32629	32714	32815	32619	
2079	0	32871	32743	32964	32519	32767	32647	32642	32597	
2080	0	33012	32805	32819	32663	32795	32645	32775	32707	
2081	0	33003	32736	32885	32681	32719	32765	32759	32737	
2082	0	32911	32733	32863	32659	32647	32772	32813	32638	
2083	0	32896	32757	32987	32676	32805	32775	32679	32742	
2084	0	32943	32823	33111	32553	32785	32759	32639	32514	
2085	0	32975	32833	33060	32716	32885	32819	32788	32719	
2086	0	33084	32863	32964	32627	32783	32820	32847	32743	
2087	0	33138	32805	32935	32567	32858	32849	32855	32551	
2088	0	33015	32824	32883	32820	32658	32757	32804	32698	
2089	0	32884	32842	32879	32845	32853	32817	32679	32604	
2090	0	32804	32767	32919	32719	32843	32811	32829	32742	
2091	0	32903	32727	32951	32728	32765	32791	32733	32534	
2092	0	32868	32723	32995	32644	32812	32759	32775	32631	
2093	0	32815	32679	32950	32541	32801	32751	32805	32727	
2094	0	32788	32629	32837	32694	32660	32749	32840	32695	
2095	0	32729	32639	32789	32607	32811	32750	32582	32737	
2096	0	32746	32711	32973	32673	32713	32783	32765	32516	
2097	0	32761	32766	32958	32583	32831	32739	32733	32731	
2098	0	32862	32804	32827	32482	32759	32823	32827	32734	
2099	0	32919	32671	32759	32615	32681	32790	32879	32783	
2100	0	32866	32611	32641	32687	32839	32731	32747	32551	
2101	0	32775	32583	32505	32725	32924	32751	32626	32644	
2102	0	32802	32647	32503	32771	32807	32669	32781	32674	
2103	0	32666	32687	32583	32577	32823	32683	32683	32751	
2104	0	32415	32673	32775	32805	32647	32647	32767	32597	
2105	0	32431	32761	32903	32707	32569	32647	32881	32748	
2106	0	32391	32725	33003	32673	32623	32719	32844	32701	
2107	0	32531	32627	32939	32647	32847	32743	32719	32519	
2108	0	32714	32567	32930	32695	32846	32711	32740	32733	
2109	0	32765	32518	32739	32591	32796	32735	32793	32671	
2110	0	32708	32663	32606	32643	32806	32709	32900	32797	
2111	0	32726	32671	32557	32643	32791	32754	32797	32619	
2112	0	32767	32706	32574	32587	32763	32775	32667	32767	
2113	0	32843	32804	32508	32709	32703	32795	32813	32743	
2114	0	32815	32726	32403	32577	32813	32739	32895	32717	
2115	0	32748	32806	32431	32565	32685	32715	32703	32557	
2116	0	32856	32891	32462	32613	32735	32831	32599	32470	
2117	0	32903	32863	32471	32533	32631	32783	32729	32663	
2118	0	32751	32935	32420	32578	32783	32722	32775	32623	
2119	0	32783	32866	32525	32427	32647	32762	32583	32743	
2120	0	32731	32969	32653	32702	32790	32804	32762	32681	
2121	0	32743	32831	32961	32761	32621	32847	32850	32631	
2122	0	32756	32847	33133	32815	32789	32837	32695	32677	
2123	0	32827	32699	33155	32803	32751	32734	32557	32671	
2124	0	32832	32731	33077	32679	32815	32705	32719	32747	
2125	0	32840	32756	33055	32759	32684	32723	32756	32811	
2126	0	32893	32699	32903	32812	32721	32748	32635	32622	
2127	0	32879	32711	32727	32855	32847	32804	32647	32751	
2128	0	32750	32550	32329	32739	32861	32877	32764	32762	
2129	0	32683	32423	32090	32695	32743	32755	32735	32565	
2130	0	32719	32543	31990	32511	32815	32710	32796	32711	
2131	0	32716	32549	32219	32527	32599	32727	32694	32628	
2132	0	32775	32687	32342	32463	32788	32775	32839	32667	
2133	0	32748	32627	32439	32675	32773	32767	32839	32711	
2134	0	32657	32581	32543	32610	32879	32709	32863	32755	
2135	0	32391	32539	32749	32775	32710	32825	32606	32621	
2136	0	32093	32711	32646	32757	32663	32805	32719	32723	
2137	0	32109	32673	32615	32587	32868	32755	32767	32709	
2138	0	32423	32823	32505	32695	32786	32775	32858	32741	
2139	0	32763	32759	32647	32595	32823	32721	32550	32627	
2140	0	32919	32719	32585	32759	32683	32749	32677	32630	
2141	0	32947	32759	32687	32750	32751	32711	32763	32684	
2142	0	32960	32843	32973	32533	32719	32694	32822	32692	
2143	0	32958	32903	33031	32630	32711	32669	32813	32599	
2144	0	33010	32854	33030	32591	32751	32709	32639	32513	
2145	0	32999	32867	33197	32806	32863	32723	32798	32679	
2146	0	33004	32855	33293	32593	32741	32813	32939	32719	
2147	0	33092	32855	33234	32785	32751	32769	32673	32660	
