# OpenSignals Text File Format
# {"00:07:80:64:6D:DA": {"sensor": ["CUSTOM/0.5/1.0/V", "CUSTOM/0.5/1.0/V", "CUSTOM/0.5/1.0/V", "CUSTOM/0.5/1.0/V"], "device name": "Plataforma", "column": ["nSeq", "DI", "CH1", "CH2", "CH3", "CH4"], "sync interval": 2, "time": "15:2:35.317", "comments": "", "device connection": "BTH00:07:80:64:6D:DA", "channels": [1, 2, 3, 4], "date": "2017-6-2", "mode": 0, "digital IO": [0, 1], "firmware version": 772, "device": "biosignalsplux", "position": 0, "sampling rate": 1000, "label": ["CH1", "CH2", "CH3", "CH4"], "resolution": [16, 16, 16, 16], "special": [{}, {}, {}, {}]}, "00:07:80:3B:46:38": {"sensor": ["CUSTOM/0.5/1.0/V", "CUSTOM/0.5/1.0/V", "CUSTOM/0.5/1.0/V", "CUSTOM/0.5/1.0/V", "CUSTOM/0.5/1.0/V", "CUSTOM/0.5/1.0/V", "CUSTOM/0.5/1.0/V", "CUSTOM/0.5/1.0/V"], "device name": "EMGs", "column": ["nSeq", "DI", "RA_L", "RA_R", "OE_L", "OE:R", "IL_L", "IL_R", "MF_L", "MF_R"], "sync interval": 2, "time": "15:2:35.317", "comments": "", "device connection": "BTH00:07:80:3B:46:38", "channels": [1, 2, 3, 4, 5, 6, 7, 8], "date": "2017-6-2", "mode": 0, "digital IO": [0, 1], "firmware version": 772, "device": "biosignalsplux", "position": 1, "sampling rate": 1000, "label": ["RA_L", "RA_R", "OE_L", "OE:R", "IL_L", "IL_R", "MF_L", "MF_R"], "resolution": [16, 16, 16, 16, 16, 16, 16, 16], "special": [{}, {}, {}, {}, {}, {}, {}, {}]}}
# EndOfHeader
2322	0	3982	10202	7403	5725	0	0	32367	32367	32695	32799	32854	32612	32893	32111	
2323	0	3929	10300	7364	5716	1	0	32423	32527	32737	32947	32869	32237	32899	32005	
2324	0	3985	10266	7281	5688	2	0	32517	32687	32903	33058	32727	32430	32955	32263	
2325	0	4038	10216	7290	5692	3	0	32639	32959	33007	33206	32507	32593	32831	32517	
2326	0	3982	10228	7212	5691	4	0	32613	33081	33143	33135	32351	32647	32957	32443	
2327	0	3981	10201	7126	5638	5	0	32711	33375	33359	33315	32391	32739	32847	32527	
2328	0	3986	10237	7092	5678	6	0	32800	33199	33375	33303	32470	33007	32883	32543	
2329	0	3972	10208	7100	5674	7	0	32865	33410	33439	33335	32487	33062	32861	32761	
2330	0	3961	10136	7007	5668	8	0	32871	33351	33439	33171	32491	33031	32958	32894	
2331	0	3997	10132	7026	5636	9	0	32873	33383	33478	33095	32423	32989	32863	32883	
2332	0	4006	10139	6916	5640	10	0	32838	33191	33468	33013	32423	32820	32771	32917	
2333	0	3967	10136	6904	5644	11	0	32948	33067	33302	32687	32435	32775	32719	32942	
2334	0	3966	10101	6849	5635	12	0	33031	33171	33127	32722	32420	32791	32564	33003	
2335	0	3973	10113	6823	5624	13	0	33111	33221	33031	32706	32541	32723	32527	32997	
2336	0	3954	10077	6816	5646	14	0	33254	33244	32948	32797	32659	32534	32311	32995	
2337	0	3957	10044	6704	5599	15	0	33412	33078	32821	32783	32763	32483	32311	33031	
2338	0	3912	10022	6714	5551	16	0	33500	33047	32647	32595	32877	32491	32215	33027	
2339	0	3941	9988	6644	5552	17	0	33558	33179	32494	32706	32903	32425	32297	32796	
2340	0	3911	10035	6553	5597	18	0	33567	33155	32511	32617	33092	32487	32070	32903	
2341	0	3935	9928	6568	5540	19	0	33540	33191	32611	32452	33268	32450	32006	33101	
2342	0	3899	9964	6537	5527	20	0	33381	33126	32711	32463	33097	32351	32221	33135	
2343	0	3874	9943	6507	5549	21	0	33279	32858	32747	32459	33010	32399	32173	33012	
2344	0	3911	9890	6464	5573	22	0	33236	32773	32718	32459	32751	32485	32387	32927	
2345	0	3886	9840	6444	5514	23	0	33215	32951	32691	32541	32850	32565	32167	32951	
2346	0	3854	9881	6371	5521	24	0	33172	32969	32647	32509	33109	32595	32169	32991	
2347	0	3847	9835	6255	5496	25	0	33149	32939	32681	32615	33015	32711	32191	32863	
2348	0	3828	9858	6301	5480	26	0	33041	32933	32757	32559	33185	32663	31874	32947	
2349	0	3794	9769	6228	5472	27	0	32852	32838	32716	32493	33154	32534	31900	32979	
2350	0	3798	9766	6160	5502	28	0	32742	32583	32797	32689	32759	32693	32271	32643	
2351	0	3779	9739	6164	5444	29	0	32655	32727	32763	32599	32591	32838	32479	32541	
2352	0	3797	9732	6103	5489	30	0	32564	32647	32743	32599	32714	32561	32023	32773	
2353	0	3780	9736	6062	5437	31	0	32565	32690	32703	32428	32743	32553	32081	32923	
2354	0	3726	9686	5981	5462	32	0	32602	32506	32660	32575	32319	32515	32487	32493	
2355	0	3733	9636	5998	5408	33	0	32644	32535	32509	32499	31949	32679	33217	32245	
2356	0	3719	9595	5955	5404	34	0	32617	32735	32427	32642	32039	32509	33223	32239	
2357	0	3697	9540	5866	5369	35	0	32503	32622	32523	32547	32551	32343	32858	32439	
2358	0	3706	9509	5878	5436	36	0	32521	32605	32629	32673	32659	32862	32519	32303	
2359	0	3662	9488	5868	5356	37	0	32596	32533	32638	32671	32749	33053	32773	32231	
2360	0	3669	9566	5802	5406	38	0	32662	32707	32598	32858	33268	32595	33031	32050	
2361	0	3650	9432	5691	5363	39	0	32681	32831	32477	32735	33557	32289	33035	32239	
2362	0	3596	9473	5722	5351	40	0	32588	32551	32391	32809	33526	32562	32547	32467	
2363	0	3593	9408	5680	5364	41	0	32540	32629	32573	32708	33513	32594	32647	32277	
2364	0	3614	9389	5630	5348	42	0	32489	32583	32674	32643	33234	33055	32803	32413	
2365	0	3625	9418	5593	5361	43	0	32584	32487	32713	32638	32999	33333	32837	32549	
2366	0	3576	9374	5612	5317	44	0	32583	32387	32727	32671	32923	33279	32775	32590	
2367	0	3562	9288	5571	5357	45	0	32731	32549	32849	32567	32628	33182	32626	32611	
2368	0	3504	9293	5514	5322	46	0	32647	32711	32899	32609	32525	32877	32658	32594	
2369	0	3529	9284	5455	5320	47	0	32684	32572	32929	32590	32570	32615	32603	32468	
2370	0	3519	9256	5448	5248	48	0	32736	32707	32929	32623	32699	32391	32695	32446	
2371	0	3538	9244	5454	5261	49	0	32610	32763	33011	32359	32695	32543	32591	32559	
2372	0	3508	9200	5345	5254	50	0	32549	32731	32847	32544	32538	32497	32675	32562	
2373	0	3496	9158	5382	5264	51	0	32596	32515	32978	32562	32683	32278	32379	32583	
2374	0	3491	9161	5312	5242	52	0	32581	32722	32927	32662	32768	32451	32607	32557	
2375	0	3445	9122	5252	5216	53	0	32643	32759	32844	32583	32839	32729	32381	32647	
2376	0	3472	9018	5256	5258	54	0	32754	32975	32819	32671	32801	33021	32595	32675	
2377	0	3418	8999	5179	5276	55	0	32745	32807	32845	32647	32726	33031	32577	32615	
2378	0	3396	9024	5209	5245	56	0	32690	32807	32849	32658	32823	32723	32655	32687	
2379	0	3416	8978	5122	5228	57	0	32763	32783	32870	32629	32831	32775	32471	32747	
2380	0	3372	8948	5092	5214	58	0	32802	32869	32747	32505	32742	32773	32619	32679	
2381	0	3332	8953	5064	5230	59	0	32856	32775	32615	32601	32655	32903	32577	32569	
2382	0	3396	8907	5054	5197	60	0	32810	32604	32667	32520	32642	32799	32711	32497	
2383	0	3370	8864	4991	5196	61	0	32764	32684	32575	32789	32623	32783	32643	32426	
2384	0	3365	8869	4957	5189	62	0	32775	32766	32615	32761	32765	32832	32605	32551	
2385	0	3337	8826	4920	5217	63	0	32681	32833	32693	32755	32737	32655	32451	32507	
2386	0	3372	8782	4836	5222	64	0	32636	32606	32738	32763	32615	32278	32875	32412	
2387	0	3345	8784	4878	5178	65	0	32686	32749	32773	32895	32619	32038	32855	32407	
2388	0	3286	8723	4855	5161	66	0	32631	32804	32799	32751	32642	31903	32845	32571	
2389	0	3292	8688	4772	5158	67	0	32628	32876	32708	32788	32614	32435	32334	32935	
2390	0	3232	8700	4723	5162	68	0	32653	32619	32643	32635	32584	32251	32327	32951	
2391	0	3289	8620	4784	5141	69	0	32832	32828	32515	32845	32829	32491	32356	32775	
2392	0	3244	8590	4772	5164	70	0	32839	32775	32671	32759	33093	32745	32503	32715	
2393	0	3305	8596	4696	5146	71	0	32775	32695	32725	32751	33193	32823	32423	32797	
2394	0	3268	8546	4594	5145	72	0	32699	32550	32975	32583	33119	33156	32338	32845	
2395	0	3218	8521	4664	5110	73	0	32695	32719	32959	32638	32959	33786	32318	32868	
2396	0	3258	8534	4603	5094	74	0	32759	32919	32951	32655	32799	34639	32668	32693	
2397	0	3192	8430	4608	5116	75	0	32729	32583	32901	32713	32668	33730	32615	32793	
2398	0	3233	8479	4537	5100	76	0	32741	32737	32916	32661	32587	32791	32661	32957	
2399	0	3219	8444	4504	5147	77	0	32855	32719	32951	32782	32647	32343	32775	32789	
2400	0	3192	8401	4476	5096	78	0	32781	32732	32759	32825	32663	32999	32787	32723	
2401	0	3188	8377	4476	5106	79	0	32700	32676	32639	32775	32487	33671	32647	32951	
2402	0	3196	8288	4516	5128	80	0	32600	32566	32621	32799	32583	33789	32555	33103	
2403	0	3135	8311	4430	5086	81	0	32681	32721	32711	32671	32663	33159	32623	33127	
2404	0	3151	8281	4380	5132	82	0	32808	32839	32685	32775	32503	32837	32839	32555	
2405	0	3182	8285	4366	5104	83	0	32861	32917	32562	32803	32211	33191	32941	32509	
2406	0	3175	8314	4299	5149	84	0	32817	32735	32546	32815	32420	32425	32755	32611	
2407	0	3143	8214	4318	5100	85	0	32836	32802	32572	32854	32601	32263	32540	32364	
2408	0	3108	8196	4280	5071	86	0	32916	32807	32588	32713	32787	32447	32839	32143	
2409	0	3140	8162	4242	5115	87	0	32738	32887	32671	32817	33065	32219	33151	32078	
2410	0	3152	8156	4226	5080	88	0	32608	32681	32729	32706	33250	31911	33159	32086	
2411	0	3164	8092	4214	5078	89	0	32736	32551	32886	32836	33607	31133	32898	32356	
2412	0	3108	8082	4179	5105	90	0	32759	32802	32950	32741	33769	31841	32911	32421	
2413	0	3079	8028	4176	5097	91	0	32781	32829	32967	32626	33532	32903	32903	32605	
2414	0	3146	8051	4209	5090	92	0	32866	32903	32996	32821	33254	32957	33127	32759	
2415	0	3110	8000	4117	5122	93	0	32883	32817	32916	32775	32940	33593	32999	32876	
2416	0	3160	8034	4111	5143	94	0	32783	32687	32838	32692	32719	33909	33155	32849	
2417	0	3141	7970	4101	5126	95	0	32764	32852	32790	32758	32732	33079	33076	32476	
2418	0	3095	7972	4077	5104	96	0	32712	32927	32785	32661	32668	32100	32999	32179	
2419	0	3117	7949	4018	5152	97	0	32571	32595	32818	32577	32735	31903	33073	31997	
2420	0	3130	7936	4025	5118	98	0	32718	32629	32847	32591	32806	32495	33159	32228	
2421	0	3140	7937	3949	5120	99	0	32813	32879	32775	32775	32738	32623	32643	32605	
2422	0	3186	7902	3970	5116	100	0	32756	32863	32807	32847	32696	32359	32206	32827	
2423	0	3176	7852	3959	5118	101	0	32785	32957	32857	32791	32791	32146	32413	32893	
2424	0	3125	7872	3995	5154	102	0	32818	32671	32854	32877	32757	32167	32401	32765	
2425	0	3197	7852	3968	5131	103	0	32748	32805	32671	32675	32811	32325	32351	33015	
2426	0	3171	7804	3909	5132	104	0	32775	32784	32582	32773	32791	32557	32271	33159	
2427	0	3219	7914	3920	5168	105	0	32715	32903	32647	32775	32684	33223	32597	33239	
2428	0	3252	7817	3886	5171	106	0	32775	32679	32706	32959	32667	33265	32695	33037	
2429	0	3233	7761	3861	5201	107	0	32839	32810	32663	32925	32548	33369	32619	32989	
2430	0	3219	7816	3860	5171	108	0	32903	32855	32531	33053	32671	33223	32459	32879	
2431	0	3253	7780	3867	5192	109	0	32832	32871	32583	32943	32711	33278	32628	32803	
2432	0	3234	7763	3861	5230	110	0	32857	32671	32621	32924	32767	33254	32601	32773	
2433	0	3268	7797	3823	5202	111	0	32794	32751	32637	32759	32775	32867	32692	32670	
2434	0	3279	7788	3764	5225	112	0	32841	32731	32775	32758	32689	32645	32694	32663	
2435	0	3299	7705	3784	5232	113	0	32788	32527	32915	32672	32660	32647	32823	32721	
2436	0	3338	7691	3818	5242	114	0	32787	32679	32887	32727	32607	32557	32764	32674	
2437	0	3313	7697	3765	5266	115	0	32792	32695	32727	32685	32629	32519	32719	32775	
2438	0	3345	7722	3800	5255	116	0	32735	32647	32697	32791	32818	32391	32539	32843	
2439	0	3333	7696	3712	5236	117	0	32743	32751	32775	32692	32858	32343	32743	32871	
2440	0	3299	7674	3739	5304	118	0	32756	32741	32771	32789	32861	32471	32615	32759	
2441	0	3376	7620	3711	5285	119	0	32771	32951	32685	32747	32835	32549	32647	32775	
2442	0	3361	7650	3700	5300	120	0	32759	32675	32815	32735	32775	32503	32437	32756	
2443	0	3409	7656	3752	5252	121	0	32752	32647	32710	32647	32957	32495	32535	32740	
2444	0	3390	7593	3614	5296	122	0	32640	32827	32743	32703	32943	32476	32437	32791	
2445	0	3418	7618	3651	5326	123	0	32642	32850	32767	32791	32957	32519	32669	32716	
2446	0	3425	7656	3649	5298	124	0	32655	32807	32679	32659	32809	32479	32559	32621	
2447	0	3431	7618	3638	5277	125	0	32708	32623	32667	32775	32707	32461	32765	32605	
2448	0	3441	7568	3603	5311	126	0	32808	32826	32703	32703	32775	32647	32644	32566	
2449	0	3417	7539	3550	5344	127	0	32743	32758	32953	32818	32773	32663	32931	32485	
2450	0	3436	7542	3617	5323	128	0	32703	32828	32999	32740	32519	32598	32775	32543	
2451	0	3463	7522	3586	5354	129	0	32679	32676	32844	32669	32757	32438	32692	32589	
2452	0	3508	7484	3566	5315	130	0	32783	32661	32771	32759	32815	32375	32775	32407	
2453	0	3465	7532	3562	5379	131	0	32782	32838	32642	32620	32751	32427	32831	32459	
2454	0	3496	7473	3540	5348	132	0	32762	32860	32533	32615	32743	32371	32605	32673	
2455	0	3464	7506	3543	5400	133	0	32743	32859	32599	32543	32611	32835	32489	32823	
2456	0	3519	7412	3575	5370	134	0	32806	32699	32605	32663	32647	33043	32675	32596	
2457	0	3531	7488	3449	5400	135	0	32822	32807	32732	32599	32951	32621	32940	32356	
2458	0	3503	7436	3514	5420	136	0	32775	32881	32795	32734	32860	32599	32786	32443	
2459	0	3563	7440	3511	5410	137	0	32746	32693	32859	32727	32743	31993	32701	32349	
2460	0	3570	7420	3439	5421	138	0	32728	32573	32887	32797	32606	31495	32892	32062	
2461	0	3574	7401	3438	5420	139	0	32777	32739	32959	32703	32700	31389	32199	32767	
2462	0	3570	7453	3434	5420	140	0	32647	32743	32999	32591	33055	30599	32015	33139	
2463	0	3548	7399	3410	5466	141	0	32783	32489	32783	32507	32738	31391	32246	32769	
2464	0	3594	7438	3359	5454	142	0	32804	32707	32733	32694	32391	33159	32189	32798	
2465	0	3614	7375	3388	5450	143	0	32741	32756	32775	32655	32248	33735	32263	33082	
2466	0	3590	7350	3421	5506	144	0	32785	32671	32595	32715	32407	34851	32463	33308	
2467	0	3637	7357	3377	5470	145	0	32751	32789	32542	32748	32835	35241	32631	33739	
2468	0	3660	7362	3312	5498	146	0	32871	32995	32633	32783	32809	35541	32820	33503	
2469	0	3655	7332	3336	5491	147	0	32919	32953	32647	32879	32855	35348	33266	33077	
2470	0	3692	7346	3320	5462	148	0	32988	32926	32683	32875	32871	34806	33532	32644	
2471	0	3654	7330	3316	5510	149	0	32823	32827	32677	32711	33271	33783	33575	32603	
2472	0	3712	7259	3272	5520	150	0	32732	32595	32775	32751	33245	33299	33377	32372	
2473	0	3647	7268	3327	5510	151	0	32634	32629	32832	32660	33118	32877	33413	32100	
2474	0	3674	7285	3262	5497	152	0	32644	32701	32833	32627	33247	32295	33383	32150	
2475	0	3706	7236	3210	5495	153	0	32822	32823	32577	32647	32991	31933	32911	32256	
2476	0	3704	7261	3208	5541	154	0	32914	32871	32391	32615	32975	32135	32762	32308	
2477	0	3698	7208	3233	5554	155	0	32876	32641	32446	32599	33078	31771	32556	32597	
2478	0	3721	7280	3230	5517	156	0	32870	32807	32515	32631	33002	31807	32676	32786	
2479	0	3732	7216	3268	5576	157	0	32871	32863	32647	32679	32749	32275	32591	32887	
2480	0	3736	7188	3228	5544	158	0	32909	32891	32574	32667	32871	32199	32505	33053	
2481	0	3720	7166	3159	5561	159	0	32817	32892	32663	32575	32713	32274	32519	33149	
2482	0	3760	7116	3130	5538	160	0	32696	32692	32787	32775	32745	32787	32645	32843	
2483	0	3776	7133	3118	5544	161	0	32666	32643	32713	32767	32854	33185	32567	32615	
2484	0	3763	7122	3113	5542	162	0	32764	32903	32773	32871	32859	32903	32491	32643	
2485	0	3756	7084	3088	5556	163	0	32671	32871	32821	32862	32903	32451	32527	32556	
2486	0	3818	7076	3076	5601	164	0	32564	32815	32844	32660	32783	32271	32487	32493	
2487	0	3755	7033	3054	5590	165	0	32713	32847	32823	32739	32839	32698	32637	32582	
2488	0	3769	7067	3059	5588	166	0	32695	32719	32615	32813	32791	32801	32655	32599	
2489	0	3772	7029	3052	5630	167	0	32745	32710	32797	32687	32647	32655	32647	32533	
2490	0	3781	6975	2983	5617	168	0	32752	32791	32967	32707	32625	32459	32723	32575	
2491	0	3770	7015	2973	5631	169	0	32635	32711	32970	32615	32647	32404	32533	32758	
2492	0	3805	6983	2976	5561	170	0	32669	32739	32959	32515	32684	32420	32766	32655	
2493	0	3802	6978	2977	5637	171	0	32668	32737	32980	32583	32607	32404	32775	32635	
2494	0	3782	6920	2980	5630	172	0	32622	32791	32943	32548	32677	32369	32539	32739	
2495	0	3811	6908	2944	5604	173	0	32663	32770	32839	32515	32685	32461	32733	32867	
2496	0	3812	6922	2973	5650	174	0	32787	32679	32819	32607	32669	32514	32747	32857	
2497	0	3828	6888	2918	5672	175	0	32738	32791	32743	32549	32647	32543	32838	32819	
2498	0	3861	6888	2921	5653	176	0	32669	32719	33005	32729	32794	32709	32420	32838	
2499	0	3880	6861	2858	5700	177	0	32689	32895	33063	32783	32935	32647	32239	32839	
2500	0	3886	6851	2880	5687	178	0	32690	32791	32922	32709	32973	32587	32679	32503	
2501	0	3860	6840	2900	5675	179	0	32743	32611	32935	32787	32850	32679	33231	31973	
2502	0	3904	6825	2870	5681	180	0	32658	32519	32823	32679	32639	32919	32487	32871	
2503	0	3892	6812	2864	5700	181	0	32679	32695	32789	32797	32538	33047	32207	33333	
2504	0	3898	6790	2828	5698	182	0	32752	32743	32795	32867	32109	33671	32550	32767	
2505	0	3922	6770	2817	5707	183	0	32706	32756	32759	32835	32121	33471	32402	32883	
2506	0	3914	6805	2822	5745	184	0	32727	32886	32770	32803	32313	33133	32483	32932	
2507	0	3921	6757	2767	5755	185	0	32719	32692	32713	32647	32791	32773	32439	32613	
2508	0	3925	6730	2775	5746	186	0	32726	32593	32631	32742	33037	32345	32429	32689	
2509	0	4022	6781	2789	5753	187	0	32704	32798	32559	32613	33135	32231	32423	32663	
2510	0	4020	6699	2767	5795	188	0	32840	32826	32503	32578	33102	32607	32613	32845	
2511	0	4044	6698	2722	5826	189	0	32782	32775	32439	32646	32979	32969	32567	32724	
2512	0	4026	6683	2755	5800	190	0	32784	32775	32582	32607	33231	32391	32782	32463	
2513	0	4061	6720	2689	5827	191	0	32884	32626	32620	32679	33431	31875	33077	32117	
2514	0	4080	6700	2767	5856	192	0	32959	32647	32759	32727	33346	31870	32925	31740	
2515	0	4103	6720	2711	5886	193	0	32836	32647	33007	32835	33131	31751	33139	31534	
2516	0	4128	6680	2710	5911	194	0	32783	32859	33193	32773	33047	31955	33047	31781	
2517	0	4143	6665	2680	5936	195	0	32733	32815	33159	32647	32935	32221	32842	32201	
2518	0	4189	6669	2732	5887	196	0	32749	32763	33002	32827	32829	32690	32759	32687	
2519	0	4137	6598	2654	5916	197	0	32826	32815	32919	32863	32738	33037	32574	33071	
2520	0	4202	6628	2698	5954	198	0	32762	32647	32775	32790	32799	33061	32595	33038	
2521	0	4264	6641	2631	5979	199	0	32725	32639	32701	32903	32863	32946	32516	32919	
2522	0	4207	6563	2676	5956	200	0	32807	32825	32575	32677	32863	33039	32579	32887	
2523	0	4260	6620	2619	6016	201	0	32879	32877	32479	32730	32859	32974	32503	32829	
2524	0	4335	6596	2700	6034	202	0	32913	32791	32561	32610	32893	32775	32569	32719	
2525	0	4322	6650	2728	6073	203	0	32853	32638	32578	32402	32962	32685	32532	32743	
2526	0	4329	6599	2682	6048	204	0	32767	32732	32700	32542	32846	32951	32527	32935	
2527	0	4399	6646	2658	6100	205	0	32662	32711	32866	32451	32619	32931	32533	33015	
2528	0	4392	6642	2674	6122	206	0	32719	32775	32854	32525	32647	32886	32579	33013	
2529	0	4399	6594	2664	6112	207	0	32815	32631	32688	32523	32772	32807	32615	32983	
2530	0	4459	6659	2700	6156	208	0	32685	32556	32675	32511	32603	32813	32719	32641	
2531	0	4538	6694	2720	6172	209	0	32647	32655	32748	32668	32469	32755	32679	32705	
2532	0	4548	6625	2724	6197	210	0	32752	32615	32735	32743	32511	32763	32738	32722	
2533	0	4600	6664	2712	6177	211	0	32765	32767	32734	32755	32615	32789	32789	32831	
2534	0	4593	6690	2748	6256	212	0	32757	32720	32636	32844	32685	32738	32742	32951	
2535	0	4654	6770	2781	6259	213	0	32766	32799	32680	32959	32671	32714	32775	32807	
2536	0	4653	6746	2762	6292	214	0	32756	32647	32751	32983	32581	32775	32606	32727	
2537	0	4672	6750	2779	6308	215	0	32825	32899	32854	32695	32727	32791	32597	32551	
2538	0	4757	6819	2815	6337	216	0	32720	32731	32879	32548	32551	32730	32795	32401	
2539	0	4742	6816	2770	6336	217	0	32604	32591	32758	32554	32706	32775	32727	32775	
2540	0	4783	6816	2807	6365	218	0	32652	32787	32694	32647	32710	32723	32607	32695	
2541	0	4813	6829	2856	6408	219	0	32781	32722	32569	32741	32899	32617	32693	32775	
2542	0	4859	6846	2829	6424	220	0	32825	32647	32743	32915	32633	32759	32677	32853	
2543	0	4912	6886	2889	6413	221	0	32868	32939	32703	32935	32711	32748	32857	32726	
2544	0	4946	6915	2928	6500	222	0	32880	32829	32823	32870	32663	32875	32993	32615	
2545	0	5012	6950	2944	6462	223	0	32814	32723	32705	32879	32839	32677	32738	32689	
2546	0	5008	6992	2973	6526	224	0	32739	32803	32623	32943	32793	32727	32485	32722	
2547	0	5058	6972	2981	6542	225	0	32687	32821	32515	32903	32815	32647	32364	32887	
2548	0	5060	7025	3018	6608	226	0	32716	32801	32694	32925	32834	32727	32443	32717	
2549	0	5138	7081	3016	6612	227	0	32689	32767	32737	32967	32749	32835	32519	32555	
2550	0	5161	7103	3108	6608	228	0	32622	32853	32898	32863	32871	32783	32438	32553	
2551	0	5186	7142	3055	6688	229	0	32631	32611	32973	32711	32822	32748	32501	32379	
2552	0	5212	7133	3125	6678	230	0	32696	32679	32799	32719	32873	32695	32489	32519	
2553	0	5266	7203	3172	6674	231	0	32738	32733	32659	32583	32863	32785	32562	32586	
2554	0	5293	7215	3187	6736	232	0	32845	32475	32571	32551	32911	32700	32578	32743	
2555	0	5347	7258	3242	6755	233	0	32856	32631	32900	32510	32829	32679	32647	32863	
2556	0	5348	7290	3207	6773	234	0	32925	32695	33053	32619	32813	32818	32647	32711	
2557	0	5421	7265	3308	6774	235	0	32972	32563	33029	32665	32647	32951	32701	32863	
2558	0	5476	7350	3317	6872	236	0	32868	32825	32947	32679	32714	32931	32831	32821	
2559	0	5471	7362	3311	6889	237	0	32820	32759	32864	32643	32707	32831	32775	32642	
2560	0	5508	7403	3327	6899	238	0	32799	32697	32591	32591	32884	32759	32551	32587	
2561	0	5620	7424	3400	6923	239	0	32812	32775	32775	32565	32793	32663	32571	32420	
2562	0	5571	7455	3411	6957	240	0	32828	32828	32711	32714	32885	32599	32589	32635	
2563	0	5648	7481	3420	6949	241	0	32851	32643	32698	32593	32722	32771	32543	32477	
2564	0	5696	7542	3474	6952	242	0	32820	32725	32685	32410	32739	32710	32573	32703	
2565	0	5726	7540	3466	7028	243	0	32707	32519	32743	32537	32619	32799	32635	32711	
2566	0	5781	7606	3555	7053	244	0	32710	32419	32479	32793	32663	32647	32724	32771	
2567	0	5822	7628	3522	7097	245	0	32676	32612	32567	32986	32694	32519	32617	32611	
2568	0	5866	7624	3560	7126	246	0	32791	32771	32539	32871	32599	32679	32775	32711	
2569	0	5953	7627	3625	7133	247	0	32888	33007	32439	32815	32794	32647	32769	32598	
2570	0	5926	7670	3662	7198	248	0	32811	32919	32627	32757	32843	32671	32827	32554	
2571	0	5978	7708	3644	7248	249	0	32788	32955	32647	32705	32783	32605	32739	32577	
2572	0	6003	7736	3670	7225	250	0	32831	32873	32669	32507	32801	32726	32679	32485	
2573	0	5983	7800	3712	7237	251	0	32765	32855	32709	32291	32887	32755	32753	32627	
2574	0	6048	7810	3735	7302	252	0	32598	32775	32687	32375	32883	32830	32676	32663	
2575	0	6134	7810	3720	7271	253	0	32446	32575	32899	32539	32933	32785	32447	32519	
2576	0	6180	7871	3782	7332	254	0	32556	32951	32983	32645	32964	32757	32564	32743	
2577	0	6147	7872	3761	7390	255	0	32809	32844	33130	32676	33060	32764	32555	32678	
2578	0	6185	7880	3832	7404	256	0	32847	32575	32909	32845	32959	32645	32775	32692	
2579	0	6261	7880	3829	7373	257	0	32875	32818	32631	33053	32745	32551	32827	32631	
2580	0	6287	7975	3910	7422	258	0	32932	32703	32535	33197	32933	32709	32773	32719	
2581	0	6341	8011	3829	7438	259	0	32818	32771	32714	33142	32927	32740	32685	32689	
2582	0	6389	8037	3935	7468	260	0	32652	32753	32782	33187	32915	32681	32604	32701	
2583	0	6392	8034	3961	7505	261	0	32519	32748	32871	33119	33013	32495	32491	32662	
2584	0	6396	8063	3970	7560	262	0	32548	32742	32786	32911	32673	32547	32663	32615	
2585	0	6460	8074	3931	7577	263	0	32763	32767	32705	32759	32423	32486	32743	32639	
2586	0	6514	8074	3994	7558	264	0	32830	32748	32740	32507	32615	32473	32634	32838	
2587	0	6495	8142	4047	7622	265	0	32741	32787	32775	32365	32614	32295	32611	32799	
2588	0	6549	8159	4053	7647	266	0	32579	32578	32698	32493	32612	32336	32635	32903	
2589	0	6576	8161	4105	7645	267	0	32570	32495	32775	32555	32470	32629	32829	32713	
2590	0	6624	8195	4069	7649	268	0	32647	32722	32879	32839	32527	33009	32726	32538	
2591	0	6619	8200	4081	7720	269	0	32738	32663	32903	32931	32666	33490	32567	32719	
2592	0	6643	8282	4164	7705	270	0	32856	32629	32874	32925	32687	33319	32500	32867	
2593	0	6684	8264	4128	7752	271	0	32855	32743	32918	32767	32759	33355	32695	32847	
2594	0	6729	8327	4197	7768	272	0	32908	32932	32955	32487	32527	33135	32644	32989	
2595	0	6760	8310	4181	7729	273	0	32836	32877	32887	32340	32771	32867	32576	33087	
2596	0	6765	8336	4192	7817	274	0	32758	32711	32496	32391	32714	32774	32615	32675	
2597	0	6762	8312	4172	7798	275	0	32793	32855	32567	32551	32965	32513	32607	32297	
2598	0	6856	8344	4233	7834	276	0	32916	32846	32663	32583	32967	32351	32639	32313	
2599	0	6853	8348	4264	7870	277	0	32935	32710	32911	32711	32756	32655	32647	32468	
2600	0	6852	8385	4193	7889	278	0	32908	32991	32852	32621	33047	32589	32551	32673	
2601	0	6882	8384	4311	7895	279	0	32874	32983	32762	32603	32935	32545	32623	32715	
2602	0	6929	8428	4220	7918	280	0	32759	32789	33089	32460	32929	32262	32743	32459	
2603	0	6924	8472	4296	7906	281	0	32742	32684	32799	32479	32423	32483	32727	32620	
2604	0	6951	8396	4360	7929	282	0	32755	32801	32819	32553	32311	32703	32591	32647	
2605	0	6980	8500	4328	7977	283	0	32756	32519	32678	32595	32701	32613	32491	32775	
2606	0	6977	8517	4355	7998	284	0	32756	32679	32587	32756	32882	32525	32587	32703	
2607	0	7032	8520	4342	8026	285	0	32727	32785	32553	32727	32981	32375	32667	32729	
2608	0	7027	8526	4328	8028	286	0	32640	32783	32578	32813	33189	32503	32839	32543	
2609	0	7045	8514	4348	8035	287	0	32711	32583	32551	32898	33303	32511	32697	32647	
2610	0	7076	8541	4426	8046	288	0	32775	32706	32623	32722	33027	32647	32607	32535	
2611	0	7122	8580	4416	8065	289	0	32813	32719	32647	32615	32765	32441	32823	32642	
2612	0	7129	8571	4438	8094	290	0	32787	32587	32767	32695	32751	32702	32749	32718	
2613	0	7144	8618	4471	8092	291	0	32802	32751	32938	32759	32871	33111	32661	32703	
2614	0	7173	8616	4428	8128	292	0	32769	32715	32863	32609	32821	33145	32797	32663	
2615	0	7186	8672	4478	8102	293	0	32800	32791	32895	32749	32788	32903	32751	32611	
2616	0	7196	8633	4511	8169	294	0	32850	32555	32875	32695	32751	32943	32707	32639	
2617	0	7192	8636	4483	8164	295	0	32862	32751	32845	32801	32795	32755	32731	32611	
2618	0	7255	8692	4542	8195	296	0	32769	32775	32595	32807	32775	32703	32508	32589	
2619	0	7214	8694	4520	8210	297	0	32845	32855	32603	32951	32839	32721	32671	32671	
2620	0	7264	8736	4536	8212	298	0	32775	32759	32725	32953	32743	32577	32727	32707	
2621	0	7235	8705	4522	8216	299	0	32775	32887	32799	32805	32647	32615	32641	32692	
2622	0	7285	8737	4549	8186	300	0	32716	32895	32892	32860	32819	32818	32751	32683	
2623	0	7266	8740	4604	8192	301	0	32680	32925	32977	32711	32909	32821	32509	32735	
2624	0	7296	8744	4543	8226	302	0	32527	32687	32842	32645	32867	32851	32647	32701	
2625	0	7296	8746	4570	8271	303	0	32415	32447	32915	32617	32623	32836	32794	32639	
2626	0	7288	8793	4577	8277	304	0	32636	32733	32757	32572	32895	32757	32658	32639	
2627	0	7361	8741	4596	8262	305	0	32751	32876	32581	32697	32808	32687	32741	32641	
2628	0	7348	8772	4660	8273	306	0	32809	32871	32625	32639	32611	32794	32720	32903	
2629	0	7349	8778	4636	8288	307	0	32801	32818	32691	32762	32631	32703	32655	32807	
2630	0	7348	8848	4644	8303	308	0	32783	32644	32658	32767	32799	32727	32698	32631	
2631	0	7325	8840	4572	8287	309	0	32718	32722	32711	32598	32883	32621	32625	32645	
2632	0	7336	8817	4612	8255	310	0	32645	32591	32935	32385	32899	32549	32706	32453	
2633	0	7359	8824	4641	8260	311	0	32642	32487	32934	32473	32687	32323	32839	32455	
2634	0	7352	8834	4706	8261	312	0	32621	32659	32887	32739	32805	32148	32743	32593	
2635	0	7372	8889	4677	8276	313	0	32734	32719	32733	32957	32586	31973	32900	32767	
2636	0	7372	8898	4734	8243	314	0	32660	32591	32759	33010	32721	31807	32733	32468	
2637	0	7350	8933	4661	8283	315	0	32621	32479	32669	33028	32845	31841	32199	33007	
2638	0	7385	8898	4693	8228	316	0	32767	32775	32599	33052	32455	32343	32567	32475	
2639	0	7376	8929	4700	8227	317	0	32829	32741	32627	32987	32373	32647	32357	32852	
2640	0	7353	8920	4668	8292	318	0	32833	32687	32758	32899	32378	33158	32559	32756	
2641	0	7388	8946	4738	8280	319	0	32765	32854	32620	32711	32455	33622	32567	32743	
2642	0	7363	9008	4694	8223	320	0	32788	32701	32711	32615	32753	33794	32579	32903	
2643	0	7389	8889	4764	8220	321	0	32646	32513	32719	32687	32851	33756	32323	33263	
2644	0	7361	8996	4708	8227	322	0	32723	32861	32696	32707	32757	34199	32711	33030	
2645	0	7341	8978	4736	8217	323	0	32915	32831	32827	32799	32671	33909	32751	32895	
2646	0	7312	8952	4702	8162	324	0	32887	32765	32899	32839	32983	33711	33026	32561	
2647	0	7276	8995	4749	8212	325	0	32884	33015	32901	32815	33037	33311	32850	32499	
2648	0	7336	8939	4716	8164	326	0	32957	32945	32839	32687	33154	32718	32775	32522	
2649	0	7340	8976	4753	8180	327	0	32914	32811	32767	32599	33183	32390	32979	32071	
2650	0	7312	8974	4780	8128	328	0	32846	32997	32638	32533	33199	32193	32759	32009	
2651	0	7312	8988	4792	8148	329	0	32823	32987	32594	32595	33159	32125	32903	31999	
2652	0	7274	8994	4740	8114	330	0	32720	32660	32630	32663	33002	32389	32878	32231	
2653	0	7226	8960	4736	8129	331	0	32709	32706	32647	32663	32869	32549	32611	32583	
2654	0	7280	8990	4760	8114	332	0	32729	32919	32679	32685	32599	32567	32403	33116	
2655	0	7208	9005	4742	8096	333	0	32693	32775	32796	32815	32423	32662	32319	33015	
2656	0	7203	8996	4774	8044	334	0	32714	32609	32694	32762	32479	32711	32100	33078	
2657	0	7161	9004	4776	8093	335	0	32655	32775	32695	32719	32735	32691	32172	32861	
2658	0	7172	8948	4754	8062	336	0	32707	32708	32663	32717	32943	32593	32067	33005	
2659	0	7116	8998	4716	8032	337	0	32752	32716	32703	32791	32621	32447	32626	32495	
2660	0	7107	8938	4735	7994	338	0	32656	32703	32695	32852	32383	32447	32671	32015	
2661	0	7147	9005	4715	7964	339	0	32660	32796	32693	32819	32708	32534	32975	32277	
2662	0	7081	8936	4765	7984	340	0	32681	32591	32635	32799	32617	33103	32951	32690	
2663	0	7030	8973	4762	7925	341	0	32793	32804	32597	32739	32750	32885	33111	32915	
2664	0	7040	8964	4749	7906	342	0	32801	32901	32719	32807	32979	32498	32979	32575	
2665	0	6970	8967	4746	7915	343	0	32833	32867	32671	32795	32795	32443	32960	32581	
2666	0	6984	8942	4721	7892	344	0	32807	32630	32727	32869	33139	32135	32419	33053	
2667	0	6952	8938	4708	7889	345	0	32788	32811	32804	32775	33189	32607	32015	33301	
2668	0	6948	8946	4716	7818	346	0	32673	32783	32738	32713	32887	32887	32290	32687	
2669	0	6937	8921	4697	7810	347	0	32709	32563	32764	32623	32791	32981	32365	32439	
2670	0	6917	8865	4682	7846	348	0	32735	32815	32767	32735	32766	33031	32676	32457	
2671	0	6905	8916	4644	7805	349	0	32735	32932	32829	32534	32647	32871	32715	32316	
2672	0	6861	8927	4680	7794	350	0	32804	32663	32965	32501	32695	32721	32964	32077	
2673	0	6832	8873	4652	7760	351	0	32743	32773	32843	32471	33005	31855	33124	31645	
2674	0	6855	8912	4628	7717	352	0	32881	32841	32858	32711	33086	31903	32877	32106	
2675	0	6754	8844	4650	7704	353	0	32815	32831	32815	32639	32962	32495	32799	32691	
2676	0	6745	8890	4634	7645	354	0	32817	32583	32805	32639	32959	32765	32639	32795	
2677	0	6768	8810	4663	7672	355	0	32792	32725	32717	32604	32925	32845	32839	32815	
2678	0	6723	8800	4612	7610	356	0	32774	32765	32787	32655	32735	32903	32763	32898	
2679	0	6708	8824	4598	7622	357	0	32767	32879	32834	32772	32685	32883	32828	32903	
2680	0	6637	8831	4572	7620	358	0	32748	32655	32771	32691	32637	32863	32639	32891	
2681	0	6622	8792	4574	7601	359	0	32722	32607	32759	32855	32493	32758	32551	32807	
2682	0	6599	8774	4575	7570	360	0	32830	32855	32708	32861	32534	32695	32632	32887	
2683	0	6584	8768	4538	7530	361	0	32860	32926	32711	32991	32517	32809	32563	32839	
2684	0	6572	8712	4517	7473	362	0	32916	32732	32743	32850	32543	32850	32723	32757	
2685	0	6480	8708	4484	7446	363	0	32865	32531	32801	32803	32519	32903	32724	32743	
2686	0	6467	8741	4470	7438	364	0	32870	32692	32798	32551	32871	32817	32510	32689	
2687	0	6449	8701	4491	7416	365	0	32743	32643	32765	32515	33103	32831	32522	32587	
2688	0	6428	8657	4441	7414	366	0	32748	32519	32836	32567	32918	33031	32519	32615	
2689	0	6391	8638	4448	7404	367	0	32799	32735	32771	32731	32803	32935	32657	32703	
2690	0	6380	8630	4451	7369	368	0	32786	32830	32827	32896	32765	32903	32635	32847	
2691	0	6335	8613	4421	7328	369	0	32719	32633	32799	32831	32764	32959	32605	32839	
2692	0	6255	8641	4408	7332	370	0	32717	32895	32877	32813	32789	32797	32639	32783	
2693	0	6276	8576	4376	7242	371	0	32692	32836	32826	32791	32925	32787	32759	32687	
2694	0	6204	8567	4356	7256	372	0	32697	32790	32917	32789	32855	32813	32508	32741	
2695	0	6178	8560	4293	7186	373	0	32740	32741	32815	32803	32807	32795	32558	32719	
2696	0	6159	8536	4342	7163	374	0	32713	32887	32839	32758	32854	32847	32711	32734	
2697	0	6192	8520	4360	7155	375	0	32670	32726	32639	32596	32834	32676	32588	32695	
2698	0	6080	8480	4272	7191	376	0	32716	32711	32687	32535	32843	32561	32694	32534	
2699	0	6069	8462	4296	7137	377	0	32738	32708	32631	32562	32738	32669	32751	32669	
2700	0	6045	8448	4257	7078	378	0	32805	32791	32707	32677	32839	32700	32767	32617	
2701	0	6008	8395	4260	7093	379	0	32759	32647	32621	32646	32841	32719	32739	32687	
2702	0	5947	8413	4230	7040	380	0	32816	32887	32765	32661	32791	32631	32557	32603	
2703	0	5910	8386	4200	7011	381	0	32804	32827	32738	32663	32759	32613	32613	32621	
2704	0	5875	8368	4158	7013	382	0	32844	32799	32850	32603	32763	32615	32565	32448	
2705	0	5867	8323	4169	7003	383	0	32831	32679	32727	32567	32867	32377	32603	32555	
2706	0	5849	8333	4128	6975	384	0	32815	32871	32798	32647	32489	32519	32727	32347	
2707	0	5748	8290	4154	6930	385	0	32804	32875	32759	32693	32495	32639	32567	32463	
2708	0	5731	8272	4041	6912	386	0	32780	32663	32807	32740	32711	32559	32916	32473	
2709	0	5713	8249	4072	6859	387	0	32773	32737	32863	32765	33247	32647	32845	32607	
2710	0	5712	8273	4070	6862	388	0	32791	32795	32769	32843	33247	32967	32899	32799	
2711	0	5608	8168	4040	6836	389	0	32739	32941	32687	32731	33134	33067	32727	32983	
2712	0	5603	8227	3986	6823	390	0	32641	32596	32725	32735	33437	32977	32545	33071	
2713	0	5546	8186	3968	6785	391	0	32632	32735	32789	32645	33607	32743	32415	33082	
2714	0	5488	8128	3990	6744	392	0	32743	32787	32775	32789	33231	32743	32423	32895	
2715	0	5506	8104	3985	6722	393	0	32668	32799	32601	32773	32887	32673	32695	32745	
2716	0	5456	8086	3953	6714	394	0	32822	32900	32551	32685	32231	32687	32602	32699	
2717	0	5440	8039	3932	6660	395	0	32879	32807	32647	32833	31911	32441	32725	32570	
2718	0	5399	8010	3883	6668	396	0	32790	32935	32717	32671	32423	32263	32558	32583	
2719	0	5354	7990	3882	6622	397	0	32717	32951	32615	32695	32653	32447	32535	32579	
2720	0	5348	8020	3875	6593	398	0	32775	32867	32613	32743	32411	32695	32731	32535	
2721	0	5277	7918	3849	6578	399	0	32833	32836	32720	32947	32475	32943	32871	32604	
2722	0	5252	7936	3798	6588	400	0	32794	32884	32783	32851	32719	32959	32751	32654	
2723	0	5230	7918	3840	6557	401	0	32817	32927	32740	32719	32739	32919	32727	32535	
2724	0	5206	7887	3726	6543	402	0	32834	32699	32831	32759	32747	32647	32563	32727	
2725	0	5156	7883	3745	6532	403	0	32881	32845	32803	32662	32765	32814	32607	32727	
2726	0	5136	7852	3738	6482	404	0	32847	32868	32822	32743	32719	32719	32291	32749	
2727	0	5142	7840	3690	6509	405	0	32911	33039	32865	32795	32893	32623	32363	32867	
2728	0	5054	7810	3664	6457	406	0	33012	32835	32885	32786	32991	32626	32417	32861	
2729	0	5052	7780	3653	6412	407	0	32918	32600	32796	32742	32991	32637	32669	32775	
2730	0	4977	7749	3687	6367	408	0	32867	32775	32684	32567	32877	32623	32615	32773	
2731	0	5003	7729	3619	6345	409	0	32820	32757	32603	32555	32933	32743	32423	32815	
2732	0	4945	7710	3600	6354	410	0	32775	32719	32533	32499	32943	32647	32551	32668	
2733	0	4907	7678	3566	6320	411	0	32803	32579	32613	32647	32903	32603	32615	32629	
2734	0	4889	7642	3579	6294	412	0	32762	32567	32627	32468	32805	32708	32687	32591	
2735	0	4849	7697	3590	6287	413	0	32602	32545	32694	32469	32823	32621	32614	32511	
2736	0	4853	7584	3552	6244	414	0	32602	32587	32635	32507	32773	32668	32487	32483	
2737	0	4831	7628	3503	6235	415	0	32572	32263	32565	32389	32854	32827	32591	32493	
2738	0	4756	7598	3459	6210	416	0	32613	32261	32564	32467	32927	32747	32413	32580	
2739	0	4713	7530	3460	6208	417	0	32672	32423	32496	32450	32887	32679	32766	32551	
2740	0	4670	7494	3455	6202	418	0	32662	32470	32543	32391	32806	32783	32644	32637	
2741	0	4680	7509	3436	6137	419	0	32703	32346	32605	32535	32839	32791	32799	32627	
2742	0	4655	7500	3429	6132	420	0	32603	32519	32564	32605	32863	32799	32567	32723	
2743	0	4560	7434	3414	6122	421	0	32529	32349	32315	32583	32996	32495	32327	32839	
2744	0	4551	7459	3347	6084	422	0	32497	32455	32335	32717	32677	32611	32615	32583	
2745	0	4578	7388	3353	6080	423	0	32285	32107	32431	32711	32341	32687	32630	32569	
2746	0	4502	7470	3379	6072	424	0	32198	32223	32463	32711	32734	32355	33103	32107	
2747	0	4494	7384	3363	6071	425	0	32103	32167	32589	32691	32487	32179	32605	32015	
2748	0	4485	7372	3285	6019	426	0	32118	32263	32647	32638	32297	31917	32375	32284	
2749	0	4451	7379	3329	6016	427	0	32211	32215	32730	32797	32559	31739	31669	33271	
2750	0	4370	7348	3301	5991	428	0	32350	32415	32786	32735	32605	32049	31827	33431	
2751	0	4356	7348	3283	5944	429	0	32474	32567	32734	32629	32410	32967	32257	33465	
2752	0	4339	7280	3241	5926	430	0	32572	32843	32807	32821	32143	34049	32767	33441	
2753	0	4304	7360	3240	5900	431	0	32446	32806	33045	32834	32387	34500	32881	33602	
2754	0	4276	7310	3246	5902	432	0	32560	32843	33209	32996	32573	34679	32999	33338	
2755	0	4259	7248	3253	5908	433	0	32719	33275	33269	33014	32388	33917	33281	32858	
2756	0	4234	7272	3239	5847	434	0	32846	33357	33330	32893	32903	33159	34023	31967	
2757	0	4225	7276	3146	5869	435	0	32973	33488	33319	33007	33319	32677	34439	31282	
2758	0	4205	7276	3200	5826	436	0	33094	33435	33383	33055	33287	32351	34261	31060	
2759	0	4142	7269	3239	5840	437	0	33003	33283	33442	33367	32845	32843	33919	31367	
2760	0	4144	7228	3208	5804	438	0	32931	33135	33485	33255	32694	32583	33565	31685	
2761	0	4091	7220	3188	5802	439	0	32902	33234	33423	33117	32707	32583	33061	32093	
2762	0	4100	7189	3186	5732	440	0	33019	33159	33367	33046	32691	32548	33023	32627	
2763	0	4088	7170	3198	5754	441	0	33031	33223	33215	32887	32708	32469	32775	32867	
2764	0	4060	7236	3197	5718	442	0	33147	33031	33053	32950	32751	32443	32475	32963	
2765	0	4044	7196	3154	5688	443	0	33344	33031	32902	32859	32668	32391	32455	32903	
2766	0	3982	7193	3174	5718	444	0	33379	33187	32863	32751	32711	32434	32277	32963	
2767	0	3949	7180	3160	5720	445	0	33492	33221	32757	32839	32773	32429	32023	32999	
2768	0	3927	7134	3152	5688	446	0	33595	33341	32555	32595	32815	32499	32143	33015	
2769	0	3921	7166	3152	5619	447	0	33564	33271	32546	32535	32903	32591	32231	33067	
2770	0	3933	7150	3088	5643	448	0	33453	33039	32475	32626	33055	32470	32055	32999	
2771	0	3862	7157	3096	5660	449	0	33438	32915	32459	32603	33005	32453	32263	33035	
2772	0	3893	7086	3090	5623	450	0	33295	33010	32487	32614	33023	32449	32252	33095	
2773	0	3800	7144	3110	5594	451	0	33170	32957	32517	32382	33085	32525	32319	33087	
2774	0	3788	7074	3148	5603	452	0	33148	33005	32518	32439	32979	32562	32247	33071	
2775	0	3787	7133	3054	5574	453	0	33080	32807	32463	32717	32962	32763	32243	32943	
2776	0	3735	7079	3092	5538	454	0	33066	32703	32523	32645	32903	32679	32369	32831	
2777	0	3780	7115	3137	5544	455	0	32932	32790	32543	32751	32820	32615	32441	32803	
2778	0	3683	7088	3098	5503	456	0	32845	32725	32607	32726	32775	32615	32371	32801	
2779	0	3701	7070	3099	5512	457	0	32704	32681	32673	32829	32758	32621	32524	32743	
2780	0	3692	7064	3076	5475	458	0	32521	32439	32761	32747	32695	32795	32519	32775	
2781	0	3657	7076	3039	5478	459	0	32474	32636	32731	32614	32655	32823	32481	32807	
2782	0	3629	7065	3009	5466	460	0	32461	32666	32775	32733	32671	32765	32665	32843	
2783	0	3593	7078	3071	5462	461	0	32457	32638	32783	32531	32693	32955	32626	32769	
2784	0	3628	7072	3032	5404	462	0	32388	32311	32789	32354	32988	32823	32711	32647	
2785	0	3552	7064	3088	5414	463	0	32465	32517	32775	32173	32790	32817	32571	32615	
2786	0	3531	7051	3041	5400	464	0	32601	32661	32775	32534	32698	32709	32484	32581	
2787	0	3552	7032	3070	5395	465	0	32536	32791	32717	32532	32721	32577	32583	32679	
2788	0	3525	7035	3030	5375	466	0	32582	32559	32647	32752	32645	32694	32667	32679	
2789	0	3504	7058	3023	5345	467	0	32668	32756	32709	32783	32466	32674	32875	32623	
2790	0	3430	6996	3044	5349	468	0	32663	32917	32687	32903	32591	32655	32738	32647	
2791	0	3458	7021	3006	5311	469	0	32623	32671	32635	32855	32614	32617	32701	32637	
2792	0	3436	6977	2975	5293	470	0	32585	32511	32756	32655	32835	32877	32853	32626	
2793	0	3405	7052	3002	5316	471	0	32512	32801	32925	32607	32863	33067	32724	32617	
2794	0	3414	7005	3048	5282	472	0	32506	32612	32999	32297	33063	32932	32537	32647	
2795	0	3385	7056	2988	5251	473	0	32459	32543	32999	32181	33159	32803	32631	32577	
2796	0	3341	7046	3014	5234	474	0	32623	32481	32823	32459	33013	32867	32681	32612	
2797	0	3338	7022	3052	5284	475	0	32671	32761	32640	32665	32901	32717	32834	32695	
2798	0	3303	7063	3002	5245	476	0	32719	32829	32755	32845	33019	32698	32834	32690	
2799	0	3331	7030	3077	5256	477	0	32678	32825	32821	32694	33079	32551	32631	32687	
2800	0	3295	7013	3031	5208	478	0	32697	32647	32787	32903	32962	32595	32751	32694	
2801	0	3277	7015	3089	5144	479	0	32772	32813	32583	32791	32615	32814	32699	32695	
2802	0	3198	7042	3050	5162	480	0	32786	32854	32595	32902	32327	32751	32797	32564	
2803	0	3271	7000	3087	5172	481	0	32769	32687	32582	32815	32215	32789	32655	32535	
2804	0	3230	7047	3088	5180	482	0	32727	32789	32533	32789	32468	32719	32659	32492	
2805	0	3235	7042	3062	5156	483	0	32789	32751	32548	32827	32655	32662	32687	32588	
2806	0	3194	7064	3064	5131	484	0	32830	32727	32541	32759	32647	32647	32663	32647	
2807	0	3140	7034	3054	5149	485	0	32761	32479	32767	32882	32719	32751	32678	32671	
2808	0	3138	7041	3073	5094	486	0	32722	32626	32804	32892	32813	32685	32647	32573	
2809	0	3191	7013	3066	5124	487	0	32726	32693	32785	32735	32647	32733	32645	32658	
2810	0	3123	7046	3108	5132	488	0	32755	32740	32911	32887	32702	32846	32630	32671	
2811	0	3096	7069	3093	5090	489	0	32822	32542	32867	32885	32846	32863	32813	32671	
2812	0	3104	7014	3074	5111	490	0	32828	32815	32807	32957	32847	32762	32675	32647	
2813	0	3098	7098	3107	5037	491	0	32839	32903	32871	32827	32583	32824	32731	32597	
2814	0	3060	7034	3079	5068	492	0	32847	32803	32991	32621	32663	32524	32751	32853	
2815	0	3044	7078	3089	5069	493	0	32875	32663	32916	32817	32439	32685	32603	32811	
2816	0	3078	7088	3182	5020	494	0	32793	32951	32921	32759	32489	32745	32775	32714	
2817	0	3046	7102	3136	5033	495	0	32743	32699	32775	32613	32750	32573	32741	32407	
2818	0	3041	7138	3160	5032	496	0	32660	32351	32748	32455	32954	32549	32491	32591	
2819	0	3006	7114	3166	5036	497	0	32707	32715	32621	32477	32971	32543	32514	32609	
2820	0	2999	7112	3178	5014	498	0	32811	32642	32505	32601	32887	32533	32739	32748	
2821	0	3037	7111	3253	5000	499	0	32798	32755	32431	32571	32900	32575	32455	33095	
2822	0	3005	7172	3241	5019	500	0	32837	32647	32603	32605	32783	32527	32503	33055	
2823	0	2984	7147	3200	5026	501	0	32756	32823	32679	32511	32802	32886	32604	33009	
2824	0	3002	7154	3224	5040	502	0	32748	32726	32787	32691	32753	33159	32830	32495	
2825	0	3034	7244	3262	4995	503	0	32743	32599	32759	32743	32879	33063	32895	32383	
2826	0	3023	7253	3290	4984	504	0	32679	32879	32667	32745	32845	32775	32708	32455	
2827	0	2996	7236	3324	4976	505	0	32685	32893	32743	32747	32919	32662	32719	32679	
2828	0	2963	7208	3329	4995	506	0	32727	32891	32711	32805	32767	32309	32831	32746	
2829	0	2982	7267	3330	4985	507	0	32751	32644	32843	32865	32743	32578	32815	32860	
2830	0	3026	7265	3359	4983	508	0	32726	32935	32829	32737	32735	32820	32863	32709	
2831	0	3010	7291	3341	4972	509	0	32742	32839	32841	32765	32775	33087	32887	32519	
2832	0	2995	7306	3381	5005	510	0	32767	32639	32903	32785	32715	32903	32834	32775	
2833	0	3004	7272	3379	5014	511	0	32726	32526	33049	32741	32751	32975	32731	32683	
2834	0	3010	7344	3406	4984	512	0	32592	32505	32975	32567	32999	32887	32597	32528	
2835	0	3008	7358	3403	4998	513	0	32586	32646	32903	32436	32815	32931	32545	32413	
2836	0	3034	7370	3390	4980	514	0	32701	32637	32879	32308	33014	32661	32511	32682	
2837	0	3042	7408	3420	5013	515	0	32841	32551	32877	32662	33036	32365	32679	32607	
2838	0	3018	7434	3477	5011	516	0	32847	32719	33085	32891	32999	32813	32497	32633	
2839	0	3015	7432	3494	4980	517	0	32869	32723	33053	32925	32883	33135	32621	32615	
2840	0	3021	7465	3528	4995	518	0	32638	32487	32991	32795	32847	33263	31791	33076	
2841	0	3024	7447	3518	5010	519	0	32591	32661	32935	32630	32525	33395	31842	33251	
2842	0	3020	7513	3598	5000	520	0	32647	32735	32731	32661	32763	32965	32179	33079	
2843	0	3031	7550	3582	5018	521	0	32722	32576	32689	32509	32549	32751	32471	32711	
2844	0	3036	7529	3668	5005	522	0	32711	32845	32583	32515	32209	32491	32511	32639	
2845	0	3038	7572	3625	5025	523	0	32855	32923	32475	32684	30965	32359	32106	32745	
2846	0	3022	7552	3655	5009	524	0	33111	32874	32415	32757	31525	32105	31953	32931	
2847	0	3035	7646	3699	4990	525	0	33017	33087	32391	32688	32365	32077	32338	32877	
2848	0	3083	7618	3696	4985	526	0	32953	33093	32645	32727	32913	32247	33346	32413	
2849	0	3045	7683	3780	5001	527	0	32794	32855	32635	32738	33434	32378	34567	32293	
2850	0	3056	7688	3759	5009	528	0	32738	33003	32698	32797	34349	32312	35668	32013	
2851	0	3042	7686	3793	5009	529	0	32743	32871	32738	32799	34131	32469	34915	32175	
2852	0	3074	7695	3817	5042	530	0	32712	32687	32671	32678	33379	32601	33695	32423	
2853	0	3051	7741	3843	4981	531	0	32653	32813	32811	32735	32951	32647	32991	32639	
2854	0	3068	7773	3863	5045	532	0	32655	32681	32767	32807	32910	32812	32543	32775	
2855	0	3059	7828	3870	5020	533	0	32677	32577	32891	32799	32687	32709	32373	32741	
2856	0	3114	7790	3933	5012	534	0	32733	32797	32933	32789	32611	32687	32282	32881	
2857	0	3036	7850	3962	5038	535	0	32795	32695	32819	32831	32581	32743	32259	32567	
2858	0	3044	7878	4000	5030	536	0	32873	32580	32647	32831	32607	32773	32438	32803	
2859	0	3089	7926	4024	4976	537	0	32854	32763	32586	32799	32577	32741	32341	32735	
2860	0	3064	7908	3998	5019	538	0	32815	32643	32489	32759	32545	32759	32295	32554	
2861	0	3133	7940	4043	5037	539	0	32809	32771	32637	32659	32679	32943	32340	32662	
2862	0	3067	7962	4148	5065	540	0	32736	32711	32615	32569	32898	33071	32500	32527	
2863	0	3106	8028	4161	5039	541	0	32699	32829	32634	32537	32958	32860	32399	32429	
2864	0	3097	8049	4181	5041	542	0	32689	32607	32832	32407	32946	32827	32383	32588	
2865	0	3137	8043	4152	5050	543	0	32679	32562	32983	32500	32791	32971	32397	32685	
2866	0	3108	8123	4242	5060	544	0	32743	32815	32861	32775	32711	32868	32527	32743	
2867	0	3128	8144	4269	5056	545	0	32671	32831	32743	32671	32681	32866	32447	32743	
2868	0	3107	8148	4254	5057	546	0	32786	32667	32699	32725	32655	32775	32642	32687	
2869	0	3124	8211	4298	5070	547	0	32775	32761	32629	32690	32747	32867	32713	32662	
2870	0	3121	8228	4356	5082	548	0	32700	32775	32615	32879	32663	32685	32483	32715	
2871	0	3120	8227	4399	5112	549	0	32684	32862	32707	32893	32643	32666	32617	32675	
2872	0	3154	8265	4439	5040	550	0	32775	32717	32745	32903	32717	32647	32631	32647	
2873	0	3187	8342	4404	5064	551	0	32826	32871	32692	32997	32668	32660	32709	32639	
2874	0	3208	8361	4473	5094	552	0	32895	32829	32687	32903	32709	32537	32620	32647	
2875	0	3141	8374	4518	5102	553	0	32829	32903	32692	32743	32790	32598	32567	32516	
2876	0	3168	8375	4561	5124	554	0	32749	32847	32719	32703	32807	32862	32621	32657	
2877	0	3189	8389	4608	5092	555	0	32775	32673	32787	32640	32775	32875	32407	32861	
2878	0	3147	8507	4614	5121	556	0	32775	32559	32918	32839	32679	32871	32379	32861	
2879	0	3188	8459	4585	5109	557	0	32705	32735	33097	32819	32599	32822	32637	32669	
2880	0	3222	8507	4658	5082	558	0	32732	32647	33045	32687	32693	32647	32614	32603	
2881	0	3200	8530	4681	5147	559	0	32789	32795	32919	32827	32807	32661	32647	32681	
2882	0	3220	8604	4757	5106	560	0	32799	32821	32811	32854	32767	32679	32790	32759	
2883	0	3189	8578	4786	5126	561	0	32839	32692	32789	32763	32819	32716	32786	32641	
2884	0	3244	8649	4816	5124	562	0	32876	32923	32790	32711	32742	32711	32690	32687	
2885	0	3200	8643	4830	5140	563	0	32764	32903	32708	32535	32767	32771	32727	32734	
2886	0	3252	8612	4871	5135	564	0	32739	32869	32771	32679	32659	32857	32614	32815	
2887	0	3236	8698	4927	5137	565	0	32719	32754	32740	32679	32539	32858	32607	32875	
2888	0	3190	8757	4973	5176	566	0	32767	32875	32775	32855	32567	32743	32449	32853	
2889	0	3210	8793	4961	5192	567	0	32688	32877	32707	32885	32545	32807	32634	32757	
2890	0	3232	8825	5067	5179	568	0	32775	32838	32903	32607	32615	32987	32647	32615	
2891	0	3236	8868	5113	5133	569	0	32859	32879	32947	32674	32757	32913	32637	32563	
2892	0	3224	8838	5097	5184	570	0	32922	32821	32753	32663	32713	32731	32698	32647	
2893	0	3260	8884	5098	5163	571	0	32856	32581	32583	32703	32743	32487	32671	32823	
2894	0	3222	8902	5174	5104	572	0	32876	32629	32724	32399	32711	32367	32687	32820	
2895	0	3261	8994	5187	5185	573	0	32856	32668	32614	32498	32895	32470	32679	32805	
2896	0	3235	8996	5256	5151	574	0	32711	32597	32670	32647	32819	32666	32725	32794	
2897	0	3222	8964	5322	5166	575	0	32663	32747	32735	32773	32891	32791	32623	32527	
2898	0	3269	8987	5360	5143	576	0	32654	32673	32681	32775	32855	32899	32759	32695	
2899	0	3269	9064	5432	5185	577	0	32734	32887	32819	32671	32967	32775	32705	32609	
2900	0	3303	9074	5424	5164	578	0	32694	32716	32854	32583	32935	32795	32734	32647	
2901	0	3292	9124	5468	5178	579	0	32605	32523	32911	32598	32979	32855	32823	32663	
2902	0	3301	9156	5488	5202	580	0	32620	32887	32843	32818	32827	32889	32903	32789	
2903	0	3304	9210	5507	5182	581	0	32765	32882	32711	32702	32879	32543	32763	32775	
2904	0	3314	9228	5569	5232	582	0	32797	32747	32719	32695	32826	32415	32788	32500	
2905	0	3322	9318	5665	5189	583	0	32726	32825	32743	32726	32805	32507	32766	32583	
2906	0	3350	9285	5716	5276	584	0	32844	32687	32743	32839	32636	32567	32578	32666	
2907	0	3400	9424	5702	5266	585	0	32832	32885	32559	32746	32679	32730	32647	32564	
2908	0	3471	9432	5772	5250	586	0	32746	32847	32573	32619	32730	32555	32748	32596	
2909	0	3419	9508	5814	5286	587	0	32668	32743	32530	32476	33026	32687	32647	32406	
2910	0	3475	9482	5865	5296	588	0	32735	32863	32407	32503	32967	32407	32519	32447	
2911	0	3492	9528	5913	5321	589	0	32934	32876	32503	32790	32839	32191	32610	32467	
2912	0	3538	9560	5949	5318	590	0	32901	32647	32551	32839	32631	32471	32691	32745	
2913	0	3524	9642	6072	5376	591	0	32864	32853	32615	32855	32679	32535	32605	32694	
2914	0	3514	9612	6117	5354	592	0	32791	32693	32593	32759	32556	33231	32469	32703	
2915	0	3550	9652	6052	5388	593	0	32733	32612	32737	32841	32617	33763	32422	32373	
2916	0	3638	9714	6213	5380	594	0	32780	32703	32647	32884	32638	33739	32475	32583	
2917	0	3598	9806	6173	5463	595	0	32719	32919	32769	33007	32633	33351	32583	32701	
2918	0	3656	9856	6250	5420	596	0	32803	32877	32775	32911	32729	32611	32535	33012	
2919	0	3704	9852	6353	5432	597	0	32727	32812	32719	32850	32687	32466	32583	32871	
2920	0	3664	9964	6378	5444	598	0	32721	32591	32807	32791	32668	32535	32567	32807	
2921	0	3716	9925	6431	5440	599	0	32633	32733	32813	32765	32919	32434	32477	32724	
2922	0	3726	10035	6450	5488	600	0	32628	32655	32807	32732	32759	32498	32542	32943	
2923	0	3800	9992	6525	5497	601	0	32685	32575	33055	32687	32775	32703	32535	32838	
2924	0	3766	10086	6589	5512	602	0	32700	32735	32979	32607	32735	32971	32563	32775	
2925	0	3759	10016	6622	5540	603	0	32720	32543	32943	32859	32851	32982	32709	32543	
2926	0	3840	10132	6727	5600	604	0	32784	32751	32959	32743	32775	32715	32727	32594	
2927	0	3850	10189	6768	5524	605	0	32828	32965	32903	33047	32694	32573	32659	32692	
2928	0	3835	10232	6790	5586	606	0	32783	32757	32860	32890	32741	32519	32575	32647	
2929	0	3946	10200	6812	5637	607	0	32761	32641	32803	32879	32788	32658	32615	32590	
2930	0	3928	10196	6818	5574	608	0	32804	32885	32647	32775	32742	32411	32493	32679	
2931	0	3877	10238	6914	5582	609	0	32876	32973	32706	32735	32821	32495	32658	32693	
2932	0	3926	10292	6913	5645	610	0	32828	32903	32642	32599	32799	32623	32583	32685	
2933	0	3947	10396	6974	5621	611	0	32798	32711	32605	32645	32751	32527	32423	32663	
2934	0	3969	10388	7026	5601	612	0	32784	32757	32775	32581	32795	32647	32679	32667	
2935	0	3981	10414	7025	5646	613	0	32775	32751	32860	32687	32883	32557	32628	32639	
2936	0	4004	10474	7060	5662	614	0	32711	32851	32837	32611	32877	32615	32679	32663	
2937	0	4033	10484	7152	5628	615	0	32692	32711	32815	32718	32830	32517	32645	32701	
2938	0	4037	10498	7181	5674	616	0	32709	32629	32917	32655	32803	32741	32435	32705	
2939	0	4017	10497	7210	5743	617	0	32723	32791	32931	32711	32711	32713	32559	32692	
2940	0	4034	10557	7254	5710	618	0	32831	32935	32899	32567	32755	32727	32631	32663	
2941	0	4064	10534	7305	5716	619	0	32838	32935	32818	32579	32916	32764	32601	32669	
2942	0	4117	10587	7331	5699	620	0	32810	32738	32631	32681	32959	32711	32581	32619	
2943	0	4082	10647	7310	5754	621	0	32743	32763	32587	32593	32813	32681	32479	32711	
2944	0	4150	10658	7389	5765	622	0	32806	32846	32647	32609	32807	32658	32677	32695	
2945	0	4143	10729	7506	5787	623	0	32703	32647	32621	32615	32796	32586	32567	32711	
2946	0	4124	10691	7454	5748	624	0	32684	32687	32802	32642	32843	32871	32783	32629	
2947	0	4174	10722	7529	5786	625	0	32687	32823	32954	32615	32882	32845	32629	32647	
2948	0	4163	10737	7518	5797	626	0	32750	32799	32941	32711	32767	32757	32661	32705	
2949	0	4192	10734	7601	5818	627	0	32752	32567	32843	32825	32774	32764	32642	32647	
2950	0	4212	10756	7611	5799	628	0	32563	32631	32817	32796	32775	32726	32679	32548	
2951	0	4191	10819	7593	5829	629	0	32507	32639	32947	32973	32767	32631	32511	32549	
2952	0	4261	10829	7589	5814	630	0	32521	32737	33041	32837	32692	32565	32790	32677	
2953	0	4216	10804	7661	5842	631	0	32695	32775	32943	32963	32699	32423	32689	32747	
2954	0	4252	10872	7741	5838	632	0	32704	32823	32851	32834	32679	32476	32854	32813	
2955	0	4265	10896	7734	5842	633	0	32748	32686	32657	32706	32766	32399	32786	32729	
2956	0	4217	10849	7786	5858	634	0	32746	32723	32535	32531	32705	32590	32703	32701	
2957	0	4250	10920	7781	5905	635	0	32676	32727	32548	32639	32733	32883	32694	32732	
2958	0	4310	11002	7755	5894	636	0	32727	32791	32469	32570	32750	32967	32617	32647	
2959	0	4349	10984	7842	5908	637	0	32895	32635	32603	32663	32706	32838	32763	32758	
2960	0	4344	10996	7814	5893	638	0	32975	32807	32637	32679	32826	32613	32636	32724	
2961	0	4298	11046	7843	5892	639	0	32855	32843	32581	32887	32839	32679	32663	32703	
2962	0	4321	10994	7878	5955	640	0	32825	32743	32583	32733	32916	32700	32527	32758	
2963	0	4285	10972	7860	5929	641	0	32766	32543	32629	32707	32887	32749	32695	32707	
2964	0	4367	11079	7903	5932	642	0	32774	32765	32565	32839	32863	32711	32637	32749	
2965	0	4387	11084	7947	5957	643	0	32887	32877	32687	32843	32935	32903	32531	32783	
2966	0	4352	11075	7951	5946	644	0	32914	32839	32484	32927	32941	32900	32631	32711	
2967	0	4392	11092	7993	5992	645	0	32789	32583	32498	32811	32945	32789	32587	32660	
2968	0	4425	11019	8004	5989	646	0	32738	32809	32403	32757	32902	32587	32655	32799	
2969	0	4451	11034	7976	5963	647	0	32694	32925	32640	32574	32851	32751	32549	32815	
2970	0	4399	11178	7993	5968	648	0	32689	32767	32735	32703	32843	32755	32714	32813	
2971	0	4445	11073	7992	5970	649	0	32717	32543	33001	32587	32877	32707	32647	32691	
2972	0	4428	11128	8028	5910	650	0	32751	32763	32967	32763	32831	32594	32740	32598	
2973	0	4458	11069	7979	5995	651	0	32740	32810	32932	32726	32893	32749	32615	32571	
2974	0	4454	11161	8029	5972	652	0	32703	32663	33067	32713	32807	32703	32773	32566	
2975	0	4427	11108	8014	6029	653	0	32780	32799	32934	32591	32911	32804	32735	32575	
2976	0	4420	11181	7992	5964	654	0	32793	32874	32727	32573	32925	32708	32791	32591	
2977	0	4417	11136	8031	5993	655	0	32751	32613	32783	32367	32838	32783	32701	32615	
2978	0	4417	11088	7989	6030	656	0	32865	32767	32923	32573	32807	32669	32743	32610	
2979	0	4426	11112	8000	5992	657	0	32910	32887	32935	32594	32775	32843	32822	32623	
2980	0	4485	11195	8038	6010	658	0	32903	32589	32887	32679	32797	32799	32579	32611	
2981	0	4440	11124	8003	5986	659	0	32850	32695	32789	32551	32717	32835	32677	32719	
2982	0	4460	11132	7976	6002	660	0	32814	32713	32540	32747	32799	32606	32518	32677	
2983	0	4460	11142	8024	6025	661	0	32695	32818	32386	32831	32841	32406	32756	32743	
2984	0	4448	11156	7974	6016	662	0	32695	32553	32473	32767	32807	32507	32663	32775	
2985	0	4461	11164	7994	5979	663	0	32769	32767	32589	32911	32694	32418	32597	32754	
2986	0	4470	11090	7969	5969	664	0	32819	32983	32595	32883	32463	32455	32593	32951	
2987	0	4460	11171	7948	5993	665	0	32876	32766	32655	32911	32581	32313	32559	32989	
2988	0	4422	11089	7949	6024	666	0	32740	32875	32757	32765	32528	32071	32736	32823	
2989	0	4418	11152	7920	5999	667	0	32694	32835	32804	32719	32613	31783	32623	32474	
2990	0	4444	11148	7901	6005	668	0	32647	32604	32831	32533	32708	31933	32549	32391	
2991	0	4446	11112	7873	5960	669	0	32631	32445	32895	32383	33061	31959	32599	32135	
2992	0	4450	11044	7884	6002	670	0	32683	32587	32955	32369	33151	31985	33078	31732	
2993	0	4434	11140	7897	5970	671	0	32743	32615	32887	32431	33159	31709	33125	31646	
2994	0	4401	11082	7858	5980	672	0	32758	32739	32919	32631	32911	32367	32647	32821	
2995	0	4436	11021	7846	5993	673	0	32735	32555	32940	32567	32991	33627	32021	33813	
2996	0	4452	11080	7827	5987	674	0	32807	32818	32930	32775	32671	34639	32172	33820	
2997	0	4472	11052	7813	5938	675	0	32788	32949	32903	32742	32359	35588	32596	33607	
2998	0	4393	11000	7736	5974	676	0	32828	33046	32899	32892	32307	35883	32462	33552	
2999	0	4435	11094	7758	5924	677	0	32825	32747	32823	32867	32527	35101	32703	33405	
3000	0	4468	10988	7756	5976	678	0	32750	32829	32967	33031	32826	33595	32703	33007	
3001	0	4419	11056	7748	5934	679	0	32735	32834	32983	32945	32942	33030	32807	32855	
3002	0	4401	11016	7665	5941	680	0	32804	32757	33023	32931	32919	32683	32635	32663	
3003	0	4412	10952	7650	5979	681	0	32733	32623	32903	32796	32951	32197	32883	32434	
3004	0	4434	10986	7620	5962	682	0	32749	32839	32868	32836	32949	32023	32660	32231	
3005	0	4422	10967	7597	5925	683	0	32812	32911	32799	32821	32895	32167	32858	32167	
3006	0	4406	10884	7619	5925	684	0	32762	32519	32725	32878	32834	32235	32711	32309	
3007	0	4388	10880	7566	5939	685	0	32767	32799	32699	32775	32735	32285	32727	32389	
3008	0	4432	10907	7532	5970	686	0	32758	32842	32684	32964	32775	32153	32615	32419	
3009	0	4373	10923	7540	5913	687	0	32807	32519	32645	32917	32831	32271	32683	32541	
3010	0	4386	10852	7502	5890	688	0	32857	32633	32705	32999	32789	32167	32694	32561	
3011	0	4360	10835	7435	5896	689	0	32769	32589	32734	32856	32835	32161	32591	32605	
3012	0	4369	10824	7457	5933	690	0	32789	32615	32775	32721	32855	32327	32647	32668	
3013	0	4360	10794	7356	5861	691	0	32828	32472	32653	32607	32806	32338	32586	32671	
3014	0	4350	10824	7363	5897	692	0	32791	32775	32703	32535	32775	32455	32647	32627	
3015	0	4324	10736	7346	5853	693	0	32756	32919	32783	32503	32823	32487	32689	32647	
3016	0	4385	10752	7305	5862	694	0	32768	32698	32659	32503	32839	32555	32742	32695	
3017	0	4297	10699	7262	5906	695	0	32660	32775	32663	32401	32827	32575	32691	32583	
3018	0	4318	10717	7249	5871	696	0	32647	32707	32621	32583	32771	32663	32732	32571	
3019	0	4288	10632	7185	5849	697	0	32648	32933	32707	32452	32786	32581	32695	32591	
3020	0	4298	10656	7192	5868	698	0	32701	32943	32716	32623	32820	32607	32717	32599	
3021	0	4241	10659	7151	5834	699	0	32647	32839	32677	32571	32747	32628	32615	32791	
3022	0	4229	10594	7117	5802	700	0	32680	32711	32735	32659	32743	32599	32783	32644	
3023	0	4238	10536	7049	5828	701	0	32767	32879	32677	32566	32745	32677	32755	32693	
3024	0	4225	10559	7030	5816	702	0	32812	32892	32701	32631	32803	32527	32829	32683	
3025	0	4213	10512	6996	5769	703	0	32770	32471	32759	32609	32854	32668	32757	32717	
3026	0	4185	10499	7008	5825	704	0	32808	32699	32797	32743	32871	32539	32815	32747	
3027	0	4220	10438	6932	5790	705	0	32874	32903	32619	32639	32803	32619	32723	32589	
3028	0	4147	10433	6896	5768	706	0	32869	32887	32617	32775	32708	32711	32583	32655	
3029	0	4194	10364	6859	5763	707	0	32822	32595	32719	32787	32725	32673	32732	32578	
3030	0	4194	10402	6812	5772	708	0	32791	32747	32745	32913	32698	32701	32690	32493	
3031	0	4160	10400	6768	5764	709	0	32690	32823	32830	32924	32791	32724	32771	32562	
3032	0	4116	10285	6731	5767	710	0	32618	32855	32943	32758	32893	32802	32675	32673	
3033	0	4118	10264	6697	5715	711	0	32647	32551	32915	32711	32875	32871	32775	32690	
3034	0	4108	10321	6678	5737	712	0	32708	32679	32895	32662	32959	32773	32719	32647	
3035	0	4132	10179	6657	5762	713	0	32719	32743	32782	32786	32900	32691	32642	32610	
3036	0	4163	10224	6628	5720	714	0	32815	32831	32735	32755	32841	32795	32811	32703	
3037	0	4080	10222	6572	5748	715	0	32819	32718	32807	32709	32887	32751	32698	32751	
3038	0	4080	10176	6529	5762	716	0	32722	32671	32863	32771	32799	32735	32487	32858	
3039	0	4075	10130	6478	5686	717	0	32807	32787	32789	32733	32813	32695	32871	32756	
3040	0	4125	10130	6466	5722	718	0	32903	32852	32896	32803	32740	32635	32615	32659	
3041	0	4038	10024	6413	5692	719	0	32955	32879	32847	32879	32811	32803	32711	32687	
3042	0	4074	10074	6359	5694	720	0	32800	32703	32855	32876	32871	32811	32583	32743	
3043	0	4074	10093	6368	5668	721	0	32940	32667	32983	32879	32871	32713	32518	32647	
3044	0	4006	10006	6343	5658	722	0	32837	32807	32790	32735	32743	32817	32645	32495	
3045	0	4038	10012	6319	5683	723	0	32647	32807	32571	32789	32822	32839	32635	32467	
3046	0	4004	9932	6264	5657	724	0	32716	32663	32425	32783	32799	32788	32707	32565	
3047	0	4008	9900	6185	5661	725	0	32789	32775	32418	32833	32762	32727	32787	32586	
3048	0	3955	9916	6176	5633	726	0	32741	32880	32567	32850	32815	32579	32807	32671	
3049	0	3967	9824	6174	5632	727	0	32581	32871	32596	32881	32805	32759	32735	32655	
3050	0	3982	9811	6133	5646	728	0	32680	32685	32647	32725	32587	32743	32835	32637	
3051	0	3964	9716	6085	5649	729	0	32715	32764	32862	32743	32475	32679	32806	32698	
3052	0	3944	9805	6089	5620	730	0	32767	32775	32963	32701	32487	32655	32809	32711	
3053	0	3945	9698	5994	5634	731	0	32924	32871	33023	32741	32635	32868	32795	32671	
3054	0	3955	9740	5966	5574	732	0	32940	32655	33031	32631	32763	32747	32715	32734	
3055	0	3924	9666	5856	5598	733	0	32875	32718	32921	32739	32949	32518	32870	32812	
3056	0	3910	9633	5929	5586	734	0	32728	32669	32842	32629	33045	32385	32757	32806	
3057	0	3940	9622	5851	5551	735	0	32695	32790	32847	32695	33054	32473	32511	32642	
3058	0	3864	9604	5805	5553	736	0	32730	32675	32775	32626	33063	32590	32295	32563	
3059	0	3919	9516	5818	5576	737	0	32770	32631	32823	32667	32807	32789	32510	32486	
3060	0	3868	9543	5754	5526	738	0	32719	32771	32709	32745	32755	32759	32563	32489	
3061	0	3814	9490	5734	5533	739	0	32697	32763	32615	32738	32873	32691	32511	32428	
3062	0	3838	9512	5645	5568	740	0	32726	32847	32564	32767	32769	32790	32685	32404	
3063	0	3847	9461	5662	5547	741	0	32775	32639	32631	32679	32662	32851	32476	32484	
3064	0	3822	9388	5550	5499	742	0	32789	32791	32643	32730	32767	32863	32757	32578	
3065	0	3802	9390	5575	5523	743	0	32736	32819	32676	32727	32727	32890	32775	32524	
3066	0	3789	9316	5495	5504	744	0	32767	32725	32700	32819	32758	32711	32838	32580	
3067	0	3745	9309	5548	5522	745	0	32729	32639	32695	32762	32791	32813	32715	32601	
3068	0	3789	9290	5508	5536	746	0	32775	32789	32709	32855	32786	32812	32629	32579	
3069	0	3749	9236	5449	5531	747	0	32740	32903	32692	32727	32736	32834	32671	32510	
3070	0	3747	9182	5382	5480	748	0	32833	32671	32756	32839	32731	32756	32518	32487	
3071	0	3744	9144	5432	5466	749	0	32844	32775	32702	32715	32751	32679	32692	32577	
3072	0	3748	9140	5338	5498	750	0	32781	32787	32815	32804	32797	32791	32698	32623	
3073	0	3679	9092	5286	5431	751	0	32873	32787	32806	32789	32807	32707	32637	32531	
3074	0	3620	9072	5234	5468	752	0	32813	32615	32701	32786	32879	32758	32573	32516	
3075	0	3654	9004	5248	5477	753	0	32727	32711	32707	32647	32893	32717	32711	32460	
3076	0	3662	9006	5211	5428	754	0	32730	32711	32700	32679	32903	32757	32685	32494	
3077	0	3611	8956	5218	5438	755	0	32715	32487	32699	32563	32687	32788	32766	32625	
3078	0	3579	8954	5136	5418	756	0	32747	32709	32740	32711	32647	32667	32567	32607	
3079	0	3598	8955	5099	5419	757	0	32743	32735	32814	32668	32671	32725	32603	32506	
3080	0	3589	8884	5064	5432	758	0	32858	32775	32705	32599	32737	32775	32817	32655	
3081	0	3578	8822	4990	5432	759	0	32914	32629	32773	32647	32647	32775	32707	32835	
3082	0	3596	8792	5054	5383	760	0	32829	32857	32581	32644	32571	32715	32647	32889	
3083	0	3573	8722	4956	5388	761	0	32741	32719	32693	32658	32372	32967	32735	32711	
3084	0	3523	8771	4927	5361	762	0	32685	32663	32700	32647	32507	32969	32823	32431	
3085	0	3514	8736	4876	5409	763	0	32661	32756	32829	32698	32597	32743	32951	32660	
3086	0	3520	8677	4883	5342	764	0	32640	32767	32852	32665	32759	32517	32892	32819	
3087	0	3480	8630	4807	5368	765	0	32711	32659	32551	32557	32863	32231	32591	32869	
3088	0	3507	8648	4805	5348	766	0	32888	32846	32573	32659	32957	32214	32663	32827	
3089	0	3457	8544	4772	5371	767	0	32818	32941	32647	32747	33159	32338	32479	32743	
3090	0	3456	8532	4755	5339	768	0	32734	32749	32871	32729	33462	32239	32443	32747	
3091	0	3440	8542	4736	5344	769	0	32608	32546	33013	32591	33321	32493	32489	32919	
3092	0	3419	8452	4704	5332	770	0	32647	32739	33133	32605	32465	32511	32085	33695	
3093	0	3444	8466	4620	5347	771	0	32698	32749	32941	32709	32351	32367	31852	33350	
3094	0	3428	8449	4572	5300	772	0	32769	32751	32739	32685	32316	32828	32421	32487	
3095	0	3416	8373	4640	5286	773	0	32879	32692	32743	32663	32363	33077	32910	32125	
3096	0	3421	8323	4570	5282	774	0	32834	32787	32711	32771	32867	33182	33031	32557	
3097	0	3421	8347	4506	5332	775	0	32692	32541	32615	32770	33019	33325	32687	33153	
3098	0	3369	8336	4502	5304	776	0	32721	32783	32726	32686	32750	33581	32727	32797	
3099	0	3379	8307	4462	5272	777	0	32684	32903	32691	32764	32863	33439	32965	32493	
3100	0	3376	8224	4421	5284	778	0	32825	32751	32711	32628	32891	33157	32971	32343	
3101	0	3373	8188	4410	5278	779	0	32781	32903	32801	32686	32895	32586	33212	32300	
3102	0	3313	8208	4360	5294	780	0	32812	32975	32711	32609	32825	32407	32892	32239	
3103	0	3364	8209	4340	5316	781	0	32900	32751	32604	32743	32996	32495	32894	31867	
3104	0	3322	8154	4278	5300	782	0	32783	32898	32695	32615	33203	31866	32614	31669	
3105	0	3344	8034	4296	5315	783	0	32707	32893	32863	32737	33053	31743	32425	31923	
3106	0	3325	8113	4236	5271	784	0	32688	32667	32767	32705	32821	32279	32251	32611	
3107	0	3278	8027	4293	5260	785	0	32686	32887	32682	32831	32755	33139	32526	32914	
3108	0	3306	8045	4217	5220	786	0	32735	32930	32659	32711	32775	33231	32556	32989	
3109	0	3241	8006	4144	5260	787	0	32799	32980	32559	32775	32679	33308	32677	32955	
3110	0	3260	7996	4202	5229	788	0	32895	32669	32613	32732	32810	33077	32789	32807	
3111	0	3252	7966	4135	5308	789	0	32875	32751	32879	32711	32765	32927	32689	32819	
3112	0	3270	7962	4115	5264	790	0	32818	32811	32836	32647	32647	32877	32743	32898	
3113	0	3252	7934	4100	5256	791	0	32740	32559	32839	32583	32818	32631	32551	32695	
3114	0	3236	7876	4062	5268	792	0	32790	32727	32858	32659	32849	32759	32662	32819	
3115	0	3240	7845	4082	5240	793	0	32638	32676	33039	32554	32724	32586	32623	32739	
3116	0	3248	7843	4035	5254	794	0	32633	32640	33053	32525	32515	32335	32823	32798	
3117	0	3262	7808	4062	5268	795	0	32647	32557	32819	32538	32655	32500	32577	32771	
3118	0	3264	7774	3976	5238	796	0	32663	32687	32733	32599	32799	32685	32403	32598	
3119	0	3208	7749	4008	5270	797	0	32801	32715	32519	32700	32751	32677	32577	32757	
3120	0	3275	7794	3992	5248	798	0	32781	32668	32473	32759	32719	32629	32517	32741	
3121	0	3236	7748	3966	5234	799	0	32772	32767	32527	32791	32590	32494	32599	32757	
3122	0	3234	7748	3910	5245	800	0	32696	32691	32590	32839	32703	32519	32535	32804	
3123	0	3241	7652	3892	5241	801	0	32742	32724	32727	32791	32823	32743	32615	32668	
3124	0	3282	7705	3888	5276	802	0	32788	32854	32687	32851	32775	32791	32623	32799	
3125	0	3230	7650	3880	5286	803	0	32769	32722	32879	32839	32693	32602	32605	32724	
3126	0	3253	7618	3857	5272	804	0	32808	32583	32818	32879	32771	32630	32611	32739	
3127	0	3232	7629	3825	5312	805	0	32775	32873	32789	32852	32605	32839	32845	32666	
3128	0	3257	7596	3818	5272	806	0	32814	32847	32711	32643	32557	32887	32718	32645	
3129	0	3185	7603	3777	5276	807	0	32875	32781	32754	32635	32613	32647	33027	32482	
3130	0	3264	7576	3760	5269	808	0	32877	32961	32831	32687	32707	32687	32647	32485	
3131	0	3278	7541	3772	5267	809	0	32876	32861	32831	32597	32715	32705	32639	32605	
3132	0	3267	7463	3716	5284	810	0	32837	32621	32828	32633	32850	32655	32617	32327	
3133	0	3235	7528	3705	5258	811	0	32845	32834	32797	32643	32755	32675	32511	32441	
3134	0	3225	7493	3690	5336	812	0	32799	32839	32979	32630	32692	32707	32239	32587	
3135	0	3260	7458	3637	5378	813	0	32775	32698	33011	32614	32871	32639	32205	32835	
3136	0	3236	7472	3610	5331	814	0	32831	32591	32900	32833	32950	32582	32571	32455	
3137	0	3236	7458	3650	5316	815	0	32731	32679	32743	32895	32767	32645	32675	32533	
3138	0	3301	7391	3624	5311	816	0	32734	32787	32710	32887	32917	32223	32615	32475	
3139	0	3248	7377	3591	5326	817	0	32731	32773	32742	32789	32759	32055	32678	32591	
3140	0	3246	7372	3552	5348	818	0	32668	32591	32863	32711	32713	32003	32895	32423	
3141	0	3265	7361	3596	5303	819	0	32701	32823	32773	32705	32731	32059	32976	32551	
3142	0	3275	7329	3520	5345	820	0	32711	32903	32741	32727	33001	32647	32941	32543	
3143	0	3250	7328	3557	5352	821	0	32633	32898	32692	32815	32815	33137	32877	32717	
3144	0	3272	7302	3519	5324	822	0	32674	32711	32518	32923	32963	32903	32759	32799	
3145	0	3259	7331	3516	5334	823	0	32669	32915	32571	32775	32742	32513	32575	32691	
3146	0	3326	7268	3564	5337	824	0	32694	32818	32775	32756	32949	31989	32459	32783	
3147	0	3308	7264	3432	5352	825	0	32647	32639	32603	32775	32837	32407	32623	32699	
3148	0	3287	7217	3497	5369	826	0	32662	32903	32876	32747	32725	32987	32609	33010	
3149	0	3266	7210	3497	5384	827	0	32732	32871	32925	32751	32740	32951	32601	33170	
3150	0	3321	7253	3450	5403	828	0	32861	32807	33064	32837	32677	33919	33023	33101	
3151	0	3321	7192	3432	5392	829	0	32832	33039	32836	32711	32607	34287	32898	32941	
3152	0	3362	7206	3437	5385	830	0	32869	32978	32775	32642	32743	34112	32695	33115	
3153	0	3362	7140	3386	5400	831	0	32831	32847	32853	32647	32623	34287	32535	33195	
3154	0	3369	7147	3427	5437	832	0	32926	32940	32847	32715	32617	33783	32603	33037	
3155	0	3363	7160	3372	5410	833	0	32960	32789	32788	32695	32647	33382	32767	32807	
3156	0	3377	7136	3373	5456	834	0	33004	32999	32767	32617	32583	33159	32829	32575	
3157	0	3383	7118	3355	5420	835	0	32999	32935	32687	32567	32662	32653	32845	32377	
3158	0	3396	7098	3364	5452	836	0	32942	32767	32663	32639	32842	32413	32615	32255	
3159	0	3406	7041	3376	5484	837	0	32871	32990	32775	32583	32903	32222	32549	32487	
3160	0	3405	7097	3321	5443	838	0	32826	32751	32817	32543	32941	31991	32663	32407	
3161	0	3380	7072	3342	5502	839	0	32735	32471	32974	32519	32821	31860	32766	32542	
3162	0	3428	7045	3327	5492	840	0	32762	32671	32679	32574	33115	31875	32583	32352	
3163	0	3445	7066	3260	5503	841	0	32755	32689	32643	32581	32922	32389	32749	32471	
3164	0	3451	7016	3290	5544	842	0	32772	32391	32639	32634	32967	32786	32665	32414	
3165	0	3425	7016	3285	5525	843	0	32709	32423	32639	32579	33035	32514	32443	32525	
3166	0	3469	7002	3273	5545	844	0	32554	32524	32573	32621	33111	32239	32191	32405	
3167	0	3493	6986	3278	5549	845	0	32507	32391	32581	32608	33001	32451	32255	32543	
3168	0	3516	6957	3234	5528	846	0	32486	32285	32615	32555	33007	32387	32419	32631	
3169	0	3524	6980	3198	5581	847	0	32450	32165	32529	32578	33047	32463	32487	32716	
3170	0	3535	6948	3249	5620	848	0	32524	32607	32410	32647	32815	33045	32587	32741	
3171	0	3540	6904	3211	5576	849	0	32581	32517	32199	32593	32889	33275	32516	32775	
3172	0	3539	6952	3174	5573	850	0	32598	32403	32332	32467	32767	32963	32635	32570	
3173	0	3581	6932	3204	5604	851	0	32482	32467	32375	32587	32782	32799	32685	32434	
3174	0	3610	6918	3206	5640	852	0	32356	32263	32391	32637	32866	32441	32421	32543	
3175	0	3582	6843	3172	5640	853	0	32307	32028	32475	32647	32846	32365	32545	32469	
3176	0	3644	6890	3203	5638	854	0	32279	32193	32379	32503	32834	32557	32605	32463	
3177	0	3672	6882	3180	5648	855	0	32391	32355	32297	32687	32826	32678	32571	32407	
3178	0	3641	6844	3151	5650	856	0	32279	32167	32500	32855	32827	32633	32532	32355	
3179	0	3602	6820	3137	5688	857	0	32300	32231	32679	32917	32727	32679	32687	32521	
3180	0	3644	6810	3120	5702	858	0	32271	32261	32690	32769	32701	32682	32633	32551	
3181	0	3637	6820	3080	5724	859	0	32279	32303	32749	32732	32533	32903	32868	32539	
3182	0	3718	6816	3089	5709	860	0	32268	32517	32843	32903	32503	32743	32918	32434	
3183	0	3712	6774	3095	5760	861	0	32454	32759	32951	33141	32495	32731	33047	32455	
3184	0	3713	6759	3096	5723	862	0	32628	33079	33055	33239	32423	32642	32999	32511	
3185	0	3707	6725	3012	5763	863	0	32799	33110	33135	33207	32516	32870	32970	32490	
3186	0	3699	6744	3044	5765	864	0	32854	33454	33255	33287	32519	32975	33139	32509	
3187	0	3736	6734	3026	5806	865	0	33004	33503	33306	33198	32637	32805	33082	32572	
3188	0	3724	6712	3030	5768	866	0	33132	33487	33207	32839	32655	32563	33099	32366	
3189	0	3734	6707	2950	5786	867	0	33092	33487	33431	33018	32557	32272	33087	32213	
3190	0	3788	6662	2987	5804	868	0	32952	33452	33631	32997	32451	32103	33132	32143	
3191	0	3800	6654	2929	5852	869	0	32957	33223	33442	32951	32423	32239	33043	32289	
3192	0	3822	6617	2912	5853	870	0	32970	33301	33295	32943	32423	32207	33133	32583	
3193	0	3840	6627	2876	5822	871	0	33024	33195	33180	32759	32402	32413	32967	32647	
3194	0	3806	6574	2883	5800	872	0	33067	33325	33127	32628	32442	32467	32743	32673	
3195	0	3801	6550	2857	5886	873	0	33301	33197	33134	32710	32581	33607	32661	33118	
3196	0	3866	6548	2860	5888	874	0	33453	33269	32969	32615	32979	34019	32503	33231	
3197	0	3890	6562	2834	5914	875	0	33528	33247	32875	32807	33063	33511	32174	33447	
3198	0	3924	6527	2810	5900	876	0	33474	33159	32798	32765	33007	33281	32317	33335	
3199	0	3905	6499	2764	5955	877	0	33391	33221	32691	32643	32948	33095	32287	33255	
3200	0	3979	6544	2836	5964	878	0	33441	32957	32711	32671	32884	33079	32222	33343	
3201	0	3981	6515	2820	5932	879	0	33414	33039	32587	32591	32903	33367	32295	33543	
3202	0	4035	6497	2758	5968	880	0	33303	32999	32535	32695	33053	33319	32148	33479	
3203	0	3997	6474	2756	6000	881	0	33184	33020	32658	32623	33003	32981	32357	33411	
3204	0	4062	6452	2813	5999	882	0	33183	32799	32539	32729	33039	32647	32335	33298	
3205	0	4002	6470	2765	6048	883	0	33074	32854	32583	32615	33157	32391	32239	33170	
3206	0	4092	6501	2753	6057	884	0	32996	32775	32599	32647	32983	32533	32463	32639	
3207	0	4105	6469	2748	6045	885	0	32858	32497	32727	32499	32743	32564	32829	32135	
3208	0	4126	6500	2747	6114	886	0	32807	32695	32706	32503	32709	32221	32710	32271	
3209	0	4177	6496	2788	6107	887	0	32607	32738	32605	32466	32679	32020	32635	32553	
3210	0	4214	6436	2771	6124	888	0	32535	32543	32667	32617	32535	32423	32661	32602	
3211	0	4232	6501	2794	6197	889	0	32510	32407	32757	32597	32551	32449	32532	32655	
3212	0	4265	6475	2779	6192	890	0	32607	32627	32725	32733	32599	32487	32695	32742	
3213	0	4278	6554	2788	6217	891	0	32671	32763	32633	32734	32605	32852	32883	32523	
3214	0	4278	6489	2772	6231	892	0	32607	32501	32659	32771	32883	32787	32771	32370	
3215	0	4341	6512	2797	6252	893	0	32546	32543	32647	32610	32879	32537	32745	32263	
3216	0	4361	6499	2832	6292	894	0	32550	32596	32534	32564	32898	32797	32901	32255	
3217	0	4388	6543	2815	6304	895	0	32578	32550	32607	32507	32954	32583	32754	32487	
3218	0	4400	6503	2814	6303	896	0	32618	32711	32583	32347	32853	32335	32583	32567	
3219	0	4460	6530	2829	6388	897	0	32678	32511	32605	32573	32929	32329	32747	32617	
3220	0	4484	6505	2838	6358	898	0	32731	32455	32623	32566	32950	32529	32855	32727	
3221	0	4491	6547	2838	6386	899	0	32731	32683	32647	32706	32858	32647	32765	32595	
3222	0	4498	6530	2840	6428	900	0	32625	32751	32743	32775	32678	32829	32775	32551	
3223	0	4580	6533	2844	6400	901	0	32637	32839	32823	32699	32844	32941	32556	32677	
3224	0	4582	6567	2901	6479	902	0	32534	32692	32975	32743	32803	32859	32475	32839	
3225	0	4627	6584	2889	6456	903	0	32551	32436	32958	32635	32775	32806	32605	32733	
3226	0	4706	6631	2934	6473	904	0	32736	32694	32789	32763	32919	32677	32791	32763	
3227	0	4738	6550	2883	6520	905	0	32899	32834	32695	32725	32860	32718	32546	32743	
3228	0	4745	6558	2931	6560	906	0	32871	32647	32723	32565	32721	32775	32498	32743	
3229	0	4764	6569	2884	6593	907	0	32743	32514	32700	32556	32748	32822	32756	32749	
3230	0	4777	6602	2923	6623	908	0	32713	32599	32703	32365	32668	32855	32719	32697	
3231	0	4824	6627	2901	6637	909	0	32685	32677	32735	32480	32695	32703	32613	32682	
3232	0	4850	6627	2943	6613	910	0	32652	32687	32775	32486	32739	32738	32647	32632	
3233	0	4912	6581	2977	6693	911	0	32700	32612	32738	32525	32703	32791	32738	32676	
3234	0	4884	6634	3009	6701	912	0	32703	32841	32723	32549	32592	32751	32527	32627	
3235	0	4961	6636	2980	6709	913	0	32589	32868	32681	32583	32631	32735	32762	32518	
3236	0	5006	6653	2986	6742	914	0	32615	32927	32743	32805	32659	32717	32747	32534	
3237	0	5032	6680	2988	6823	915	0	32613	32611	32711	32903	32671	32669	32711	32628	
3238	0	5052	6672	3036	6825	916	0	32615	32585	32790	33074	32669	32671	32611	32629	
3239	0	5088	6674	3040	6837	917	0	32692	32551	32841	33077	32719	32685	32549	32527	
3240	0	5130	6706	2991	6883	918	0	32771	32789	32863	32965	32775	32713	32719	32461	
3241	0	5160	6726	3018	6936	919	0	32719	32643	32819	33090	32923	32628	32725	32445	
3242	0	5148	6753	3096	6930	920	0	32743	32793	32891	33111	32871	32708	32737	32495	
3243	0	5209	6755	3100	6904	921	0	32805	32767	32903	33187	32796	32607	32671	32545	
3244	0	5224	6778	3106	7008	922	0	32815	32741	32903	33044	32661	32733	32629	32527	
3245	0	5203	6768	3138	7064	923	0	32879	32509	32878	33119	32583	32850	32739	32639	
3246	0	5324	6796	3152	7041	924	0	32764	32775	32831	33005	32660	32775	32668	32711	
3247	0	5300	6800	3158	7032	925	0	32718	33015	32676	32804	32751	32802	32771	32743	
3248	0	5322	6838	3164	7101	926	0	32747	32751	32733	32799	32806	32711	32549	32673	
3249	0	5381	6837	3195	7080	927	0	32761	32853	32898	32731	32786	32855	32641	32767	
3250	0	5433	6817	3209	7151	928	0	32763	32887	32919	32628	32807	32837	32547	32712	
3251	0	5426	6848	3224	7149	929	0	32783	33005	32865	32507	32709	32793	32687	32748	
3252	0	5485	6870	3268	7213	930	0	32732	32775	32637	32567	32658	32789	32665	32670	
3253	0	5507	6920	3246	7248	931	0	32796	32737	32579	32391	32735	32659	32727	32703	
3254	0	5560	6870	3265	7282	932	0	32762	32715	32535	32323	32775	32727	32791	32527	
3255	0	5610	6912	3320	7316	933	0	32801	32825	32549	32391	32819	32695	32507	32726	
3256	0	5661	6857	3313	7327	934	0	32749	32726	32615	32499	32859	32612	32410	32673	
3257	0	5668	6893	3362	7346	935	0	32787	32580	32519	32743	32701	32614	32627	32829	
3258	0	5661	6956	3322	7415	936	0	32903	32871	32661	32647	32638	32674	32711	32671	
3259	0	5694	6940	3411	7421	937	0	32941	32763	32797	32640	32751	32731	32749	32667	
3260	0	5759	6952	3435	7421	938	0	32985	32619	32775	32719	32855	32663	32687	32641	
3261	0	5778	6996	3378	7478	939	0	32951	32687	32860	32759	32798	32675	32699	32807	
3262	0	5874	6978	3404	7510	940	0	32924	32933	32855	32807	32903	32747	32675	32734	
3263	0	5824	7036	3441	7616	941	0	32751	32883	32668	32869	33021	32739	32603	32770	
3264	0	5938	7012	3448	7620	942	0	32662	32671	32807	32875	32923	32803	32733	32359	
3265	0	5974	7026	3488	7650	943	0	32666	32639	32807	32663	32483	32783	32822	32595	
3266	0	5946	7029	3475	7722	944	0	32789	32851	32721	32658	32630	32843	32631	32727	
3267	0	6027	7008	3490	7737	945	0	32830	32837	32574	32773	32829	32741	32583	32879	
3268	0	6056	7075	3530	7784	946	0	32786	32583	32543	32854	32903	32775	32615	32663	
3269	0	6084	7068	3492	7848	947	0	32699	32804	32687	32855	32719	32727	32571	32551	
3270	0	6118	7080	3522	7832	948	0	32592	32603	32881	32631	32511	32658	32750	32565	
3271	0	6156	7040	3558	7872	949	0	32533	32463	32903	32565	32557	32575	32711	32533	
3272	0	6160	7092	3596	7915	950	0	32628	32596	32859	32399	32669	32623	32583	32487	
3273	0	6226	7110	3599	7964	951	0	32606	32673	32918	32349	32791	32645	32923	32532	
3274	0	6301	7098	3609	7998	952	0	32687	32705	32959	32534	32819	32583	32941	32687	
3275	0	6289	7080	3615	8069	953	0	32755	32535	32756	32473	32855	32535	32561	32726	
3276	0	6336	7134	3652	8096	954	0	32766	32690	32619	32674	32890	32614	32750	32821	
3277	0	6362	7084	3680	8118	955	0	32854	32769	32527	32647	32858	32591	32703	32711	
3278	0	6414	7139	3708	8117	956	0	32791	32723	32615	32629	32783	32701	32689	32668	
3279	0	6464	7128	3689	8200	957	0	32682	32694	32822	32540	32679	32675	32596	32618	
3280	0	6456	7073	3708	8262	958	0	32811	32786	32775	32694	32733	32807	32758	32605	
3281	0	6468	7104	3696	8277	959	0	32807	32869	32803	32788	32955	32675	32699	32663	
3282	0	6492	7087	3704	8280	960	0	32846	32742	32783	32711	32863	32743	32757	32653	
3283	0	6543	7131	3729	8340	961	0	32839	32871	32803	32829	32774	32821	32701	32715	
3284	0	6542	7132	3770	8401	962	0	32815	32845	32751	32743	32927	32796	32764	32607	
3285	0	6554	7118	3766	8358	963	0	32767	32641	32638	32647	32895	32791	32644	32383	
3286	0	6584	7061	3782	8472	964	0	32724	32739	32687	32471	32902	32787	32502	32499	
3287	0	6619	7106	3785	8493	965	0	32729	32687	32669	32359	32735	32879	32671	32567	
3288	0	6625	7138	3747	8520	966	0	32715	32626	32818	32263	32665	32717	32723	32629	
3289	0	6696	7168	3784	8582	967	0	32748	32543	32789	32581	32668	32647	32854	32703	
3290	0	6685	7143	3786	8602	968	0	32728	32391	32756	32748	32743	32748	32617	32643	
3291	0	6707	7122	3806	8649	969	0	32583	32589	32811	32895	32683	32702	32615	32647	
3292	0	6711	7129	3862	8631	970	0	32690	32805	32915	33095	32663	32571	32684	32660	
3293	0	6786	7100	3850	8672	971	0	32602	32877	33019	32828	32663	32547	32737	32661	
3294	0	6852	7150	3813	8725	972	0	32575	32821	33047	32913	32631	32599	32681	32626	
3295	0	6856	7081	3853	8768	973	0	32617	32799	33127	32859	32615	32605	32719	32644	
3296	0	6820	7124	3874	8777	974	0	32614	32999	33041	32783	32682	32591	32615	32775	
3297	0	6861	7136	3876	8805	975	0	32640	33015	32804	32719	32771	32599	32683	32865	
3298	0	6867	7099	3875	8866	976	0	32791	32748	32761	32591	32765	32697	32743	32767	
3299	0	6878	7078	3940	8842	977	0	32875	32719	32735	32850	32845	32855	32630	32634	
3300	0	6920	7104	3867	8894	978	0	32831	32863	32647	32999	32815	32735	32647	32608	
3301	0	6936	7111	3925	8912	979	0	32847	32885	32695	33175	33023	32538	32607	32595	
3302	0	6949	7146	3910	8941	980	0	32756	32873	32611	33271	32935	32509	32639	32575	
3303	0	6972	7142	3935	9025	981	0	32797	32561	32603	33276	32916	32511	32647	32432	
3304	0	6969	7142	3930	8980	982	0	32743	32823	32466	33365	32903	32580	32662	32527	
3305	0	7025	7080	3963	9060	983	0	32797	32899	32457	33247	32807	32615	32757	32630	
3306	0	7017	7124	3993	9076	984	0	32720	32957	32604	33159	32813	32671	32551	32599	
3307	0	7047	7122	3973	9053	985	0	32760	32683	32674	32885	32813	32719	32585	32581	
3308	0	7047	7160	3937	9108	986	0	32640	32775	32754	32807	32711	32549	32519	32564	
3309	0	7032	7174	4010	9194	987	0	32720	32851	32711	32711	32567	32647	32751	32543	
3310	0	7071	7154	3998	9179	988	0	32837	32694	32731	32759	32686	32679	32799	32590	
3311	0	7075	7187	4103	9165	989	0	32811	32593	32719	32583	32727	32631	32671	32633	
3312	0	7101	7188	4055	9230	990	0	32837	32762	32775	32626	32695	32641	32615	32647	
3313	0	7130	7120	4124	9216	991	0	32753	32786	32879	32665	32827	32625	32372	32611	
3314	0	7154	7204	4110	9256	992	0	32780	32607	32837	32519	32791	32738	32590	32511	
3315	0	7153	7213	4150	9305	993	0	32746	32723	32839	32391	32885	32823	32557	32518	
3316	0	7124	7236	4158	9347	994	0	32852	32647	32839	32491	32937	32887	32557	32690	
3317	0	7176	7288	4199	9314	995	0	32869	32543	32727	32353	33007	32695	32497	32631	
3318	0	7215	7272	4146	9348	996	0	32829	32700	32671	32327	32887	32532	32685	32627	
3319	0	7191	7270	4261	9379	997	0	32775	32647	32735	32289	32725	32513	32685	32724	
3320	0	7243	7273	4216	9410	998	0	32800	32599	32767	32431	32532	32459	32519	32745	
3321	0	7235	7284	4209	9381	999	0	32753	32501	32879	32495	32595	32513	32585	32563	
3322	0	7205	7272	4270	9415	1000	0	32780	32719	32887	32591	32479	32391	32599	32623	
3323	0	7192	7298	4246	9425	1001	0	32763	32831	32887	32659	32556	32307	32759	32695	
3324	0	7234	7366	4274	9421	1002	0	32772	32789	32878	32575	32599	32487	32730	32775	
3325	0	7224	7356	4322	9482	1003	0	32722	32530	32845	32763	32607	32679	32589	32761	
3326	0	7238	7354	4330	9485	1004	0	32650	32773	32799	32677	32703	32431	32717	32427	
3327	0	7260	7329	4302	9503	1005	0	32710	32894	32822	32579	32647	32807	32671	32383	
3328	0	7271	7409	4376	9477	1006	0	32679	32783	32791	32446	32567	33063	32695	32717	
3329	0	7272	7398	4362	9507	1007	0	32647	32615	32675	32571	32743	33087	32554	33015	
3330	0	7253	7374	4376	9531	1008	0	32745	32884	32677	32505	32798	33047	32709	32919	
3331	0	7263	7392	4443	9466	1009	0	32751	32887	32755	32579	32861	33223	32559	32982	
3332	0	7264	7416	4460	9581	1010	0	32729	32703	32795	32619	32767	33687	32775	32999	
3333	0	7298	7417	4416	9572	1011	0	32775	32919	32663	32695	32742	33511	32804	32846	
3334	0	7286	7416	4415	9567	1012	0	32816	32818	32687	32786	32775	32981	32628	32723	
3335	0	7279	7436	4476	9592	1013	0	32815	32811	32690	32788	32891	32559	32745	32739	
3336	0	7312	7446	4516	9564	1014	0	32809	32545	32631	32804	32787	32615	32694	32640	
3337	0	7267	7456	4504	9588	1015	0	32817	32663	32719	32799	32853	32697	32773	32607	
3338	0	7272	7460	4526	9594	1016	0	32871	32719	32681	32783	32759	32731	32685	32519	
3339	0	7276	7440	4502	9608	1017	0	32895	32903	32687	32822	32757	32895	32567	32595	
3340	0	7284	7453	4558	9600	1018	0	32812	32677	32642	32833	32775	33014	32695	32623	
3341	0	7233	7452	4537	9600	1019	0	32751	32770	32615	32839	32699	32663	32466	32603	
3342	0	7352	7492	4516	9577	1020	0	32743	32903	32659	32687	32702	32863	32483	32775	
3343	0	7236	7488	4573	9630	1021	0	32539	32532	32935	32667	32749	32577	32583	32811	
3344	0	7304	7549	4557	9572	1022	0	32590	32685	32853	32733	32725	32577	32719	32863	
3345	0	7271	7504	4571	9588	1023	0	32681	32819	32621	32910	32731	32758	32727	32750	
3346	0	7275	7554	4643	9540	1024	0	32745	32893	32543	32847	32847	32807	32795	32645	
3347	0	7276	7550	4567	9568	1025	0	32746	32811	32551	32867	32803	32894	32738	32566	
3348	0	7307	7558	4593	9574	1026	0	32732	32607	32663	32850	32805	32843	32615	32595	
3349	0	7284	7603	4635	9554	1027	0	32697	32759	32695	32863	32747	32740	32743	32725	
3350	0	7275	7614	4595	9573	1028	0	32715	32695	32795	32862	32775	32684	32718	32659	
3351	0	7299	7588	4636	9554	1029	0	32782	32759	32830	32727	32951	32127	32449	32343	
3352	0	7257	7586	4629	9516	1030	0	32793	32775	32867	32483	33095	31655	32605	32167	
3353	0	7288	7582	4637	9514	1031	0	32775	32599	32967	32582	32935	31575	32517	32347	
3354	0	7230	7595	4684	9508	1032	0	32903	32783	33087	32501	32845	31814	32834	32201	
3355	0	7265	7602	4656	9534	1033	0	32799	32743	33071	32387	32871	32034	32775	32209	
3356	0	7203	7651	4648	9460	1034	0	32769	32743	32865	32575	32967	32623	32590	32389	
3357	0	7251	7672	4658	9478	1035	0	32824	32807	32875	32634	32711	33197	32593	32599	
3358	0	7285	7614	4683	9456	1036	0	32721	32733	32971	32725	32805	33983	32513	32919	
3359	0	7260	7638	4624	9421	1037	0	32793	32759	32815	32743	32957	34435	32563	33141	
3360	0	7196	7657	4686	9416	1038	0	32762	32775	32911	32831	33286	33942	32515	33132	
3361	0	7219	7689	4693	9396	1039	0	32671	32895	32991	32743	33007	33583	32599	33031	
3362	0	7202	7664	4650	9362	1040	0	32743	32827	32557	32687	32511	33523	33023	32775	
3363	0	7197	7698	4674	9300	1041	0	32732	32700	32535	32695	32518	33227	32973	32615	
3364	0	7232	7650	4675	9329	1042	0	32724	32831	32561	32495	32581	32599	32943	32551	
3365	0	7193	7704	4705	9310	1043	0	32843	32851	32483	32708	32685	32367	32716	32718	
3366	0	7181	7669	4657	9251	1044	0	32847	32933	32532	32765	32713	32315	32551	32850	
3367	0	7125	7716	4620	9243	1045	0	32839	32787	32595	32647	33003	32355	32589	32829	
3368	0	7156	7687	4640	9265	1046	0	32800	32711	32642	32599	33082	32311	32677	32749	
3369	0	7108	7699	4611	9208	1047	0	32775	32919	32587	32543	32967	32420	32582	32557	
3370	0	7135	7680	4613	9209	1048	0	32843	32895	32615	32657	32931	32451	32827	32549	
3371	0	7101	7689	4578	9160	1049	0	32800	32919	32804	32615	32859	32491	32719	32673	
3372	0	7056	7676	4618	9120	1050	0	32793	32903	32799	32603	32816	32569	32796	32575	
3373	0	7057	7686	4604	9060	1051	0	32775	32631	32753	32575	32757	32658	32687	32583	
3374	0	7042	7654	4577	9092	1052	0	32858	32743	32915	32637	32795	32555	32718	32626	
3375	0	7028	7696	4589	9059	1053	0	32886	32721	32903	32575	32722	32543	32665	32701	
3376	0	7018	7708	4569	9012	1054	0	32775	32794	32966	32742	32703	32691	32826	32673	
3377	0	6981	7700	4581	8975	1055	0	32743	32687	32809	32696	32711	32646	32747	32745	
3378	0	6925	7677	4496	8948	1056	0	32597	32473	32613	32721	32811	32611	32519	32579	
3379	0	6921	7592	4525	8923	1057	0	32584	32623	32739	32807	32775	32623	32578	32543	
3380	0	6912	7672	4532	8863	1058	0	32699	32775	32575	32722	32685	32647	32575	32634	
3381	0	6874	7669	4504	8846	1059	0	32833	32951	32687	32915	32815	32591	32443	32661	
3382	0	6802	7674	4468	8807	1060	0	32797	32819	32738	32874	32975	32711	32564	32687	
3383	0	6862	7622	4505	8766	1061	0	32701	32615	32706	32663	33039	32772	32586	32690	
3384	0	6818	7664	4479	8699	1062	0	32684	32699	32796	32751	32973	32751	32506	32615	
3385	0	6788	7634	4449	8770	1063	0	32728	32709	32837	32809	32985	32775	32590	32857	
3386	0	6736	7680	4484	8669	1064	0	32706	32739	32835	32727	33045	32621	32551	32775	
3387	0	6750	7645	4418	8671	1065	0	32714	32738	32679	32836	32775	32663	32543	32484	
3388	0	6712	7608	4460	8648	1066	0	32753	32621	32717	32847	32845	32669	32757	32492	
3389	0	6668	7620	4406	8590	1067	0	32781	32831	32687	32730	32644	32603	32503	32773	
3390	0	6657	7590	4369	8554	1068	0	32815	32869	32743	32831	32359	32615	32491	32758	
3391	0	6578	7584	4378	8537	1069	0	32796	32955	32710	32835	32406	32630	32725	32773	
3392	0	6626	7586	4386	8492	1070	0	32775	32804	32639	32930	32786	32643	32690	32852	
3393	0	6571	7598	4370	8492	1071	0	32810	32927	32613	32775	32678	32663	32783	32815	
3394	0	6524	7587	4308	8403	1072	0	32838	32977	32583	32890	32436	32647	32527	32820	
3395	0	6476	7524	4333	8446	1073	0	32722	32771	32729	32740	32258	32903	32685	32783	
3396	0	6477	7553	4291	8360	1074	0	32735	32621	32911	32638	32583	32835	32647	32759	
3397	0	6419	7552	4276	8310	1075	0	32671	32693	33029	32696	32903	32847	32463	32703	
3398	0	6416	7529	4247	8278	1076	0	32697	32679	32950	32725	33035	32991	32631	32621	
3399	0	6362	7508	4234	8253	1077	0	32617	32839	32847	32674	32982	32820	32674	32583	
3400	0	6393	7480	4275	8247	1078	0	32775	32663	32703	32775	32850	32644	32627	32679	
3401	0	6344	7485	4216	8166	1079	0	32793	32647	32647	32725	32819	32643	32644	32786	
3402	0	6264	7473	4190	8156	1080	0	32799	32821	32719	32808	32694	32647	32599	32766	
3403	0	6276	7445	4212	8110	1081	0	32725	32804	32694	32647	32775	32535	32730	32727	
3404	0	6212	7446	4150	8037	1082	0	32743	32823	32641	32562	32786	32571	32733	32591	
3405	0	6190	7458	4195	8054	1083	0	32802	32683	32818	32719	32827	32735	32669	32647	
3406	0	6095	7440	4114	8034	1084	0	32757	32783	32786	32647	32868	32598	32595	32620	
3407	0	6116	7433	4163	8002	1085	0	32796	32787	32675	32642	32863	32637	32541	32685	
3408	0	6102	7416	4156	7945	1086	0	32865	32671	32605	32631	32826	32706	32757	32727	
3409	0	6108	7406	4118	7893	1087	0	32760	32555	32751	32623	32839	32674	32797	32594	
3410	0	6036	7386	4065	7900	1088	0	32725	32823	32736	32511	32759	32607	32675	32736	
3411	0	6051	7387	4031	7831	1089	0	32828	32820	32826	32594	32838	32643	32795	32591	
3412	0	5974	7395	4051	7788	1090	0	32793	32641	32917	32642	32764	32807	33014	32692	
3413	0	5914	7317	3989	7786	1091	0	32782	32871	32767	32645	32695	32647	32819	32599	
3414	0	5948	7322	3997	7699	1092	0	32775	32775	32813	32678	32833	32675	32702	32660	
3415	0	5884	7288	4020	7714	1093	0	32745	32563	32759	32615	32935	32645	32599	32681	
3416	0	5904	7316	3992	7677	1094	0	32721	32827	32823	32607	33015	32893	32366	32631	
3417	0	5815	7262	3953	7654	1095	0	32683	32813	32811	32519	32855	32807	32391	32765	
3418	0	5779	7265	3920	7610	1096	0	32797	32691	32854	32559	32911	32708	32506	32699	
3419	0	5704	7248	3900	7587	1097	0	32847	32831	32934	32615	32871	32815	32555	32570	
3420	0	5679	7258	3877	7484	1098	0	32839	32835	32738	32661	32831	32793	32645	32647	
3421	0	5696	7240	3890	7546	1099	0	32775	32646	32631	32693	32751	32687	32623	32595	
3422	0	5624	7242	3886	7451	1100	0	32743	32959	32466	32775	32767	32757	32573	32699	
3423	0	5631	7196	3847	7452	1101	0	32790	32903	32572	32767	32662	32725	32612	32697	
3424	0	5572	7168	3873	7432	1102	0	32812	32679	32719	32773	32647	32639	32700	32805	
3425	0	5561	7145	3818	7395	1103	0	32733	32859	32791	32710	32801	32707	32667	32727	
3426	0	5504	7153	3815	7353	1104	0	32854	32799	32860	32725	32719	32775	32747	32493	
3427	0	5446	7156	3821	7352	1105	0	32832	32679	32876	32721	32861	32692	32763	32583	
3428	0	5512	7130	3726	7299	1106	0	32852	32832	32827	32791	32639	32743	32715	32484	
3429	0	5405	7089	3697	7258	1107	0	32796	32775	32799	32791	32791	32723	32775	32645	
3430	0	5404	7064	3626	7299	1108	0	32886	32757	32811	32759	32805	32749	32751	32423	
3431	0	5341	7110	3697	7257	1109	0	32809	32715	32787	32883	32871	32717	32554	32676	
3432	0	5309	7081	3674	7200	1110	0	32775	32693	32659	32807	32719	32691	32847	32647	
3433	0	5288	7061	3676	7161	1111	0	32791	32517	32669	32757	32799	32701	32788	32684	
3434	0	5244	7042	3636	7163	1112	0	32848	32581	32703	32763	32671	32698	32773	32647	
3435	0	5184	7013	3634	7105	1113	0	32739	32684	32790	32694	32670	32799	32843	32635	
3436	0	5206	6990	3626	7082	1114	0	32712	32647	32807	32831	32683	32823	32727	32716	
3437	0	5164	7015	3561	7026	1115	0	32701	32687	32695	32767	32849	32660	32658	32527	
3438	0	5120	6966	3606	7020	1116	0	32688	32738	32775	32820	32797	32685	32573	32725	
3439	0	5108	6958	3520	7002	1117	0	32809	32817	32671	32834	32719	32646	32600	32533	
3440	0	5059	6911	3520	6970	1118	0	32748	32623	32707	32963	32560	32755	32631	32635	
3441	0	5048	6930	3522	6994	1119	0	32724	32731	32739	32764	32853	32739	32555	32702	
3442	0	5018	6901	3521	6944	1120	0	32677	32743	32830	32739	33055	32867	32391	32759	
3443	0	5015	6914	3479	6920	1121	0	32727	32559	32845	32711	32899	33175	32643	32695	
3444	0	4964	6889	3439	6866	1122	0	32732	32711	32756	32612	32602	33065	32795	32621	
3445	0	4944	6898	3409	6792	1123	0	32773	32844	32767	32743	32607	32935	32829	32615	
3446	0	4965	6841	3438	6799	1124	0	32805	32925	32628	32775	32767	32726	32590	32805	
3447	0	4860	6859	3465	6808	1125	0	32734	32730	32711	32807	32805	32551	32369	32795	
3448	0	4870	6882	3387	6774	1126	0	32768	32615	32751	32551	32868	32748	32663	32710	
3449	0	4851	6848	3397	6777	1127	0	32669	32765	32866	32679	32731	32614	32707	32727	
3450	0	4798	6792	3400	6698	1128	0	32670	32870	32883	32511	32699	32731	32545	32775	
3451	0	4836	6826	3365	6699	1129	0	32671	32731	32941	32551	32910	32703	32567	32685	
3452	0	4738	6842	3299	6709	1130	0	32732	32738	32789	32487	32770	32670	32525	32860	
3453	0	4754	6794	3308	6673	1131	0	32728	32869	32764	32647	32668	32715	32686	32889	
3454	0	4737	6788	3326	6646	1132	0	32707	32937	32804	32626	32562	32743	32647	32875	
3455	0	4683	6790	3327	6657	1133	0	32647	32647	32723	32529	32719	32621	32681	32820	
3456	0	4642	6777	3324	6569	1134	0	32673	32676	32647	32716	32751	32755	32797	32767	
3457	0	4683	6769	3325	6560	1135	0	32724	32834	32829	32786	32598	32791	32711	32694	
3458	0	4636	6779	3276	6596	1136	0	32738	32811	32914	32737	32625	32789	32855	32691	
3459	0	4586	6788	3250	6532	1137	0	32757	32789	32989	32756	32727	32867	32719	32647	
3460	0	4575	6714	3247	6545	1138	0	32767	32635	32815	32595	32831	32687	32735	32673	
3461	0	4589	6737	3237	6498	1139	0	32833	32903	32647	32892	32850	32687	32699	32579	
3462	0	4531	6724	3260	6487	1140	0	32772	32863	32673	32939	32871	32667	32517	32548	
3463	0	4500	6704	3268	6470	1141	0	32793	32917	32790	32967	32817	32707	32647	32453	
3464	0	4484	6733	3301	6477	1142	0	32775	32727	32783	32847	32695	32775	32591	32459	
3465	0	4457	6680	3257	6472	1143	0	32739	32835	32721	32723	32803	32714	32535	32467	
3466	0	4461	6655	3267	6433	1144	0	32740	32669	32708	32589	32914	32514	32487	32482	
3467	0	4429	6652	3233	6416	1145	0	32749	32546	32690	32571	32759	32573	32421	32557	
3468	0	4389	6692	3225	6410	1146	0	32748	32569	32583	32794	32673	32647	32581	32586	
3469	0	4348	6665	3157	6324	1147	0	32703	32843	32471	32798	32743	32831	32575	32639	
3470	0	4371	6680	3211	6361	1148	0	32710	32845	32492	33007	32775	33069	32699	32685	
3471	0	4353	6682	3194	6355	1149	0	32865	32827	32599	32915	32805	33029	32665	32601	
3472	0	4296	6664	3168	6312	1150	0	32687	32557	32815	32771	32903	32859	32602	32599	
3473	0	4296	6636	3214	6294	1151	0	32511	32684	32923	32471	33092	32692	32463	32635	
3474	0	4274	6648	3194	6282	1152	0	32567	32666	32959	32287	32879	32519	32655	32862	
3475	0	4268	6677	3153	6238	1153	0	32676	32802	33063	32484	32671	32524	32827	32895	
3476	0	4218	6603	3234	6226	1154	0	32896	32879	32931	32775	32559	32759	32721	32852	
3477	0	4205	6627	3191	6180	1155	0	32876	32743	32839	32783	32597	32859	32621	32734	
3478	0	4160	6598	3166	6191	1156	0	32803	32839	32725	32708	32911	32815	32882	32623	
3479	0	4154	6613	3178	6205	1157	0	32749	32942	32711	32556	32914	32688	32747	32559	
3480	0	4114	6615	3166	6160	1158	0	32732	32763	32682	32761	32903	32562	32627	32499	
3481	0	4129	6621	3179	6200	1159	0	32734	32899	32559	32749	33151	32588	32775	32611	
3482	0	4112	6653	3182	6154	1160	0	32836	32903	32565	32743	33391	32703	32845	32518	
3483	0	4040	6653	3201	6115	1161	0	32783	32935	32607	32803	33451	32675	32871	32473	
3484	0	4087	6638	3189	6104	1162	0	32833	32675	32695	32695	33359	32583	32837	32562	
3485	0	4008	6636	3188	6122	1163	0	32807	32773	32767	32647	33331	32694	32324	32959	
3486	0	4017	6648	3124	6115	1164	0	32855	32739	32827	32535	33404	32479	32285	32915	
3487	0	4014	6619	3185	6124	1165	0	32893	32795	32804	32707	33047	32517	32438	32731	
3488	0	3974	6596	3163	6080	1166	0	32910	32751	32743	32823	32308	32999	32413	32871	
3489	0	3942	6600	3189	6058	1167	0	32965	32861	32655	32989	31151	33523	32367	32895	
3490	0	3960	6658	3232	6089	1168	0	32962	33099	32711	33205	30940	33415	32347	32743	
3491	0	3966	6685	3226	6004	1169	0	32950	33219	32742	33131	31403	33015	32511	32702	
3492	0	3940	6672	3213	6033	1170	0	32897	32885	32827	33063	32119	32551	32525	32655	
3493	0	3941	6700	3219	6033	1171	0	32708	32791	32929	32751	32993	32553	32621	32635	
3494	0	3914	6639	3165	6010	1172	0	32518	32508	32933	32187	33285	32091	32402	32551	
3495	0	3906	6619	3230	5989	1173	0	32462	32471	32999	32062	33247	32203	32423	32391	
3496	0	3886	6677	3220	5965	1174	0	32619	32391	32861	32415	33095	32455	32708	32621	
3497	0	3862	6656	3216	5991	1175	0	32727	32671	32775	32695	33039	32631	32751	32763	
3498	0	3832	6690	3240	5949	1176	0	32756	32679	32743	32615	32891	32795	32871	32732	
3499	0	3796	6691	3272	5950	1177	0	32742	32838	32752	32804	32801	32938	32757	32643	
3500	0	3851	6654	3268	5964	1178	0	32782	32763	32709	32862	32839	33031	32687	32647	
3501	0	3799	6678	3270	5924	1179	0	32740	32629	32696	32699	32862	32871	32727	32585	
3502	0	3800	6701	3280	5946	1180	0	32767	32751	32635	32818	32892	32775	32455	32647	
3503	0	3812	6718	3295	5916	1181	0	32826	32751	32626	32727	32957	32783	32463	32679	
3504	0	3735	6734	3315	5935	1182	0	32836	32743	32646	32663	32953	32727	32391	32645	
3505	0	3748	6730	3254	5950	1183	0	32794	32630	32757	32743	32903	32605	32478	32591	
3506	0	3774	6680	3268	5896	1184	0	32773	32798	32836	32829	32948	32597	32371	32696	
3507	0	3703	6704	3297	5876	1185	0	32823	32669	32813	32831	32927	32599	32438	32541	
3508	0	3730	6728	3319	5860	1186	0	32775	32647	32735	32829	32931	32519	32578	32695	
3509	0	3725	6760	3318	5894	1187	0	32794	32787	32813	32861	32899	32583	32639	32623	
3510	0	3729	6739	3307	5871	1188	0	32751	32660	32833	32677	32927	32631	32683	32643	
3511	0	3732	6812	3324	5861	1189	0	32710	32807	32754	32693	32775	32607	32743	32685	
3512	0	3715	6776	3382	5800	1190	0	32728	32807	32763	32629	32863	32690	32639	32559	
3513	0	3691	6784	3305	5846	1191	0	32721	32764	32751	32655	32749	32562	32623	32719	
3514	0	3697	6786	3377	5829	1192	0	32723	32730	32703	32579	32804	32642	32797	32695	
3515	0	3692	6787	3387	5804	1193	0	32647	32699	32679	32503	32758	32767	32775	32635	
3516	0	3653	6800	3425	5794	1194	0	32647	32527	32687	32583	32749	32580	32883	32663	
3517	0	3656	6785	3421	5818	1195	0	32701	32647	32855	32619	32659	32751	32775	32725	
3518	0	3632	6857	3454	5754	1196	0	32793	32911	32839	32620	32765	32763	32673	32709	
3519	0	3665	6864	3396	5795	1197	0	32724	32597	32854	32567	32937	32711	32689	32567	
3520	0	3682	6881	3438	5743	1198	0	32631	32639	32901	32647	32834	32925	32739	32607	
3521	0	3595	6872	3487	5782	1199	0	32621	32743	32775	32558	32775	33060	32819	32571	
3522	0	3615	6850	3466	5750	1200	0	32772	32639	32743	32559	32747	32901	32738	32788	
3523	0	3609	6924	3443	5788	1201	0	32815	32847	32734	32543	32733	32839	32591	32610	
3524	0	3605	6930	3433	5750	1202	0	33019	32879	32771	32742	32719	32655	32975	32419	
3525	0	3593	6931	3526	5720	1203	0	32863	32765	32703	32791	32727	32543	32811	32535	
3526	0	3619	6908	3519	5763	1204	0	32799	32647	32627	32919	32647	32695	32801	32644	
3527	0	3544	6979	3580	5740	1205	0	32815	32820	32583	32751	32743	32676	32873	32503	
3528	0	3589	6982	3576	5704	1206	0	32725	32955	32615	32811	32807	32828	33036	32135	
3529	0	3556	7024	3618	5704	1207	0	32775	32775	32717	32827	32917	32631	32903	32249	
3530	0	3579	7004	3627	5722	1208	0	32753	32831	32757	32751	32927	32621	32684	32563	
3531	0	3578	7018	3657	5696	1209	0	32822	32853	32847	32646	32889	32783	32271	32911	
3532	0	3563	7086	3643	5653	1210	0	32885	32911	32676	32741	32917	32860	32443	32797	
3533	0	3514	7035	3745	5684	1211	0	32850	32643	32709	32715	32527	32903	32711	32563	
3534	0	3505	7079	3693	5669	1212	0	32745	32518	32818	32767	32487	32797	32743	32692	
3535	0	3500	7090	3718	5688	1213	0	32773	32762	32705	32853	32635	32609	32839	32679	
3536	0	3496	7138	3727	5598	1214	0	32742	32771	32767	32835	32717	32675	32685	32879	
3537	0	3543	7162	3835	5640	1215	0	32666	32817	32795	32729	32940	32611	32859	32866	
3538	0	3445	7184	3814	5656	1216	0	32676	32603	32743	32764	32939	32630	33026	32821	
3539	0	3524	7209	3814	5668	1217	0	32718	32751	32807	32535	32903	32731	33089	32733	
3540	0	3481	7245	3862	5625	1218	0	32807	32851	32943	32570	32615	32775	32894	32587	
3541	0	3482	7246	3907	5618	1219	0	32730	32715	32975	32439	32718	32903	32883	32647	
3542	0	3480	7240	3898	5608	1220	0	32726	32719	32855	32637	32807	32885	32829	32639	
3543	0	3473	7270	3901	5622	1221	0	32788	32775	32839	32687	32923	32655	32793	32647	
3544	0	3442	7319	3962	5609	1222	0	32775	32844	32719	32735	32963	32461	32835	32687	
3545	0	3448	7329	4008	5534	1223	0	32662	32607	32740	32788	32917	32579	32574	32589	
3546	0	3431	7385	3946	5612	1224	0	32774	32812	32647	32830	32817	32751	32676	32631	
3547	0	3458	7372	3998	5549	1225	0	32740	32847	32549	32871	32693	32698	32583	32647	
3548	0	3459	7387	4108	5600	1226	0	32767	32803	32572	32807	32717	32447	32735	32663	
3549	0	3411	7410	4084	5561	1227	0	32694	32607	32668	32911	32819	32391	32647	32731	
3550	0	3376	7444	4119	5540	1228	0	32742	32583	32769	32711	32767	32657	32495	32783	
3551	0	3384	7484	4099	5532	1229	0	32701	32701	32813	32738	32775	32739	32679	32790	
3552	0	3395	7458	4136	5524	1230	0	32759	32807	32829	32709	32775	32751	32615	32852	
3553	0	3408	7476	4201	5508	1231	0	32773	32735	32863	32719	32736	32599	32701	32771	
3554	0	3399	7555	4224	5533	1232	0	32669	32692	32827	32541	32719	32595	32589	32843	
3555	0	3349	7570	4253	5503	1233	0	32765	32756	32783	32647	32831	32711	32647	32866	
3556	0	3369	7580	4234	5533	1234	0	32685	32723	32689	32615	32871	32655	32564	32759	
3557	0	3374	7600	4229	5504	1235	0	32685	32585	32692	32799	32775	32755	32669	32692	
3558	0	3351	7608	4297	5497	1236	0	32757	32748	32727	32820	32643	32959	32703	32677	
3559	0	3300	7667	4383	5495	1237	0	32647	32799	32681	32831	32711	33167	32828	32644	
3560	0	3299	7632	4388	5505	1238	0	32708	32709	32775	32766	32811	32847	32767	32543	
3561	0	3294	7669	4445	5449	1239	0	32704	32567	32733	32775	32741	32775	32738	32623	
3562	0	3336	7760	4408	5469	1240	0	32679	32747	32775	32693	32771	32706	32767	32567	
3563	0	3349	7726	4428	5475	1241	0	32713	32886	32821	32775	32775	32855	32767	32573	
3564	0	3323	7740	4458	5474	1242	0	32773	32835	32748	32702	32727	32642	32715	32633	
3565	0	3318	7800	4451	5467	1243	0	32701	32615	32775	32705	32775	32743	32594	32567	
3566	0	3266	7806	4524	5469	1244	0	32716	32775	32712	32579	32819	32702	32587	32589	
3567	0	3266	7856	4562	5454	1245	0	32685	32758	32758	32740	32815	32863	32543	32621	
3568	0	3275	7832	4532	5436	1246	0	32738	32733	32807	32604	32767	32767	32631	32691	
3569	0	3311	7845	4564	5409	1247	0	32798	32693	32748	32759	32719	32706	32677	32687	
3570	0	3301	7848	4594	5404	1248	0	32803	32844	32799	32703	32692	32751	32765	32685	
3571	0	3260	7897	4636	5410	1249	0	32804	32783	32710	32715	32783	32749	32751	32620	
3572	0	3247	7920	4650	5420	1250	0	32860	32862	32823	32702	32821	32873	32641	32603	
3573	0	3251	7928	4660	5443	1251	0	32775	32681	32757	32615	32763	32743	32594	32587	
3574	0	3270	7947	4708	5442	1252	0	32846	32775	32871	32786	32695	32767	32515	32635	
3575	0	3240	7966	4730	5432	1253	0	32791	32748	33010	32679	32687	32645	32639	32729	
3576	0	3244	8025	4746	5350	1254	0	32812	32773	33087	32742	32703	32669	32481	32851	
3577	0	3239	8003	4794	5407	1255	0	32831	32627	32935	32685	32743	32553	32659	32819	
3578	0	3234	8014	4782	5346	1256	0	32854	32823	32871	32931	32743	32553	32605	32854	
3579	0	3189	8054	4847	5376	1257	0	32846	32855	32974	32739	32739	32655	32663	32783	
3580	0	3216	8070	4860	5372	1258	0	32931	32850	32827	32831	32695	32580	32635	32727	
3581	0	3219	8104	4878	5418	1259	0	32876	32615	32831	32796	32663	32658	32992	32663	
3582	0	3174	8152	4934	5304	1260	0	32738	32837	32797	32732	32731	32579	32783	32743	
3583	0	3199	8124	4925	5362	1261	0	32965	32967	32639	32671	32846	32591	32486	32871	
3584	0	3207	8170	4989	5353	1262	0	32937	33023	32703	32630	32871	32694	32617	32844	
3585	0	3198	8182	4991	5312	1263	0	32807	32892	32526	32793	32921	32719	32694	32737	
3586	0	3177	8161	5037	5344	1264	0	32694	32743	32500	32790	32807	32692	32775	32687	
3587	0	3206	8212	5036	5342	1265	0	32672	32959	32527	32806	32703	32679	32791	32698	
3588	0	3164	8237	5076	5318	1266	0	32760	33117	32463	32807	32718	32639	32663	32639	
3589	0	3200	8230	5129	5330	1267	0	32783	32871	32529	32931	32723	32773	32743	32679	
3590	0	3146	8284	5141	5328	1268	0	32850	33095	32627	32850	32591	32687	32607	32707	
3591	0	3194	8299	5130	5327	1269	0	32914	33103	32799	32819	32727	32669	32822	32709	
3592	0	3178	8278	5176	5356	1270	0	32841	32927	32826	32577	32811	32740	32725	32743	
3593	0	3146	8324	5243	5314	1271	0	32948	32669	32732	32379	32775	32677	32738	32690	
3594	0	3146	8335	5219	5336	1272	0	32955	32799	32691	32461	32798	32758	32583	32679	
3595	0	3095	8387	5261	5316	1273	0	32917	32903	32803	32359	32775	32678	32529	32679	
3596	0	3106	8402	5305	5300	1274	0	32801	32575	32775	32487	32803	32679	32487	32685	
3597	0	3103	8388	5292	5289	1275	0	32758	32674	32711	32475	32733	32578	32615	32699	
3598	0	3131	8414	5329	5270	1276	0	32850	32707	32631	32535	32835	32499	32577	32765	
3599	0	3107	8432	5392	5286	1277	0	32829	32862	32623	32556	32855	32583	32475	32803	
3600	0	3111	8453	5404	5270	1278	0	32732	32556	32647	32699	32863	32579	32533	32791	
3601	0	3064	8472	5474	5280	1279	0	32660	32567	32511	32746	32789	32683	32477	32687	
3602	0	3095	8505	5481	5252	1280	0	32676	32494	32415	32657	32767	32743	32669	32609	
3603	0	3067	8508	5526	5285	1281	0	32740	32571	32463	32827	32839	32615	32549	32551	
3604	0	3122	8518	5506	5291	1282	0	32706	32335	32515	32701	32863	32799	32594	32525	
3605	0	3046	8504	5564	5279	1283	0	32727	32475	32443	32743	32805	32855	32670	32582	
3606	0	3086	8586	5581	5280	1284	0	32580	32454	32447	32761	32919	32851	32443	32622	
3607	0	3066	8580	5642	5239	1285	0	32578	32570	32461	32845	32967	32831	32437	32647	
3608	0	3017	8624	5652	5249	1286	0	32566	32270	32515	32729	32999	32755	32441	32675	
3609	0	3045	8600	5741	5236	1287	0	32420	32233	32575	32621	33028	32679	32427	32658	
3610	0	3051	8642	5724	5245	1288	0	32399	32237	32551	32647	32953	32949	32463	32605	
3611	0	3050	8660	5755	5252	1289	0	32363	32125	32575	32807	32909	32884	32519	32647	
3612	0	3030	8662	5786	5265	1290	0	32287	32095	32557	32855	32819	32833	32534	32647	
3613	0	3060	8657	5796	5238	1291	0	32250	32219	32527	32743	32679	32789	32437	32621	
3614	0	3097	8690	5861	5216	1292	0	32183	32247	32663	32692	32623	32643	32445	32644	
3615	0	3055	8729	5913	5258	1293	0	32169	32423	32930	32578	32625	32647	32354	32495	
3616	0	3047	8697	5960	5244	1294	0	32196	32221	32993	32549	32700	32749	32548	32528	
3617	0	2992	8696	5957	5274	1295	0	32268	32411	32946	32605	32634	32827	32663	32566	
3618	0	3035	8820	6021	5226	1296	0	32260	32455	32863	32742	32565	32939	32897	32428	
3619	0	3048	8770	6003	5234	1297	0	32273	32676	32797	32807	32507	32839	33011	32511	
3620	0	3022	8858	6058	5232	1298	0	32340	32756	32927	32851	32391	32799	33036	32481	
3621	0	2968	8794	6145	5236	1299	0	32518	33159	33057	33105	32355	32903	33148	32503	
3622	0	2987	8866	6081	5254	1300	0	32605	33436	33187	33151	32359	32973	33130	32551	
3623	0	2969	8820	6159	5204	1301	0	32743	33232	33319	33232	32359	32821	33300	32647	
3624	0	3024	8874	6172	5181	1302	0	32946	33423	33391	33135	32375	32767	33239	32628	
3625	0	3024	8882	6204	5253	1303	0	33053	33375	33452	33093	32430	32871	33275	32551	
3626	0	2981	8884	6269	5240	1304	0	33007	33412	33428	33191	32455	32844	33204	32519	
3627	0	2958	8921	6248	5211	1305	0	32948	33366	33443	33068	32487	32815	33183	32519	
3628	0	2969	8898	6285	5232	1306	0	32991	33111	33398	33247	32492	32769	33206	32575	
3629	0	2954	8939	6346	5231	1307	0	33116	33408	33151	33135	32543	32734	33047	32643	
3630	0	2946	8914	6376	5188	1308	0	33269	33339	32879	33039	32708	32775	32843	32700	
3631	0	2957	8948	6389	5235	1309	0	33383	33389	32951	32916	32866	32639	32561	32743	
3632	0	2984	8980	6468	5188	1310	0	33522	33129	32873	32759	32975	32598	32495	32917	
3633	0	2932	9007	6464	5181	1311	0	33367	33187	32751	32609	33044	32493	32366	32926	
3634	0	2940	9002	6522	5236	1312	0	33487	33239	32825	32619	33003	32519	32499	32954	
3635	0	2933	9018	6560	5220	1313	0	33501	33247	32743	32660	32983	32551	32263	32940	
3636	0	2887	9032	6600	5203	1314	0	33463	33041	32461	32409	33005	32555	32135	32963	
3637	0	2898	9053	6642	5205	1315	0	33375	33078	32503	32511	33003	32563	32211	32975	
3638	0	2936	9002	6638	5254	1316	0	33362	33059	32343	32385	33051	32475	32246	32795	
3639	0	2949	9130	6702	5213	1317	0	33295	33139	32239	32515	32982	32383	32063	32735	
3640	0	2963	9121	6720	5276	1318	0	33109	32803	32375	32585	32887	32527	32169	32775	
3641	0	2919	9113	6776	5241	1319	0	33091	32879	32601	32487	32901	32537	32115	32767	
3642	0	2903	9144	6784	5266	1320	0	32971	32923	32775	32479	32949	32438	32473	32620	
3643	0	2964	9193	6884	5250	1321	0	32933	32714	32855	32431	32967	32143	32567	32719	
3644	0	2963	9238	6917	5220	1322	0	32968	32647	32929	32551	32925	32188	32427	32803	
3645	0	3019	9235	6938	5308	1323	0	32918	32756	32959	32495	32887	32319	32465	32790	
3646	0	2985	9240	7022	5332	1324	0	32892	32731	32830	32607	32915	32466	32285	32881	
3647	0	3015	9282	7077	5332	1325	0	32705	32623	32549	32663	32975	32527	32229	32847	
3648	0	2990	9251	7079	5320	1326	0	32589	32421	32399	32845	32828	32415	32361	32801	
3649	0	3033	9280	7112	5340	1327	0	32580	32565	32359	32735	32762	32683	32683	32783	
3650	0	3033	9346	7164	5322	1328	0	32573	32581	32407	32815	32819	32885	32727	32655	
3651	0	3042	9355	7190	5347	1329	0	32620	32647	32514	32877	32801	32971	32695	32773	
3652	0	3058	9333	7219	5376	1330	0	32574	32605	32609	32807	32734	33295	32898	32768	
3653	0	3100	9405	7296	5375	1331	0	32579	32687	32688	32865	32690	33138	32799	32663	
3654	0	3086	9348	7297	5386	1332	0	32543	32805	32826	32769	32743	33007	32823	32722	
3655	0	3129	9410	7341	5412	1333	0	32484	32533	32903	32564	32871	32923	32629	32469	
3656	0	3166	9408	7368	5451	1334	0	32431	32487	32955	32527	32939	32653	32607	32479	
3657	0	3204	9496	7453	5440	1335	0	32461	32551	32929	32509	32823	32879	32588	32503	
3658	0	3162	9466	7437	5444	1336	0	32557	32527	32919	32795	32659	32803	32595	32511	
3659	0	3193	9477	7504	5477	1337	0	32613	32711	32875	32890	32725	32577	32583	32569	
3660	0	3214	9552	7552	5428	1338	0	32572	32734	32803	32900	32767	32575	32501	32551	
3661	0	3195	9477	7594	5516	1339	0	32617	32621	32839	32839	32844	32827	32642	32485	
3662	0	3304	9538	7607	5517	1340	0	32599	32635	32786	32823	32847	32811	32569	32423	
3663	0	3285	9545	7668	5555	1341	0	32587	32799	32711	32703	32711	32847	32619	32615	
3664	0	3273	9588	7735	5507	1342	0	32585	32491	32663	32855	32858	32799	32605	32637	
3665	0	3267	9645	7725	5570	1343	0	32667	32759	32647	32754	32821	32729	32711	32631	
3666	0	3360	9634	7755	5542	1344	0	32683	32610	32647	32591	32942	32743	32662	32615	
3667	0	3361	9637	7780	5604	1345	0	32671	32711	32675	32718	32871	32701	32615	32708	
3668	0	3399	9720	7860	5604	1346	0	32660	32722	32781	32583	32749	32575	32709	32669	
3669	0	3378	9633	7784	5627	1347	0	32801	32639	32838	32721	32702	32623	32718	32695	
3670	0	3399	9722	7896	5642	1348	0	32745	32615	32790	32687	32722	32775	32671	32690	
3671	0	3407	9768	7928	5632	1349	0	32745	32735	32868	32837	32657	32702	32647	32619	
3672	0	3454	9680	7920	5640	1350	0	32811	32827	32853	32763	32647	32775	32594	32587	
3673	0	3508	9734	7955	5656	1351	0	32740	32487	32903	32790	32711	32692	32721	32660	
3674	0	3479	9744	8024	5685	1352	0	32805	32691	32853	32731	32807	32711	32593	32673	
3675	0	3475	9678	8034	5718	1353	0	32806	32765	32831	32667	32847	32663	32727	32595	
3676	0	3512	9763	8048	5726	1354	0	32775	32559	32903	32599	32911	32740	32667	32657	
3677	0	3531	9844	8094	5713	1355	0	32715	32716	32732	32587	32951	32677	32743	32683	
3678	0	3536	9832	8092	5764	1356	0	32737	32775	32459	32543	32831	32685	32671	32620	
3679	0	3559	9754	8136	5728	1357	0	32735	32487	32594	32610	32735	32813	32733	32613	
3680	0	3578	9769	8176	5769	1358	0	32685	32706	32732	32627	32794	32715	32663	32581	
3681	0	3650	9808	8218	5791	1359	0	32678	32820	32759	32799	32751	32807	32729	32647	
3682	0	3582	9784	8210	5788	1360	0	32732	32671	32515	32775	32719	32841	32630	32703	
3683	0	3559	9796	8272	5789	1361	0	32712	32823	32493	32852	32806	32764	32678	32719	
3684	0	3619	9833	8314	5796	1362	0	32655	32819	32647	32831	32766	32732	32539	32807	
3685	0	3602	9800	8322	5813	1363	0	32647	32643	32693	32823	32775	32615	32711	32847	
3686	0	3698	9862	8332	5857	1364	0	32721	32743	32727	32887	32727	32711	32661	32810	
3687	0	3653	9844	8388	5849	1365	0	32743	32831	32687	32811	32615	32635	32701	32801	
3688	0	3630	9881	8421	5875	1366	0	32801	32730	32613	32818	32679	32647	32533	32772	
3689	0	3632	9834	8417	5837	1367	0	32788	32827	32487	32741	32767	32647	32722	32663	
3690	0	3692	9901	8485	5909	1368	0	32846	32875	32527	32823	32678	32629	32615	32634	
3691	0	3634	9877	8451	5875	1369	0	32871	32967	32646	32645	32737	32378	32734	32745	
3692	0	3669	9912	8590	5900	1370	0	32887	32749	32690	32692	32723	32407	32693	32713	
3693	0	3689	9846	8566	5900	1371	0	32825	32742	32700	32445	32732	32659	32799	32706	
3694	0	3696	9966	8602	5936	1372	0	32788	32668	32694	32479	32912	32849	32679	32639	
3695	0	3668	9872	8579	5926	1373	0	32712	32746	32707	32482	32967	32925	32839	32612	
3696	0	3703	9810	8582	5897	1374	0	32740	32533	32660	32635	32988	33010	32765	32583	
3697	0	3637	9938	8658	5948	1375	0	32692	32687	32736	32421	33042	32883	32772	32647	
3698	0	3694	9949	8693	5951	1376	0	32724	32797	32756	32481	32858	32964	32802	32615	
3699	0	3668	9922	8688	5980	1377	0	32807	32676	32763	32461	32847	32932	32839	32694	
3700	0	3668	9906	8685	5918	1378	0	32842	32579	32903	32676	32727	32971	32689	32692	
3701	0	3700	9954	8704	5937	1379	0	32845	32815	32972	32679	32764	32855	32647	32662	
3702	0	3676	9869	8682	5965	1380	0	32803	32786	32966	32855	32691	32793	32791	32655	
3703	0	3701	9962	8739	5990	1381	0	32759	32861	32948	32823	32682	32711	32724	32693	
3704	0	3704	9910	8809	5950	1382	0	32787	32643	32959	32948	32747	32683	32813	32748	
3705	0	3727	9898	8825	5968	1383	0	32763	32743	32958	32742	32799	32572	32655	32696	
3706	0	3732	9949	8804	6012	1384	0	32794	32799	33012	32893	32835	32765	32719	32773	
3707	0	3684	9889	8856	6009	1385	0	32786	32818	33025	32901	32871	32693	32586	32804	
3708	0	3719	9982	8788	5956	1386	0	32740	32874	33170	32978	32797	32597	32706	32691	
3709	0	3718	9872	8871	5994	1387	0	32702	32903	33263	32766	32743	32687	32695	32733	
3710	0	3694	10012	8815	5956	1388	0	32722	32719	33084	32823	32659	32679	32790	32647	
3711	0	3718	9928	8752	6043	1389	0	32807	32839	32973	32637	32605	32657	32763	32677	
3712	0	3659	9916	8794	6012	1390	0	32753	32775	32743	32727	32619	32566	32855	32713	
3713	0	3628	9916	8877	6018	1391	0	32771	32695	32689	32570	32679	32821	32748	32627	
3714	0	3696	9918	8864	5978	1392	0	32735	32455	32545	32670	32711	32773	32835	32743	
3715	0	3684	9908	8809	6022	1393	0	32760	32818	32567	32676	32817	32684	32687	32757	
3716	0	3632	9872	8841	6010	1394	0	32796	32843	32515	32823	32853	32518	32757	32783	
3717	0	3686	9896	8757	5949	1395	0	32794	32839	32525	32711	32790	32495	32663	32766	
3718	0	3703	9840	8784	5971	1396	0	32897	32487	32583	32703	32805	32706	32583	32695	
3719	0	3655	9868	8800	5982	1397	0	32953	32615	32590	32639	32767	32717	32671	32741	
3720	0	3679	9849	8744	5992	1398	0	32892	32743	32567	32711	32775	32749	32503	32751	
3721	0	3642	9824	8788	5984	1399	0	32741	32749	32479	32647	32853	32621	32707	32609	
3722	0	3609	9834	8757	5924	1400	0	32775	32799	32551	32689	32903	32807	32613	32687	
3723	0	3581	9789	8700	5947	1401	0	32746	32766	32675	32825	32853	32789	32723	32707	
3724	0	3578	9787	8661	5924	1402	0	32745	32827	32699	33193	32943	32575	32589	32731	
3725	0	3578	9800	8654	5943	1403	0	32710	32567	32743	32982	32827	32519	32667	32725	
3726	0	3612	9762	8626	5908	1404	0	32748	32739	32809	32911	32807	32617	32583	32703	
3727	0	3582	9802	8652	5906	1405	0	32770	32775	32715	32799	32817	32735	32826	32701	
3728	0	3549	9752	8647	5878	1406	0	32775	32835	32635	32903	32767	32775	32819	32704	
3729	0	3556	9686	8543	5855	1407	0	32675	32621	32485	32728	32835	32825	32847	32743	
3730	0	3545	9760	8620	5864	1408	0	32703	32745	32391	32759	32791	32663	32809	32691	
3731	0	3552	9757	8564	5866	1409	0	32712	32855	32431	32653	32879	32669	32767	32595	
3732	0	3500	9729	8493	5860	1410	0	32703	32690	32527	32701	32871	32850	32740	32491	
3733	0	3465	9677	8506	5847	1411	0	32796	32831	32705	32551	32893	32809	32791	32423	
3734	0	3470	9608	8479	5856	1412	0	32873	32908	32819	32570	32967	32851	32663	32487	
3735	0	3479	9669	8412	5852	1413	0	32805	32903	32885	32475	32791	32686	32849	32445	
3736	0	3436	9623	8344	5812	1414	0	32684	32642	32861	32567	32583	32597	32795	32602	
3737	0	3425	9618	8384	5816	1415	0	32711	32754	32918	32466	32623	32543	32885	32622	
3738	0	3404	9618	8371	5796	1416	0	32673	32827	32903	32571	32695	32533	32774	32727	
3739	0	3394	9542	8286	5803	1417	0	32589	32545	32961	32557	32639	32525	32762	32804	
3740	0	3408	9589	8278	5769	1418	0	32652	32731	32965	32692	32493	32452	32735	32854	
3741	0	3368	9497	8291	5780	1419	0	32722	32775	32846	32628	32660	32495	32765	32819	
3742	0	3381	9556	8186	5750	1420	0	32818	32815	32775	32647	32645	32554	32765	32754	
3743	0	3356	9504	8192	5719	1421	0	32716	32516	32775	32559	32575	32733	32829	32751	
3744	0	3319	9468	8104	5771	1422	0	32554	32635	32871	32617	32903	32371	32701	32703	
3745	0	3318	9451	8086	5695	1423	0	32591	32751	32985	32783	32679	32327	32756	32513	
3746	0	3291	9430	8120	5688	1424	0	32743	32775	33025	32823	32407	32359	32815	32367	
3747	0	3289	9393	8026	5703	1425	0	32748	32847	33031	32847	32543	32053	32631	32501	
3748	0	3246	9439	8048	5664	1426	0	32850	32901	32943	32895	32406	32455	32659	32547	
3749	0	3226	9447	7980	5672	1427	0	32808	32807	32967	32756	32666	32823	32619	32679	
3750	0	3268	9352	7925	5634	1428	0	32700	32647	33063	32538	33172	33038	32487	32775	
3751	0	3226	9350	7895	5654	1429	0	32711	32731	32933	32727	33524	32567	32643	32847	
3752	0	3273	9338	7846	5630	1430	0	32760	32548	32887	32775	33183	33159	32567	33052	
3753	0	3223	9297	7790	5650	1431	0	32839	32822	32748	32823	32963	34212	32727	33019	
3754	0	3176	9365	7749	5602	1432	0	32767	32882	32807	32621	32940	34643	32687	32807	
3755	0	3195	9279	7794	5637	1433	0	32813	32962	32743	32716	32847	34706	32785	32647	
3756	0	3211	9251	7722	5636	1434	0	32870	33053	32647	32742	32743	33851	32628	32768	
3757	0	3189	9252	7664	5565	1435	0	32823	32893	32603	32775	32685	33027	32804	32685	
3758	0	3199	9268	7659	5593	1436	0	32818	32927	32697	32761	32787	32487	32569	32559	
3759	0	3160	9224	7620	5626	1437	0	32775	33027	32757	32877	32763	32437	32780	32545	
3760	0	3174	9206	7568	5570	1438	0	32791	32583	32855	32575	32956	32289	32479	32569	
3761	0	3145	9221	7523	5576	1439	0	32620	32535	32939	32181	33245	32487	32475	32455	
