# OpenSignals Text File Format
# {"00:07:80:3B:46:38": {"sensor": ["CUSTOM/0.5/1.0/V", "CUSTOM/0.5/1.0/V", "CUSTOM/0.5/1.0/V", "CUSTOM/0.5/1.0/V", "CUSTOM/0.5/1.0/V", "CUSTOM/0.5/1.0/V", "CUSTOM/0.5/1.0/V", "CUSTOM/0.5/1.0/V"], "device name": "EMGs", "column": ["nSeq", "DI", "RA_L", "RA_R", "OE_L", "OE:R", "IL_L", "IL_R", "MF_L", "MF_R"], "sync interval": 2, "time": "17:4:10.619", "comments": "", "device connection": "BTH00:07:80:3B:46:38", "channels": [1, 2, 3, 4, 5, 6, 7, 8], "date": "2017-6-1", "mode": 0, "digital IO": [0, 1], "firmware version": 772, "device": "biosignalsplux", "position": 0, "sampling rate": 1000, "label": ["RA_L", "RA_R", "OE_L", "OE:R", "IL_L", "IL_R", "MF_L", "MF_R"], "resolution": [16, 16, 16, 16, 16, 16, 16, 16], "special": [{}, {}, {}, {}, {}, {}, {}, {}]}}
# EndOfHeader
0	0	32790	32693	32807	32615	33245	32858	32526	32647	
1	0	32781	32639	32834	32638	32803	32815	32435	32755	
2	0	32789	32743	32783	32627	33067	32765	32559	32747	
3	0	32748	32557	32789	32661	32919	32895	33109	32743	
4	0	32775	32729	32769	32647	33121	32829	33439	32575	
5	0	32788	32751	32679	32724	32658	32751	33177	32655	
6	0	32788	32754	32709	32727	32861	32615	32713	32620	
7	0	32772	32629	32715	32621	32598	32914	32599	32503	
8	0	32763	32645	32713	32677	32447	32725	32709	32615	
9	0	32788	32739	32751	32789	32645	32794	32935	32671	
10	0	32759	32703	32721	32763	32559	32684	32733	32807	
11	0	32763	32531	32730	32627	32467	32543	32623	32738	
12	0	32767	32671	32711	32647	32519	32612	32431	32684	
13	0	32751	32795	32759	32775	32707	32773	32327	32839	
14	0	32782	32707	32795	32767	32883	32958	32471	32607	
15	0	32771	32743	32722	32773	33001	32749	32775	32694	
16	0	32732	32571	32647	32674	32741	32587	32748	32673	
17	0	32742	32687	32733	32733	32582	32463	32615	32847	
18	0	32783	32669	32711	32766	32543	32747	32645	32625	
19	0	32765	32677	32735	32765	32823	32863	32599	32745	
20	0	32783	32743	32839	32723	32877	32797	32645	32647	
21	0	32759	32535	32783	32701	32903	32783	32751	32647	
22	0	32785	32603	32722	32739	32835	32640	32775	32775	
23	0	32780	32679	32707	32775	32525	32757	32797	32631	
24	0	32736	32692	32695	32703	32660	32563	32743	32631	
25	0	32743	32619	32775	32711	32619	32713	32573	32767	
26	0	32751	32485	32762	32677	32443	32611	32515	32631	
27	0	32806	32663	32730	32677	32790	32763	32707	32621	
28	0	32786	32769	32828	32775	32827	32765	32727	32709	
29	0	32817	32727	32796	32735	32495	32638	32607	32541	
30	0	32804	32735	32759	32751	32836	32610	32573	32673	
31	0	32713	32658	32738	32751	32785	32705	32483	32615	
32	0	32801	32615	32734	32743	32709	32799	32501	32709	
33	0	32804	32743	32679	32679	32751	32957	32551	32463	
34	0	32773	32727	32817	32701	32799	32933	32609	32631	
35	0	32805	32639	32727	32678	32603	32788	32647	32725	
36	0	32748	32509	32791	32659	33119	32655	32591	32833	
37	0	32731	32703	32807	32757	32767	32887	32765	32659	
38	0	32762	32687	32770	32673	32583	32833	33503	32711	
39	0	32775	32766	32715	32623	32647	32609	33444	32799	
40	0	32765	32636	32798	32551	32930	32731	33284	32775	
41	0	32769	32612	32697	32603	32811	32621	32834	32671	
42	0	32743	32663	32775	32663	32694	32890	32742	32703	
43	0	32772	32699	32715	32662	32739	32979	32647	32685	
44	0	32754	32646	32707	32685	32527	32743	32583	32725	
45	0	32775	32638	32775	32662	32807	32860	32540	32607	
46	0	32698	32719	32691	32615	32775	32567	32447	32775	
47	0	32741	32696	32743	32631	32647	32751	32597	32692	
48	0	32780	32835	32801	32709	32979	32687	32831	32731	
49	0	32733	32615	32737	32635	32639	32811	32843	32769	
50	0	32775	32767	32719	32709	32820	32869	32898	32529	
51	0	32745	32723	32796	32867	32959	32676	32879	32591	
52	0	32839	32765	32725	32673	32674	32771	32707	32591	
53	0	32807	32575	32899	32812	32895	32559	32349	32447	
54	0	32751	32669	32721	32788	32827	32759	32054	32671	
55	0	32771	32646	32719	32802	32879	32765	31861	32587	
56	0	32743	32719	32739	32775	32957	32763	31873	32510	
57	0	32719	32487	32695	32733	32733	32814	32285	32621	
58	0	32764	32575	32719	32737	32437	32803	32807	32775	
59	0	32797	32739	32764	32679	32590	32793	33083	32610	
60	0	32796	32690	32740	32771	32794	32595	33050	32839	
61	0	32763	32799	32775	32769	32847	32599	32991	32742	
62	0	32735	32647	32806	32743	32903	32754	32959	32587	
63	0	32758	32514	32743	32745	32893	32691	32919	32755	
64	0	32751	32699	32809	32769	32813	32678	32802	32647	
65	0	32762	32727	32803	32727	32639	32775	32767	32759	
66	0	32783	32647	32790	32657	32273	32841	32881	32587	
67	0	32775	32751	32793	32671	32754	32797	32846	32711	
68	0	32791	32569	32763	32647	32738	32613	32493	32718	
69	0	32764	32799	32731	32673	32660	32727	32263	32791	
70	0	32807	32701	32775	32719	32807	32795	32359	32591	
71	0	32802	32743	32715	32639	32683	32812	32807	32577	
72	0	32732	32518	32658	32633	32495	32711	33079	32695	
73	0	32847	32701	32762	32667	32775	32590	32869	32671	
74	0	32802	32829	32743	32763	32757	32821	32647	32727	
75	0	32789	32711	32661	32799	32639	32763	32658	32749	
76	0	32721	32775	32729	32727	33039	32647	32847	32562	
77	0	32766	32623	32767	32754	33255	32791	33475	32717	
78	0	32748	32775	32735	32679	32879	32657	33495	32684	
79	0	32760	32775	32815	32815	32845	32769	33031	32436	
80	0	32743	32703	32735	32734	32871	32775	32599	32564	
81	0	32736	32519	32687	32767	32754	32623	32263	32631	
82	0	32765	32631	32759	32769	32551	32788	32167	32646	
83	0	32791	32663	32733	32767	32492	32860	32391	32621	
84	0	32772	32809	32727	32771	32839	32811	32551	32757	
85	0	32738	32518	32748	32727	32639	32679	32527	32621	
86	0	32775	32687	32699	32759	32551	32551	32449	32667	
87	0	32767	32727	32791	32805	32582	32605	32923	32529	
88	0	32711	32642	32742	32791	32739	32478	33226	32761	
89	0	32745	32603	32676	32805	32710	32647	33071	32773	
90	0	32748	32699	32767	32797	32663	32749	32877	32887	
91	0	32664	32693	32742	32783	32765	32843	32827	32738	
92	0	32751	32703	32743	32743	33086	32775	32869	32573	
93	0	32783	32685	32775	32775	32983	32726	32559	32617	
94	0	32771	32567	32711	32742	32655	32845	32407	32623	
95	0	32728	32548	32711	32733	32822	33100	32444	32883	
96	0	32749	32773	32791	32692	32655	32723	32551	32783	
97	0	32815	32659	32807	32723	32623	32707	32900	32635	
98	0	32762	32725	32830	32743	32503	32763	32927	32735	
99	0	32757	32517	32852	32695	32842	32711	32863	33031	
100	0	32773	32619	32719	32597	32983	32914	32855	32615	
101	0	32701	32694	32718	32621	32927	32862	32773	32683	
102	0	32838	32693	32765	32628	32591	32685	32679	32658	
103	0	32814	32767	32717	32607	32686	32772	32802	32690	
104	0	32724	32613	32671	32711	32993	32775	32671	32527	
105	0	32804	32722	32742	32645	32735	32860	32743	32638	
106	0	32763	32677	32679	32660	32538	32751	32455	32662	
107	0	32763	32751	32773	32647	32386	32615	32221	32564	
108	0	32775	32559	32774	32663	32447	32717	32436	32465	
109	0	32804	32629	32719	32647	32871	32799	32562	32607	
110	0	32712	32735	32759	32687	32925	32631	32559	32548	
111	0	32750	32719	32771	32641	32899	32635	32570	32679	
112	0	32735	32677	32773	32615	32991	32545	32557	32455	
113	0	32775	32604	32813	32655	32655	32647	32803	32615	
114	0	32768	32743	32701	32707	32509	32850	32997	32681	
115	0	32769	32733	32815	32681	32877	32803	32875	32756	
116	0	32770	32615	32739	32637	32839	32799	32759	32647	
117	0	32717	32597	32795	32625	32647	32687	32903	32767	
118	0	32712	32755	32772	32685	32764	32599	32873	32581	
119	0	32701	32687	32761	32631	32999	32923	32837	32566	
120	0	32756	32623	32791	32677	32935	33436	32999	32635	
121	0	32715	32692	32742	32770	33031	32805	33078	32663	
122	0	32685	32681	32767	32692	32671	32647	32999	32722	
123	0	32756	32647	32647	32653	32908	32815	32993	32483	
124	0	32747	32762	32679	32631	32839	32755	32831	32842	
125	0	32723	32631	32745	32631	32639	32869	32800	32849	
126	0	32790	32701	32759	32742	32557	32812	32861	32690	
127	0	32802	32763	32786	32775	32331	32767	32405	32755	
128	0	32812	32583	32697	32775	32644	32561	31978	32755	
129	0	32775	32759	32765	32775	32613	32743	32023	32607	
130	0	32831	32783	32711	32755	32867	32738	32146	32635	
131	0	32764	32643	32803	32667	32727	32747	32519	32667	
132	0	32829	32557	32749	32703	32591	32615	32951	32565	
133	0	32750	32709	32759	32740	32770	32831	32895	32516	
134	0	32731	32703	32815	32783	32953	32793	32709	32723	
135	0	32742	32702	32775	32799	32852	32759	32382	32647	
136	0	32789	32772	32706	32809	32573	32636	32595	32684	
137	0	32778	32563	32773	32775	32820	32567	32677	32439	
138	0	32805	32689	32809	32802	32879	32846	32823	32625	
139	0	32773	32743	32743	32758	32844	32707	32919	32705	
140	0	32824	32791	32770	32791	33185	32583	33309	32781	
141	0	32814	32551	32711	32822	33181	32471	33198	32791	
142	0	32817	32750	32751	32811	33010	32702	32695	32703	
143	0	32846	32727	32759	32769	32933	32921	32644	32511	
144	0	32773	32791	32757	32709	32852	32957	32607	32655	
145	0	32834	32548	32749	32759	32803	32703	33211	32607	
146	0	32861	32791	32839	32751	32491	32817	33591	32541	
147	0	32879	32785	32791	32764	32659	32795	32945	32591	
148	0	32854	32638	32782	32685	32597	32879	32831	32610	
149	0	32823	32711	32793	32683	32433	32770	32810	32741	
150	0	32855	32725	32735	32639	32751	32695	33122	32558	
151	0	32887	32815	32869	32679	32775	32604	32869	32695	
152	0	32861	32647	32764	32709	32845	32637	32471	32605	
153	0	32896	32731	32852	32740	32955	32509	32199	32373	
154	0	32861	32742	32765	32687	32557	32581	32111	32559	
155	0	32839	32681	32860	32655	32957	32461	32271	32619	
156	0	32868	32703	32823	32632	32631	32557	32541	32671	
157	0	32809	32535	32839	32681	32603	32683	32507	32443	
158	0	32841	32627	32807	32679	32767	32690	32567	32570	
159	0	32877	32684	32903	32727	32564	32634	32755	32506	
160	0	32862	32699	32903	32638	32460	32405	32843	32540	
161	0	32831	32623	32903	32660	32822	32703	32820	32471	
162	0	32938	32581	32941	32660	32642	32749	32903	32575	
163	0	32894	32599	32876	32587	32435	32820	32893	32621	
164	0	32865	32551	32891	32535	32772	32959	32854	32718	
165	0	32807	32599	32963	32593	32567	32869	32775	32593	
166	0	32745	32477	32883	32541	32471	32783	32598	32647	
167	0	32720	32669	32887	32647	32814	32811	32647	32798	
168	0	32679	32671	32843	32599	32727	32802	32684	32658	
169	0	32679	32542	32868	32705	32583	32764	32655	32691	
170	0	32769	32543	32923	32617	32839	32933	32645	32853	
171	0	32639	32582	32797	32647	32827	32911	32519	32731	
172	0	32603	32519	32765	32589	32574	32807	32575	32785	
173	0	32617	32469	32716	32633	32985	32751	32631	32821	
174	0	32596	32365	32671	32607	32847	32818	32623	32735	
175	0	32628	32597	32759	32671	32831	32579	32477	32751	
176	0	32620	32675	32687	32713	32675	32775	32683	32855	
177	0	32669	32578	32593	32749	32963	33030	32789	32863	
178	0	32559	32667	32487	32691	32815	32923	32901	32869	
179	0	32518	32662	32535	32731	32833	32852	33223	32687	
180	0	32534	32621	32427	32725	33049	32863	32775	32899	
181	0	32455	32815	32353	32867	32871	32999	32663	32959	
182	0	32441	32850	32342	32987	32846	32903	32791	32843	
183	0	32387	32685	32311	33083	33097	33006	32659	33015	
184	0	32325	32723	32205	33191	32997	32935	32546	33131	
185	0	32210	32834	32015	33259	32676	33035	32210	33351	
186	0	32103	32847	31979	33359	33159	33229	32031	33365	
187	0	32028	32975	32059	33351	33175	33319	31923	33561	
188	0	32196	32759	32117	33227	32803	33277	32113	33303	
189	0	32367	32771	32327	33031	32939	33052	32295	33391	
190	0	32511	32797	32549	32997	32982	32999	32421	32887	
191	0	32574	32687	32631	32829	32911	32767	32612	32967	
192	0	32694	32715	32719	32855	32815	32903	32694	32791	
193	0	32807	32489	32947	32716	32508	32895	32699	32735	
194	0	32919	32647	32903	32589	32548	32803	32902	32583	
195	0	32886	32586	32955	32605	33179	32667	33063	32479	
196	0	32963	32700	32871	32525	32847	32570	32834	32533	
197	0	33007	32599	32962	32595	32859	32485	33063	32515	
198	0	33052	32684	32982	32583	32639	32789	33159	32775	
199	0	32989	32539	32967	32493	32829	32272	33159	32631	
200	0	32980	32457	33065	32543	32799	32495	32915	32548	
201	0	33055	32679	33093	32573	32444	32607	33135	32435	
202	0	33060	32735	33053	32663	32293	32646	33679	32343	
203	0	32981	32743	32961	32701	32449	32719	33367	32391	
204	0	32949	32775	32963	32681	32435	32540	33102	32285	
205	0	33016	32662	32916	32831	32647	32668	32947	32219	
206	0	33028	32814	32883	32771	32767	32750	32549	32380	
207	0	33007	32755	32903	32695	32599	32943	32347	32295	
208	0	32970	32755	32941	32606	32471	32700	32147	32349	
209	0	32976	32805	32903	32669	32471	32427	32285	32428	
210	0	32993	32845	32871	32599	32725	32526	32543	32551	
211	0	33017	32751	32927	32607	32817	32307	32789	32542	
212	0	32941	32663	32847	32518	32636	32066	33159	32436	
213	0	32971	32831	32827	32578	32971	32319	33242	32347	
214	0	32943	32927	32818	32621	32747	33020	33236	32306	
215	0	32960	32823	32863	32679	32617	32812	33215	32454	
216	0	32951	32879	32851	32721	32917	32763	32973	32467	
217	0	32945	32671	32871	32703	32694	32797	32687	32459	
218	0	32874	32753	32806	32753	32722	32999	32503	32420	
219	0	32879	32718	32790	32775	32784	32787	32319	32551	
220	0	32916	32783	32858	32671	32551	32692	32308	32692	
221	0	32900	32647	32775	32751	33206	32669	32349	32527	
222	0	32872	32639	32799	32711	32951	32881	32751	32525	
223	0	32855	32671	32835	32735	32983	32895	32900	32529	
224	0	32856	32742	32805	32722	32903	32629	32726	32459	
225	0	32793	32669	32735	32756	32679	32700	32842	32663	
226	0	32772	32647	32767	32783	33039	32719	32791	32519	
227	0	32745	32731	32686	32715	33265	33133	32647	32706	
228	0	32661	32659	32791	32727	33254	32723	32647	32679	
229	0	32676	32679	32695	32767	32893	32595	32549	32630	
230	0	32742	32503	32719	32775	32673	32501	32775	32916	
231	0	32789	32611	32764	32767	32923	32454	32671	33175	
232	0	32805	32701	32733	32701	32437	32775	32437	32943	
233	0	32741	32645	32767	32823	32671	32879	32629	32469	
234	0	32774	32391	32743	32694	32861	32971	32503	32633	
235	0	32771	32677	32749	32607	33170	33063	32613	32645	
236	0	32792	32687	32789	32607	32881	32854	33063	32791	
237	0	32736	32774	32679	32743	32678	32619	32847	32717	
238	0	32708	32549	32811	32679	32819	32383	32387	32834	
239	0	32699	32803	32719	32701	32734	32385	32640	32663	
240	0	32678	32735	32679	32676	32438	32629	33082	32694	
241	0	32683	32739	32766	32639	32463	33260	33373	32551	
242	0	32647	32562	32734	32666	32405	33166	33599	32821	
243	0	32696	32775	32692	32629	32463	32567	33863	32925	
244	0	32694	32719	32775	32764	32629	32490	33195	32635	
245	0	32747	32799	32716	32764	32363	32477	32459	32483	
246	0	32685	32562	32831	32748	32378	32878	32087	32519	
247	0	32711	32699	32775	32693	32647	32613	31969	32791	
248	0	32775	32695	32711	32687	32460	32633	31639	32805	
249	0	32736	32647	32757	32711	32469	32767	31559	32691	
250	0	32669	32495	32743	32668	32621	32803	31960	32687	
251	0	32673	32631	32706	32786	32631	32815	32549	32525	
252	0	32743	32719	32775	32759	32255	32673	32751	32583	
253	0	32735	32613	32684	32711	32743	32925	32647	32739	
254	0	32686	32711	32772	32739	32879	32788	32675	32639	
255	0	32761	32655	32775	32807	33111	32511	32719	32757	
256	0	32708	32535	32734	32735	32827	32717	32741	32850	
257	0	32732	32775	32676	32695	33031	32771	32881	32937	
258	0	32719	32720	32749	32719	32858	32922	33247	32677	
259	0	32722	32761	32621	32791	32733	32831	33074	32647	
260	0	32788	32617	32748	32647	33103	32735	32859	32734	
261	0	32801	32749	32764	32675	32863	32795	32775	32647	
262	0	32767	32771	32706	32700	32687	32711	32670	32715	
263	0	32740	32770	32775	32727	32915	32726	32613	32639	
264	0	32770	32658	32727	32763	32658	32738	32674	32647	
265	0	32756	32706	32811	32802	32562	32827	32701	32876	
266	0	32737	32795	32711	32805	32695	32647	32670	32661	
267	0	32735	32647	32767	32731	32718	32765	32628	32679	
268	0	32726	32743	32707	32711	32835	32577	32772	32604	
269	0	32723	32717	32812	32695	32599	32623	32979	32799	
270	0	32775	32555	32749	32727	32479	32525	32975	32879	
271	0	32756	32715	32751	32583	32647	32757	32991	32535	
272	0	32753	32647	32773	32598	32597	32794	32599	32623	
273	0	32743	32615	32839	32647	32678	32949	32597	32637	
274	0	32744	32565	32844	32690	32751	32941	32578	32713	
275	0	32799	32742	32740	32646	33075	32738	32687	32589	
276	0	32797	32659	32737	32630	32868	32846	32765	32647	
277	0	32808	32719	32797	32740	32895	32747	32791	32646	
278	0	32791	32683	32764	32775	32891	32596	32703	32681	
279	0	32802	32603	32767	32786	32987	32751	32687	32747	
280	0	32782	32489	32679	32743	33039	32759	32599	32501	
281	0	32729	32669	32775	32759	32647	32663	32431	32671	
282	0	32766	32698	32773	32674	32879	32831	32279	32711	
283	0	32765	32663	32709	32686	32647	32711	32287	32663	
284	0	32746	32743	32738	32647	32540	32615	32423	32735	
285	0	32793	32621	32751	32677	32461	32705	32659	32516	
286	0	32795	32663	32723	32717	32699	32703	32924	32719	
287	0	32718	32775	32732	32695	32771	32695	32773	32661	
288	0	32751	32679	32775	32749	32797	32735	32874	32676	
289	0	32695	32735	32711	32739	32757	32637	32773	32799	
290	0	32763	32571	32809	32753	32866	32771	32799	32621	
291	0	32702	32503	32683	32788	32819	32527	32775	32643	
292	0	32735	32647	32663	32809	32727	32687	32751	32725	
293	0	32751	32605	32711	32719	32786	32877	32795	32749	
294	0	32763	32703	32751	32751	32791	32695	32707	32745	
295	0	32708	32759	32759	32726	32941	32791	32711	32839	
296	0	32761	32749	32706	32620	32918	32962	32819	32646	
297	0	32708	32634	32834	32677	32775	32855	32871	32579	
298	0	32749	32532	32742	32665	32617	32863	32929	32677	
299	0	32723	32699	32831	32679	33087	32897	32877	32677	
300	0	32743	32703	32763	32679	32727	32835	32887	32732	
301	0	32786	32740	32789	32727	32749	32559	32812	32795	
302	0	32775	32549	32850	32743	32741	32745	32735	32535	
303	0	32764	32706	32807	32687	32797	32751	32711	32647	
304	0	32698	32663	32766	32666	32730	32925	32539	32639	
305	0	32694	32717	32823	32740	32429	32795	32223	32694	
306	0	32770	32607	32763	32719	32585	32631	31991	32864	
307	0	32751	32635	32735	32735	32767	32683	32227	32639	
308	0	32802	32789	32725	32750	32675	32391	32323	32700	
309	0	32761	32741	32754	32745	32647	32711	32484	32551	
310	0	32724	32647	32849	32751	32831	33052	32943	32489	
311	0	32755	32505	32797	32699	32559	32843	32612	32359	
312	0	32804	32711	32788	32717	32783	33141	32471	32351	
313	0	32775	32719	32847	32631	32773	32700	32543	32639	
314	0	32773	32751	32775	32602	32730	32978	32947	32607	
315	0	32790	32671	32655	32692	32773	32773	33014	32724	
316	0	32753	32551	32753	32686	32775	32734	33242	32489	
317	0	32821	32710	32748	32709	32715	32813	33743	32687	
318	0	32831	32711	32823	32703	33383	33002	34141	32790	
319	0	32759	32607	32754	32723	33039	32786	33395	32783	
320	0	32783	32583	32701	32707	32717	32459	32927	32839	
321	0	32813	32772	32818	32690	32707	32579	32577	32941	
322	0	32809	32723	32755	32681	32527	32667	32125	32865	
323	0	32781	32730	32771	32667	32483	32695	32237	32899	
324	0	32775	32559	32775	32655	32561	32731	32605	32595	
325	0	32775	32745	32791	32681	32429	32781	32495	32677	
326	0	32803	32717	32724	32663	32405	32798	32571	32605	
327	0	32765	32749	32723	32691	32865	32742	32733	32807	
328	0	32749	32550	32687	32662	32735	32711	32647	32643	
329	0	32719	32758	32723	32684	32555	32623	32631	32679	
330	0	32757	32639	32711	32703	32935	32743	32601	32690	
331	0	32781	32703	32757	32647	32879	32759	32627	32819	
332	0	32759	32626	32737	32647	32884	32591	32759	32927	
333	0	32745	32510	32703	32647	32879	32647	32837	32541	
334	0	32759	32721	32759	32827	32964	32687	32823	32647	
335	0	32807	32683	32698	32775	32895	32775	32791	32607	
336	0	32799	32763	32767	32811	32783	32629	32647	32647	
337	0	32852	32775	32783	32759	32831	32706	32411	32813	
338	0	32810	32687	32789	32804	32849	32551	32205	32501	
339	0	32832	32602	32727	32825	32933	32828	32163	32482	
340	0	32815	32788	32787	32815	32771	32869	32447	32543	
341	0	32782	32735	32761	32815	32726	32660	32486	32659	
342	0	32805	32511	32715	32767	32647	32595	32634	32612	
343	0	32825	32679	32755	32749	32769	33239	32823	32706	
344	0	32831	32657	32763	32743	32838	33229	32877	32683	
345	0	32749	32747	32843	32741	32707	32957	33103	32729	
346	0	32763	32602	32732	32719	32815	32803	33601	32495	
347	0	32836	32735	32745	32647	32865	32701	33639	32714	
348	0	32773	32732	32711	32731	32751	32581	33759	32707	
349	0	32745	32501	32711	32708	32742	32734	32804	32683	
350	0	32727	32711	32745	32738	32451	32939	32041	32700	
351	0	32767	32700	32743	32759	32739	32756	32143	32703	
352	0	32712	32567	32787	32734	32708	32621	32363	32758	
353	0	32775	32615	32701	32763	32775	32519	32466	32815	
354	0	32775	32775	32757	32747	32469	32404	32343	32851	
355	0	32796	32702	32718	32807	32555	32667	32412	32547	
356	0	32789	32790	32743	32732	32495	32717	32643	32585	
357	0	32758	32551	32775	32802	32562	32989	32635	32647	
358	0	32830	32773	32743	32797	32701	33279	32647	32599	
359	0	32761	32725	32758	32711	33094	32964	32743	32684	
360	0	32745	32639	32791	32739	33051	32787	32771	32483	
361	0	32765	32643	32715	32713	33103	32687	32677	32647	
362	0	32695	32647	32773	32804	32564	32644	32555	32619	
363	0	32717	32755	32704	32771	32439	32703	32663	32698	
364	0	32743	32628	32807	32783	32847	32852	32699	32539	
365	0	32743	32767	32683	32691	32628	32799	32647	32647	
366	0	32730	32691	32775	32679	32687	32647	32591	32719	
367	0	32729	32655	32763	32707	32804	32751	32639	32733	
368	0	32732	32603	32807	32663	32571	32935	32677	32839	
369	0	32751	32735	32864	32748	32861	32922	32739	32549	
370	0	32723	32727	32754	32745	32723	32947	32736	32791	
371	0	32808	32614	32797	32715	32679	32570	32731	32732	
372	0	32773	32690	32786	32703	32759	32615	32831	32714	
373	0	32799	32787	32769	32727	32811	32957	32854	32767	
374	0	32807	32797	32743	32751	32671	32883	32827	32791	
375	0	32767	32643	32723	32787	33123	32739	32694	32626	
376	0	32714	32527	32813	32713	32797	32708	32740	32596	
377	0	32732	32751	32829	32685	32787	32803	32877	32698	
378	0	32797	32647	32751	32717	32977	32655	32867	32647	
379	0	32752	32689	32775	32675	32991	32692	32806	32687	
380	0	32775	32614	32735	32605	32711	32639	32711	32661	
381	0	32791	32575	32757	32661	32967	32719	32500	32733	
382	0	32770	32676	32716	32660	32727	32745	32484	32516	
383	0	32791	32787	32714	32661	32305	32794	32674	32727	
384	0	32780	32574	32703	32659	32639	32836	32543	32679	
385	0	32775	32585	32789	32679	32690	32685	32255	32751	
386	0	32759	32659	32715	32674	32545	32706	32276	32590	
387	0	32708	32773	32711	32561	32837	32586	32511	32783	
388	0	32764	32549	32773	32599	32497	32641	32671	32643	
389	0	32766	32825	32695	32676	32391	32725	33119	32621	
390	0	32775	32632	32742	32743	32887	32815	33231	32647	
391	0	32771	32775	32723	32695	32791	32845	33222	32391	
392	0	32780	32531	32723	32647	33013	33031	32716	32636	
393	0	32708	32719	32765	32679	33191	32723	32575	32647	
394	0	32753	32711	32727	32671	32501	32745	32773	32775	
395	0	32788	32566	32790	32679	32937	32558	32927	32599	
396	0	32711	32619	32733	32703	32807	32707	33181	32687	
397	0	32685	32802	32725	32758	33207	32797	32893	32647	
398	0	32735	32791	32770	32639	33397	32679	32841	32685	
399	0	32729	32811	32638	32660	32799	32683	32951	32479	
400	0	32735	32543	32837	32699	32575	32761	32692	32479	
401	0	32781	32725	32759	32671	32821	32711	32455	32558	
402	0	32735	32659	32727	32715	32639	32689	32423	32567	
403	0	32759	32719	32772	32731	32583	32737	32540	32585	
404	0	32769	32749	32695	32756	32679	32757	32644	32724	
405	0	32791	32579	32719	32871	32581	32903	32742	32775	
406	0	32813	32647	32772	32758	32719	32743	32914	32682	
407	0	32814	32735	32703	32825	33043	32982	32735	32871	
408	0	32775	32759	32702	32839	32485	32621	32935	33023	
409	0	32764	32805	32765	32759	32391	32167	32631	32977	
410	0	32771	32639	32749	32807	32743	32515	32555	32855	
411	0	32719	32588	32735	32726	32631	32836	32451	32695	
412	0	32729	32743	32759	32828	32719	32881	32454	32719	
413	0	32768	32735	32713	32765	32887	32997	32509	32469	
414	0	32733	32799	32759	32743	33239	32719	32533	32439	
415	0	32758	32690	32697	32703	32999	32793	32718	32679	
416	0	32734	32645	32740	32722	32943	32847	32666	32707	
417	0	32795	32733	32775	32634	32835	32775	32625	32827	
418	0	32715	32607	32701	32593	32759	32711	32655	32805	
419	0	32748	32629	32663	32691	32975	32786	32733	32647	
420	0	32740	32641	32742	32717	32838	32759	32815	32537	
421	0	32716	32691	32783	32678	32815	32789	32775	32621	
422	0	32762	32514	32719	32811	32775	32686	32815	32607	
423	0	32789	32719	32787	32791	32611	32681	32847	32673	
424	0	32753	32731	32723	32740	32479	32621	32841	32523	
425	0	32738	32663	32788	32751	32850	32790	32741	32567	
426	0	32712	32612	32765	32814	32807	32679	32749	32593	
427	0	32789	32647	32789	32639	32686	32810	32735	32676	
428	0	32763	32759	32755	32629	32705	32815	32607	32503	
429	0	32807	32685	32695	32669	32597	32805	32661	32595	
430	0	32726	32739	32775	32679	32855	32759	32785	32643	
431	0	32775	32511	32731	32623	32786	32804	32860	32759	
432	0	32769	32761	32757	32693	32839	32717	32765	32807	
433	0	32771	32775	32735	32679	32877	32821	32759	32749	
434	0	32843	32555	32751	32709	32903	32733	32947	32597	
435	0	32763	32743	32719	32738	32935	32739	32900	32522	
436	0	32756	32631	32790	32719	32967	32681	32813	32519	
437	0	32767	32697	32767	32745	32873	32775	32855	32669	
438	0	32712	32485	32681	32645	32745	32807	32653	32647	
439	0	32738	32643	32762	32709	32775	32794	32347	32679	
440	0	32738	32687	32711	32693	32706	32699	32399	32615	
441	0	32749	32751	32810	32659	32337	32647	33088	32663	
442	0	32775	32574	32759	32758	32621	32727	33735	32559	
443	0	32756	32647	32751	32798	32646	32745	33349	32677	
444	0	32738	32711	32678	32773	32634	32731	32589	32551	
445	0	32790	32643	32722	32775	32645	33050	32399	32687	
446	0	32761	32755	32775	32726	32242	32913	32327	32679	
447	0	32756	32677	32716	32764	32607	32675	32596	32647	
448	0	32701	32727	32759	32707	32430	32611	32941	32647	
449	0	32706	32543	32726	32729	32519	32727	32639	32819	
450	0	32773	32673	32767	32731	32981	32605	32239	32947	
451	0	32750	32783	32757	32711	32753	32603	32209	32771	
452	0	32751	32740	32677	32679	32684	32558	32355	32793	
453	0	32703	32822	32708	32675	33027	32599	32365	32621	
454	0	32727	32615	32725	32671	32859	32530	32181	32818	
455	0	32734	32589	32752	32647	32871	32519	32331	32676	
456	0	32717	32799	32786	32713	32967	32914	32629	32684	
457	0	32734	32695	32791	32748	32823	32814	33031	32719	
458	0	32741	32749	32767	32751	32772	32951	33426	32535	
459	0	32756	32553	32703	32822	32875	33220	33341	32657	
460	0	32794	32727	32735	32738	32866	33071	33011	32757	
461	0	32773	32726	32794	32786	32895	32987	32903	32684	
462	0	32796	32759	32797	32751	32725	32919	32903	32754	
463	0	32774	32571	32767	32692	32575	32639	32612	32723	
464	0	32782	32709	32749	32749	32719	32549	32239	32592	
465	0	32727	32663	32679	32754	32638	32963	32159	32691	
466	0	32762	32719	32786	32735	32543	32735	32207	32639	
467	0	32762	32545	32722	32743	32775	32660	32461	32698	
468	0	32756	32623	32750	32756	32554	32513	32789	32631	
469	0	32743	32728	32695	32583	32815	32617	32835	32681	
470	0	32812	32619	32713	32641	32815	32838	32701	32739	
471	0	32718	32695	32701	32647	32703	32894	32823	32710	
472	0	32703	32646	32742	32699	32707	32583	32893	32747	
473	0	32756	32759	32719	32615	32533	32674	32967	32571	
474	0	32774	32575	32786	32711	33015	33089	32933	32668	
475	0	32813	32679	32783	32690	32903	32935	32850	32621	
476	0	32723	32671	32751	32807	32679	32757	32701	32719	
477	0	32783	32583	32727	32759	32623	32716	32623	32613	
478	0	32742	32676	32701	32755	32455	32639	32647	32661	
479	0	32743	32685	32758	32725	32821	32715	32423	32612	
480	0	32749	32575	32771	32775	33079	32965	32609	32683	
481	0	32724	32623	32807	32738	33050	32787	33004	32642	
482	0	32732	32661	32733	32761	33039	32711	32853	32547	
483	0	32798	32747	32705	32715	32607	32527	32631	32615	
484	0	32746	32831	32796	32759	32607	32571	32757	32695	
485	0	32796	32675	32747	32671	32605	32679	33191	32665	
486	0	32721	32666	32738	32724	32386	32847	32915	32671	
487	0	32705	32743	32797	32751	32683	32731	32585	32677	
488	0	32735	32677	32743	32738	32703	32529	32551	32765	
489	0	32826	32741	32805	32721	32668	32775	32635	32559	
490	0	32799	32591	32751	32749	32900	32823	32601	32578	
491	0	32727	32596	32727	32765	32823	32695	32855	32739	
492	0	32791	32759	32709	32756	32547	32785	32689	32631	
493	0	32800	32667	32701	32745	32871	32599	32643	32701	
494	0	32805	32727	32737	32719	32748	32833	32661	32759	
495	0	32749	32589	32764	32727	32677	32775	32683	32575	
496	0	32774	32563	32795	32695	32887	32687	32636	32578	
497	0	32751	32718	32773	32735	32735	32743	32644	32585	
498	0	32734	32771	32741	32713	32743	32699	32711	32615	
499	0	32765	32685	32789	32689	32741	32771	32848	32679	
500	0	32745	32742	32810	32677	32719	32791	32923	32700	
501	0	32793	32565	32783	32699	32763	32572	32713	32751	
502	0	32786	32703	32775	32647	32815	32743	32711	32737	
503	0	32812	32788	32783	32799	32839	32787	32660	32591	
504	0	32823	32712	32793	32807	32717	32647	32770	32487	
505	0	32828	32766	32755	32820	32711	32739	32979	32691	
506	0	32844	32607	32749	32660	32629	32535	32989	32711	
507	0	32826	32775	32807	32835	32715	32743	32843	32694	
508	0	32845	32634	32751	32685	32797	32775	32734	32663	
509	0	32828	32683	32738	32727	32859	32631	32676	32732	
510	0	32773	32715	32775	32685	32892	32669	32843	32695	
511	0	32807	32695	32757	32687	32847	32711	32735	32710	
512	0	32761	32719	32783	32711	32715	32662	32639	32729	
513	0	32750	32635	32749	32695	33007	32756	32641	32570	
514	0	32719	32692	32794	32631	32975	32788	32605	32691	
515	0	32743	32695	32751	32612	32918	32759	32668	32630	
516	0	32735	32723	32735	32631	32715	32791	32723	32595	
517	0	32751	32642	32758	32637	32409	32852	32701	32738	
518	0	32793	32516	32797	32707	32438	32899	32759	32743	
519	0	32783	32703	32708	32771	32709	32853	32871	32577	
520	0	32712	32699	32769	32733	32679	32797	32811	32621	
521	0	32751	32669	32743	32708	32535	32954	32668	32788	
522	0	32769	32743	32694	32699	32766	32677	32764	32759	
523	0	32751	32797	32756	32758	32899	32681	33069	32660	
524	0	32771	32615	32709	32804	33007	32747	32839	32775	
525	0	32684	32567	32671	32771	32507	32703	32501	32807	
526	0	32781	32751	32743	32635	32749	32661	32479	32775	
527	0	32740	32755	32747	32603	32865	32895	32543	32647	
528	0	32791	32723	32713	32703	32537	32591	32594	32683	
529	0	32775	32783	32731	32642	32756	32527	32446	32662	
530	0	32732	32738	32755	32788	32509	32643	32822	32703	
531	0	32715	32471	32814	32731	32391	32647	33495	32621	
532	0	32789	32694	32823	32767	33143	32637	32945	32671	
533	0	32756	32678	32835	32725	33303	32563	32431	32567	
534	0	32677	32749	32751	32698	32797	32667	32611	32411	
535	0	32767	32565	32822	32627	32881	32917	32647	32717	
536	0	32761	32679	32815	32647	32727	32875	32639	32751	
537	0	32647	32642	32718	32683	32549	32694	32607	32755	
538	0	32710	32647	32762	32810	33099	32775	32717	32687	
539	0	32731	32647	32731	32775	33123	32701	32909	32514	
540	0	32726	32585	32663	32743	32769	32759	32802	32591	
541	0	32775	32543	32749	32703	33083	32895	32859	32717	
542	0	32750	32775	32775	32751	32911	32879	32754	32741	
543	0	32732	32727	32667	32735	32621	32719	32402	32755	
544	0	32699	32719	32735	32731	32604	32625	32183	32682	
545	0	32758	32771	32811	32761	32590	32655	32239	32775	
546	0	32770	32599	32786	32765	32335	32602	32525	32799	
547	0	32775	32468	32759	32725	32785	32879	32693	32549	
548	0	32760	32667	32685	32732	32807	32815	32503	32590	
549	0	32711	32694	32731	32695	32580	32807	32438	32659	
550	0	32724	32715	32701	32631	32867	32593	32791	32688	
551	0	32775	32699	32791	32666	32870	32737	32855	32675	
552	0	32781	32694	32783	32695	32671	32775	32789	32641	
553	0	32683	32599	32719	32647	33045	32647	32709	32642	
554	0	32753	32583	32805	32798	32895	32567	32796	32703	
555	0	32795	32679	32764	32855	32578	32702	32829	32491	
556	0	32811	32747	32719	32773	32919	33043	33119	32711	
557	0	32799	32743	32802	32723	32799	32945	33885	32715	
558	0	32821	32641	32709	32743	32807	32791	33739	32813	
559	0	32730	32546	32821	32724	32733	32741	32959	32675	
560	0	32839	32690	32715	32759	32669	32535	32775	32497	
561	0	32721	32775	32706	32786	32385	32663	32646	32647	
562	0	32735	32634	32769	32791	32415	32730	32188	32711	
563	0	32813	32769	32764	32749	32707	32822	32227	32679	
564	0	32834	32661	32714	32805	32645	32871	32518	32771	
565	0	32735	32567	32749	32751	32803	32711	32621	32540	
566	0	32790	32771	32757	32775	32715	32764	32685	32690	
567	0	32774	32711	32815	32773	32583	32655	32525	32709	
568	0	32775	32716	32803	32765	32935	32837	32556	32561	
569	0	32759	32783	32773	32700	32711	32671	32621	32701	
570	0	32786	32573	32807	32671	32495	32671	32551	32606	
571	0	32756	32567	32757	32615	32911	32620	32641	32527	
572	0	32748	32759	32719	32595	32887	32503	32721	32647	
573	0	32741	32711	32786	32607	32801	32598	32773	32591	
574	0	32701	32769	32751	32587	33002	32827	32813	32599	
575	0	32737	32767	32687	32642	32879	32900	32724	32574	
576	0	32775	32630	32783	32759	32813	32855	32447	32709	
577	0	32769	32539	32799	32681	32702	32738	32834	32551	
578	0	32745	32703	32751	32690	33067	32765	33111	32567	
579	0	32766	32735	32814	32735	32860	32829	32853	32725	
580	0	32788	32691	32821	32715	32359	32583	32555	32675	
581	0	32775	32687	32709	32743	32708	32655	32641	32659	
582	0	32783	32603	32831	32735	32671	32923	32903	32731	
583	0	32799	32604	32775	32727	32507	32959	32850	32511	
584	0	32828	32718	32671	32731	32873	32766	32747	32623	
585	0	32774	32731	32708	32695	32541	32599	32621	32871	
586	0	32742	32753	32727	32775	32541	32671	32506	32847	
587	0	32797	32578	32751	32661	32867	32494	32628	32831	
588	0	32811	32566	32739	32659	32911	32659	32943	32738	
589	0	32788	32767	32683	32685	32815	32647	32711	32787	
590	0	32781	32707	32765	32603	32974	32751	32631	32655	
591	0	32796	32775	32788	32590	32919	32719	32566	32663	
592	0	32797	32663	32770	32631	32731	32619	32423	32705	
593	0	32807	32564	32795	32647	32677	32713	32503	32772	
594	0	32749	32527	32749	32767	32804	32829	32851	32786	
595	0	32736	32534	32665	32724	32722	32596	32967	32738	
596	0	32690	32727	32637	32711	32783	32620	32921	32609	
597	0	32719	32765	32751	32758	32879	32706	32847	32677	
598	0	32734	32695	32707	32775	32943	32997	32773	32790	
599	0	32781	32718	32711	32711	32794	33083	32365	32645	
600	0	32731	32609	32768	32787	32647	32871	32261	32647	
601	0	32737	32598	32713	32760	32507	32715	32263	32686	
602	0	32709	32757	32775	32775	32463	32607	31927	32531	
603	0	32771	32698	32818	32735	32762	32629	32189	32543	
604	0	32839	32735	32775	32783	32959	32567	32620	32748	
605	0	32794	32553	32823	32735	32727	32742	33231	32680	
606	0	32769	32673	32771	32789	32679	32637	33287	32615	
607	0	32770	32669	32854	32775	32591	32767	33287	32501	
608	0	32775	32725	32804	32751	33191	33175	33223	32621	
609	0	32797	32663	32752	32723	33185	33046	33102	32685	
610	0	32798	32558	32827	32735	32828	32615	32830	32703	
611	0	32740	32733	32683	32759	32773	32637	32638	32887	
612	0	32757	32655	32815	32767	32949	32551	32548	32668	
613	0	32730	32721	32727	32679	32939	32827	32655	32741	
614	0	32754	32575	32740	32695	33005	32783	32804	32758	
615	0	32759	32551	32807	32679	32694	32713	32971	32634	
616	0	32832	32724	32717	32647	32583	32775	32866	32733	
617	0	32725	32703	32717	32634	32867	32611	32691	32629	
618	0	32765	32735	32797	32682	32871	32614	32605	32811	
619	0	32813	32553	32802	32644	32771	32647	32629	32700	
620	0	32815	32611	32787	32586	32734	32747	32587	32708	
621	0	32811	32631	32795	32643	32575	32795	32719	32519	
622	0	32756	32721	32775	32715	32547	32739	32839	32631	
623	0	32775	32487	32749	32738	32521	32667	32775	32602	
624	0	32694	32643	32685	32623	32732	32799	32719	32547	
625	0	32661	32749	32739	32671	32727	32755	32699	32527	
626	0	32646	32641	32709	32679	32487	32863	32681	32645	
627	0	32664	32804	32677	32722	32983	33043	32759	32751	
628	0	32705	32596	32775	32703	32923	32730	32677	32510	
629	0	32705	32759	32660	32655	32617	32743	32402	32641	
630	0	32721	32775	32698	32647	32647	32583	32566	32647	
631	0	32726	32629	32679	32637	32540	32703	32599	32762	
632	0	32721	32634	32765	32604	32797	32637	32660	32837	
633	0	32727	32743	32766	32678	32667	32677	32823	32711	
634	0	32743	32791	32797	32703	32799	32647	32897	32866	
635	0	32811	32599	32795	32759	32871	32654	32687	32820	
636	0	32771	32735	32745	32789	32839	32620	32719	32623	
637	0	32775	32703	32727	32735	32758	32745	32759	32709	
638	0	32766	32571	32723	32751	32731	32743	32690	32671	
639	0	32748	32666	32767	32749	33159	32775	32571	32837	
640	0	32775	32724	32711	32711	32721	32771	32663	32927	
641	0	32837	32706	32791	32695	32644	32783	32647	32605	
642	0	32797	32775	32732	32756	32599	32834	32533	32789	
643	0	32780	32533	32875	32823	32765	32583	32863	32667	
644	0	32818	32818	32786	32756	32741	32699	33283	32671	
645	0	32790	32759	32793	32787	32844	32731	33223	32375	
646	0	32707	32708	32765	32743	32615	32673	32846	32564	
647	0	32660	32635	32727	32727	32839	32693	32508	32533	
648	0	32775	32703	32722	32727	32511	32709	32515	32587	
649	0	32804	32735	32789	32775	32775	32727	32691	32501	
650	0	32735	32555	32682	32710	32879	32854	32827	32679	
651	0	32724	32687	32699	32839	32557	32839	32854	32531	
652	0	32749	32796	32759	32811	32732	33030	32999	32639	
653	0	32748	32695	32759	32759	32595	32970	32646	32759	
654	0	32815	32706	32725	32762	32845	32755	32517	32839	
655	0	32808	32691	32799	32751	32924	32615	32822	32617	
656	0	32844	32463	32747	32741	32903	32679	32711	32813	
657	0	32759	32759	32883	32751	32861	32615	32801	32767	
658	0	32775	32659	32769	32713	33117	32602	32932	32739	
659	0	32732	32743	32821	32771	32767	32501	32767	32765	
660	0	32733	32519	32717	32743	32604	32446	32807	32511	
661	0	32830	32747	32703	32751	32631	32578	32735	32561	
662	0	32760	32645	32726	32699	32551	32981	32709	32639	
663	0	32734	32732	32694	32707	32789	33119	32551	32647	
664	0	32715	32564	32767	32711	32685	32971	32551	32629	
665	0	32720	32735	32697	32732	32613	32799	32473	32709	
666	0	32742	32645	32759	32678	32805	32723	32311	32811	
667	0	32710	32671	32729	32725	32775	32659	32525	32647	
668	0	32775	32647	32708	32775	32647	32549	32982	32703	
669	0	32788	32727	32685	32788	32658	32604	32771	32621	
670	0	32781	32723	32690	32797	32719	32626	32823	32757	
671	0	32688	32795	32743	32775	32723	32763	33399	32717	
672	0	32722	32543	32687	32745	32903	32903	33179	32499	
673	0	32683	32717	32811	32855	32933	32631	32607	32669	
674	0	32705	32647	32751	32791	32838	32447	32690	32695	
675	0	32733	32765	32771	32762	32931	32555	32487	32647	
676	0	32724	32535	32759	32775	32967	32749	32663	32706	
677	0	32756	32708	32735	32723	32918	33182	32693	32695	
678	0	32687	32673	32805	32699	32769	32950	32517	32642	
679	0	32714	32671	32819	32804	32839	33051	32836	32679	
680	0	32742	32723	32733	32735	32629	32814	32903	32670	
681	0	32772	32599	32751	32775	32461	32623	32593	32767	
682	0	32766	32676	32690	32707	32855	32579	32843	32761	
683	0	32749	32747	32679	32781	32589	32671	32925	32755	
684	0	32775	32731	32759	32762	32377	32761	32707	32799	
685	0	32769	32755	32738	32775	32687	32635	32715	32557	
686	0	32732	32551	32711	32739	32667	32695	32775	32647	
687	0	32738	32757	32724	32741	32845	32690	32833	32690	
688	0	32783	32733	32757	32747	32935	32687	32731	32790	
689	0	32790	32647	32700	32739	32735	32655	32759	32687	
690	0	32766	32470	32759	32731	32735	32715	32915	32647	
691	0	32714	32719	32806	32763	32703	32862	32903	32748	
692	0	32764	32699	32735	32757	32631	32753	32799	32719	
693	0	32743	32471	32765	32743	33221	32797	32566	32831	
694	0	32759	32684	32769	32699	33004	32641	32647	32613	
695	0	32780	32690	32769	32681	32647	32676	32574	32549	
696	0	32775	32727	32727	32695	32876	32595	32495	32647	
697	0	32771	32507	32751	32739	32601	32693	32447	32647	
698	0	32754	32681	32687	32540	32850	32629	32407	32503	
699	0	32838	32645	32727	32703	32731	32695	32446	32559	
700	0	32764	32751	32741	32683	32701	32607	32495	32625	
701	0	32790	32663	32790	32647	32791	33031	32653	32503	
702	0	32790	32694	32815	32603	32574	32699	32877	32621	
703	0	32744	32769	32735	32615	32875	32751	33002	32493	
704	0	32740	32591	32739	32710	32828	32647	33351	32630	
705	0	32783	32759	32771	32759	32885	32551	33287	32789	
706	0	32784	32663	32806	32742	32773	32755	32948	32775	
707	0	32767	32639	32714	32725	32541	32750	33203	32713	
708	0	32746	32501	32749	32767	32559	32495	33403	32507	
709	0	32724	32815	32717	32727	32638	32491	32789	32751	
710	0	32757	32715	32767	32809	32639	32797	32335	32863	
711	0	32788	32722	32727	32719	32855	32879	32457	32812	
712	0	32735	32799	32735	32695	32679	32745	32591	32743	
713	0	32750	32571	32799	32647	32605	32859	32572	32807	
714	0	32807	32791	32711	32719	32785	32789	32678	32538	
715	0	32734	32643	32804	32719	32781	32580	32764	32607	
716	0	32748	32716	32749	32675	32720	32731	32815	32629	
717	0	32794	32612	32679	32695	32803	32676	32717	32667	
718	0	32796	32577	32738	32703	32783	32806	32759	32626	
719	0	32709	32751	32699	32658	32816	32839	32683	32683	
720	0	32756	32701	32715	32713	32789	32892	32507	32679	
721	0	32743	32679	32775	32695	32803	33011	32356	32807	
722	0	32739	32805	32810	32695	32494	33229	32535	32516	
723	0	32826	32615	32771	32722	32855	32867	32679	32646	
724	0	32753	32623	32839	32743	32903	32711	32805	32799	
725	0	32766	32681	32793	32769	32535	32551	32879	32887	
726	0	32751	32673	32756	32772	32706	32795	32903	32748	
727	0	32807	32715	32835	32678	32775	32775	32943	32635	
728	0	32734	32620	32739	32710	32773	32723	32799	32711	
729	0	32764	32579	32727	32671	32534	32682	32671	32451	
730	0	32791	32703	32773	32659	32887	32591	32593	32647	
731	0	32788	32669	32735	32667	32671	32613	32514	32647	
732	0	32759	32511	32815	32665	32535	32615	32489	32662	
733	0	32751	32564	32751	32631	32815	32743	32434	32711	
734	0	32893	32749	32802	32671	32937	32607	32658	32803	
735	0	32833	32647	32766	32671	32647	32687	32605	32671	
736	0	32815	32575	32701	32691	32847	32709	32557	32769	
737	0	32775	32573	32827	32773	32669	32775	32573	32655	
738	0	32775	32743	32765	32775	32751	32793	32599	32679	
739	0	32797	32725	32775	32745	32919	32595	32734	32715	
740	0	32790	32762	32783	32775	32711	32679	32951	32479	
741	0	32809	32647	32736	32775	32571	32642	32934	32687	
742	0	32743	32805	32821	32771	32804	32703	32769	32668	
743	0	32758	32710	32703	32871	32731	32763	32847	32615	
744	0	32754	32807	32757	32803	32522	32887	32903	32705	
745	0	32783	32571	32795	32735	32923	32861	32999	32647	
746	0	32769	32567	32769	32668	32895	32647	32999	32586	
747	0	32717	32694	32751	32687	32773	32741	33082	32637	
748	0	32690	32791	32775	32703	32555	32662	32903	32869	
749	0	32766	32647	32799	32719	32610	32639	32803	32847	
750	0	32768	32711	32764	32599	32573	32555	32511	32861	
751	0	32710	32802	32684	32647	32803	32766	32433	32621	
752	0	32770	32549	32706	32567	32703	32669	32491	32701	
753	0	32739	32551	32685	32631	32555	32751	32599	32599	
754	0	32765	32667	32795	32637	32999	32775	32359	32647	
755	0	32786	32683	32692	32597	33007	32798	32397	32547	
756	0	32762	32541	32807	32617	32999	32799	32415	32769	
757	0	32773	32763	32785	32619	32795	32751	32514	32719	
758	0	32771	32787	32743	32687	32809	32847	32571	32787	
759	0	32742	32748	32783	32742	32551	32673	32623	32713	
760	0	32696	32599	32726	32743	32679	32751	32819	32637	
761	0	32729	32687	32797	32743	32797	32645	33201	32538	
762	0	32756	32677	32695	32775	32847	32617	33261	32669	
763	0	32773	32813	32791	32775	32655	32709	32871	32719	
764	0	32768	32551	32774	32719	32639	32743	32799	32684	
765	0	32762	32679	32683	32671	32867	32726	32867	32687	
766	0	32750	32685	32823	32767	32831	32547	32686	32527	
767	0	32786	32719	32763	32794	32901	32765	32721	32597	
768	0	32782	32669	32683	32733	32941	33188	32753	32735	
769	0	32785	32561	32805	32757	32759	32885	32951	32671	
770	0	32732	32767	32759	32746	32623	32829	33069	32694	
771	0	32738	32615	32814	32743	32775	32924	32775	32775	
772	0	32779	32762	32723	32631	32586	32782	32567	32567	
773	0	32790	32493	32665	32677	32634	32709	32463	32575	
774	0	32823	32667	32745	32699	32711	32628	32218	32722	
775	0	32832	32693	32671	32619	32623	32626	32251	32757	
776	0	32799	32775	32785	32667	32876	32647	32257	32837	
777	0	32802	32541	32733	32567	32577	32674	32341	32599	
778	0	32791	32639	32831	32639	32773	32986	32604	32738	
779	0	32765	32674	32759	32645	32709	32873	33015	32655	
780	0	32783	32719	32691	32685	32751	32911	32889	32719	
781	0	32775	32795	32763	32635	32999	32934	32765	32863	
782	0	32792	32581	32715	32724	32806	32526	33204	32628	
783	0	32759	32755	32745	32739	32822	32463	33671	32516	
784	0	32792	32723	32791	32735	32823	32423	33521	32595	
785	0	32743	32767	32709	32827	32435	32658	32935	32558	
786	0	32681	32599	32867	32762	32636	32795	32719	32711	
787	0	32687	32708	32695	32805	32647	32407	32790	32575	
788	0	32709	32677	32727	32759	32730	32662	33103	32631	
789	0	32669	32615	32710	32673	32697	32951	33113	32607	
790	0	32684	32564	32719	32786	32807	33255	33287	32575	
791	0	32664	32763	32739	32793	32787	33340	32909	32669	
792	0	32772	32751	32701	32775	32487	32815	32303	32895	
793	0	32788	32769	32828	32723	32573	32601	32027	32751	
794	0	32724	32514	32762	32743	32823	32687	32215	32809	
795	0	32757	32607	32647	32691	32919	32551	32607	32663	
796	0	32805	32775	32705	32711	32949	32619	32658	32663	
797	0	32797	32683	32763	32829	32700	32898	32667	32694	
798	0	32785	32715	32735	32822	32849	32883	32734	32690	
799	0	32783	32567	32767	32743	32699	32639	32793	32551	
800	0	32770	32647	32717	32756	32615	32753	32870	32621	
801	0	32786	32661	32713	32786	32407	32758	32789	32629	
802	0	32727	32727	32721	32799	32527	32703	32897	32621	
803	0	32806	32561	32737	32821	33207	32786	32887	32741	
804	0	32839	32647	32735	32839	32927	32951	32754	32613	
805	0	32738	32667	32732	32782	33143	32850	32706	32603	
806	0	32767	32479	32783	32769	33014	32742	32567	32676	
807	0	32735	32741	32749	32770	32933	32762	32499	32695	
808	0	32770	32657	32815	32694	32820	32550	32309	32509	
809	0	32700	32753	32723	32693	32668	32700	32183	32574	
810	0	32727	32583	32679	32612	32469	32925	32221	32701	
811	0	32743	32642	32827	32613	32515	32621	32079	32715	
812	0	32754	32749	32786	32725	32455	32583	31797	32723	
813	0	32751	32745	32711	32633	32751	32655	32135	32717	
814	0	32799	32754	32787	32734	32675	32555	32568	32671	
815	0	32741	32524	32783	32719	32611	32797	32855	32647	
816	0	32723	32732	32751	32677	32647	32773	33335	32681	
817	0	32748	32671	32830	32727	32521	32679	34077	32751	
818	0	32743	32714	32711	32722	32609	33036	33875	32703	
819	0	32811	32630	32849	32751	33203	32927	33397	32646	
820	0	32807	32674	32749	32701	33079	32771	32986	32729	
821	0	32774	32717	32731	32749	32866	32839	33055	32719	
822	0	32772	32727	32748	32735	32799	32743	32838	32583	
823	0	32801	32587	32703	32811	32500	32798	32621	32461	
824	0	32748	32699	32735	32722	32580	32747	32535	32627	
825	0	32778	32647	32775	32722	32863	32788	32487	32695	
826	0	32700	32751	32785	32772	33023	32763	32454	32695	
827	0	32793	32615	32730	32735	32719	32623	32274	32787	
828	0	32822	32667	32723	32725	32319	32623	32415	32694	
829	0	32770	32727	32743	32703	32668	32615	32507	32703	
830	0	32775	32767	32671	32693	32826	32796	32629	32647	
831	0	32749	32783	32685	32695	32587	32643	32713	32633	
832	0	32760	32517	32734	32723	32925	32607	32863	32614	
833	0	32773	32750	32710	32695	32812	32598	32875	32721	
834	0	32769	32647	32755	32647	33050	32775	32791	32687	
835	0	32780	32559	32669	32661	32973	32687	32967	32502	
836	0	32775	32703	32707	32647	33035	32621	33387	32640	
837	0	32745	32807	32751	32694	32764	33123	33367	32727	
838	0	32764	32647	32741	32832	32914	32991	33355	32735	
839	0	32694	32727	32743	32771	33185	32659	33187	32567	
840	0	32747	32813	32722	32767	33124	32727	32635	32661	
841	0	32689	32579	32703	32757	32858	32551	32204	32839	
842	0	32697	32851	32731	32765	32578	32588	31987	32740	
843	0	32749	32799	32743	32754	32927	32456	31911	32773	
844	0	32783	32586	32711	32729	32911	32874	32078	32655	
845	0	32810	32731	32739	32711	32895	32891	32325	32715	
846	0	32816	32754	32877	32727	32539	32903	32773	32612	
847	0	32835	32788	32775	32698	32439	32791	32967	32571	
848	0	32903	32589	32775	32709	32474	32647	32950	32679	
849	0	32895	32748	32749	32605	32543	32595	32951	32535	
850	0	32903	32719	32796	32690	32551	32429	32759	32485	
851	0	32897	32559	32918	32668	32655	32581	32812	32549	
852	0	32911	32693	32831	32687	32837	32623	32775	32511	
853	0	32924	32749	32855	32583	32694	32497	32647	32509	
854	0	32811	32743	32935	32555	32845	32527	32575	32506	
855	0	32861	32565	32855	32596	32813	32357	32619	32551	
856	0	32852	32647	32876	32638	32647	32677	32467	32339	
857	0	32893	32698	32854	32591	32631	32759	32277	32463	
858	0	32846	32698	32903	32603	32455	32973	32483	32503	
859	0	32836	32551	32869	32679	32846	32801	33011	32355	
860	0	32821	32677	32963	32679	32634	32775	33079	32470	
861	0	32932	32528	32885	32593	32475	32743	33311	32567	
862	0	32883	32636	33014	32643	32591	32711	33159	32519	
863	0	32804	32466	32867	32631	32358	32751	32519	32493	
864	0	32827	32675	32887	32639	32551	32660	32615	32723	
865	0	32807	32595	32815	32717	32747	32799	32963	32735	
866	0	32789	32677	32797	32703	32437	32647	33053	32787	
867	0	32764	32471	32796	32735	32895	32643	33023	33003	
868	0	32800	32647	32733	32677	32677	32423	32700	32866	
869	0	32775	32587	32788	32715	32502	32691	32511	32727	
870	0	32663	32590	32751	32679	32714	32775	32396	32598	
871	0	32647	32525	32739	32655	32708	32791	32475	32761	
872	0	32591	32535	32753	32647	32788	32932	32899	32745	
873	0	32580	32669	32691	32719	32951	32822	32742	32765	
874	0	32621	32711	32705	32631	32986	32867	32572	32757	
875	0	32566	32718	32679	32660	32775	32829	32647	32677	
876	0	32578	32551	32551	32667	33045	32660	32732	32762	
877	0	32645	32477	32635	32743	33117	32775	32695	32787	
878	0	32569	32551	32564	32798	32891	32869	32666	32751	
879	0	32519	32667	32491	32807	32947	32887	32730	32839	
880	0	32434	32799	32399	32867	32947	32990	32827	32995	
881	0	32386	32732	32327	32887	32850	32935	32717	32834	
882	0	32376	32807	32331	32933	32900	32762	32091	33279	
883	0	32304	32604	32293	32996	33044	32839	31946	33223	
884	0	32200	32847	32153	33071	32821	32803	32019	33311	
885	0	32037	32887	31950	33179	32967	33031	32149	33531	
886	0	32034	32916	32007	33223	32901	33410	32268	33629	
887	0	32092	32900	32130	33281	32876	33255	32455	33630	
888	0	32208	32734	32283	33095	32955	33179	32537	33223	
889	0	32413	32566	32533	32951	33024	33470	32695	33043	
890	0	32570	32738	32605	32893	32793	33325	32903	33059	
891	0	32676	32756	32726	32791	33045	32978	33223	32853	
892	0	32761	32611	32793	32739	32996	32999	33131	32775	
893	0	32870	32453	32871	32658	32733	32789	32867	32529	
894	0	32885	32556	32903	32545	32943	32679	32766	32497	
895	0	32988	32637	32901	32587	32831	32805	32639	32471	
896	0	33037	32637	33103	32587	32807	32571	32841	32391	
897	0	33050	32399	33089	32581	32823	32527	32887	32279	
898	0	32999	32471	33045	32633	32543	32543	32675	32305	
899	0	32995	32583	33047	32629	32447	32742	32976	32499	
900	0	32968	32631	32939	32621	32510	32588	33101	32347	
901	0	32916	32685	33029	32571	32764	32749	33167	32415	
902	0	32911	32534	32903	32633	32927	32587	32978	32438	
903	0	32967	32807	33031	32745	32663	32445	32983	32519	
904	0	32982	32803	32915	32803	32359	32487	33302	32483	
905	0	33009	32807	32858	32743	32487	32406	33007	32405	
906	0	32995	32629	32903	32740	32525	32647	32701	32341	
907	0	32948	32903	32933	32767	32367	32583	32703	32477	
908	0	33025	32809	32913	32687	32527	32666	32884	32311	
909	0	32982	32695	32887	32677	32571	32683	32887	32502	
910	0	32976	32691	32842	32684	32854	32711	32743	32437	
911	0	32991	32826	32855	32782	32661	32985	32614	32477	
912	0	32946	32839	32887	32815	32803	32598	32565	32427	
913	0	32937	32793	32871	32689	32879	32130	32671	32359	
914	0	32916	32847	32902	32626	32818	32701	32738	32287	
915	0	32903	32599	32863	32674	32775	32667	32719	32421	
916	0	32908	32767	32839	32626	32903	32722	32743	32535	
917	0	32931	32797	32843	32623	32829	32735	32681	32527	
918	0	32897	32823	32823	32611	32599	32738	32837	32466	
919	0	32903	32767	32827	32633	32787	32783	32937	32607	
920	0	32919	32587	32845	32623	32635	32847	32715	32666	
921	0	32857	32799	32772	32609	32607	32802	32727	32451	
922	0	32827	32799	32870	32613	32602	32759	32647	32647	
923	0	32785	32676	32783	32643	32543	32738	32917	32673	
924	0	32791	32675	32799	32623	32873	32721	33101	32747	
925	0	32775	32711	32775	32702	32895	32674	32933	32775	
926	0	32738	32827	32837	32711	32565	32693	32806	32715	
927	0	32719	32559	32679	32594	32695	32756	32681	32644	
928	0	32740	32773	32683	32655	32675	32773	32711	32541	
929	0	32785	32685	32735	32663	32676	32631	32551	32742	
930	0	32775	32551	32626	32647	32985	32756	32361	32615	
931	0	32724	32684	32694	32662	32903	32662	32299	32739	
932	0	32718	32685	32629	32735	32893	32871	32354	32555	
933	0	32721	32727	32715	32641	32762	32738	32532	32719	
934	0	32756	32548	32695	32663	32916	32743	32732	32679	
935	0	32730	32735	32767	32677	32722	32807	32751	32674	
936	0	32772	32679	32758	32663	32750	32751	32687	32708	
937	0	32736	32721	32693	32711	32775	32851	32727	32797	
938	0	32745	32471	32754	32679	32783	32807	32660	32570	
939	0	32785	32663	32709	32669	32723	32831	32739	32735	
940	0	32750	32681	32740	32759	32934	32815	33023	32701	
941	0	32764	32487	32759	32825	32749	32749	32971	32807	
942	0	32712	32695	32727	32761	32707	32794	32925	32623	
943	0	32775	32821	32683	32790	32621	32831	32813	32763	
944	0	32682	32556	32681	32771	32773	32795	32783	32761	
945	0	32721	32679	32692	32775	32668	32709	32623	32805	
946	0	32711	32775	32735	32775	32935	33020	32533	32606	
947	0	32714	32599	32698	32775	32973	32947	32451	32797	
948	0	32756	32659	32719	32823	32707	32741	32471	32769	
949	0	32751	32659	32663	32807	32743	32797	32403	32692	
950	0	32705	32687	32763	32718	32497	32759	32691	32747	
951	0	32740	32565	32711	32715	32571	32724	33063	32511	
952	0	32736	32735	32743	32719	32793	32621	32847	32702	
953	0	32721	32700	32709	32785	32758	32685	32803	32745	
954	0	32755	32723	32717	32695	32983	32637	32797	32684	
955	0	32748	32534	32805	32751	32919	32736	32677	32714	
956	0	32756	32717	32695	32743	32589	32821	32647	32763	
957	0	32735	32587	32739	32773	32844	32623	32727	32546	
958	0	32765	32669	32739	32787	32829	32635	32772	32439	
959	0	32775	32447	32698	32727	32823	32643	32871	32855	
960	0	32705	32727	32767	32743	32759	32891	32919	32899	
961	0	32767	32711	32731	32814	32647	32947	32948	32771	
962	0	32707	32511	32709	32834	32690	32919	32911	32775	
963	0	32722	32767	32646	32755	32425	32799	33159	32523	
964	0	32722	32766	32675	32779	32547	33121	33188	32599	
965	0	32720	32570	32658	32756	32375	32966	33095	32621	
966	0	32703	32660	32735	32738	33109	32759	32822	32644	
967	0	32630	32631	32711	32775	33007	32967	32213	32732	
968	0	32711	32743	32745	32734	32839	32745	31929	32567	
969	0	32740	32551	32783	32762	32914	32762	32027	32584	
970	0	32738	32715	32711	32787	32543	32636	32193	32599	
971	0	32725	32703	32751	32759	32635	32660	32519	32673	
972	0	32726	32765	32742	32719	32719	32773	32634	32635	
973	0	32784	32623	32873	32733	32711	32738	32934	32775	
974	0	32774	32646	32807	32807	32972	32849	33142	32927	
975	0	32783	32822	32838	32751	32925	32902	33349	32637	
976	0	32790	32583	32743	32710	32987	32781	32810	32783	
977	0	32770	32783	32743	32749	32825	32431	32487	32687	
978	0	32807	32726	32739	32698	32751	32457	31587	32570	
979	0	32789	32791	32733	32647	32463	32581	31565	32675	
980	0	32755	32553	32811	32711	32583	32637	32279	32774	
981	0	32751	32791	32790	32671	32615	32741	32663	32575	
982	0	32679	32698	32743	32698	32531	32775	32732	32555	
983	0	32726	32687	32831	32662	32799	33035	32831	32771	
984	0	32773	32714	32847	32686	32626	32805	33077	32895	
985	0	32678	32597	32703	32695	32466	32795	33159	32827	
986	0	32713	32548	32839	32674	32710	32827	33007	32679	
987	0	32739	32713	32799	32677	32927	32788	32855	32699	
988	0	32773	32747	32767	32685	32863	32823	32519	32786	
989	0	32761	32807	32775	32671	33101	32733	32547	32743	
990	0	32746	32595	32666	32687	32875	32986	32773	32588	
991	0	32773	32699	32751	32607	32647	32767	32683	32580	
992	0	32743	32687	32719	32738	32751	32716	32631	32699	
993	0	32775	32735	32686	32725	32634	32743	32707	32728	
994	0	32767	32549	32671	32677	33003	32718	32647	32727	
995	0	32759	32607	32642	32626	32967	32717	32655	32720	
996	0	32763	32602	32771	32647	33031	32767	32663	32473	
997	0	32748	32767	32703	32663	32863	32748	32700	32647	
998	0	32742	32605	32721	32707	32858	32615	32831	32698	
999	0	32808	32671	32757	32719	32791	33009	32979	32591	
1000	0	32771	32663	32711	32723	32663	32721	32813	32691	
1001	0	32714	32749	32767	32690	32723	32687	32575	32495	
1002	0	32766	32583	32677	32743	32533	32615	32754	32679	
1003	0	32775	32805	32775	32790	32637	32598	33099	32627	
1004	0	32792	32733	32741	32871	32405	32636	33093	32654	
1005	0	32807	32567	32762	32845	32372	32743	32911	32445	
1006	0	32794	32719	32731	32783	32539	32750	33113	32635	
1007	0	32814	32679	32743	32687	33077	32832	32935	32605	
1008	0	32774	32579	32710	32763	32994	32927	32855	32707	
1009	0	32745	32679	32795	32751	32917	32663	32713	32519	
1010	0	32735	32703	32815	32755	32930	32533	32642	32581	
1011	0	32756	32605	32730	32711	32843	32803	32575	32703	
1012	0	32687	32703	32775	32655	32983	32717	32289	32669	
1013	0	32747	32645	32687	32621	32667	32676	32419	32641	
1014	0	32736	32615	32791	32626	32910	32671	32375	32703	
1015	0	32722	32748	32743	32626	32675	32579	31975	32749	
1016	0	32764	32775	32823	32676	32799	32679	32058	32916	
1017	0	32758	32543	32769	32759	32565	32557	32692	33119	
1018	0	32749	32700	32835	32721	32895	32630	33347	32943	
1019	0	32727	32751	32754	32754	32903	32797	33277	32807	
1020	0	32775	32503	32810	32687	33047	32748	32839	32511	
1021	0	32759	32655	32769	32775	32573	32860	32167	32631	
1022	0	32775	32643	32775	32798	32535	32687	32254	32543	
1023	0	32788	32815	32767	32771	32635	32745	32427	32615	
1024	0	32785	32507	32731	32771	32419	32991	32570	32613	
1025	0	32801	32597	32807	32711	32503	32755	32791	32669	
1026	0	32840	32698	32727	32729	32583	32679	32870	32593	
1027	0	32784	32757	32749	32859	32679	32525	32854	32529	
1028	0	32756	32581	32758	32759	32889	32567	32807	32679	
1029	0	32743	32775	32711	32802	32882	32622	32741	32607	
1030	0	32783	32771	32751	32775	32870	32933	32879	32751	
1031	0	32789	32647	32741	32749	33103	33125	32895	32495	
1032	0	32794	32692	32727	32738	32695	32957	32775	32709	
1033	0	32775	32775	32719	32679	32869	32866	32793	32802	
1034	0	32806	32775	32804	32767	32844	32711	32989	32743	
1035	0	32774	32715	32751	32749	32943	32759	32844	32692	
1036	0	32753	32647	32745	32727	32975	32551	32621	32737	
1037	0	32730	32723	32811	32757	32983	32731	32668	32575	
1038	0	32706	32783	32756	32690	32731	32641	32723	32638	
1039	0	32799	32559	32819	32673	32797	32671	32669	32619	
1040	0	32773	32765	32727	32675	32971	32751	32647	32671	
1041	0	32797	32703	32751	32721	32943	32692	32623	32863	
1042	0	32801	32749	32743	32727	32628	32590	32433	32804	
1043	0	32747	32617	32641	32661	32386	32594	32486	32547	
1044	0	32769	32730	32751	32694	32669	32698	32910	32549	
1045	0	32786	32759	32669	32695	32764	32772	32671	32660	
1046	0	32751	32653	32711	32613	32771	32759	32527	32631	
1047	0	32761	32609	32711	32659	32541	32743	32403	32797	
1048	0	32773	32647	32823	32639	32263	32975	32499	32614	
1049	0	32764	32799	32817	32723	32662	32894	32717	32615	
1050	0	32726	32555	32743	32767	32804	33007	32727	32713	
1051	0	32708	32698	32831	32708	32887	32983	32738	32629	
1052	0	32739	32707	32719	32741	33175	32797	32843	32767	
1053	0	32750	32571	32786	32735	32903	32735	32893	32775	
1054	0	32805	32711	32735	32754	33159	32603	33117	32518	
1055	0	32695	32727	32799	32726	33159	32703	32903	32697	
1056	0	32764	32756	32711	32711	32940	32815	32449	32611	
1057	0	32795	32563	32677	32715	32893	32823	32277	32694	
1058	0	32724	32786	32727	32733	32803	32832	32587	32743	
1059	0	32716	32719	32695	32711	33034	32898	32667	32519	
1060	0	32822	32591	32845	32751	32855	32723	32529	32735	
1061	0	32786	32621	32775	32798	32578	32390	32550	32655	
1062	0	32741	32775	32647	32727	32369	32553	33287	32603	
1063	0	32798	32679	32787	32633	32291	32807	33603	32583	
1064	0	32769	32762	32698	32615	32306	32820	32855	32743	
1065	0	32741	32555	32773	32647	32823	32930	32643	32903	
1066	0	32703	32771	32815	32663	32979	32743	32767	32659	
1067	0	32747	32723	32825	32629	33058	32773	32980	32691	
1068	0	32850	32532	32868	32749	32623	32562	33175	32748	
1069	0	32799	32738	32786	32679	32397	32743	32965	32695	
1070	0	32799	32711	32727	32764	32593	32798	32811	32751	
1071	0	32808	32607	32819	32775	32799	32873	32707	32454	
1072	0	32818	32661	32819	32763	32903	32947	32483	32602	
1073	0	32815	32675	32730	32787	32519	32834	32158	32614	
1074	0	32774	32759	32791	32773	32726	32745	32202	32601	
1075	0	32799	32708	32845	32684	32823	32687	32143	32867	
1076	0	32705	32615	32735	32716	32967	32659	32072	32830	
1077	0	32759	32781	32771	32783	33099	32879	32269	32590	
1078	0	32761	32799	32727	32733	32782	32790	32522	32492	
1079	0	32745	32795	32739	32732	32614	32595	32847	32615	
1080	0	32784	32597	32711	32719	32591	32755	32877	32683	
1081	0	32743	32703	32695	32671	32827	32700	32887	32703	
1082	0	32694	32687	32669	32645	32655	32709	32838	32775	
1083	0	32743	32734	32738	32663	32751	32646	32791	32979	
1084	0	32751	32525	32689	32620	32689	32599	32815	32951	
1085	0	32738	32659	32703	32655	32511	32607	32799	32589	
1086	0	32658	32615	32762	32698	32845	32723	32793	32590	
1087	0	32721	32739	32685	32709	32791	32782	32804	32693	
1088	0	32687	32561	32734	32682	32587	33359	32796	32660	
1089	0	32724	32772	32735	32670	32628	32937	32823	32639	
1090	0	32730	32671	32701	32635	32614	32764	32759	32639	
1091	0	32740	32717	32764	32661	32839	32851	32863	32561	
1092	0	32797	32615	32689	32641	32998	32841	32742	32637	
1093	0	32773	32719	32799	32647	32823	32951	32659	32655	
1094	0	32797	32693	32691	32681	33153	32821	32739	32655	
1095	0	32728	32742	32731	32671	32898	32785	32797	32615	
1096	0	32732	32559	32810	32823	32754	32604	32710	32667	
1097	0	32771	32731	32766	32775	32903	32599	32543	32524	
1098	0	32743	32735	32703	32751	32852	32823	32335	32519	
1099	0	32822	32751	32790	32762	32550	32878	32373	32463	
1100	0	32812	32815	32765	32739	32775	32947	32539	32539	
1101	0	32767	32596	32703	32791	32823	32811	33027	32679	
1102	0	32692	32735	32727	32718	32599	32807	33367	32727	
1103	0	32693	32821	32669	32812	32495	32762	33030	32709	
1104	0	32679	32671	32799	32733	32527	32559	32708	32711	
1105	0	32711	32524	32719	32742	32647	32799	32727	32775	
1106	0	32701	32639	32628	32804	32725	32700	32811	32743	
1107	0	32751	32727	32691	32749	32677	32580	32413	32771	
1108	0	32671	32635	32707	32671	32499	32783	32083	32645	
1109	0	32737	32767	32691	32605	32815	32775	32135	32763	
1110	0	32711	32551	32799	32580	32711	32679	32207	32698	
1111	0	32765	32695	32760	32625	32583	32858	32727	32853	
1112	0	32735	32699	32732	32707	32715	32807	33129	32661	
1113	0	32692	32655	32811	32623	32676	32551	33262	32549	
1114	0	32713	32598	32727	32711	32820	32797	33023	32708	
1115	0	32753	32765	32785	32666	32838	32839	32739	32627	
1116	0	32737	32715	32788	32694	32767	32655	32897	32645	
1117	0	32745	32726	32716	32805	32861	32787	33030	32747	
1118	0	32727	32589	32759	32764	33279	32791	33175	32772	
1119	0	32732	32607	32743	32813	32887	32753	33375	32836	
1120	0	32745	32735	32714	32757	32471	32873	33359	32551	
1121	0	32716	32695	32701	32791	32733	32797	32805	32575	
1122	0	32749	32749	32763	32775	32751	32719	32593	32676	
1123	0	32791	32495	32711	32661	32471	32759	32558	32715	
1124	0	32837	32711	32767	32758	32814	32593	32531	32645	
1125	0	32801	32679	32751	32786	32755	32677	32583	32690	
1126	0	32839	32867	32719	32751	32631	32829	32793	32751	
1127	0	32784	32543	32797	32775	32847	32815	32521	32538	
1128	0	32810	32739	32763	32787	32669	32787	32103	32586	
1129	0	32796	32691	32743	32727	32623	32603	31815	32623	
1130	0	32797	32727	32773	32655	32997	32731	31987	32617	
1131	0	32750	32559	32733	32691	32723	32719	32187	32631	
1132	0	32699	32647	32687	32773	32525	32751	32443	32727	
1133	0	32766	32707	32791	32729	32647	32829	32463	32767	
1134	0	32815	32771	32783	32722	32870	32773	32551	32819	
1135	0	32775	32593	32831	32694	32799	32631	33012	32571	
1136	0	32807	32775	32806	32756	33027	32791	33485	32700	
1137	0	32783	32682	32723	32668	32901	32695	33153	32655	
1138	0	32741	32687	32739	32681	32892	32802	32901	32671	
1139	0	32748	32585	32759	32742	32725	32977	32716	32759	
1140	0	32732	32493	32743	32751	32405	32747	32701	32813	
1141	0	32748	32723	32687	32679	32710	32693	32734	32493	
1142	0	32793	32695	32806	32658	32709	32723	32827	32510	
1143	0	32769	32655	32783	32695	32773	32599	32926	32531	
1144	0	32773	32759	32742	32679	32619	32897	32941	32751	
1145	0	32757	32527	32775	32671	32789	32863	32839	32798	
1146	0	32818	32679	32775	32583	32671	32767	32626	32702	
1147	0	32775	32765	32801	32667	33023	32678	32775	32751	
1148	0	32780	32634	32711	32642	32723	32700	32783	32503	
1149	0	32742	32747	32713	32739	32796	32943	32874	32551	
1150	0	32724	32743	32713	32807	32759	32987	33139	32733	
1151	0	32728	32763	32691	32797	32835	32822	32967	32868	
1152	0	32717	32571	32751	32695	32926	32673	32687	32860	
1153	0	32730	32791	32663	32739	32694	32695	32642	32731	
1154	0	32791	32677	32660	32741	33018	32743	32491	32749	
1155	0	32727	32811	32719	32738	32831	32765	32317	32763	
1156	0	32767	32575	32745	32807	32638	32693	32159	32525	
1157	0	32687	32767	32683	32801	32711	32677	32135	32489	
1158	0	32687	32711	32685	32807	32631	32613	32411	32683	
1159	0	32716	32771	32766	32702	32534	32668	32797	32721	
1160	0	32689	32527	32743	32663	32971	32677	33362	32704	
1161	0	32711	32731	32877	32743	32867	32706	33110	32775	
1162	0	32711	32727	32819	32655	32693	32837	32799	32519	
1163	0	32718	32683	32772	32725	32503	33111	32749	32684	
1164	0	32720	32692	32775	32647	32668	33099	32731	32723	
1165	0	32762	32847	32786	32671	32717	32844	32159	32687	
1166	0	32760	32775	32809	32655	32493	32639	32015	32738	
1167	0	32760	32828	32791	32731	32775	32813	32039	32824	
1168	0	32745	32590	32717	32630	32615	32783	32115	32532	
1169	0	32725	32731	32847	32647	32663	32795	32603	32719	
1170	0	32732	32719	32749	32643	32535	32772	33055	32743	
1171	0	32763	32567	32699	32604	32975	32759	32989	32732	
1172	0	32756	32743	32615	32603	33199	32773	32967	32647	
1173	0	32708	32694	32695	32677	32911	32591	32983	32787	
1174	0	32790	32815	32647	32711	32973	32701	32927	32749	
1175	0	32763	32631	32699	32716	32764	32730	32775	32730	
1176	0	32777	32798	32775	32735	32989	32591	32662	32519	
1177	0	32804	32724	32718	32831	32878	32825	32647	32511	
1178	0	32775	32751	32775	32751	32863	32830	32839	32734	
1179	0	32756	32555	32724	32738	32735	32795	32845	32629	
1180	0	32808	32710	32730	32758	32571	32917	32666	32662	
1181	0	32743	32771	32806	32699	32972	32903	32699	32459	
1182	0	32767	32507	32775	32678	32615	32855	32815	32635	
1183	0	32783	32711	32841	32658	32735	32751	32739	32599	
1184	0	32803	32703	32751	32625	32553	32754	32692	32717	
1185	0	32748	32599	32767	32647	32617	32775	32589	32554	
1186	0	32799	32485	32775	32639	32667	32871	32581	32519	
1187	0	32786	32767	32711	32583	32527	32847	32583	32709	
1188	0	32744	32742	32793	32692	32807	32573	32567	32618	
1189	0	32769	32503	32743	32603	32706	32555	32477	32773	
1190	0	32765	32611	32839	32588	32667	32687	32484	32617	
1191	0	32748	32709	32797	32671	32741	32839	32873	32599	
1192	0	32803	32783	32809	32678	32695	32668	33053	32599	
1193	0	32820	32679	32835	32681	32543	32601	33199	32807	
1194	0	32817	32827	32843	32711	32852	32639	32807	32887	
1195	0	32785	32631	32751	32749	32980	32751	32658	32773	
1196	0	32831	32631	32791	32769	32892	32658	32621	32719	
1197	0	32813	32771	32751	32687	32967	32575	32771	32423	
1198	0	32811	32820	32773	32751	32801	32756	32647	32741	
1199	0	32735	32691	32797	32674	32481	32843	32610	32763	
1200	0	32771	32597	32707	32731	32799	32925	32678	32710	
1201	0	32705	32775	32693	32711	32743	33039	32874	32742	
1202	0	32727	32743	32708	32646	32579	32701	32997	32770	
1203	0	32706	32694	32711	32647	32743	32645	33083	32825	
1204	0	32754	32739	32730	32677	32584	32586	32647	32827	
1205	0	32779	32605	32763	32638	32594	32607	32731	32870	
1206	0	32772	32711	32750	32655	32807	32671	32854	32542	
1207	0	32775	32583	32743	32654	32573	32809	32469	32540	
1208	0	32688	32641	32795	32756	32350	32807	32422	32606	
1209	0	32759	32607	32806	32785	32861	32775	32927	32595	
1210	0	32771	32509	32751	32757	32839	32811	33179	32566	
1211	0	32767	32743	32835	32791	32663	32711	32932	32763	
1212	0	32742	32747	32801	32735	33014	32745	32831	32563	
1213	0	32745	32637	32759	32755	33000	32743	32695	32617	
1214	0	32719	32719	32695	32759	32979	32669	32559	32647	
1215	0	32724	32767	32723	32787	33027	32787	32359	32571	
1216	0	32742	32751	32835	32787	32829	32847	32215	32594	
1217	0	32703	32766	32897	32835	32943	32807	32123	32685	
1218	0	32692	32583	32854	32858	32827	32759	32375	32686	
1219	0	32748	32807	32804	32817	32519	32691	32615	32629	
1220	0	32742	32775	32762	32804	32763	32758	32700	32647	
1221	0	32756	32623	32693	32775	32869	32697	32662	32721	
1222	0	32718	32742	32721	32795	32567	32814	32570	32637	
1223	0	32743	32694	32732	32743	32675	32999	32467	32646	
1224	0	32839	32726	32765	32749	32326	32914	32487	32613	
1225	0	32793	32519	32677	32767	32548	32743	32493	32705	
1226	0	32769	32687	32643	32739	32660	32289	32743	32811	
1227	0	32805	32722	32743	32741	32532	32464	32935	32669	
1228	0	32807	32859	32767	32743	32647	32447	33159	32523	
1229	0	32804	32615	32797	32693	32823	32698	33207	32582	
1230	0	32781	32703	32743	32638	32967	32769	33119	32615	
1231	0	32852	32775	32804	32749	33294	32949	33369	32711	
1232	0	32799	32691	32766	32737	32823	33085	33431	32861	
1233	0	32829	32711	32797	32733	32860	32799	33209	32595	
1234	0	32818	32715	32807	32683	32919	32713	32751	32707	
1235	0	32731	32525	32671	32663	32565	32655	32491	32724	
1236	0	32655	32707	32735	32671	32767	32799	32661	32655	
1237	0	32742	32645	32717	32681	32615	32883	32579	32647	
1238	0	32732	32695	32687	32709	32599	32871	32574	32711	
1239	0	32764	32612	32738	32740	32623	32803	32263	32775	
1240	0	32719	32711	32758	32775	32495	32697	32647	32527	
1241	0	32740	32783	32765	32851	32718	32799	33010	32709	
1242	0	32702	32571	32795	32816	33047	32679	32869	32675	
1243	0	32772	32706	32769	32807	33079	32735	32943	32775	
1244	0	32808	32725	32791	32756	32630	32671	32633	32820	
1245	0	32749	32755	32796	32823	32615	32634	32191	32742	
1246	0	32757	32599	32829	32759	32487	32571	32071	32599	
1247	0	32762	32751	32793	32773	32603	32489	32587	32727	
1248	0	32764	32767	32701	32775	32655	32587	32383	32640	
1249	0	32727	32519	32767	32792	32579	32761	32514	32763	
1250	0	32754	32756	32759	32783	32747	33086	32459	32551	
1251	0	32748	32694	32747	32759	32723	32751	32749	32573	
1252	0	32689	32811	32698	32757	32495	32671	32999	32701	
1253	0	32701	32573	32807	32759	32647	32895	32620	32701	
1254	0	32790	32867	32807	32669	32687	32916	32678	32783	
1255	0	32786	32767	32727	32588	32745	32672	32943	32743	
1256	0	32801	32741	32767	32659	32751	32705	33047	32743	
1257	0	32771	32591	32771	32664	32837	32663	32903	32479	
1258	0	32770	32571	32723	32773	32982	32765	32782	32543	
1259	0	32747	32699	32739	32743	32771	32803	32775	32591	
1260	0	32775	32683	32751	32703	32819	32709	32783	32632	
1261	0	32790	32567	32759	32758	32765	32847	32646	32630	
1262	0	32729	32493	32797	32687	32549	32829	32759	32623	
1263	0	32724	32749	32743	32711	32794	32591	32711	32743	
1264	0	32742	32735	32734	32751	32727	32612	32697	32535	
1265	0	32743	32501	32739	32764	32804	32557	32597	32687	
1266	0	32669	32655	32685	32756	32807	32827	32623	32679	
1267	0	32696	32725	32775	32727	32625	32941	32687	32643	
1268	0	32698	32609	32767	32735	32782	32775	32718	32665	
1269	0	32662	32758	32765	32742	32836	32772	32615	32559	
1270	0	32674	32663	32749	32679	32743	32591	32794	32578	
1271	0	32741	32743	32739	32703	32947	32671	32887	32551	
1272	0	32767	32525	32751	32789	32775	32854	32993	32660	
1273	0	32836	32708	32775	32775	32692	32725	32949	32687	
1274	0	32831	32694	32742	32710	32996	32804	32933	32661	
1275	0	32786	32743	32735	32667	32979	32759	32835	32639	
1276	0	32786	32539	32786	32679	32748	32571	32811	32706	
1277	0	32765	32613	32804	32613	32775	32711	32873	32775	
1278	0	32799	32677	32709	32729	32766	32999	32647	32773	
1279	0	32846	32791	32809	32743	32609	33128	32309	32867	
1280	0	32750	32583	32767	32803	32671	33063	32061	32640	
1281	0	32775	32621	32749	32735	32763	32701	32343	32519	
1282	0	32793	32731	32715	32763	32471	32665	32583	32482	
1283	0	32788	32679	32767	32703	32482	32662	32548	32579	
1284	0	32790	32689	32783	32687	32767	32765	32503	32573	
1285	0	32778	32699	32679	32647	32686	32743	32439	32677	
1286	0	32806	32564	32762	32638	32533	32572	32391	32831	
1287	0	32750	32763	32767	32687	32773	32421	32519	32772	
1288	0	32725	32706	32671	32667	32863	32607	33271	32599	
1289	0	32703	32805	32806	32807	32939	32591	33671	32711	
1290	0	32748	32551	32695	32725	32887	32583	33183	32607	
1291	0	32803	32711	32730	32741	32519	32631	32543	32663	
1292	0	32789	32733	32807	32687	32373	32677	32450	32837	
1293	0	32785	32647	32729	32769	32734	32635	32639	32766	
1294	0	32798	32580	32759	32733	32796	32661	32709	32715	
1295	0	32802	32703	32711	32684	32773	32987	32615	32705	
1296	0	32798	32695	32747	32783	32911	33247	32611	32599	
1297	0	32764	32823	32767	32759	32759	33031	32711	32567	
1298	0	32740	32613	32711	32817	32694	32879	32805	32577	
1299	0	32786	32740	32735	32790	32865	32895	32949	32683	
1300	0	32759	32721	32766	32756	32895	32817	32959	32740	
1301	0	32763	32786	32646	32843	32735	32707	33009	32735	
1302	0	32755	32631	32791	32790	32822	32708	32867	32775	
1303	0	32728	32719	32719	32831	32640	32727	32701	32471	
1304	0	32757	32703	32797	32815	32405	32705	32637	32519	
1305	0	32715	32695	32871	32709	32773	32663	32501	32663	
1306	0	32684	32751	32765	32641	33039	32641	32485	32698	
1307	0	32718	32692	32819	32641	32807	32717	32437	32577	
1308	0	32789	32739	32747	32717	32755	32749	32573	32727	
1309	0	32816	32615	32807	32722	32578	32701	32635	32450	
1310	0	32806	32679	32751	32733	32855	32854	32615	32599	
1311	0	32743	32759	32720	32739	32733	32838	32658	32749	
1312	0	32756	32525	32771	32751	32609	32645	32850	32757	
1313	0	32799	32679	32711	32628	32983	32722	33039	32775	
1314	0	32781	32687	32775	32669	32858	32821	33014	32695	
1315	0	32787	32517	32719	32647	32873	32795	33031	32773	
1316	0	32820	32677	32775	32783	32987	32742	32911	32627	
1317	0	32782	32667	32743	32645	32595	32647	32611	32605	
1318	0	32703	32563	32743	32628	33063	32555	32413	32775	
1319	0	32751	32629	32803	32582	33047	32666	32677	32647	
1320	0	32727	32711	32739	32582	32943	33151	32439	32631	
1321	0	32748	32759	32807	32562	32647	32963	32262	32797	
1322	0	32717	32723	32729	32617	32543	32747	32463	32640	
1323	0	32749	32759	32757	32539	32775	32858	32559	32751	
1324	0	32751	32783	32755	32543	32623	32741	32709	32643	
1325	0	32767	32642	32711	32647	32709	32501	32991	32551	
1326	0	32769	32637	32802	32719	32647	32621	33278	32569	
1327	0	32795	32675	32647	32679	32559	33005	33083	32690	
1328	0	32783	32775	32699	32647	32623	32971	32983	32459	
1329	0	32777	32595	32699	32670	32767	32887	32911	32533	
1330	0	32828	32738	32735	32735	32961	32664	32899	32631	
1331	0	32791	32703	32799	32770	32799	32759	32681	32559	
1332	0	32750	32644	32765	32797	33047	32754	32263	32583	
1333	0	32780	32639	32711	32847	32947	32711	32196	32720	
1334	0	32767	32807	32711	32743	32884	32668	32540	32806	
1335	0	32839	32694	32682	32794	32866	32551	32858	32551	
1336	0	32791	32590	32723	32743	32727	32686	33021	32599	
1337	0	32756	32623	32750	32830	32411	32549	33287	32833	
1338	0	32786	32827	32675	32763	32709	32459	33641	33071	
1339	0	32804	32719	32711	32701	32549	32887	33111	32847	
1340	0	32791	32783	32773	32647	32614	32932	32786	32671	
1341	0	32763	32551	32765	32647	32887	32663	32478	32759	
1342	0	32775	32703	32851	32604	32701	32579	32420	32871	
1343	0	32749	32814	32703	32647	32695	32763	32307	32828	
1344	0	32763	32592	32775	32613	32663	32756	32301	32565	
1345	0	32709	32787	32758	32629	32527	32615	32453	32695	
1346	0	32708	32722	32748	32647	32783	32685	32619	32823	
1347	0	32685	32710	32832	32647	32733	32738	32739	32675	
1348	0	32760	32527	32751	32717	32749	32737	32756	32609	
1349	0	32732	32707	32681	32743	32770	32837	32743	32658	
1350	0	32748	32703	32743	32749	32681	32786	32767	32554	
1351	0	32785	32598	32713	32647	32722	32887	32807	32607	
1352	0	32761	32699	32815	32749	33013	32887	32807	32683	
1353	0	32793	32647	32787	32693	32787	32691	32781	32629	
1354	0	32773	32629	32745	32709	32933	32731	32717	32607	
1355	0	32764	32685	32751	32871	32941	32809	32645	32627	
1356	0	32789	32578	32850	32883	32747	32667	32647	32546	
1357	0	32802	32743	32751	32743	32832	32591	32529	32631	
1358	0	32808	32708	32783	32695	32671	32786	32578	32655	
1359	0	32756	32767	32815	32630	32739	32767	32607	32597	
1360	0	32736	32598	32740	32647	32658	32783	32509	32607	
1361	0	32754	32562	32797	32628	32647	32749	32604	32469	
1362	0	32804	32643	32763	32609	32964	32903	32741	32475	
1363	0	32764	32713	32716	32614	32876	32860	32711	32603	
1364	0	32745	32567	32767	32679	32543	32791	32723	32595	
1365	0	32758	32630	32771	32686	32694	32852	33063	32727	
1366	0	32762	32783	32703	32629	33063	32871	33298	32749	
1367	0	32741	32707	32707	32637	33207	32916	32893	32851	
1368	0	32781	32692	32731	32609	32543	32665	32870	32775	
1369	0	32740	32791	32762	32637	32599	32757	32634	32807	
1370	0	32758	32643	32708	32694	32709	32676	32379	32955	
1371	0	32749	32799	32820	32676	32671	32564	32447	32903	
1372	0	32752	32749	32756	32736	32951	32700	32783	32807	
1373	0	32725	32756	32693	32791	32714	32655	33207	32687	
1374	0	32747	32589	32726	32803	32735	32621	32895	32671	
1375	0	32782	32717	32729	32843	32811	32707	32793	32727	
1376	0	32739	32821	32749	32705	32861	32839	32989	32783	
1377	0	32729	32764	32673	32703	32673	32749	32861	32647	
1378	0	32774	32803	32759	32663	32835	32575	32620	32685	
1379	0	32775	32775	32642	32676	32477	32519	32510	32551	
1380	0	32791	32647	32727	32695	32763	32475	32587	32659	
1381	0	32733	32623	32757	32655	32655	32948	32575	32719	
1382	0	32739	32714	32749	32671	32831	32963	32534	32590	
1383	0	32762	32693	32775	32708	32751	32963	32455	32759	
1384	0	32782	32667	32751	32567	32455	32823	32445	32519	
1385	0	32775	32641	32861	32621	32527	32835	32623	32586	
1386	0	32740	32683	32775	32619	32677	32807	32707	32687	
1387	0	32791	32711	32935	32647	33010	32711	32535	32634	
1388	0	32779	32617	32789	32639	32702	32673	32097	32719	
1389	0	32733	32647	32799	32621	32743	32700	32135	32699	
1390	0	32758	32647	32767	32569	32901	32758	32605	32487	
1391	0	32810	32786	32703	32663	32675	32785	33042	32604	
1392	0	32790	32570	32758	32647	32813	32539	33207	32579	
1393	0	32780	32745	32722	32647	32639	32797	32850	32751	
1394	0	32799	32695	32739	32727	32563	32903	32391	32729	
1395	0	32739	32797	32727	32794	32741	32765	32983	32660	
1396	0	32740	32623	32671	32861	32647	32732	33265	32703	
1397	0	32695	32621	32671	32727	32547	32812	33285	32711	
1398	0	32713	32683	32787	32665	32892	32671	32615	32719	
1399	0	32665	32663	32735	32663	32879	32663	32021	32775	
1400	0	32674	32669	32727	32695	32637	32647	32253	32591	
1401	0	32739	32753	32726	32717	32706	32802	32852	32585	
1402	0	32761	32647	32671	32775	32646	32901	33062	32703	
1403	0	32718	32757	32733	32721	32701	32671	33179	32678	
1404	0	32793	32551	32703	32662	32691	32831	33107	32695	
1405	0	32847	32787	32722	32671	32839	32865	32916	32647	
1406	0	32847	32813	32851	32741	32839	32805	32705	32628	
1407	0	32769	32540	32703	32735	32895	32809	32743	32713	
1408	0	32805	32715	32827	32791	32775	32742	32701	32503	
1409	0	32756	32743	32724	32804	32883	32806	32743	32647	
1410	0	32790	32627	32823	32829	32826	32631	32730	32543	
1411	0	32767	32663	32813	32826	32677	32714	32735	32551	
1412	0	32743	32751	32799	32795	32694	32631	32716	32717	
1413	0	32698	32525	32738	32740	32729	32807	32735	32617	
1414	0	32756	32727	32731	32743	32831	32686	32733	32860	
1415	0	32732	32705	32853	32674	32989	32767	32791	32868	
1416	0	32736	32709	32727	32623	33047	32839	32647	32727	
1417	0	32784	32663	32751	32611	33079	32843	32495	32677	
1418	0	32800	32663	32683	32615	32919	32708	32598	32618	
1419	0	32737	32525	32756	32718	32948	32599	32647	32719	
1420	0	32679	32643	32695	32756	32847	32820	32607	32621	
1421	0	32701	32771	32745	32719	32711	32705	32714	32807	
1422	0	32728	32535	32693	32764	32495	32713	32735	32855	
1423	0	32729	32681	32727	32775	32826	32700	32583	32580	
1424	0	32733	32694	32759	32739	32726	32587	32711	32591	
1425	0	32738	32565	32723	32691	32540	32751	32785	32611	
1426	0	32687	32727	32762	32743	32836	32735	32851	32642	
1427	0	32761	32695	32711	32695	32775	32767	32747	32726	
1428	0	32787	32623	32663	32695	32575	32766	32799	32629	
1429	0	32792	32623	32717	32695	32646	32647	32687	32575	
1430	0	32787	32637	32711	32726	32684	32715	32711	32763	
1431	0	32720	32607	32731	32771	32947	32765	32685	32679	
1432	0	32818	32743	32759	32655	32747	32841	32706	32717	
1433	0	32834	32763	32807	32631	32797	32692	32847	32746	
1434	0	32822	32695	32757	32743	33003	32613	32831	32543	
1435	0	32795	32663	32775	32751	32807	32953	32781	32721	
1436	0	32804	32743	32855	32751	32619	33031	32711	32743	
1437	0	32832	32743	32775	32755	32879	32839	32679	32735	
1438	0	32775	32551	32727	32748	32867	32603	32791	32705	
1439	0	32809	32767	32803	32775	32783	32765	32671	32774	
1440	0	32747	32611	32756	32786	32759	32871	32439	32555	
1441	0	32780	32731	32754	32807	32647	32815	32391	32495	
1442	0	32791	32639	32751	32714	32623	32806	32707	32693	
1443	0	32743	32707	32675	32751	32911	32611	32887	32642	
1444	0	32732	32719	32711	32819	32735	32543	33015	32732	
1445	0	32747	32509	32715	32751	32723	32629	32893	32783	
1446	0	32756	32767	32835	32803	32630	32909	32839	32787	
1447	0	32838	32735	32748	32843	32528	33073	32605	32507	
1448	0	32799	32577	32767	32823	32679	32818	32427	32596	
1449	0	32800	32775	32698	32795	32876	32886	32375	32567	
1450	0	32751	32749	32775	32830	32548	32703	32451	32617	
1451	0	32734	32575	32765	32775	32571	32727	32559	32501	
1452	0	32729	32725	32741	32709	32725	32935	33204	32557	
1453	0	32742	32679	32716	32773	33005	32775	33557	32575	
1454	0	32719	32607	32675	32775	32821	32765	33217	32676	
1455	0	32806	32803	32775	32687	32801	32955	32915	32682	
1456	0	32773	32743	32772	32687	32927	32839	32647	32743	
1457	0	32846	32589	32859	32775	32684	32729	32415	32555	
1458	0	32793	32711	32706	32775	32747	32735	32387	32719	
1459	0	32741	32703	32788	32767	32598	32661	32623	32762	
1460	0	32764	32551	32754	32765	32903	32671	32583	32999	
1461	0	32706	32731	32775	32674	32882	32591	32612	32755	
1462	0	32689	32647	32700	32622	32767	32594	32531	32719	
1463	0	32732	32775	32751	32677	32741	32602	32439	33079	
1464	0	32757	32703	32799	32676	32527	32324	32519	33143	
1465	0	32727	32815	32716	32685	32967	32715	32749	32611	
1466	0	32740	32661	32789	32674	32789	32588	33154	32559	
1467	0	32728	32666	32711	32687	32405	32659	33114	32683	
1468	0	32735	32751	32741	32705	32655	32965	32487	32591	
1469	0	32778	32755	32735	32647	32847	32807	32597	32679	
1470	0	32825	32735	32761	32702	32687	32646	32865	32519	
1471	0	32679	32541	32799	32723	32567	32703	32759	32607	
1472	0	32732	32659	32747	32775	32663	32722	32382	32615	
1473	0	32759	32631	32713	32807	32819	32724	32463	32703	
1474	0	32767	32701	32788	32815	32877	32733	32487	32487	
1475	0	32818	32715	32685	32831	33254	32732	32567	32545	
1476	0	32836	32803	32751	32719	32927	32983	32687	32635	
1477	0	32790	32743	32703	32705	32861	33203	32721	32637	
1478	0	32762	32743	32659	32731	32775	33018	32797	32711	
1479	0	32801	32583	32669	32735	32578	32865	33071	32445	
1480	0	32825	32717	32691	32775	32911	32855	32959	32599	
1481	0	32807	32719	32748	32681	32765	32766	32855	32591	
1482	0	32783	32573	32829	32708	32743	32719	32925	32595	
1483	0	32758	32775	32765	32722	32726	32722	32861	32708	
1484	0	32767	32711	32727	32727	32674	32807	32743	32639	
1485	0	32700	32575	32799	32759	32820	32789	32647	32690	
1486	0	32742	32615	32761	32723	32530	32690	32511	32703	
1487	0	32753	32720	32853	32741	32734	32702	32573	32609	
1488	0	32759	32676	32769	32743	32711	32564	32586	32750	
1489	0	32799	32642	32763	32699	32743	32663	32511	32473	
1490	0	32715	32501	32711	32791	32797	32787	32803	32733	
1491	0	32722	32773	32807	32775	32559	32797	32983	32756	
1492	0	32816	32709	32791	32691	32839	32741	32999	32668	
1493	0	32804	32547	32756	32775	32871	32788	32723	32655	
1494	0	32790	32719	32739	32818	32673	32701	32487	32595	
1495	0	32756	32671	32811	32655	32845	32807	32363	32671	
1496	0	32791	32775	32755	32671	32738	32923	32505	32635	
1497	0	32737	32725	32723	32669	32871	32677	32638	32631	
1498	0	32791	32831	32823	32743	32855	32771	32743	32714	
1499	0	32788	32775	32759	32655	32871	32706	32751	32635	
1500	0	32759	32727	32818	32633	32861	32545	32554	32847	
1501	0	32732	32519	32695	32570	32595	32255	32941	33068	
1502	0	32734	32679	32757	32535	32814	32495	33159	32841	
1503	0	32799	32607	32713	32629	32628	32519	32917	32583	
1504	0	32751	32804	32796	32660	32940	32690	32729	32457	
1505	0	32736	32703	32718	32631	33155	32663	32471	32690	
1506	0	32705	32583	32695	32669	32954	33071	32191	32495	
1507	0	32807	32670	32773	32719	32633	32949	32449	32545	
1508	0	32746	32541	32742	32767	32503	32805	32901	32475	
1509	0	32733	32719	32756	32815	32630	32763	33415	32841	
1510	0	32779	32773	32773	32775	32511	32836	33095	32746	
1511	0	32736	32759	32687	32707	32743	32659	32804	32727	
1512	0	32741	32711	32751	32647	32551	32795	32518	32623	
1513	0	32759	32583	32646	32679	32786	32809	32323	32793	
1514	0	32755	32647	32669	32679	32811	32658	32554	32929	
1515	0	32767	32637	32690	32679	32903	32455	32695	32811	
1516	0	32775	32599	32678	32663	32775	32663	32759	32799	
1517	0	32735	32655	32763	32691	32665	32772	32875	32511	
1518	0	32748	32655	32773	32727	32804	32708	32722	32519	
1519	0	32740	32569	32828	32775	32767	32726	32743	32610	
1520	0	32763	32695	32729	32703	32644	32625	32647	32519	
1521	0	32739	32771	32775	32690	32899	32775	32663	32575	
1522	0	32742	32599	32709	32659	32702	32679	32735	32529	
1523	0	32775	32669	32802	32634	32530	32871	32697	32543	
1524	0	32751	32687	32753	32639	32679	32867	32748	32631	
1525	0	32748	32671	32789	32644	32647	32846	32855	32717	
1526	0	32823	32703	32775	32653	32775	32747	32830	32879	
1527	0	32804	32726	32707	32682	32677	32636	32757	32879	
1528	0	32719	32613	32775	32657	32823	32715	32671	32798	
1529	0	32766	32671	32707	32565	33037	32757	32647	32523	
1530	0	32636	32646	32767	32615	32914	32759	32586	32637	
1531	0	32699	32687	32727	32647	32591	32807	32429	32623	
1532	0	32701	32647	32775	32645	32690	32796	32407	32715	
1533	0	32737	32723	32753	32587	32803	32811	32546	32717	
1534	0	32679	32627	32759	32599	32929	32703	32797	32743	
1535	0	32742	32683	32687	32626	32989	32855	32975	32503	
1536	0	32730	32543	32751	32739	32482	32759	33167	32763	
1537	0	32787	32671	32785	32750	32784	32820	33482	32699	
1538	0	32770	32703	32761	32798	33029	32719	33096	32647	
1539	0	32786	32567	32773	32727	32639	32575	32823	32598	
1540	0	32754	32627	32717	32647	32815	32660	32754	32647	
1541	0	32790	32743	32745	32675	32858	32627	32873	32642	
1542	0	32825	32795	32695	32690	32749	32767	32941	32639	
1543	0	32756	32630	32694	32727	32715	32629	32708	32516	
1544	0	32700	32711	32716	32831	32571	32791	32635	32757	
1545	0	32751	32717	32673	32839	32677	32621	32898	32646	
1546	0	32806	32791	32628	32839	32811	32799	32975	32686	
1547	0	32775	32791	32661	32859	32706	32642	32695	32517	
1548	0	32848	32815	32735	32839	32875	32715	32212	32527	
1549	0	32863	32751	32685	32891	32711	32628	32007	32605	
1550	0	32813	32814	32642	32727	32679	32791	32045	32555	
1551	0	32841	32826	32822	32799	32717	32679	32466	32617	
1552	0	32834	32715	32783	32732	32875	32662	32605	32679	
1553	0	32856	32789	32737	32659	32692	32679	32487	32742	
1554	0	32835	32679	32879	32683	32493	32679	32681	32607	
1555	0	32852	32807	32863	32695	32775	32775	33131	32607	
1556	0	32837	32685	32831	32594	32541	32823	33171	32659	
1557	0	32841	32683	32829	32609	32611	32466	32820	32684	
1558	0	32908	32725	32775	32615	32925	32533	32819	32599	
1559	0	32918	32535	32910	32663	32797	32785	33150	32565	
1560	0	32866	32679	32830	32679	32518	32723	33253	32518	
1561	0	32948	32687	32831	32590	32543	32645	32758	32443	
1562	0	32944	32588	32879	32615	32823	32789	32642	32405	
1563	0	32935	32703	32785	32677	32455	32791	32769	32549	
1564	0	32898	32603	32886	32621	32815	32775	32839	32551	
1565	0	32908	32672	32803	32623	32699	32663	32767	32551	
1566	0	32915	32495	32847	32581	32730	32551	32667	32612	
1567	0	32918	32698	32903	32614	32741	32499	32916	32444	
1568	0	32870	32669	32891	32606	32646	32543	32743	32647	
1569	0	32836	32447	32975	32613	32866	32391	32715	32553	
1570	0	32796	32612	32899	32567	32791	32353	32821	32643	
1571	0	32850	32637	32977	32607	32599	33093	32722	32515	
1572	0	32854	32660	32991	32679	32835	33411	32943	32655	
1573	0	32842	32418	32959	32662	32903	33215	33233	32638	
1574	0	32761	32701	32895	32647	32967	32804	33475	32667	
1575	0	32716	32631	32831	32679	32911	32647	33343	32551	
1576	0	32692	32445	32837	32615	32758	32685	32941	32731	
1577	0	32692	32358	32837	32617	32787	32670	32421	32821	
1578	0	32583	32575	32767	32633	32865	32563	32015	32765	
1579	0	32543	32541	32703	32647	32773	32805	31847	32884	
1580	0	32543	32501	32663	32661	32852	32839	31863	32719	
1581	0	32571	32642	32631	32711	32855	32791	31851	32775	
1582	0	32613	32695	32645	32751	32620	32836	32183	32699	
1583	0	32574	32543	32581	32775	32642	32707	32629	32701	
1584	0	32543	32749	32551	32797	32505	32635	32642	32838	
1585	0	32578	32765	32439	32807	32535	32775	32540	32823	
1586	0	32519	32711	32535	32887	32742	33020	32611	32859	
1587	0	32423	32695	32431	32902	32769	33059	32690	32967	
1588	0	32440	32788	32250	32903	33037	32815	32797	32917	
1589	0	32469	32887	32289	32943	33059	32959	32838	32948	
1590	0	32338	32870	32179	33115	32891	32887	32809	33143	
1591	0	32281	32863	32255	33105	33255	33039	32507	33243	
1592	0	32205	32796	32045	33186	33063	32947	32317	33213	
1593	0	32076	32903	31911	33372	33425	33277	32199	33484	
1594	0	32135	32973	31983	33245	33319	33181	32084	33459	
1595	0	32249	32823	32151	33123	33263	33127	32126	33397	
1596	0	32468	32974	32431	33060	33000	33331	32355	32945	
1597	0	32509	32830	32525	32860	32963	33143	32455	32983	
1598	0	32698	32647	32671	32751	33085	32935	32711	32795	
1599	0	32807	32703	32799	32647	32579	32717	33071	32775	
1600	0	32903	32623	32999	32605	32405	32677	33250	32557	
1601	0	32957	32527	33022	32492	32231	32391	32919	32694	
1602	0	33044	32724	33087	32559	32253	32373	32647	32636	
1603	0	33088	32634	33026	32453	32846	32391	32833	32311	
1604	0	33031	32499	33049	32522	32644	32255	32887	32503	
1605	0	32978	32611	33047	32450	32689	32223	32612	32706	
1606	0	32993	32642	33039	32445	33031	32853	32901	32587	
1607	0	33004	32479	33082	32519	32759	32713	33507	32263	
1608	0	33008	32575	32969	32555	32679	32615	33439	32385	
1609	0	33078	32634	33037	32637	32727	32532	32949	32385	
1610	0	32847	32484	32959	32599	32535	32439	32847	32323	
1611	0	32943	32667	32843	32637	32691	32557	32975	32587	
1612	0	32925	32745	32911	32645	32751	32371	32927	32623	
1613	0	32942	32725	32799	32701	32929	33159	32743	32525	
1614	0	32940	32766	32931	32685	32693	32740	32717	32495	
1615	0	32919	32821	32871	32639	32903	32517	32804	32239	
1616	0	32884	32663	32903	32615	32694	32495	32829	32329	
1617	0	32925	32737	32868	32547	32818	32820	32598	32447	
1618	0	32944	32775	32883	32613	32663	32852	32432	32477	
1619	0	32967	32599	32919	32700	32470	32559	32495	32263	
1620	0	32985	32807	32865	32671	32773	32511	32559	32291	
1621	0	32945	32711	32831	32685	32615	32423	32751	32429	
1622	0	32935	32619	32855	32580	32575	32647	32879	32471	
1623	0	32872	32790	32791	32625	32550	32757	33001	32431	
1624	0	32915	32694	32895	32673	32367	32605	32867	32457	
1625	0	32903	32671	32775	32661	32658	32775	32902	32580	
1626	0	32951	32787	32851	32596	32476	32642	32893	32518	
1627	0	32886	32757	32799	32655	32855	32713	32815	32421	
1628	0	32791	32591	32903	32717	32748	32660	32791	32615	
1629	0	32812	32741	32775	32694	32867	32671	32935	32631	
1630	0	32783	32740	32815	32732	32673	32766	32367	32719	
1631	0	32791	32734	32799	32734	32733	32793	32219	32479	
1632	0	32743	32724	32707	32745	32702	32935	32435	32685	
1633	0	32773	32845	32742	32775	32692	32609	32635	32679	
1634	0	32734	32583	32684	32766	32853	32701	32956	32701	
1635	0	32720	32719	32647	32703	32607	32530	32815	32789	
1636	0	32759	32709	32813	32733	32571	32637	32623	32757	
1637	0	32739	32636	32699	32743	32771	32876	32493	32775	
1638	0	32734	32669	32719	32783	32893	32679	32655	32787	
1639	0	32730	32671	32751	32825	32916	32871	32813	32700	
1640	0	32757	32724	32729	32831	32701	32751	32987	32759	
1641	0	32741	32527	32790	32769	32715	32735	32951	32775	
1642	0	32692	32681	32766	32783	32733	32727	32804	32557	
1643	0	32692	32719	32743	32839	32342	32830	32771	32631	
1644	0	32655	32521	32807	32773	32636	33015	32736	32583	
1645	0	32749	32615	32751	32743	32975	32871	32685	32751	
1646	0	32713	32727	32743	32671	32871	32839	32735	32564	
1647	0	32705	32567	32685	32700	32933	32826	32791	32759	
1648	0	32711	32629	32749	32685	32692	32831	32863	32711	
1649	0	32769	32683	32681	32793	32754	32567	32796	32860	
1650	0	32765	32671	32807	32751	32699	32335	32783	32879	
1651	0	32775	32709	32799	32731	33415	32407	33027	32687	
1652	0	32803	32799	32783	32799	33263	32767	33502	32775	
1653	0	32834	32699	32775	32791	32902	32754	32897	32775	
1654	0	32790	32833	32787	32861	32943	32571	32401	32762	
1655	0	32719	32758	32671	32797	32557	32820	32351	32935	
1656	0	32729	32559	32775	32843	32903	32919	32435	32551	
1657	0	32741	32727	32703	32807	32911	32828	32398	32692	
1658	0	32711	32797	32709	32807	32791	32710	32525	32575	
1659	0	32708	32646	32631	32822	32841	32738	32255	32677	
1660	0	32742	32663	32767	32828	32471	32811	32059	32477	
1661	0	32753	32640	32658	32847	32638	32931	32235	32679	
1662	0	32806	32658	32737	32791	32660	32897	32399	32631	
1663	0	32739	32621	32699	32711	32951	32723	32415	32709	
1664	0	32727	32553	32697	32739	32731	32911	32887	32498	
1665	0	32720	32679	32749	32725	32487	32597	33445	32484	
1666	0	32727	32543	32709	32669	32751	32735	33693	32684	
1667	0	32773	32654	32765	32679	32538	32845	33246	32647	
1668	0	32700	32519	32751	32693	32751	32879	33533	32835	
1669	0	32762	32695	32639	32708	33060	32877	34183	32671	
1670	0	32773	32711	32844	32723	32819	32543	33917	32725	
1671	0	32747	32571	32729	32708	32859	32811	32838	32738	
1672	0	32745	32660	32842	32675	32685	32805	32391	32854	
1673	0	32764	32699	32788	32702	32647	32847	32079	32599	
1674	0	32729	32591	32836	32647	32743	32799	31462	32671	
1675	0	32692	32676	32775	32687	32647	32829	31503	32611	
1676	0	32745	32715	32799	32758	32575	32611	31709	32823	
1677	0	32799	32647	32831	32815	32407	32573	32291	32693	
1678	0	32732	32717	32761	32774	32749	32784	32967	32631	
1679	0	32780	32699	32765	32762	32747	32635	33087	32681	
1680	0	32774	32673	32669	32762	32577	32625	32999	32574	
1681	0	32821	32775	32754	32775	32740	32830	32641	32647	
1682	0	32815	32810	32690	32775	32607	32737	32347	32723	
1683	0	32743	32599	32713	32839	32626	32847	32428	32549	
1684	0	32736	32679	32733	32771	32674	32866	32438	32795	
1685	0	32735	32695	32710	32786	32634	32831	32685	32903	
1686	0	32690	32595	32733	32759	32847	32705	32711	32803	
1687	0	32753	32621	32693	32709	32911	32740	32658	32461	
1688	0	32759	32710	32791	32739	32884	32675	32724	32598	
1689	0	32756	32573	32738	32717	32971	32783	32927	32553	
1690	0	32717	32719	32695	32726	32903	32767	32725	32607	
1691	0	32708	32677	32805	32709	32918	32716	32855	32721	
1692	0	32679	32545	32647	32687	32967	32831	32870	32517	
1693	0	32756	32687	32749	32740	32855	32641	32963	32667	
1694	0	32809	32732	32743	32705	32929	32579	32847	32641	
1695	0	32775	32630	32863	32751	32903	32527	32603	32783	
1696	0	32676	32711	32725	32711	32642	32695	32643	32543	
1697	0	32723	32815	32743	32647	33045	32719	32767	32635	
1698	0	32749	32743	32829	32756	32878	32471	32835	32765	
1699	0	32804	32613	32699	32709	32682	32831	32943	32615	
1700	0	32719	32775	32799	32757	32797	32829	32804	32599	
1701	0	32737	32678	32739	32743	32455	32937	32661	32503	
1702	0	32753	32543	32829	32729	32882	32826	32534	32743	
1703	0	32694	32669	32743	32821	32772	32711	32325	32684	
1704	0	32745	32711	32759	32807	32454	32671	32403	32794	
1705	0	32807	32559	32711	32791	32748	32715	32423	32665	
1706	0	32725	32722	32701	32811	32691	32837	32413	32703	
1707	0	32716	32749	32782	32815	32621	32839	32407	32681	
1708	0	32679	32564	32715	32850	32703	32687	32583	32903	
1709	0	32754	32773	32799	32816	32463	32398	33051	32717	
1710	0	32751	32647	32775	32839	32743	32743	32876	32783	
1711	0	32703	32491	32764	32782	32679	32749	32716	32733	
1712	0	32698	32709	32775	32725	32834	32786	32675	32751	
1713	0	32775	32587	32803	32762	33014	32775	32595	32606	
1714	0	32738	32757	32815	32646	32991	32643	32711	32545	
1715	0	32813	32557	32863	32655	32838	32757	32718	32671	
1716	0	32750	32703	32759	32679	32743	33182	32675	32583	
1717	0	32854	32708	32851	32607	32706	32947	32758	32733	
1718	0	32798	32743	32742	32581	32863	32719	33071	32755	
1719	0	32762	32567	32615	32607	32903	32675	32983	32595	
1720	0	32799	32627	32669	32631	32458	32647	32704	32717	
1721	0	32791	32717	32647	32615	32667	32665	32579	32647	
1722	0	32754	32491	32692	32733	32697	32603	32534	32725	
1723	0	32749	32671	32671	32819	32493	32660	32641	32585	
1724	0	32814	32634	32663	32726	32663	32671	32916	32847	
1725	0	32747	32678	32775	32769	32643	32916	32985	32647	
1726	0	32765	32574	32791	32721	32535	33047	33037	32641	
1727	0	32761	32794	32764	32655	32935	32885	32775	32523	
1728	0	32782	32727	32747	32751	32799	32809	32718	32672	
1729	0	32764	32572	32751	32711	32685	32791	32557	32626	
1730	0	32753	32749	32850	32701	32943	32653	32567	32839	
1731	0	32743	32723	32747	32743	32914	32511	32434	32573	
1732	0	32785	32569	32767	32791	32671	32593	32263	32733	
1733	0	32775	32647	32791	32770	33001	32551	32275	32631	
1734	0	32791	32693	32735	32671	32903	32745	32388	32722	
1735	0	32857	32775	32791	32739	32751	32903	32655	32557	
1736	0	32822	32527	32726	32797	32903	32767	32819	32703	
1737	0	32790	32679	32762	32743	32903	32775	32731	32681	
1738	0	32815	32690	32846	32611	32775	32663	32647	32716	
1739	0	32804	32807	32775	32647	32733	32644	32623	32815	
1740	0	32841	32645	32826	32679	32735	32683	32631	32859	
1741	0	32782	32733	32769	32692	32813	32739	32755	32959	
1742	0	32763	32735	32733	32591	32707	32731	32767	32614	
1743	0	32738	32645	32730	32575	32505	32503	33079	32620	
1744	0	32760	32727	32637	32679	32695	32621	33365	32407	
1745	0	32807	32818	32831	32691	32562	32699	33111	32563	
1746	0	32743	32765	32734	32663	32968	32517	33151	32621	
1747	0	32794	32621	32743	32647	32807	32534	32815	32677	
1748	0	32902	32678	32751	32733	32526	32725	32811	32623	
1749	0	32850	32775	32655	32687	32525	32799	32567	32541	
1750	0	32832	32628	32775	32731	32481	33105	32659	32732	
1751	0	32793	32733	32738	32749	32439	33154	32775	32695	
1752	0	32837	32663	32627	32775	32723	32729	32797	32755	
1753	0	32786	32711	32757	32762	32801	32519	32593	32751	
1754	0	32703	32515	32775	32765	32755	32247	32493	32508	
1755	0	32749	32581	32724	32767	32895	32669	32926	32597	
1756	0	32738	32743	32775	32853	32911	33179	32915	32743	
1757	0	32743	32803	32738	32815	32875	33356	32660	32771	
1758	0	32775	32591	32855	32727	33335	33016	33035	32833	
1759	0	32785	32669	32751	32683	32997	32823	33079	32705	
1760	0	32718	32671	32719	32669	32790	32875	32847	32695	
1761	0	32678	32495	32751	32709	32743	32647	32699	32607	
1762	0	32735	32775	32775	32755	32557	32803	32575	32735	
1763	0	32839	32775	32783	32805	32881	32791	32823	32804	
1764	0	32760	32567	32790	32807	32647	32698	32684	32546	
1765	0	32793	32647	32731	32683	32359	32454	32503	32612	
1766	0	32816	32679	32791	32758	32879	32571	32438	32699	
1767	0	32774	32732	32703	32753	32765	32669	32549	32516	
1768	0	32804	32604	32647	32613	32525	32655	32551	32533	
1769	0	32811	32559	32758	32598	32819	32660	32607	32621	
1770	0	32783	32742	32751	32621	32763	32710	32636	32487	
1771	0	32767	32783	32775	32647	32635	32903	32706	32587	
1772	0	32732	32607	32691	32669	32784	32995	32858	32677	
1773	0	32757	32727	32765	32643	32886	32662	32917	32703	
1774	0	32735	32673	32751	32637	32775	32686	32789	32617	
1775	0	32738	32505	32761	32645	32787	32567	32775	32810	
1776	0	32692	32751	32831	32594	32740	32675	32675	32731	
1777	0	32773	32638	32733	32567	32820	32587	32471	32940	
1778	0	32729	32759	32805	32603	32607	32476	32389	32671	
1779	0	32767	32586	32807	32663	32491	32681	32355	32621	
1780	0	32775	32665	32711	32647	32975	32813	32434	32598	
1781	0	32767	32677	32799	32599	32788	33015	32553	32670	
1782	0	32773	32487	32677	32660	32677	32813	32869	32465	
1783	0	32753	32681	32759	32687	32495	32781	32962	32636	
1784	0	32783	32766	32759	32615	32630	32807	32679	32647	
1785	0	32772	32577	32647	32659	32559	32675	32739	32639	
1786	0	32752	32703	32757	32623	32570	32709	33569	32761	
1787	0	32788	32755	32713	32615	32527	32743	33503	32522	
1788	0	32767	32674	32799	32719	32703	32765	32834	32669	
1789	0	32775	32677	32725	32818	32525	32631	32683	32851	
1790	0	32740	32570	32763	32786	32878	32531	32538	32677	
1791	0	32770	32749	32700	32695	33266	32642	32871	32873	
1792	0	32694	32795	32735	32713	33187	32711	32923	32775	
1793	0	32671	32615	32647	32764	32903	32841	32560	32663	
1794	0	32789	32775	32766	32801	32794	32759	32220	32647	
1795	0	32744	32717	32791	32738	32951	32803	32279	32700	
1796	0	32772	32823	32759	32767	32867	32575	32491	32587	
1797	0	32772	32663	32862	32799	32711	32727	32516	32686	
1798	0	32707	32690	32754	32821	32935	32887	32581	32763	
1799	0	32727	32751	32786	32762	32659	32915	32751	32559	
1800	0	32735	32503	32756	32733	32438	32883	32929	32631	
1801	0	32703	32757	32730	32679	32767	32999	32607	32745	
1802	0	32757	32711	32735	32699	32735	32842	32569	32695	
1803	0	32746	32554	32719	32675	32588	32821	32837	32725	
1804	0	32707	32677	32735	32647	32866	32815	32924	32685	
1805	0	32798	32694	32742	32718	32743	32764	32837	32487	
1806	0	32775	32549	32723	32730	32693	32754	32799	32549	
1807	0	32822	32791	32762	32732	32695	32558	32763	32525	
1808	0	32806	32749	32763	32679	32607	32685	32684	32613	
1809	0	32776	32623	32715	32695	32751	32758	32871	32527	
1810	0	32790	32577	32715	32705	32553	32615	32948	32563	
1811	0	32767	32735	32671	32738	32719	32692	32767	32711	
1812	0	32758	32819	32734	32681	32788	32763	32795	32741	
1813	0	32784	32582	32615	32655	32799	32795	32803	32827	
1814	0	32706	32767	32690	32674	32801	32823	32642	32597	
1815	0	32763	32799	32755	32673	32933	32742	32710	32647	
1816	0	32750	32722	32749	32669	32669	32691	32609	32659	
1817	0	32775	32709	32831	32669	32599	32869	32159	32831	
1818	0	32784	32695	32726	32764	32742	32783	32549	32597	
1819	0	32724	32757	32765	32678	32735	32822	32741	32756	
1820	0	32789	32546	32677	32773	32675	32655	32836	32679	
1821	0	32758	32626	32715	32771	32970	32793	32767	32743	
1822	0	32717	32587	32725	32635	32879	32732	32604	32591	
1823	0	32736	32761	32711	32666	32819	32703	32625	32749	
1824	0	32794	32695	32815	32706	32765	32738	32835	32741	
1825	0	32767	32775	32755	32766	32795	32557	32775	32707	
1826	0	32748	32659	32839	32625	32895	32559	32707	32548	
1827	0	32765	32620	32738	32636	32763	32669	32799	32735	
1828	0	32768	32614	32748	32679	32647	32837	33479	32759	
1829	0	32756	32495	32807	32635	32917	32775	33011	32823	
1830	0	32734	32603	32733	32634	32967	32625	32570	32621	
1831	0	32725	32683	32772	32685	32815	32947	32727	32647	
1832	0	32738	32607	32797	32681	32925	32851	32767	32807	
1833	0	32815	32667	32723	32667	32813	32507	32723	32743	
1834	0	32767	32670	32795	32690	32775	32837	32727	32565	
1835	0	32727	32613	32709	32599	32871	32775	32567	32477	
1836	0	32800	32570	32820	32658	32793	32739	32535	32575	
1837	0	32757	32638	32727	32735	32751	32716	32355	32705	
1838	0	32807	32727	32751	32751	32615	32501	32367	32626	
1839	0	32711	32586	32711	32719	32615	32547	31983	32732	
1840	0	32741	32509	32635	32745	32626	32962	32171	32767	
1841	0	32726	32683	32701	32847	32692	32861	32551	32459	
1842	0	32775	32786	32665	32757	32549	33223	32735	32679	
1843	0	32775	32727	32767	32735	32499	33103	32761	32684	
1844	0	32860	32715	32711	32690	32849	32854	32935	32797	
1845	0	32799	32759	32727	32709	32735	32791	32903	32599	
1846	0	32799	32559	32746	32690	32791	32551	32753	32548	
1847	0	32844	32774	32701	32775	32607	32567	32855	32756	
1848	0	32786	32831	32782	32855	32449	32515	32823	32740	
1849	0	32835	32567	32734	32871	32887	32549	32679	32831	
1850	0	32740	32831	32812	32785	32773	32964	32640	32706	
1851	0	32746	32801	32727	32759	32751	33068	32811	32631	
1852	0	32724	32603	32719	32695	33086	32805	32775	32567	
1853	0	32759	32718	32703	32647	32932	32665	32791	32773	
1854	0	32722	32671	32741	32707	32699	32483	32804	32540	
1855	0	32716	32481	32669	32698	32775	32733	32763	32533	
1856	0	32770	32763	32711	32813	32883	33127	32647	32601	
1857	0	32719	32711	32759	32763	32791	33147	32756	32683	
1858	0	32792	32611	32719	32729	32863	32699	32932	32611	
1859	0	32783	32637	32839	32699	32686	32844	32661	32791	
1860	0	32764	32679	32751	32633	32855	32995	32711	32727	
1861	0	32725	32564	32807	32727	32918	32887	32756	32813	
1862	0	32782	32803	32719	32763	32605	32503	32808	32851	
1863	0	32727	32711	32699	32681	32811	32375	32663	33009	
1864	0	32740	32565	32803	32711	32549	32503	32629	32679	
1865	0	32741	32715	32703	32693	32575	32555	32513	32665	
1866	0	32721	32731	32851	32698	32719	32439	32477	32715	
1867	0	32773	32617	32775	32727	32605	32551	32711	32808	
1868	0	32790	32703	32807	32631	32605	32725	32735	32669	
1869	0	32723	32727	32743	32675	32735	32839	32587	32629	
1870	0	32721	32619	32775	32679	32715	32883	32467	32721	
1871	0	32758	32759	32758	32655	32815	32685	32498	32607	
1872	0	32804	32819	32813	32729	32707	32838	32679	32631	
1873	0	32779	32621	32754	32810	32655	32881	32839	32867	
1874	0	32745	32663	32766	32789	32811	32826	32759	32647	
1875	0	32711	32815	32751	32719	32757	32763	32500	32756	
1876	0	32717	32619	32691	32764	32721	32671	32615	32590	
1877	0	32751	32719	32775	32735	32773	32775	32924	32701	
1878	0	32719	32735	32723	32719	32643	32839	32931	32547	
1879	0	32695	32621	32793	32687	32743	32839	33167	32685	
1880	0	32687	32699	32743	32727	32683	32826	33110	32653	
1881	0	32759	32509	32819	32748	32759	32789	32843	32703	
1882	0	32813	32619	32775	32699	32799	32706	32687	32567	
1883	0	32781	32663	32739	32775	32569	32807	32671	32715	
1884	0	32725	32599	32692	32743	32903	32539	32643	32611	
1885	0	32743	32627	32807	32711	32986	32708	32689	32643	
1886	0	32692	32743	32687	32717	32870	32691	32583	32663	
1887	0	32687	32593	32739	32743	32903	32615	32686	32477	
1888	0	32793	32711	32739	32759	32951	32755	32362	32615	
1889	0	32834	32711	32725	32751	33027	32699	32341	32621	
1890	0	32780	32499	32685	32735	32927	32975	32591	32679	
1891	0	32754	32719	32685	32775	32623	32863	32727	32771	
1892	0	32687	32679	32717	32759	32891	33111	32804	32583	
1893	0	32685	32471	32679	32749	32775	32915	32925	32647	
1894	0	32751	32678	32743	32701	32765	32732	33011	32843	
1895	0	32702	32623	32762	32662	32647	32715	33227	32613	
1896	0	32756	32519	32782	32663	32425	32750	33063	32823	
1897	0	32838	32749	32791	32757	32743	32742	32679	32707	
1898	0	32816	32730	32723	32763	32678	32663	32327	32889	
1899	0	32833	32587	32815	32751	33314	32759	32447	32543	
1900	0	32775	32689	32822	32799	32879	32727	32631	32647	
1901	0	32815	32737	32825	32735	32415	32532	32749	32578	
1902	0	32828	32631	32751	32783	32437	32598	32751	32735	
1903	0	32777	32709	32786	32743	32385	32617	32658	32575	
1904	0	32828	32771	32596	32711	32973	32761	32614	32579	
1905	0	32718	32595	32681	32659	32783	32773	32551	32711	
1906	0	32753	32676	32705	32711	32631	32930	32426	32588	
1907	0	32815	32775	32719	32689	32943	32847	32407	32509	
1908	0	32832	32631	32739	32823	32647	32742	32556	32615	
1909	0	32783	32731	32669	32798	32938	32832	32743	32729	
1910	0	32790	32625	32695	32729	32925	32638	32771	32559	
1911	0	32731	32751	32692	32709	32921	32587	32813	32733	
1912	0	32724	32743	32701	32639	32818	32701	32807	32679	
1913	0	32723	32529	32671	32735	32725	32935	32791	32771	
1914	0	32701	32703	32762	32671	32919	32753	32775	32647	
1915	0	32716	32749	32692	32694	32919	32663	32874	32950	
1916	0	32715	32559	32727	32671	32495	32699	32799	32807	
1917	0	32751	32751	32775	32711	32913	32460	32660	32683	
1918	0	32804	32727	32765	32655	32807	32727	32594	32847	
1919	0	32763	32639	32877	32787	32695	32807	32575	32556	
1920	0	32780	32790	32775	32679	32506	32609	32351	32628	
1921	0	32778	32797	32877	32660	32437	32691	32533	32747	
1922	0	32775	32598	32799	32705	32885	32759	32595	32626	
1923	0	32757	32759	32850	32575	32565	32852	32639	32659	
1924	0	32829	32707	32733	32750	32655	32636	32757	32660	
1925	0	32732	32605	32756	32743	32903	32751	32899	32678	
1926	0	32762	32751	32820	32751	32773	32875	32677	32461	
1927	0	32844	32732	32775	32807	32755	32924	32516	32614	
1928	0	32798	32575	32831	32727	32645	32963	32463	32583	
1929	0	32765	32763	32716	32692	32659	32827	32415	32695	
1930	0	32789	32679	32814	32655	32977	32694	32738	32535	
1931	0	32771	32607	32761	32636	32739	32721	32865	32551	
1932	0	32863	32687	32831	32642	32773	32692	33259	32623	
1933	0	32835	32775	32729	32631	32799	32725	33151	32679	
1934	0	32834	32563	32725	32639	32583	32735	32893	32532	
1935	0	32767	32677	32711	32666	32683	32599	32918	32717	
1936	0	32769	32570	32762	32647	32485	32703	33031	32738	
1937	0	32786	32747	32707	32725	33015	32758	33143	32615	
1938	0	32796	32658	32767	32783	32903	32859	33123	32711	
1939	0	32796	32591	32720	32788	32849	32890	33080	32729	
1940	0	32800	32646	32791	32727	32769	32834	32983	32729	
1941	0	32757	32579	32733	32767	32891	32795	33044	32607	
1942	0	32717	32765	32739	32686	33044	32859	32903	32695	
1943	0	32725	32783	32740	32721	32749	32695	32553	32751	
1944	0	32761	32613	32743	32733	32775	32797	32455	32569	
1945	0	32701	32749	32735	32759	32569	32583	32455	32698	
1946	0	32741	32775	32685	32646	32308	32603	31751	32742	
1947	0	32740	32602	32745	32765	32723	32773	31290	32867	
1948	0	32775	32710	32751	32833	32663	32893	31575	32569	
1949	0	32756	32763	32813	32727	32547	32965	32373	32666	
1950	0	32786	32647	32773	32743	32647	32643	33887	32647	
1951	0	32775	32645	32715	32775	32871	32585	33545	32605	
1952	0	32726	32559	32735	32815	32743	32522	32679	32714	
1953	0	32732	32663	32647	32642	32718	32808	32485	32679	
1954	0	32687	32701	32791	32643	32847	32807	32723	32741	
1955	0	32748	32751	32759	32711	32699	32757	32791	32575	
1956	0	32765	32815	32718	32612	32694	32795	32835	32810	
1957	0	32751	32739	32735	32610	32596	32699	32829	32735	
1958	0	32757	32527	32823	32709	32808	32791	32757	32567	
1959	0	32765	32791	32737	32623	32839	32671	32709	32683	
1960	0	32783	32765	32709	32617	32631	32639	32667	32775	
1961	0	32734	32603	32785	32769	32911	32725	32751	32663	
1962	0	32726	32721	32759	32771	32721	33060	32677	32703	
1963	0	32684	32642	32722	32661	32587	32983	32757	32541	
1964	0	32734	32695	32829	32645	32901	32740	32740	32655	
1965	0	32775	32559	32711	32671	32673	32765	32723	32583	
1966	0	32801	32607	32751	32703	32598	32818	32687	32763	
1967	0	32782	32629	32791	32758	32631	32495	32698	32687	
1968	0	32837	32532	32791	32786	32852	32531	32700	32671	
1969	0	32802	32691	32857	32711	32679	32537	32563	32599	
1970	0	32806	32695	32759	32791	33001	32807	32687	32639	
1971	0	32743	32599	32705	32707	32713	32822	32679	32765	
1972	0	32745	32531	32819	32647	32623	32459	32535	32596	
1973	0	32735	32763	32787	32622	32543	32575	32401	32495	
1974	0	32740	32719	32687	32679	32959	32647	32497	32695	
1975	0	32713	32643	32628	32749	32982	33111	33071	32673	
1976	0	32690	32555	32732	32743	32839	32806	32941	32694	
1977	0	32751	32723	32669	32797	33099	32739	32977	33013	
1978	0	32729	32759	32743	32799	33044	33036	33423	32663	
1979	0	32736	32535	32741	32749	32791	33239	33431	32633	
1980	0	32682	32731	32759	32763	32814	33069	33311	32513	
1981	0	32722	32745	32759	32722	32551	32877	32963	32700	
1982	0	32764	32642	32699	32788	32854	32655	32773	32605	
1983	0	32775	32771	32727	32807	32647	32335	32428	32911	
1984	0	32757	32747	32796	32805	32498	32551	32066	32647	
1985	0	32772	32711	32725	32740	32769	32591	32114	32631	
1986	0	32811	32685	32735	32747	32740	32647	32423	32713	
1987	0	32818	32711	32743	32695	32589	32685	32613	32479	
1988	0	32845	32797	32719	32687	32855	32700	32685	32620	
1989	0	32880	32711	32817	32712	32771	32807	32783	32677	
1990	0	32815	32773	32813	32719	32790	32699	32703	32519	
1991	0	32806	32668	32787	32730	32801	32711	32738	32602	
1992	0	32785	32563	32831	32647	32775	32745	32911	32702	
1993	0	32785	32745	32839	32653	32789	32599	32788	32647	
1994	0	32745	32701	32795	32671	32987	32647	32661	32670	
1995	0	32793	32631	32818	32615	32701	32850	32668	32581	
1996	0	32719	32645	32765	32671	32591	33065	32698	32559	
1997	0	32805	32719	32751	32695	33042	32793	32695	32605	
1998	0	32775	32701	32713	32698	32919	32790	32679	32631	
1999	0	32783	32573	32673	32703	32559	32763	32551	32641	
2000	0	32757	32711	32717	32677	32741	32802	32559	32709	
2001	0	32794	32679	32708	32771	32675	32595	32580	32764	
2002	0	32757	32643	32695	32727	32669	32771	32759	32523	
2003	0	32745	32548	32775	32738	32831	32786	32802	32604	
2004	0	32683	32743	32782	32706	32765	32631	32837	32739	
2005	0	32722	32639	32735	32759	32767	32914	33097	32811	
2006	0	32672	32705	32758	32742	32765	32994	33171	32599	
2007	0	32663	32731	32713	32805	32599	32743	33362	32643	
2008	0	32741	32535	32765	32679	32799	32647	32839	32663	
2009	0	32694	32661	32647	32727	32831	32717	32391	32786	
2010	0	32693	32731	32731	32699	32724	32607	32524	32573	
2011	0	32702	32519	32711	32775	32942	32671	32807	32495	
2012	0	32743	32677	32725	32767	32799	32657	32663	32693	
2013	0	32834	32782	32821	32810	33005	32895	32487	32548	
2014	0	32804	32571	32785	32749	32833	33053	32471	32583	
2015	0	32796	32819	32715	32738	32450	32951	32679	32643	
2016	0	32811	32745	32836	32822	32559	32527	32775	32915	
2017	0	32795	32799	32789	32735	32743	32508	32191	32948	
2018	0	32860	32739	32743	32677	32775	32887	32246	32791	
2019	0	32806	32673	32787	32632	32790	32934	32639	32481	
2020	0	32781	32647	32775	32627	32941	32887	33279	32754	
2021	0	32756	32647	32743	32612	32613	32811	33361	32791	
2022	0	32799	32516	32797	32703	32452	32471	32942	32951	
2023	0	32799	32709	32775	32743	32436	32263	33257	32884	
2024	0	32738	32647	32717	32711	32621	32314	33415	32772	
2025	0	32763	32711	32685	32719	32635	32599	33326	32540	
2026	0	32711	32565	32733	32775	32487	32854	32903	32580	
2027	0	32741	32734	32645	32769	32879	32775	32573	32695	
2028	0	32746	32717	32726	32705	32827	32689	32543	32775	
2029	0	32782	32698	32767	32695	33219	32807	32291	32879	
2030	0	32818	32634	32759	32647	33053	32863	32342	32855	
2031	0	32749	32775	32727	32687	32949	32741	32223	32487	
2032	0	32750	32774	32748	32717	32821	32786	32013	32500	
2033	0	32823	32741	32723	32727	32506	32738	32276	32515	
2034	0	32797	32679	32742	32763	32766	32667	32579	32553	
2035	0	32826	32629	32797	32733	32553	32871	32751	32564	
2036	0	32743	32765	32690	32734	32534	32862	32799	32643	
2037	0	32761	32554	32612	32693	32935	32643	32998	32495	
2038	0	32832	32691	32738	32547	32775	32814	33263	32613	
2039	0	32692	32690	32775	32505	32830	32869	33215	32771	
2040	0	32682	32647	32759	32599	32874	32743	32982	32723	
2041	0	32715	32647	32747	32607	32775	32703	32823	32759	
2042	0	32739	32683	32815	32695	32639	32647	32783	32900	
2043	0	32724	32708	32775	32743	32647	32647	32471	32863	
2044	0	32694	32669	32759	32751	32485	32791	32245	32558	
2045	0	32719	32534	32731	32775	32842	32731	32146	32515	
2046	0	32696	32756	32799	32679	32689	32660	32335	32647	
2047	0	32688	32711	32759	32655	32671	32658	32389	32659	
2048	0	32747	32615	32773	32687	32935	32869	32738	32675	
2049	0	32771	32604	32855	32789	32895	33083	33014	32695	
2050	0	32749	32771	32755	32775	32706	32773	33061	32789	
2051	0	32777	32831	32706	32785	32613	32727	33082	32579	
2052	0	32865	32519	32757	32757	33063	32655	32919	32566	
2053	0	32758	32703	32725	32866	32999	32735	32603	32671	
2054	0	32682	32741	32647	32809	33039	32660	32663	32677	
2055	0	32825	32719	32751	32709	32795	32743	32351	32797	
2056	0	32818	32647	32775	32647	33031	32740	32207	32847	
2057	0	32791	32599	32724	32709	32982	32887	32445	32775	
2058	0	32773	32775	32771	32735	32503	32933	32623	32575	
2059	0	32743	32679	32751	32757	32607	32695	32982	32575	
2060	0	32801	32646	32729	32715	32715	32707	32901	32671	
2061	0	32766	32615	32743	32722	32521	32676	32946	32659	
2062	0	32724	32709	32743	32805	32423	32477	33010	32675	
2063	0	32732	32775	32668	32732	32786	32743	33155	32742	
2064	0	32735	32685	32795	32711	32726	32692	32878	32627	
2065	0	32765	32708	32822	32745	32591	32599	32835	32621	
2066	0	32751	32695	32763	32730	32789	32711	32860	32647	
2067	0	32780	32598	32758	32707	32725	32677	32709	32663	
2068	0	32764	32734	32773	32679	32595	32705	32756	32527	
2069	0	32775	32699	32775	32711	32927	32731	32855	32613	
2070	0	32782	32516	32725	32679	32807	32658	32823	32731	
2071	0	32781	32647	32753	32643	32815	32969	32591	32711	
2072	0	32793	32685	32751	32623	32711	32745	32829	32685	
2073	0	32767	32694	32679	32647	32877	32586	32795	32759	
2074	0	32794	32726	32735	32623	32823	32634	32375	32530	
2075	0	32769	32717	32748	32567	32914	32527	32151	32735	
2076	0	32724	32527	32758	32623	32853	32467	32061	32954	
2077	0	32742	32663	32725	32573	32668	33039	32045	32676	
2078	0	32761	32758	32751	32591	32939	32911	32143	32580	
2079	0	32783	32668	32791	32647	32706	32998	32282	32551	
2080	0	32742	32727	32761	32701	32471	32621	32741	32599	
2081	0	32741	32622	32805	32725	32734	32663	32941	32679	
2082	0	32736	32741	32749	32631	32551	32711	32917	32407	
2083	0	32725	32743	32789	32647	32285	32675	32967	32637	
2084	0	32711	32515	32749	32671	32633	32742	33173	32604	
2085	0	32735	32699	32722	32668	32749	32775	33521	32769	
2086	0	32725	32723	32685	32705	33005	33089	33382	32709	
2087	0	32785	32539	32703	32687	32827	32935	32743	32791	
2088	0	32751	32687	32762	32685	32679	32677	32687	32579	
2089	0	32729	32790	32671	32665	32647	32799	32551	32731	
2090	0	32753	32631	32799	32727	32783	33124	32439	32945	
2091	0	32749	32759	32743	32799	32837	32551	32542	32805	
2092	0	32820	32757	32757	32799	32770	32607	32671	32687	
2093	0	32770	32607	32757	32763	32887	32627	32783	32591	
2094	0	32718	32679	32677	32754	32498	32727	32727	32471	
2095	0	32759	32612	32741	32710	32787	32647	32807	32615	
2096	0	32715	32767	32732	32647	32843	32653	32791	32615	
2097	0	32765	32765	32811	32662	32655	32615	32797	32655	
2098	0	32882	32628	32722	32599	32820	32599	32527	32711	
2099	0	32789	32687	32813	32703	32962	32895	32543	32487	
2100	0	32751	32775	32759	32671	32751	32903	32485	32666	
2101	0	32746	32714	32761	32658	32799	32775	32559	32695	
2102	0	32761	32695	32775	32725	32830	32660	32553	32800	
2103	0	32775	32647	32735	32730	32629	32647	32551	32676	
2104	0	32773	32743	32786	32692	32663	32791	32603	32613	
2105	0	32751	32741	32769	32701	32869	32775	32813	32692	
2106	0	32775	32733	32795	32676	32871	32807	33283	32743	
2107	0	32755	32676	32725	32691	32647	32807	33201	32861	
2108	0	32713	32639	32742	32794	32684	32583	33058	32639	
2109	0	32665	32659	32706	32751	32811	32679	32775	32755	
2110	0	32692	32690	32661	32785	32903	32678	32327	32801	
2111	0	32701	32743	32769	32759	32872	32575	32311	32735	
2112	0	32725	32599	32747	32726	32863	32831	32275	32815	
2113	0	32753	32711	32716	32775	32719	32862	32331	32645	
2114	0	32804	32671	32749	32775	32870	32827	32447	32561	
2115	0	32791	32671	32667	32729	32518	32717	32655	32605	
2116	0	32745	32749	32821	32647	32489	32685	32755	32658	
2117	0	32798	32558	32727	32733	32991	32839	32695	32583	
2118	0	32769	32797	32707	32735	32903	32919	32571	32581	
2119	0	32812	32767	32724	32703	32615	32829	32533	32731	
2120	0	32793	32527	32626	32646	32901	32831	32607	32463	
2121	0	32827	32596	32743	32697	32807	32643	32870	32660	
2122	0	32788	32681	32687	32711	32673	32517	33319	32518	
2123	0	32792	32463	32706	32691	32959	32874	33189	32621	
2124	0	32788	32667	32790	32713	32767	32877	32767	32609	
2125	0	32804	32694	32751	32694	32479	32823	32598	32644	
2126	0	32832	32471	32771	32713	32681	32775	32663	32591	
2127	0	32785	32637	32839	32724	32388	32662	32959	32644	
2128	0	32807	32647	32757	32631	32519	32679	33025	32711	
2129	0	32715	32695	32755	32659	32799	32763	32863	32892	
2130	0	32737	32598	32820	32711	32871	32738	32887	32775	
2131	0	32781	32647	32717	32669	32694	32799	32783	32797	
2132	0	32792	32678	32847	32639	32953	32643	32369	32623	
2133	0	32796	32519	32767	32756	32826	32788	32307	32739	
2134	0	32807	32790	32711	32727	32665	32683	32655	32749	
2135	0	32775	32719	32791	32735	32883	32525	32559	32751	
2136	0	32779	32603	32686	32708	32819	32850	32135	32781	
2137	0	32812	32793	32732	32759	32819	32733	32351	32493	
2138	0	32743	32766	32735	32759	32727	32675	32643	32663	
2139	0	32767	32655	32767	32833	32617	32729	32967	32675	
2140	0	32739	32702	32658	32786	32775	32764	33335	32735	
2141	0	32665	32775	32666	32743	32684	32827	33031	32727	
2142	0	32677	32535	32754	32735	32612	32983	32695	32804	
2143	0	32759	32743	32788	32740	32724	32957	32934	32655	
2144	0	32687	32770	32739	32740	32727	32796	33042	32755	
2145	0	32726	32733	32837	32711	32639	32623	33203	32823	
2146	0	32730	32615	32819	32747	32855	32581	32751	32805	
2147	0	32786	32749	32813	32693	32843	32637	32617	32767	
