# OpenSignals Text File Format
# {"00:07:80:3B:46:38": {"sensor": ["CUSTOM/0.5/1.0/V", "CUSTOM/0.5/1.0/V", "CUSTOM/0.5/1.0/V", "CUSTOM/0.5/1.0/V", "CUSTOM/0.5/1.0/V", "CUSTOM/0.5/1.0/V", "CUSTOM/0.5/1.0/V", "CUSTOM/0.5/1.0/V"], "device name": "EMGs", "column": ["nSeq", "DI", "RA_L", "RA_R", "OE_L", "OE:R", "IL_L", "IL_R", "MF_L", "MF_R"], "sync interval": 2, "time": "18:4:9.913", "comments": "", "device connection": "BTH00:07:80:3B:46:38", "channels": [1, 2, 3, 4, 5, 6, 7, 8], "date": "2017-6-1", "mode": 0, "digital IO": [0, 1], "firmware version": 772, "device": "biosignalsplux", "position": 0, "sampling rate": 1000, "label": ["RA_L", "RA_R", "OE_L", "OE:R", "IL_L", "IL_R", "MF_L", "MF_R"], "resolution": [16, 16, 16, 16, 16, 16, 16, 16], "special": [{}, {}, {}, {}, {}, {}, {}, {}]}}
# EndOfHeader
0	0	32948	32707	32049	32871	0	36139	33351	31299	
1	0	33179	32467	32367	32637	0	33575	33255	32637	
2	0	33170	32647	32025	32839	0	33324	32285	32191	
3	0	33104	32863	31915	33071	0	33623	31762	31787	
4	0	33015	32932	31239	33174	0	31891	31997	32663	
5	0	33007	32951	30751	32807	0	30781	33341	32963	
6	0	33026	32903	30879	32988	0	31363	34305	33067	
7	0	33060	32787	31199	32790	0	31781	33287	33428	
8	0	33055	32669	31701	32767	0	31983	32953	33127	
9	0	32973	32759	32334	33039	0	32173	33174	32918	
10	0	32839	32710	33449	32867	0	32407	32989	32978	
11	0	32622	32775	34199	32469	0	33437	32986	32455	
12	0	32511	32843	34520	32147	0	33339	32175	33077	
13	0	32417	32791	34823	31555	0	33105	31183	33771	
14	0	32407	32637	34903	31579	0	32375	31139	33746	
15	0	32377	32453	34919	31471	0	32789	31551	33447	
16	0	32300	32375	35182	31793	0	31862	31633	33222	
17	0	32329	32567	34919	32066	0	31547	32179	32884	
18	0	32416	32570	34763	32045	0	31299	32470	32372	
19	0	32493	32611	34500	32455	0	30743	33215	32355	
20	0	32413	32807	33989	32854	0	31269	34223	31831	
21	0	32469	32903	33577	32918	0	32475	35271	30813	
22	0	32660	32764	33001	32987	0	32925	35477	30259	
23	0	32842	32634	32454	32758	0	32688	33143	32172	
24	0	32903	32655	32331	32719	0	32228	33345	34095	
25	0	32828	32903	32143	33053	0	32548	34095	34871	
26	0	32836	32961	32041	32935	0	33885	34168	33225	
27	0	32808	33013	32108	33257	0	33951	33671	32183	
28	0	32783	32950	32097	33078	0	34290	32923	33166	
29	0	32926	32829	31665	33039	0	34339	32334	34471	
30	0	32927	32797	31623	32980	0	34375	31109	34467	
31	0	32873	32867	30855	33055	0	34351	30343	33127	
32	0	33030	32975	29063	33049	0	34155	29289	32443	
33	0	33248	32946	28167	33181	0	34089	29591	32150	
34	0	33409	32845	28719	33505	0	34231	31439	31828	
35	0	33373	33047	29983	33559	0	32575	32492	32581	
36	0	33287	32999	31133	33383	0	32045	33603	32791	
37	0	33141	33011	32295	32995	0	31983	34355	32727	
38	0	33049	33039	33349	32602	0	32023	34487	32655	
39	0	32850	32807	33983	32461	0	32499	34375	32891	
40	0	32617	32610	34065	32359	0	32445	33590	32741	
41	0	32412	32482	34711	31861	0	32279	32563	32575	
42	0	32245	32423	35223	31799	0	32335	32058	32775	
43	0	32178	32477	35402	31690	0	31818	31707	32647	
44	0	32149	32607	35615	31599	0	32367	31987	32615	
45	0	32226	32599	35553	31951	0	32209	32055	32516	
46	0	32382	32399	35335	32023	0	32484	32111	32319	
47	0	32431	32373	34867	32207	0	32814	32231	32663	
48	0	32657	32513	34091	32359	0	32211	32241	33626	
49	0	32698	32711	33625	32605	0	31221	32482	33847	
50	0	32782	32854	33111	32797	0	31195	32527	33716	
51	0	32717	32815	32933	32947	0	31675	32471	33671	
52	0	32751	32789	32709	32987	0	32309	32479	32922	
53	0	32809	32773	32402	32868	0	31586	32767	31783	
54	0	32780	32823	32391	32939	0	32805	32842	31399	
55	0	32683	33003	32205	32903	0	34047	32807	31231	
56	0	32726	33047	31943	33263	0	34591	33382	31938	
57	0	32840	32903	31825	33119	0	34849	33541	33063	
58	0	32800	32827	31778	32791	0	34818	33786	32577	
59	0	32825	32805	31642	32675	0	34009	34000	32237	
60	0	32836	32799	31467	32738	0	32263	32989	32423	
61	0	32903	32773	31311	32507	0	31977	31979	32823	
62	0	33027	32691	30866	32565	0	32151	31247	32870	
63	0	32885	32797	30967	32537	0	32894	30682	32987	
64	0	32916	32599	31086	32295	0	34649	31119	33357	
65	0	33069	32375	31199	32141	0	34327	30683	34403	
66	0	33142	32207	32369	31951	0	33841	30548	34465	
67	0	33032	32419	32754	32177	0	33799	31852	34335	
68	0	32766	32829	33037	32604	0	35265	35199	32543	
69	0	32551	33232	33823	32903	0	32858	37343	30535	
70	0	32600	33453	33363	33369	0	28115	36757	31261	
71	0	32588	33447	33467	33337	0	27759	36137	31967	
72	0	32458	33423	33285	33535	0	31606	35406	30363	
73	0	32415	33511	33133	33387	0	35431	35326	28852	
74	0	32492	33287	32934	33119	0	35247	34015	29983	
75	0	32640	33085	32759	33065	0	32910	33218	31591	
76	0	32803	32847	32525	32791	0	32487	32903	32519	
77	0	32913	32631	32535	32495	0	34468	32901	32347	
78	0	32901	32581	32562	32663	0	33322	32463	32203	
79	0	32952	32487	32364	32580	0	32039	31943	32787	
80	0	32908	32519	32448	32343	0	31485	31911	33346	
81	0	32900	32519	32391	32382	0	31427	31879	33951	
82	0	32884	32567	32547	32455	0	31335	32031	33581	
83	0	32807	32535	32622	32500	0	31556	31931	33410	
84	0	32855	32607	32586	32481	0	31855	32051	33412	
85	0	32863	32623	32799	32495	0	32070	32038	32985	
86	0	32764	32675	32806	32533	0	32323	32005	33157	
87	0	32775	32723	32892	32643	0	32455	32429	33468	
88	0	32796	32759	32863	32338	0	32439	32293	34023	
89	0	32760	32775	32899	32469	0	32531	32183	33771	
90	0	32727	32723	32885	32421	0	32054	32153	33427	
91	0	32784	32646	32727	32359	0	32071	32492	32019	
92	0	32735	32789	32841	32733	0	32630	32743	30450	
93	0	32708	32869	32899	32858	0	33171	32835	29175	
94	0	32743	32809	32811	32633	0	33927	32855	28797	
95	0	32790	32790	32775	32791	0	34668	32535	29908	
96	0	32759	32832	32687	32767	0	34541	32751	31463	
97	0	32758	32834	32853	32631	0	33967	32983	31396	
98	0	32665	32990	33053	32935	0	32711	32955	33375	
99	0	32621	32935	32952	32855	0	31039	32948	35869	
100	0	32658	32967	32915	32873	0	31075	32786	35743	
101	0	32585	33015	32727	33045	0	31907	32726	35019	
102	0	32559	32935	32461	32947	0	32405	32887	33759	
103	0	32912	32711	32279	32675	0	34293	32446	33107	
104	0	33193	32519	31485	32367	0	34903	31943	34117	
105	0	33241	32538	31431	32639	0	32566	31646	35219	
106	0	32876	32733	31910	32751	0	32099	31969	34181	
107	0	32836	32833	32623	32536	0	35262	32391	33395	
108	0	32800	32887	32647	32671	0	37527	32690	32329	
109	0	32831	32591	32406	32457	0	36647	32447	32118	
110	0	32942	32583	32580	32412	0	33351	31783	32716	
111	0	32874	32489	33982	32307	0	32316	31894	33003	
112	0	32710	32693	34131	32379	0	29874	32849	32004	
113	0	32633	32935	33176	32321	0	33047	33791	31069	
114	0	32622	32979	32082	32503	0	35783	34137	30007	
115	0	32628	32927	31172	32295	0	33731	34323	31580	
116	0	32613	33095	31355	32647	0	31584	35071	33077	
117	0	32628	33101	31970	33117	0	31207	33951	32959	
118	0	32620	32937	32604	33141	0	31937	33230	32169	
119	0	32720	32859	33076	33191	0	32276	32711	31514	
120	0	32737	32715	33405	32987	0	31445	32366	32483	
121	0	32877	32695	33442	33119	0	32117	32319	32802	
122	0	32839	32635	33279	33159	0	32050	32431	32903	
123	0	32882	32679	32890	33031	0	32071	32271	32935	
124	0	32857	32559	32757	32826	0	32299	32527	33551	
125	0	32831	32587	33460	32765	0	32050	32311	33159	
126	0	32731	32527	33868	32562	0	31793	32695	32279	
127	0	32583	32531	34104	32443	0	31730	32943	31900	
128	0	32564	32595	33915	32284	0	32773	33060	31354	
129	0	32540	32630	33959	31935	0	32951	33310	31059	
130	0	32551	32447	33519	31746	0	33860	32687	31314	
131	0	32703	32358	32799	31732	0	34695	32443	31809	
132	0	33109	32157	31891	31659	0	34745	32623	31687	
133	0	33026	32371	32165	32127	0	32885	32342	32111	
134	0	32864	32539	32470	32287	0	32409	31190	34740	
135	0	32927	32608	32515	32719	0	33079	30670	35231	
136	0	32822	33030	33301	32988	0	28367	31879	35111	
137	0	32676	33330	32948	33255	0	26983	31509	35575	
138	0	32732	33287	32583	33329	0	28927	30409	34787	
139	0	32797	33203	31781	33135	0	30867	29569	33510	
140	0	32884	33074	31013	32847	0	33823	30624	33767	
141	0	32900	33069	30355	33172	0	36013	33645	31869	
142	0	32839	33201	29958	33639	0	35795	36647	29660	
143	0	32847	33154	29917	33738	0	35255	37085	29735	
144	0	32913	32964	30691	34023	0	34025	35741	31231	
145	0	32820	32967	31610	34003	0	33870	33098	32751	
146	0	32628	33063	32549	33839	0	35551	32031	32551	
147	0	32327	33146	33790	32815	0	35369	32583	32603	
148	0	32238	33089	34580	31892	0	33004	32519	33797	
149	0	32253	33050	34741	31471	0	31875	32743	33159	
150	0	32263	32868	34558	30979	0	31306	31991	33063	
151	0	32423	32355	34683	30951	0	31631	31781	33279	
152	0	32545	32243	34677	31303	0	31045	32754	34023	
153	0	32742	32172	33891	31783	0	31521	32659	33734	
154	0	32748	32063	33549	31845	0	33019	32595	32946	
155	0	32652	32407	33746	32203	0	32901	32959	31687	
156	0	32614	32595	35195	32470	0	31999	33285	31323	
157	0	32551	32679	35463	32734	0	31767	33319	32327	
158	0	32768	32551	34471	32775	0	31903	33961	32423	
159	0	33060	32579	33863	32566	0	28381	33841	31993	
160	0	32888	32740	33697	32791	0	28937	32596	31822	
161	0	32805	32809	33185	32819	0	31845	34131	30337	
162	0	33165	32607	32174	32679	0	31255	33036	32150	
163	0	33168	32876	31773	32949	0	32509	31878	34351	
164	0	32937	33014	31831	33319	0	34578	31668	33347	
165	0	32702	33183	32052	33433	0	36103	32354	31543	
166	0	32607	33196	32029	33271	0	38005	32853	31691	
167	0	32526	33319	31877	33397	0	38007	33149	31450	
168	0	32525	33283	31955	33267	0	37107	33377	30593	
169	0	32692	33107	31715	33105	0	36263	33191	32722	
170	0	32846	32831	31555	32599	0	34842	32749	34437	
171	0	33021	32695	31492	32423	0	33004	32863	34924	
172	0	32984	32685	31575	32567	0	33127	32635	33127	
173	0	32923	32645	31515	32769	0	32727	32327	31655	
174	0	32889	32695	31789	32757	0	30932	32234	32961	
175	0	32862	32775	31906	32751	0	30169	32033	33707	
176	0	32863	32747	31653	32940	0	31593	32370	33863	
177	0	33017	32647	31485	32843	0	32551	32287	33683	
178	0	33034	32597	31707	32431	0	32463	32223	32975	
179	0	32940	32703	31833	32631	0	32305	32586	32719	
180	0	32895	32835	32020	32821	0	32081	32838	32349	
181	0	32834	32860	32255	32455	0	31495	33444	32135	
182	0	32818	32955	32615	32722	0	31599	33399	32443	
183	0	32892	32687	32775	32753	0	33540	32441	33299	
184	0	32943	32563	32840	32877	0	34660	32245	33031	
185	0	32812	32715	33007	33127	0	34691	32579	32743	
186	0	32679	32735	33003	33182	0	33491	32763	31909	
187	0	32555	32807	33151	32983	0	33490	32415	30871	
188	0	32533	32951	33115	32574	0	31729	32543	31130	
189	0	32535	32951	33027	32207	0	29053	32791	32179	
190	0	32591	32921	33037	32495	0	31266	33052	31943	
191	0	32662	33092	32439	32699	0	31830	32885	31533	
192	0	32607	33047	32111	32330	0	31639	32863	32426	
193	0	32831	32823	32211	32445	0	31407	33077	33324	
194	0	32937	32547	32527	32284	0	30775	33183	32628	
195	0	32950	32335	32521	32289	0	31679	32987	32699	
196	0	32967	32229	33023	32582	0	31933	32619	33087	
197	0	32765	32455	33542	32614	0	30835	32506	33070	
198	0	32783	32292	33622	32079	0	31223	32717	32305	
199	0	32740	32187	33662	31623	0	32760	32519	33130	
200	0	32631	32298	33494	31525	0	33602	32093	33831	
201	0	32622	32326	33709	31727	0	34603	31820	33723	
202	0	32559	32462	33967	32095	0	34333	31751	34847	
203	0	32740	32307	33607	32277	0	34353	31337	37637	
204	0	32631	32532	33375	32346	0	30999	31897	37191	
205	0	32465	33223	33453	33250	0	30327	32671	35342	
206	0	32481	33517	33245	33507	0	34608	33879	28386	
207	0	32591	33399	32867	33415	0	36345	34097	24582	
208	0	32626	33558	32855	34087	0	37742	33871	27620	
209	0	32743	33439	32723	34183	0	38562	33747	29390	
210	0	32835	33196	32417	33590	0	36231	33820	29277	
211	0	32758	33133	32257	33659	0	32045	33353	34398	
212	0	32762	33115	32080	33135	0	29657	33204	34814	
213	0	32797	32677	32135	32454	0	30533	33082	32931	
214	0	32738	32739	32235	32319	0	32529	32883	32775	
215	0	32724	32679	32303	31748	0	31773	32558	33345	
216	0	32807	32437	32591	31212	0	29927	32404	34327	
217	0	32927	32525	32581	31639	0	29815	33084	35462	
218	0	32994	32445	32415	31857	0	30589	32354	36308	
219	0	33008	32543	32356	31823	0	30582	31387	35366	
220	0	33209	32647	32082	32391	0	30767	31511	33783	
221	0	33143	32847	32231	33123	0	31263	31895	32595	
222	0	33093	33019	32427	33151	0	33391	32471	31642	
223	0	32837	33403	32492	33766	0	36226	33066	30419	
224	0	32796	33415	32855	34037	0	35503	32647	30551	
225	0	32784	33127	32607	33815	0	34599	32477	30373	
226	0	32845	32803	32103	33012	0	34604	31767	31666	
227	0	32943	32452	31094	32430	0	35005	32197	32764	
228	0	32892	32533	30351	32133	0	35093	34117	32083	
229	0	32835	32523	29831	32505	0	35458	34169	31279	
230	0	32925	32455	30079	32541	0	34335	33391	32037	
231	0	32921	32375	31065	32143	0	31975	33031	33613	
232	0	32716	32503	32327	32069	0	30978	33311	34222	
233	0	32597	32207	33199	32071	0	31903	33243	33831	
234	0	32524	32183	34081	32609	0	32433	33631	33287	
235	0	32471	32602	35175	32708	0	32317	32831	33071	
236	0	32325	32829	35735	32588	0	31667	32527	33047	
237	0	32291	32935	35847	32992	0	32231	32100	33159	
238	0	32352	33028	35947	33203	0	32067	31671	33137	
239	0	32495	32956	35111	32976	0	32941	31851	33210	
240	0	32537	32981	34763	32991	0	33559	31967	32903	
241	0	32439	33041	34279	32846	0	33218	31851	33195	
242	0	32602	32802	33741	32487	0	31525	32079	34093	
243	0	32491	32935	33490	32815	0	30915	32199	34365	
244	0	32532	32949	33287	32740	0	31732	32639	33895	
245	0	32835	32982	33011	32499	0	30831	32614	33511	
246	0	33133	32823	32631	32399	0	30465	32953	31997	
247	0	33096	32775	32365	32511	0	32035	33223	30322	
248	0	33015	32787	32223	32647	0	32679	33367	29663	
249	0	32935	32849	31875	32771	0	32453	33317	30423	
250	0	32858	32895	31582	32820	0	34064	33067	31615	
251	0	33001	32891	31039	32551	0	34311	33223	32795	
252	0	33057	32791	30655	32623	0	32887	33085	33447	
253	0	32976	32729	30437	32309	0	33399	32965	32324	
254	0	32987	32951	30647	32343	0	32839	33239	31715	
255	0	32994	32916	31031	32914	0	32263	33060	31331	
256	0	33005	32809	31519	32723	0	31506	32745	31703	
257	0	32861	32663	32351	32262	0	31351	32617	31439	
258	0	32860	32436	32743	32215	0	31218	32086	32175	
259	0	32783	32511	32967	32391	0	31943	32893	33063	
260	0	32558	32605	33211	32767	0	30663	32900	34155	
261	0	32582	32455	33179	32595	0	30819	31991	36503	
262	0	32548	32566	33501	32822	0	30690	32161	36930	
263	0	32566	32567	33718	32639	0	33817	32045	34690	
264	0	32583	32647	33607	32617	0	33091	31831	34477	
265	0	32584	32727	33705	32559	0	36927	31702	32503	
266	0	32514	32807	33592	32813	0	38215	31423	31538	
267	0	32461	32923	33455	32916	0	36207	31593	29883	
268	0	32534	33039	33113	32663	0	36242	32047	30492	
269	0	32611	33173	32851	32967	0	35902	33986	31949	
270	0	32807	32975	32753	32950	0	34183	34863	32278	
271	0	32858	32882	32518	32858	0	33993	34866	30821	
272	0	32775	32711	32637	32802	0	32971	35039	31135	
273	0	32775	32661	32623	32687	0	32467	34951	31378	
274	0	32830	32863	32559	32940	0	32142	33415	31819	
275	0	32870	32775	32519	32726	0	32463	32903	32609	
276	0	32853	32822	32486	32345	0	31615	32494	33090	
277	0	32858	32671	32389	32103	0	31082	32260	33644	
278	0	32809	32729	32431	32557	0	30993	32295	34477	
279	0	32735	32711	32303	32683	0	30772	32119	34381	
280	0	32764	32585	32295	32423	0	30579	32551	33431	
281	0	32827	32583	32327	32443	0	31052	32601	32839	
282	0	32823	32647	32359	32573	0	31858	32165	32662	
283	0	32805	32621	32311	32135	0	32335	32514	32309	
284	0	32825	32755	32437	32391	0	32411	32539	31775	
285	0	32892	32767	32428	32417	0	33058	32601	31511	
286	0	32927	32665	32551	32167	0	33167	32352	31595	
287	0	33029	32487	32375	32068	0	33111	31887	34695	
288	0	32794	32755	32692	32279	0	31004	32037	34743	
289	0	32677	32911	32715	32911	0	27637	32735	34327	
290	0	32692	33028	32771	33285	0	30422	32367	33962	
291	0	32756	33055	32527	33414	0	33966	32292	31266	
292	0	32839	33101	32037	33369	0	32175	32713	31262	
293	0	32724	33182	32357	33659	0	32470	33278	31284	
294	0	32653	33234	32959	33556	0	36167	33845	29815	
295	0	32746	33004	32713	33096	0	37311	33141	30075	
296	0	32826	32815	32006	33095	0	35813	32745	32017	
297	0	32614	32875	32903	32958	0	35917	32887	31324	
298	0	32306	33010	33275	32751	0	35879	33251	30239	
299	0	32457	32965	32885	32943	0	34091	32638	32063	
300	0	32704	32881	32955	32735	0	32785	32447	33727	
301	0	32741	32667	33763	32711	0	32501	32047	34719	
302	0	32764	32663	33927	32436	0	31927	31943	34918	
303	0	32998	32583	32703	32070	0	31927	32971	34099	
304	0	32825	32623	33061	32263	0	31285	33449	33361	
305	0	32720	32637	33159	32551	0	29750	33012	33033	
306	0	32839	32607	32854	32602	0	29645	32743	33278	
307	0	32868	32626	32475	32775	0	30934	32159	33311	
308	0	32937	32687	31981	32775	0	32391	32615	33263	
309	0	33028	32647	31953	32615	0	33927	32939	32306	
310	0	33079	32599	31895	32502	0	33703	33287	29522	
311	0	32908	32863	31867	31895	0	32413	32183	31937	
312	0	33069	32767	32147	31597	0	32162	32039	33754	
313	0	33132	32514	32247	31943	0	33503	32023	35145	
314	0	32780	32935	32839	32815	0	32475	32415	34575	
315	0	32731	32581	32981	32636	0	31277	32215	34594	
316	0	32729	32343	32799	32486	0	35271	32169	35463	
317	0	32558	32860	33098	33014	0	33671	32613	35488	
318	0	32391	33311	33309	32903	0	28364	32949	34843	
319	0	32438	33045	33147	32967	0	29191	33575	32020	
320	0	32489	32876	33314	32720	0	32438	33407	31057	
321	0	32414	32892	33259	32751	0	30810	32380	30822	
322	0	32454	32810	33027	32614	0	35330	32459	28788	
323	0	32556	32711	33189	32703	0	40242	33141	29257	
324	0	32602	32775	33159	32927	0	38861	33927	29157	
325	0	32740	32766	32911	32823	0	34906	34407	30531	
326	0	32679	32775	32719	33065	0	33701	33537	32655	
327	0	32672	32783	32711	33077	0	32311	32583	33380	
328	0	32692	32895	32766	32759	0	31747	32519	33223	
329	0	32695	32838	32445	32786	0	31375	32562	32973	
330	0	32743	32807	32257	32623	0	31255	32237	32871	
331	0	32786	32883	31687	32599	0	31541	32490	33083	
332	0	32865	32786	31474	32661	0	31775	32535	33127	
333	0	32922	32669	31698	32730	0	31701	32423	32911	
334	0	32988	32658	31980	32813	0	31415	32348	32796	
335	0	32879	32673	32347	32594	0	31686	32610	32721	
336	0	32899	32787	32764	32626	0	32015	32871	32959	
337	0	32851	32679	33123	32351	0	32167	32823	33307	
338	0	32701	32639	33387	32231	0	32335	32535	33437	
339	0	32699	32574	33631	32330	0	32525	32467	32911	
340	0	32579	32503	33431	32364	0	32455	32519	33001	
341	0	32557	32701	33671	32357	0	32293	32434	33062	
342	0	32663	32549	33599	32223	0	31751	32574	32623	
343	0	32615	32523	33863	32007	0	31106	32807	32020	
344	0	32644	32492	33894	32126	0	30759	32991	31699	
345	0	32658	32551	33687	32503	0	31335	32421	31959	
346	0	32695	32738	33395	32804	0	31479	31649	32662	
347	0	32647	33079	32994	32847	0	30843	32567	31273	
348	0	32752	32765	32553	32353	0	32209	31799	33681	
349	0	32804	32751	32563	32093	0	33549	31551	36821	
350	0	32793	32732	32584	32173	0	34165	31393	40539	
351	0	32735	32701	32575	32756	0	34504	32725	37012	
352	0	32810	32615	32601	33019	0	36757	33656	31306	
353	0	32786	32807	32645	33373	0	36788	33709	28015	
354	0	32918	32775	32402	33703	0	33575	33177	29911	
355	0	32916	32957	32371	33606	0	36803	34711	29855	
356	0	32668	33237	32607	33742	0	40036	35781	26662	
357	0	32692	33373	32483	33317	0	36850	34746	29491	
358	0	32807	33277	32102	32759	0	34951	33721	31005	
359	0	32886	33287	32083	32639	0	33189	33735	31783	
360	0	33012	32935	32097	32431	0	30951	33159	32747	
361	0	33212	32879	31770	32531	0	30279	32839	34556	
362	0	33325	32739	31669	32583	0	30489	32612	34371	
363	0	33309	32595	31863	32470	0	30583	32423	33687	
364	0	32851	32365	31903	32503	0	30515	32519	33343	
365	0	32692	32351	31897	32333	0	30806	32193	33391	
366	0	32732	32549	32203	32731	0	31123	32491	33607	
367	0	32782	32679	32359	32915	0	31437	32263	33528	
368	0	32829	32806	32471	32817	0	31447	32527	33839	
369	0	32821	32806	32623	32871	0	31483	32555	33916	
370	0	32797	32925	32829	32709	0	31831	32617	33543	
371	0	32832	32919	32839	32871	0	32098	32505	33479	
372	0	32847	32927	32911	32877	0	31795	32607	32455	
373	0	32934	32879	32997	32607	0	32695	32775	33230	
374	0	33020	32903	32951	32254	0	33915	32743	32044	
375	0	33180	32851	32871	32149	0	34375	32796	31074	
376	0	33148	32795	32647	32202	0	32451	32707	30991	
377	0	33166	32887	32827	32827	0	32751	32043	31585	
378	0	33258	32524	32719	32854	0	30854	31815	31209	
379	0	33068	32674	32775	32767	0	28763	32059	30823	
380	0	32917	33127	32830	33511	0	31310	32564	31876	
381	0	33172	33133	32967	33437	0	34439	33114	31917	
382	0	33238	33026	33003	33223	0	36131	33507	30963	
383	0	33303	32999	32920	33510	0	35291	32469	34017	
384	0	33234	32813	32691	33019	0	33338	31876	36356	
385	0	33064	32617	32709	32367	0	33687	32039	37055	
386	0	33530	32581	32762	32197	0	34711	32925	36871	
387	0	33903	32327	32847	32111	0	33847	33068	34227	
388	0	33927	32485	32847	32111	0	33385	33077	31917	
389	0	33538	32535	33009	32247	0	33079	32883	31823	
390	0	33191	32493	33087	31957	0	32031	32659	32643	
391	0	32866	32607	33236	31967	0	29553	32359	33607	
392	0	32690	32722	32971	32061	0	29047	32423	33799	
393	0	32583	32695	33095	31761	0	30855	32468	32917	
394	0	32367	32588	33095	31763	0	31239	31975	32898	
395	0	32365	32423	32711	31954	0	32071	31623	34375	
396	0	32287	32587	32535	32071	0	29899	31416	34951	
397	0	32239	32938	32447	31879	0	30495	31374	34823	
398	0	32303	33127	32391	32423	0	31367	32013	32103	
399	0	32159	33206	32527	33127	0	29511	32858	31289	
400	0	32175	33618	32463	34146	0	32903	33185	29831	
401	0	32334	33664	32425	34283	0	36341	33919	29148	
402	0	32396	33159	32319	33422	0	40217	34686	24418	
403	0	32433	33067	32497	33326	0	41571	35009	23492	
404	0	32353	33094	32615	32903	0	41019	34207	30087	
405	0	32389	32963	32439	33095	0	37116	33919	32692	
406	0	32568	32696	31867	33227	0	34579	33399	35047	
407	0	32684	32438	31685	33169	0	35421	33181	34722	
408	0	32713	32108	31709	32815	0	34467	33039	34349	
409	0	32716	32007	31935	32703	0	33795	32601	33509	
410	0	32711	32295	32443	32946	0	31183	32153	34587	
411	0	32589	32591	32799	32711	0	29991	31975	35177	
412	0	32407	32687	33275	32313	0	29447	31889	35069	
413	0	32369	32823	33895	32325	0	29359	32407	35079	
414	0	32212	32937	34078	32171	0	29571	32351	34283	
415	0	32078	32745	34223	32056	0	29825	32459	33159	
416	0	32020	32647	34199	32347	0	30319	32863	31983	
417	0	32033	32623	34213	32273	0	31234	33069	31685	
418	0	32129	32619	33859	32245	0	31551	33373	31263	
419	0	32303	32644	33451	32372	0	31271	32787	31679	
420	0	32327	32687	33145	32347	0	30871	32175	32775	
421	0	32421	32742	32775	32308	0	30482	31991	33423	
422	0	32640	32553	32344	32533	0	31955	32199	33351	
423	0	32730	32791	32245	32471	0	33671	32147	34015	
424	0	32820	32838	32033	32349	0	32810	31433	37467	
425	0	32756	33237	32251	33759	0	32431	31166	39334	
426	0	32751	33399	32308	34255	0	33967	32236	34885	
427	0	32775	33221	32199	33599	0	33031	32737	33325	
428	0	32782	33287	32407	33395	0	32041	33183	32999	
429	0	32664	33287	32582	33245	0	32198	33833	30853	
430	0	32620	32754	32507	32223	0	35045	34743	29478	
431	0	32645	32365	32349	32487	0	33181	35131	28135	
432	0	32837	32507	31799	32646	0	32103	34588	28631	
433	0	32917	32452	31701	31551	0	34183	33869	27277	
434	0	32998	32071	31645	31222	0	36079	33721	28079	
435	0	33055	32031	31495	31597	0	36021	33343	29382	
436	0	33044	32146	31763	31767	0	34307	31865	32095	
437	0	32945	32221	32270	32156	0	33195	31042	34951	
438	0	32823	32423	32612	32663	0	32482	31911	34375	
439	0	32647	32719	33269	32791	0	33437	32619	33455	
440	0	32621	32845	33559	32889	0	33399	32343	33607	
441	0	32617	32887	33367	32775	0	32335	31287	34087	
442	0	32623	33019	33351	32583	0	30193	30839	33991	
443	0	32703	32918	33455	32539	0	31383	31799	32870	
444	0	32655	32877	33860	32484	0	30805	31989	33177	
445	0	32767	32793	33603	32515	0	29031	30876	34155	
446	0	32816	32832	33366	32505	0	25473	30996	33597	
447	0	32888	32809	33335	32555	0	25049	30471	36116	
448	0	32819	32967	33215	32897	0	26409	32701	36659	
449	0	32556	33235	33095	33196	0	33515	35442	34772	
450	0	32519	33489	32978	33223	0	39047	35631	31104	
451	0	32583	33391	32684	33447	0	38645	34359	31367	
452	0	32783	33250	32637	33307	0	35783	33403	32494	
453	0	32901	32949	32462	33061	0	36213	33471	32051	
454	0	32892	32961	32343	33363	0	37655	34093	28468	
455	0	32969	32883	32105	33258	0	39175	34651	30327	
456	0	32909	32935	31879	32854	0	35335	34141	32023	
457	0	32903	32989	31847	32735	0	32273	33735	30335	
458	0	32842	32946	31594	32605	0	33666	33671	29055	
459	0	32908	32883	31231	32607	0	34647	33239	30108	
460	0	32879	32898	31559	32950	0	34183	32526	32589	
461	0	32868	32929	32100	33106	0	33685	32078	34039	
462	0	32825	32949	32285	33175	0	31314	32086	33397	
463	0	32743	32717	32610	33271	0	30436	32775	32132	
464	0	32740	32636	32861	33031	0	32428	32891	32291	
465	0	32783	32640	32975	33187	0	31103	33559	33231	
466	0	32879	32487	33071	32585	0	28007	34379	33927	
467	0	32730	32347	33055	31616	0	25836	34692	32958	
468	0	32805	32030	33019	31307	0	27668	32615	32947	
469	0	32769	31990	33103	31057	0	33415	31177	33882	
470	0	32692	31974	33029	30763	0	36717	29685	34531	
471	0	32873	31861	33223	31165	0	31894	28756	36183	
472	0	33029	31927	33251	31670	0	30447	27047	39231	
473	0	32877	32295	33391	32338	0	30760	24230	44591	
474	0	32382	32913	33933	32832	0	32645	26357	43190	
475	0	32190	33402	34153	33415	0	41141	32020	32301	
476	0	32422	33098	33488	33213	0	42604	36442	24722	
477	0	32540	33275	33143	33563	0	39163	38388	19639	
478	0	32653	33201	32863	33490	0	31564	37428	24583	
479	0	32724	33175	32703	33148	0	28592	37963	28243	
480	0	32772	33287	32315	33330	0	28901	38684	28807	
481	0	32714	33242	32523	33088	0	32278	36319	31809	
482	0	32535	33239	32935	33199	0	33741	33495	33255	
483	0	32621	33135	32883	33027	0	33535	32579	33133	
484	0	32780	32898	32562	32811	0	31829	31827	33305	
485	0	32922	32643	32447	32564	0	30063	31615	32402	
486	0	32866	32669	32543	32687	0	29427	31094	32294	
487	0	32829	32819	32811	32523	0	29903	31239	32708	
488	0	32748	32902	32841	32286	0	31263	31395	32894	
489	0	32708	32701	32679	32262	0	32421	31619	33452	
490	0	32814	32725	32683	32419	0	32999	31597	34285	
491	0	32900	32503	32355	32687	0	32698	31895	33698	
492	0	32963	32599	32198	32603	0	32963	31967	32839	
493	0	32846	32669	32111	32941	0	32939	32237	32191	
494	0	32911	32629	32115	33093	0	33563	32423	33057	
495	0	32931	32575	32173	32623	0	33479	32671	32823	
496	0	32832	32639	32283	32720	0	33543	33069	33015	
497	0	32897	32621	32167	32587	0	33369	32935	32967	
498	0	32926	32725	32242	32627	0	32914	33093	33362	
499	0	32908	32687	32325	32469	0	33106	33076	34635	
500	0	32873	32615	32391	32519	0	33003	33103	34500	
501	0	32878	32765	32445	32407	0	33107	32655	34195	
502	0	32903	32775	32237	32559	0	33130	32709	34452	
503	0	32769	32725	32492	32375	0	32895	32622	33994	
504	0	32654	32851	32834	32237	0	31951	33003	33391	
505	0	32517	32819	32967	32044	0	30931	32693	34242	
506	0	32539	32716	33094	31961	0	30197	32758	34417	
507	0	32927	32714	33030	32335	0	30739	32327	34286	
508	0	33176	32871	32873	32439	0	31525	32303	31739	
509	0	33137	32727	32873	32509	0	31051	32602	29271	
510	0	32950	32775	32623	32433	0	32071	32619	28007	
511	0	32997	32874	32547	32022	0	34373	32181	29806	
512	0	32759	33063	32653	32089	0	36455	32335	29831	
513	0	32386	33541	32877	33153	0	34775	32752	31819	
514	0	32500	33433	32666	33270	0	35377	32786	36559	
515	0	32541	33484	32871	34170	0	37822	33772	34961	
516	0	32598	33303	32882	34087	0	35030	34265	30823	
517	0	32545	33189	32889	33519	0	35820	34815	27426	
518	0	32662	32695	32710	32863	0	36375	34267	28872	
519	0	32674	32581	32856	32821	0	32868	33546	33354	
520	0	32714	32475	32825	33407	0	31171	32877	33223	
521	0	32762	32059	32735	32796	0	31271	32739	32539	
522	0	32843	31943	32639	32664	0	31855	32575	32623	
523	0	32863	32315	32674	32775	0	32618	32311	32709	
524	0	32780	32633	32638	33103	0	32207	32525	33223	
525	0	32771	32533	32543	32602	0	31691	32514	32903	
526	0	32773	32690	32574	31767	0	31517	32493	33151	
527	0	32801	32575	32719	31783	0	31287	32439	32765	
528	0	32726	32707	32806	32178	0	31261	32959	32759	
529	0	32747	32967	32699	32479	0	30855	32657	33479	
530	0	32721	32691	32694	32339	0	30342	32659	33447	
531	0	32652	32613	32799	32047	0	30174	32429	33391	
532	0	32582	32743	32803	32050	0	29412	32387	34255	
533	0	32696	32771	32723	31439	0	28315	32135	35143	
534	0	32559	33098	32804	31955	0	27734	31711	36525	
535	0	32711	32995	32647	32239	0	28285	31327	35514	
536	0	32948	32762	32511	32559	0	31639	31151	32519	
537	0	32903	32660	32523	32811	0	35774	31478	30170	
538	0	32660	33159	32730	33975	0	36711	32423	30452	
539	0	32646	32997	32775	33475	0	36244	33250	33202	
540	0	32647	32801	32724	33192	0	40327	34684	30377	
541	0	32655	32751	32749	33287	0	43243	35103	27458	
542	0	32868	32575	32686	33029	0	41411	34567	28941	
543	0	32957	32863	32391	33034	0	36866	33814	33329	
544	0	33027	32831	31958	33287	0	33508	33489	34321	
545	0	32880	32769	31485	32747	0	32349	33206	34183	
546	0	32615	32851	31419	32563	0	32489	32975	34011	
547	0	32446	32715	31687	32346	0	32323	32521	35231	
548	0	32374	32659	32055	32283	0	31555	32895	34687	
549	0	32322	32628	32782	32311	0	30853	33303	32300	
550	0	32275	32787	33641	32303	0	31054	33101	31595	
551	0	32284	32757	34023	32215	0	30199	32647	32333	
552	0	32398	32595	34060	32007	0	29959	31843	31731	
553	0	32643	32433	34114	31967	0	31219	32527	31799	
554	0	32455	32582	33964	31843	0	29946	32663	32131	
555	0	32671	32615	33638	31951	0	29673	32162	35207	
556	0	32617	32601	33267	32151	0	31079	32067	36143	
557	0	32631	32807	33119	33043	0	33695	31582	35419	
558	0	32639	33054	33105	33850	0	33926	31715	32172	
559	0	32925	32843	32903	33239	0	31943	30617	33956	
560	0	33107	32713	32633	32895	0	32018	30976	32971	
561	0	32708	33263	32635	33944	0	29007	31860	30203	
562	0	32368	33799	32647	33687	0	28615	33756	27102	
563	0	32474	33502	32463	33518	0	37757	34339	26588	
564	0	32881	32871	32225	32863	0	35649	33975	31751	
565	0	32871	32931	32124	32706	0	31810	33639	34121	
566	0	32815	32903	31954	32644	0	35523	33609	33095	
567	0	33060	32473	31467	32353	0	34930	33452	35514	
568	0	33030	32387	30975	32505	0	34343	33167	34035	
569	0	32873	32551	31111	32607	0	34583	33077	32221	
570	0	32881	32389	31582	32223	0	33261	32575	32382	
571	0	32931	32471	32126	32447	0	31315	32827	32447	
572	0	32838	32701	32678	32274	0	29733	32793	32685	
573	0	32861	32807	33142	32051	0	29510	33251	31607	
574	0	32852	32762	33407	32119	0	30247	33491	30998	
575	0	32884	32525	33591	31847	0	31543	32884	31642	
576	0	32834	32196	33469	31847	0	32117	32412	33250	
577	0	32827	32220	33670	32127	0	30738	31467	33887	
578	0	32680	32487	33577	32332	0	29575	31018	35387	
579	0	32802	32506	33461	32354	0	30707	31052	39175	
580	0	32725	32785	33451	32367	0	28671	30540	43309	
581	0	32592	33015	33476	32356	0	29823	31063	41927	
582	0	32454	33195	33695	32799	0	33620	31787	36743	
583	0	32495	33239	33607	33718	0	38020	32811	30206	
584	0	32795	33070	33221	33815	0	38519	33362	28412	
585	0	32844	33251	33268	33641	0	38219	34014	25350	
586	0	32839	33129	33149	33961	0	38817	34586	22401	
587	0	32880	33023	32877	33415	0	39167	34798	22237	
588	0	33065	32983	32604	32783	0	38711	34727	25230	
589	0	32962	33047	32487	33123	0	34903	34151	27514	
590	0	32947	33063	32391	33587	0	33297	33626	32257	
591	0	32956	33099	32229	32831	0	31324	33482	35057	
592	0	32973	32839	32300	32579	0	30279	32895	35143	
593	0	32954	32711	32270	32327	0	30409	32763	34735	
594	0	32992	32594	32135	32315	0	30381	32458	34271	
595	0	33037	32322	32103	32132	0	30487	32093	34787	
596	0	32965	32506	32171	32199	0	30493	32647	34371	
597	0	32993	32494	32085	32415	0	30743	32581	34663	
598	0	32903	32615	32258	32685	0	29941	32757	34927	
599	0	33034	32450	32215	32183	0	29807	33029	34044	
600	0	33097	32149	31973	31879	0	30458	33327	32405	
601	0	32995	32193	32235	32130	0	30445	34106	30865	
602	0	32989	32221	32258	31911	0	33956	33619	32335	
603	0	33014	32327	32223	32172	0	33213	31287	37585	
604	0	32903	32533	32407	32174	0	30979	30404	41111	
605	0	32879	32531	32525	32263	0	30183	30325	38655	
606	0	32794	32841	32445	32643	0	29397	30855	34045	
607	0	32709	33069	32658	32832	0	29831	31313	30955	
608	0	32647	33239	32846	33158	0	28413	30903	30023	
609	0	32720	33007	32884	32957	0	35421	32053	30082	
610	0	32566	33133	32990	33170	0	38839	34329	24980	
611	0	32368	33407	33223	33315	0	41859	36186	22719	
612	0	32389	33415	33079	33276	0	40297	36647	27921	
613	0	32607	33125	32799	32988	0	36338	34450	32415	
614	0	32807	32718	32620	32747	0	36027	33025	33710	
615	0	32861	32823	32800	32933	0	34799	32514	32391	
616	0	32559	33031	32978	33029	0	34583	32293	32062	
617	0	32378	33037	32979	33108	0	33153	32228	32087	
618	0	32486	32972	32893	32955	0	32043	31915	34164	
619	0	32591	32861	32915	32819	0	30549	32223	36519	
620	0	32647	32839	32843	32351	0	30419	32207	36076	
621	0	32773	32519	32935	32157	0	29711	32384	35357	
622	0	32806	32517	32931	32207	0	28812	32151	34995	
623	0	32770	32577	33115	32209	0	28375	32385	33539	
624	0	32794	32397	32846	32011	0	28062	31925	35749	
625	0	32754	32511	32775	31927	0	28695	31887	36347	
626	0	33033	32429	32500	32332	0	31835	31751	36223	
627	0	33080	32347	32202	31955	0	35135	31462	33671	
628	0	33165	32340	32039	31822	0	34451	32046	30395	
629	0	33175	32587	31453	32275	0	34183	31746	30705	
630	0	33066	33129	31455	33018	0	32305	31951	33367	
631	0	32682	33444	32233	33700	0	32302	33613	31109	
632	0	32287	33684	32775	34047	0	36022	35122	24718	
633	0	32171	33426	33327	33794	0	35163	35093	29319	
634	0	32443	33257	33426	34283	0	37298	34909	29596	
635	0	32793	32831	33022	33948	0	39871	34767	28487	
636	0	32898	32718	33095	33614	0	36954	34055	30799	
637	0	32711	32959	33193	33191	0	32177	33429	32871	
638	0	32681	32948	33281	32733	0	30682	32791	34641	
639	0	32700	32858	33228	32647	0	31270	32339	34738	
640	0	32793	32787	33201	32617	0	30575	31943	34083	
641	0	32782	32741	33129	32655	0	29845	32007	34608	
642	0	32733	32663	33050	32573	0	30323	31879	34739	
643	0	32771	32477	32979	32460	0	30703	31911	34450	
644	0	32869	32359	32818	32231	0	31031	32162	34226	
645	0	32855	32439	32561	32235	0	31239	32187	33771	
646	0	32877	32445	32479	31789	0	31471	32519	33429	
647	0	32903	32365	32519	31731	0	31789	32478	33202	
648	0	32811	32635	32551	32003	0	32052	32815	32967	
649	0	32749	32815	32467	32399	0	32207	32823	32891	
650	0	32745	32647	32450	32135	0	32401	32775	32911	
651	0	32733	32598	32385	32562	0	32667	32865	32855	
652	0	32789	32668	32315	32749	0	32775	32695	32783	
653	0	32822	32751	32534	32677	0	33129	32478	32443	
654	0	32756	32775	32539	32466	0	33886	32583	32606	
655	0	32705	32962	32511	32411	0	33819	32579	32562	
656	0	32585	32815	32612	32164	0	33679	33158	32095	
657	0	32698	32613	32559	32059	0	33844	32917	32483	
658	0	32610	32721	32669	32399	0	32706	33210	31892	
659	0	32640	32818	32707	32445	0	31571	33137	32847	
660	0	32736	32631	32853	32477	0	32059	33135	33695	
661	0	32681	32711	32959	32879	0	32001	32918	34180	
662	0	32692	32853	32701	32692	0	30811	32487	35251	
663	0	32800	32690	32753	32173	0	30877	31619	37039	
664	0	33034	32614	32501	32115	0	29734	31367	35743	
665	0	32903	32748	32507	32772	0	29938	32291	30407	
666	0	32626	33241	32899	33248	0	32846	33031	28061	
667	0	32493	33421	33056	33058	0	38544	33077	26974	
668	0	32542	33122	32823	33138	0	40927	33095	25735	
669	0	32591	32951	32885	33185	0	36710	33462	29872	
670	0	32623	32688	32775	32439	0	35079	32845	33935	
671	0	32678	32931	32644	33255	0	33414	33301	34063	
672	0	32812	32883	32709	33549	0	30492	33415	33287	
673	0	32709	32887	32639	33215	0	29123	33207	33659	
674	0	32745	33069	32740	33287	0	31927	32811	34147	
675	0	32792	32967	32503	32623	0	33615	32579	33616	
676	0	32793	32925	32597	32685	0	32669	33087	32003	
677	0	32710	32679	32607	32455	0	34637	33090	30303	
678	0	32733	32428	32662	31922	0	35049	33115	31998	
679	0	32690	32463	32767	32287	0	35420	33091	31308	
680	0	32687	32575	32726	32463	0	35219	33031	31203	
681	0	32845	32483	32628	32943	0	33381	32570	32771	
682	0	32852	32381	32727	33447	0	31127	32220	33943	
683	0	32933	32347	32801	32613	0	31101	32385	34239	
684	0	32916	32367	32825	32177	0	31827	32135	34895	
685	0	32854	32260	32913	31935	0	31301	32643	33922	
686	0	32798	32450	32825	32135	0	31383	32647	33583	
687	0	32831	32509	32741	32422	0	32003	32764	33155	
688	0	32882	32511	32727	32167	0	33856	32567	33415	
689	0	32912	32477	32541	32349	0	35267	32407	33029	
690	0	32981	32407	32383	31933	0	33431	32191	32732	
691	0	32959	32759	32412	31988	0	30963	31707	33426	
692	0	32879	33089	32567	32821	0	28111	31867	33495	
693	0	32601	33011	32761	31949	0	25975	32211	34074	
694	0	32182	33295	32834	32179	0	24647	31931	35101	
695	0	31683	33383	32951	33087	0	26889	32338	36999	
696	0	31796	33182	32775	33739	0	31095	33199	37124	
697	0	32045	33223	32677	33285	0	35064	34011	33303	
698	0	32060	33129	32929	32987	0	37847	34052	29743	
699	0	32231	33105	33047	33327	0	38719	33727	29744	
700	0	32423	33115	32663	33436	0	35676	33188	29575	
701	0	32592	33159	32577	33117	0	32679	32500	27730	
702	0	32938	32791	32470	33135	0	34119	32410	28146	
703	0	32969	32783	32445	33415	0	37708	33379	27732	
704	0	32838	33041	32619	33266	0	39399	33743	26887	
705	0	33017	32775	32487	33434	0	36383	33940	28845	
706	0	33159	32402	32476	32865	0	35449	33901	31951	
707	0	33077	32503	32612	32747	0	33787	33025	36550	
708	0	33119	32398	32703	32527	0	33415	32775	34735	
709	0	33177	32567	32813	32183	0	31132	32719	33447	
710	0	33006	33007	33037	32396	0	29396	32159	35493	
711	0	32952	32839	32927	31879	0	31610	32468	35679	
712	0	32884	32545	33053	31747	0	31226	30439	35772	
713	0	32844	32487	33119	32156	0	29717	28842	35615	
714	0	32737	32525	33075	32398	0	28927	29071	35687	
715	0	32784	32511	32759	32365	0	30037	30716	35507	
716	0	32732	32647	32825	32623	0	30914	33734	33770	
717	0	32735	32887	32765	32595	0	33143	34687	32215	
718	0	33033	32663	32247	32592	0	36100	34391	31357	
719	0	33055	32722	32319	32637	0	35493	34319	30255	
720	0	33030	32903	32321	32607	0	34324	34731	30823	
721	0	32840	33063	32436	32927	0	32903	34687	31671	
722	0	32770	33005	32823	32742	0	31455	32879	33052	
723	0	32802	32882	32895	32570	0	31487	32023	33615	
724	0	32767	32851	32988	32391	0	29225	32282	33597	
725	0	32824	32761	32677	32381	0	29935	32273	32977	
726	0	32848	32711	32724	32319	0	31535	32290	33153	
727	0	32762	32807	32789	32421	0	32122	32675	31268	
728	0	32678	32979	32815	32895	0	30383	31991	31252	
729	0	32700	32839	32585	32903	0	33863	32256	31895	
730	0	32582	32834	32731	32623	0	35935	32775	32015	
731	0	32653	32694	32679	32347	0	34519	32857	32594	
732	0	32873	32615	32598	32325	0	32895	32967	33703	
733	0	33038	32429	32479	32439	0	32053	32772	33159	
734	0	33005	32467	32551	32408	0	29967	32845	32311	
735	0	32724	32766	32551	32663	0	29814	32919	33920	
736	0	32548	33082	32399	33078	0	35961	34338	32020	
737	0	32610	32941	32627	32866	0	36071	34295	30621	
738	0	32448	33154	32964	33278	0	35504	33739	31069	
739	0	32511	33195	32743	33135	0	34055	33223	32047	
740	0	32802	32807	32439	32988	0	34131	33029	32827	
741	0	32832	32799	32895	32899	0	31775	32550	32892	
742	0	32768	33012	32883	33051	0	33346	32957	32041	
743	0	32872	32967	32487	32855	0	39461	32630	30811	
744	0	32852	32845	32143	32799	0	38093	31879	31724	
745	0	32895	32775	32263	33072	0	35159	31875	31927	
746	0	32696	32895	33107	33091	0	32460	32690	32408	
747	0	32687	32879	33531	32900	0	29875	32855	33115	
748	0	32685	32749	33463	32737	0	29533	32783	33389	
749	0	32713	32663	33435	32801	0	30270	32687	33103	
750	0	32665	32508	33197	32765	0	31963	32374	32903	
751	0	32710	32580	32959	32605	0	32057	32391	33063	
752	0	32878	32412	32378	32385	0	31362	31828	33503	
753	0	32864	32575	31846	32147	0	31275	32100	34787	
754	0	32694	32717	32235	31991	0	31071	31839	35007	
755	0	32647	32615	33019	31894	0	31259	32193	34413	
756	0	32760	32421	32711	31621	0	33558	32089	34883	
757	0	32852	32389	32613	31791	0	34409	32146	33775	
758	0	32964	32429	32634	32075	0	32974	32378	31227	
759	0	32989	32589	32549	32308	0	30623	32342	30387	
760	0	32801	32740	32495	32423	0	27573	32323	29955	
761	0	32775	32959	32513	32795	0	27301	32922	30685	
762	0	32753	33171	32495	33147	0	30363	33287	31599	
763	0	32519	33374	32865	33577	0	32031	33891	31111	
764	0	32611	33356	32844	33799	0	35573	33991	32543	
765	0	32689	33139	32831	33577	0	38071	33490	35131	
766	0	32784	33055	32775	33119	0	35573	33079	35846	
767	0	32761	32943	32487	33119	0	34647	32925	34183	
768	0	32799	32842	32629	32869	0	34199	33035	32846	
769	0	32923	32719	32564	32819	0	34205	33079	31634	
770	0	32890	32709	32509	32943	0	33459	32869	32181	
771	0	32826	32685	32675	32950	0	33076	32759	32559	
772	0	32894	32599	32610	32619	0	32915	32755	32751	
773	0	32892	32693	32577	32855	0	32718	32463	32811	
774	0	32822	32725	32759	32597	0	32331	32612	32831	
775	0	32718	32735	32835	32167	0	32309	32403	32751	
776	0	32828	32671	32711	32606	0	32510	32175	32965	
777	0	32916	32734	32767	32575	0	32287	32438	32983	
778	0	32938	32799	32821	32487	0	32423	32391	33030	
779	0	33090	32799	32731	32531	0	32237	33010	32339	
780	0	33159	32695	32807	32183	0	31977	32806	31841	
781	0	33204	32719	32679	32479	0	31311	32757	32061	
782	0	33109	32943	32543	32572	0	30895	32565	32454	
783	0	33093	32742	32549	32327	0	31527	32491	32493	
784	0	32911	32749	32722	32755	0	31743	32452	34151	
785	0	32861	32667	32735	32630	0	31103	32379	34145	
786	0	32847	32634	32599	32647	0	31683	32589	34850	
787	0	32710	32676	32671	32444	0	33825	32551	33821	
788	0	32762	32613	32645	32527	0	34071	32951	33783	
789	0	32596	32531	32713	32538	0	35719	33614	32098	
790	0	32585	32630	32743	32365	0	38674	33812	28540	
791	0	32710	32635	32591	32731	0	38868	33410	27887	
792	0	32671	32534	32638	32730	0	36255	32903	30662	
793	0	32613	32666	32831	32679	0	33063	33503	31687	
794	0	32473	33010	33078	32823	0	30705	33365	30926	
795	0	32391	33055	33287	32885	0	30823	33490	31055	
796	0	32558	32783	32883	32354	0	28836	32535	33907	
797	0	32633	32674	32727	31874	0	27967	31890	35138	
798	0	32668	32679	32727	32325	0	28389	31867	34583	
799	0	32676	32901	32587	32587	0	30961	31895	35187	
800	0	32843	32931	32503	32631	0	33741	32124	35121	
801	0	32850	32807	32481	33543	0	33125	31921	35519	
802	0	32917	32545	32297	33477	0	35271	31943	35148	
803	0	32833	32431	32555	32311	0	35895	32383	33951	
804	0	32497	33175	33060	32307	0	35322	33351	29611	
805	0	32457	33287	32987	32743	0	33283	33187	29747	
806	0	32602	33071	32877	32719	0	32103	33181	30919	
807	0	32699	32827	32835	32818	0	32135	32807	31826	
808	0	32713	32641	32821	32367	0	32847	32614	31647	
809	0	32803	32663	32725	32283	0	34183	32698	31235	
810	0	32747	32967	32858	32703	0	32896	32811	31693	
811	0	32693	32999	32722	32594	0	34581	33183	30871	
812	0	32775	32919	32391	32739	0	33903	33167	32460	
813	0	32775	32780	32670	32694	0	32239	33510	33287	
814	0	32636	32567	32739	32547	0	30726	33055	32503	
815	0	32673	32491	32727	32554	0	30823	32991	33543	
816	0	32718	32551	32663	32683	0	31462	32863	33641	
817	0	32820	32447	32748	32525	0	31357	32521	33796	
818	0	32828	32391	32599	32763	0	32319	31958	34247	
819	0	32935	32516	32505	32851	0	33234	31954	34199	
820	0	32837	32831	32822	32898	0	33080	32468	31933	
821	0	32797	32773	32785	33274	0	32875	32463	32083	
822	0	32724	32903	32813	33435	0	33457	32475	32342	
823	0	32585	33167	32903	32743	0	32887	33031	32487	
824	0	32685	33132	32903	32743	0	32935	33259	30850	
825	0	32698	32943	32829	32642	0	31149	33583	31364	
826	0	32671	32849	32647	32541	0	30153	33215	31874	
827	0	32807	32597	32439	32309	0	33479	32995	32055	
828	0	32909	32655	32338	32247	0	33054	33031	32879	
829	0	32789	32767	32367	32427	0	31943	33205	31821	
830	0	32764	32713	32543	32420	0	31940	32835	32233	
831	0	32852	32775	32571	32477	0	32051	32207	33727	
832	0	32848	32789	32555	32629	0	32425	32151	33045	
833	0	32832	32641	32551	32311	0	32877	32263	33159	
834	0	32665	33058	32755	33295	0	31839	32497	32586	
835	0	32521	33251	32748	33197	0	31919	31950	35513	
836	0	32593	33074	32877	33245	0	34071	32781	36415	
837	0	32690	32979	32775	32903	0	36162	33524	35383	
838	0	32699	33045	32857	32283	0	35735	33431	33218	
839	0	32717	32828	32809	32237	0	34803	33051	31943	
840	0	32763	32445	32783	32431	0	33920	32581	32326	
841	0	32867	32358	32686	32371	0	34045	32669	32813	
842	0	32765	32562	32683	32455	0	32565	32399	31769	
843	0	32839	32619	32647	32479	0	31583	33051	30930	
844	0	32727	32701	32615	32550	0	32162	33685	31111	
845	0	32907	32495	32429	32405	0	33175	33031	32631	
846	0	32957	32487	32367	32397	0	32615	32070	33373	
847	0	32763	32615	32783	32487	0	32759	30949	33811	
848	0	32705	32919	32989	33005	0	30647	31013	35111	
849	0	32638	32903	33052	33067	0	29739	31530	35431	
850	0	32553	32836	33082	32583	0	29671	32343	34167	
851	0	32569	32826	33095	32463	0	32236	32610	33852	
852	0	32620	32861	32839	32695	0	37324	33543	29978	
853	0	32769	32740	32449	32467	0	36287	34455	29439	
854	0	32692	32601	32675	32406	0	35597	34279	30132	
855	0	32542	32695	32851	32543	0	33411	33757	29863	
856	0	32559	32874	32991	32571	0	30172	33140	29505	
857	0	32914	32540	32271	32320	0	30209	32999	30806	
858	0	33295	32419	31367	32295	0	30561	32235	31987	
859	0	33181	32733	30919	32902	0	31779	32996	29852	
860	0	32702	33102	32220	33067	0	31756	32991	30637	
861	0	32519	33402	33955	33166	0	34451	32551	33570	
862	0	32452	33515	34247	33467	0	35430	33175	34239	
863	0	32459	33331	33927	33475	0	36223	33717	31823	
864	0	32734	32970	33105	33023	0	35271	34107	31802	
865	0	32850	32786	32975	32979	0	34919	33955	32607	
866	0	32895	32731	32846	32733	0	32749	33967	32665	
867	0	32887	32708	32543	32655	0	31420	33477	34567	
868	0	32937	32630	32461	32293	0	31309	33237	35369	
869	0	32933	32543	32407	32181	0	32013	32711	35567	
870	0	32790	32741	32445	32549	0	30263	32183	35124	
871	0	32701	32827	32575	33025	0	31078	31585	33783	
872	0	32572	32809	32617	33357	0	31711	30715	34028	
873	0	32719	32791	32567	32823	0	31731	30139	32838	
874	0	32765	32685	32447	32317	0	31791	30964	32966	
875	0	32757	32591	32513	32247	0	32503	31824	33799	
876	0	32869	32343	32468	33077	0	33365	32811	33980	
877	0	32895	32489	32567	32873	0	32659	33156	32879	
878	0	32711	32789	32796	32695	0	31447	32991	33215	
879	0	32654	32807	32991	32525	0	31508	32647	33605	
880	0	32568	32911	33002	32249	0	31156	33271	33283	
881	0	32583	32731	32711	32359	0	31431	33571	32142	
882	0	32605	32790	32799	32509	0	30988	33285	31815	
883	0	32668	32847	33023	32503	0	32183	32735	32431	
884	0	32720	32772	32751	32415	0	35394	32749	31111	
885	0	32772	32727	32775	32539	0	36039	33055	30311	
886	0	32836	32607	32705	32359	0	34583	32876	31255	
887	0	32935	32427	32572	32263	0	34077	33579	32251	
888	0	32903	32583	32663	32391	0	32062	33829	32549	
889	0	32838	32759	32549	32511	0	29447	33831	34207	
890	0	32858	32662	32235	32503	0	31239	33373	34479	
891	0	32959	32615	32303	32583	0	31367	33415	34876	
892	0	32850	32733	32303	32791	0	32249	33080	32297	
893	0	32581	33191	32775	32982	0	34494	32615	27700	
894	0	32495	33253	33164	33186	0	38359	32839	27033	
895	0	32598	33010	33111	33042	0	37759	33065	28494	
896	0	32659	32852	33085	32677	0	37439	33191	29829	
897	0	32690	32822	32839	32951	0	36426	33077	32885	
898	0	32708	32841	32858	32831	0	33683	32796	34763	
899	0	32797	32623	32711	32775	0	32163	32751	36573	
900	0	32820	32613	32763	32518	0	31655	32671	36551	
901	0	32761	32738	32735	32703	0	31889	32217	34247	
902	0	32832	32755	32655	32455	0	30976	32463	32831	
903	0	32827	32582	32671	32438	0	30951	31730	32743	
904	0	32865	32529	32519	32453	0	30319	31431	33507	
905	0	32992	32501	32423	32111	0	30580	31649	33527	
906	0	33030	32469	32471	31911	0	30932	32316	32881	
907	0	32962	32617	32418	31959	0	30791	32398	32427	
908	0	32850	32819	32708	32643	0	29164	31944	31911	
909	0	32756	32893	32659	32983	0	31258	32003	32231	
910	0	32708	33013	32575	32831	0	30925	31601	34333	
911	0	32637	33068	32713	32615	0	33126	31935	33474	
912	0	32667	32847	32707	32247	0	32425	31917	33259	
913	0	32560	33147	32748	32549	0	34119	32714	31145	
914	0	32458	33367	32885	32967	0	34727	33634	31127	
915	0	32520	33167	32659	33246	0	36284	33529	31471	
916	0	32645	33007	32743	33277	0	35135	33717	31297	
917	0	32815	32574	32807	33111	0	34013	33783	32406	
918	0	32879	32497	32655	33047	0	33495	33375	31879	
919	0	32839	32501	32669	33491	0	32446	33047	31097	
920	0	32855	32463	32546	33175	0	33191	32717	31775	
921	0	32938	32583	32335	33047	0	33195	32439	32535	
922	0	32838	32887	32711	32607	0	33037	32118	33531	
923	0	32822	32647	32747	32407	0	32854	32317	34383	
924	0	32832	32711	32617	32319	0	32466	32255	34787	
925	0	32863	32699	32705	32142	0	32061	32023	35407	
926	0	32699	32959	32973	32417	0	31050	32877	34081	
927	0	32619	33005	33095	32542	0	30087	32599	33783	
928	0	32758	32655	32925	32552	0	31359	32807	33587	
929	0	33025	32434	32627	32967	0	32081	32527	33594	
930	0	32996	32575	32623	33095	0	31519	32374	33911	
931	0	32940	32571	32627	32785	0	31876	32164	31989	
932	0	32810	32817	32703	33113	0	32230	33254	29692	
933	0	32860	32807	32661	32629	0	32250	33375	28487	
934	0	32670	32802	32741	32603	0	31855	33243	28550	
935	0	32647	32758	32708	32607	0	30999	32322	31779	
936	0	32700	32743	32548	32023	0	31262	30599	33287	
937	0	32651	32769	32661	32303	0	34727	30495	33892	
938	0	32604	32671	32847	32399	0	38295	32332	34439	
939	0	32610	32696	32727	32475	0	37255	32903	33526	
940	0	32605	32775	32903	32409	0	35781	32731	33967	
941	0	32612	32745	32867	32527	0	34087	32879	34908	
942	0	32702	32807	33015	32629	0	33439	34295	34685	
943	0	32676	32930	33042	32804	0	34503	35007	33622	
944	0	32763	32811	32791	32762	0	34237	34166	32013	
945	0	32801	32831	32711	32543	0	32387	34103	31199	
946	0	32779	32838	32645	32635	0	31519	33098	32555	
947	0	32830	32839	32607	32695	0	30847	32625	33527	
948	0	32854	32775	32487	32499	0	32125	32867	33003	
949	0	32898	32762	32592	32429	0	33983	32615	31726	
950	0	32966	32619	32700	32004	0	34743	32263	31095	
951	0	32991	32733	32527	31911	0	33377	32495	32046	
952	0	32913	32813	32679	32311	0	30847	32611	32495	
953	0	32879	32903	32689	32732	0	30583	32722	31087	
954	0	32252	33111	32524	33095	0	30979	32892	29972	
955	0	32068	33320	32643	33365	0	30109	33097	30453	
956	0	32502	33267	32607	34020	0	30711	33067	31895	
957	0	32692	32898	32637	33560	0	31967	32527	33068	
958	0	32791	32805	32796	32703	0	31479	32731	33967	
959	0	32854	32927	32775	32818	0	31355	32479	33743	
960	0	32991	32647	32543	32843	0	31773	32463	34009	
961	0	33074	32439	32578	32471	0	32156	32293	33874	
962	0	33083	32301	32621	32133	0	32855	32583	32947	
963	0	33111	32367	32412	32089	0	34017	32718	32455	
964	0	32973	32487	32605	32505	0	35199	32831	32068	
965	0	32967	32569	32749	32468	0	33867	32911	32647	
966	0	33005	32617	32302	32658	0	33415	32757	32981	
967	0	33106	32503	32167	32631	0	33543	32475	34078	
968	0	33026	32599	32295	32622	0	31729	32303	33771	
969	0	32828	32899	32827	32753	0	31175	32631	33559	
970	0	32613	33109	33287	32679	0	32070	33038	32725	
971	0	32444	32975	33415	32733	0	32519	32999	32391	
972	0	32559	32870	33223	32421	0	31951	32367	32935	
973	0	32638	32887	33157	32539	0	33223	32695	32327	
974	0	32664	32911	32830	32506	0	32215	32679	32853	
975	0	32764	32807	32631	32547	0	32407	32487	33833	
976	0	32882	32655	32612	32449	0	32687	32039	34038	
977	0	32791	32635	32607	32199	0	33159	32343	33783	
978	0	32780	32716	32879	32557	0	33159	32245	33138	
979	0	32771	32687	32807	32317	0	33639	32363	34183	
980	0	32775	32679	32480	32532	0	34540	32647	32053	
981	0	32839	32723	32454	32858	0	34919	32983	29919	
982	0	32615	33012	32831	33156	0	29767	33373	29532	
983	0	32561	33097	33058	33092	0	30599	33916	30791	
984	0	32698	32991	33095	32599	0	34804	33405	32179	
985	0	32980	32701	32303	32457	0	38330	33584	31035	
986	0	33183	32559	31751	32463	0	39399	33254	29503	
987	0	32866	32789	32118	32613	0	36677	33091	30239	
988	0	32759	32925	32813	32775	0	33622	32999	30077	
989	0	32510	33177	33671	33058	0	30583	32693	30586	
990	0	32423	33250	33685	33215	0	28962	32732	32775	
991	0	32613	32885	33039	32911	0	31333	32199	36103	
992	0	32678	32871	32767	32919	0	32021	32829	36205	
993	0	32716	32775	32545	32707	0	31344	33062	33607	
994	0	32775	32644	32627	32491	0	31483	33065	32479	
995	0	32784	32695	32695	32525	0	32894	32391	32061	
996	0	32680	32740	32550	32470	0	32205	32039	33367	
997	0	32679	32860	32630	32831	0	29735	31787	34431	
998	0	32639	32867	32674	32756	0	30381	32079	33725	
999	0	32811	32791	32449	32845	0	31303	32107	31870	
1000	0	32761	32791	32594	32693	0	34036	32387	31849	
1001	0	32854	32647	32562	32426	0	34773	32463	34731	
1002	0	32911	32519	32423	32391	0	34685	32495	35003	
1003	0	32887	32479	32663	32430	0	32974	32391	35719	
1004	0	32784	32621	32799	32647	0	30245	32331	35487	
1005	0	32687	32921	32743	32703	0	30482	32721	33343	
1006	0	32721	32863	32833	32799	0	32598	32895	31337	
1007	0	32791	32711	32773	32705	0	34055	32963	31046	
1008	0	32676	32823	32711	32647	0	33650	33233	31255	
1009	0	32797	32747	32527	32635	0	33874	32583	33313	
1010	0	32751	32725	32767	32455	0	33173	32741	33215	
1011	0	32898	32587	32607	32459	0	33309	32363	33947	
1012	0	32724	32735	32647	32146	0	33217	32919	32959	
1013	0	32682	32851	32727	32351	0	33989	32999	30951	
1014	0	32581	32967	32918	32362	0	33810	33597	29967	
1015	0	32566	32932	32927	32277	0	32210	33388	29463	
1016	0	32620	32976	32805	32815	0	32175	33593	30298	
1017	0	32707	32903	32751	33287	0	32431	33317	31831	
1018	0	32822	32535	32663	33197	0	32491	33305	32690	
1019	0	32768	32647	32619	33043	0	32909	33486	33927	
1020	0	32871	32578	32647	32879	0	32423	33191	34255	
1021	0	32854	32567	32801	32679	0	32559	33245	34311	
1022	0	32706	32787	32815	32684	0	32903	33245	33302	
1023	0	32647	32919	32852	32939	0	32731	32443	32295	
1024	0	32692	32903	32783	33054	0	31617	31623	32219	
1025	0	32819	32749	32512	32799	0	32615	31477	31747	
1026	0	32850	32615	32577	32585	0	32933	31671	32115	
1027	0	32794	32615	32435	32385	0	32391	31973	33191	
1028	0	32796	32571	32567	32403	0	32239	33220	33319	
1029	0	32796	32541	32709	32509	0	32786	33539	32917	
1030	0	32791	32732	32619	32761	0	31493	33010	32877	
1031	0	32807	32775	32575	32727	0	31423	32107	33959	
1032	0	32772	32835	32612	32571	0	31655	31643	34375	
1033	0	32729	32766	32577	32749	0	32133	32439	34703	
1034	0	32775	32734	32607	32609	0	34438	32615	33267	
1035	0	32772	32775	32623	32511	0	34095	32709	32443	
1036	0	32796	32879	32751	32786	0	33223	33111	32087	
1037	0	32726	32935	32872	32805	0	31362	33713	32107	
1038	0	32692	32861	32757	32647	0	33910	34183	31877	
1039	0	32713	32802	32745	32663	0	33779	33724	31641	
1040	0	32751	32935	32775	32517	0	33842	33135	32891	
1041	0	32847	32726	32577	32623	0	35446	32469	32233	
1042	0	32847	32661	32639	32663	0	33682	32030	31447	
1043	0	32839	32647	32757	32640	0	34015	31555	32423	
1044	0	32738	32925	32846	32782	0	33615	31742	33383	
1045	0	32799	32956	32783	32666	0	34413	32642	33083	
1046	0	32684	32825	32767	32595	0	31294	32747	31811	
1047	0	32775	32763	32805	32351	0	31270	32823	31723	
1048	0	32516	32903	32999	31876	0	32263	33254	30621	
1049	0	32554	32964	33103	32231	0	30197	34028	30559	
1050	0	32662	32839	32793	32519	0	29542	33837	33191	
1051	0	32769	32707	32743	32513	0	31123	32975	34095	
1052	0	32799	32567	32605	33067	0	32223	32783	34087	
1053	0	32877	32429	32717	32703	0	32111	32399	33460	
1054	0	32813	32599	32767	32538	0	32439	32231	32529	
1055	0	32801	32902	32511	32943	0	32706	32293	32519	
1056	0	32712	33038	32660	33117	0	32553	32630	32727	
1057	0	32676	33027	32573	32887	0	33345	33191	32903	
1058	0	32734	32871	32719	33118	0	35143	33431	30185	
1059	0	32686	32895	32695	32647	0	34567	33125	31033	
1060	0	32846	32673	32475	32583	0	33285	32663	33505	
1061	0	32816	32877	32690	33047	0	31751	32802	34383	
1062	0	32809	32966	32799	32991	0	32327	32775	34845	
1063	0	32878	32399	32501	32319	0	34306	32709	34439	
1064	0	32903	32541	32551	32612	0	33647	32413	33447	
1065	0	32827	32831	32646	32866	0	31277	32071	33367	
1066	0	32900	32702	32599	32887	0	31911	32390	33461	
1067	0	32796	32759	32678	32876	0	35463	32677	32271	
1068	0	32667	32836	32678	32803	0	36597	32876	31285	
1069	0	32603	33131	32903	33017	0	34593	33063	29779	
1070	0	32685	32924	32805	32591	0	32127	32744	30815	
1071	0	32659	32673	32879	32495	0	31237	32757	31723	
1072	0	32862	32435	32751	32183	0	32165	32499	33426	
1073	0	32794	32439	32558	32103	0	31886	32431	33647	
1074	0	32718	32501	32563	32355	0	31311	32655	32811	
1075	0	32696	32742	32647	32337	0	31721	32475	33055	
1076	0	32608	32771	32767	32503	0	33071	32679	33175	
1077	0	32646	32775	32893	32587	0	32992	32821	33204	
1078	0	32699	32947	32910	32807	0	31954	33147	33047	
1079	0	32671	32935	32775	33115	0	32679	33007	32094	
1080	0	32703	32975	32716	32919	0	32447	32820	32485	
1081	0	32725	32897	32524	32590	0	31855	32641	32519	
1082	0	32788	32859	32609	32663	0	32423	32378	32087	
1083	0	32696	32935	32749	32711	0	33159	32701	33061	
1084	0	32688	32903	32804	32555	0	33359	32623	32309	
1085	0	32684	32980	32775	32765	0	32926	32721	31927	
1086	0	32789	32815	32695	32767	0	32859	32462	32181	
1087	0	32856	32755	32759	32839	0	32859	32172	33157	
1088	0	32843	32794	32587	32635	0	32967	32831	33469	
1089	0	32894	32717	32647	32655	0	32471	32543	33607	
1090	0	32823	32755	32639	32559	0	32223	32635	33721	
1091	0	32782	32799	32695	32690	0	32263	32734	33741	
1092	0	32718	32644	32711	32582	0	32647	33005	33111	
1093	0	32746	32675	32839	32615	0	33263	33059	32667	
1094	0	32703	32698	32893	32647	0	32305	32943	32661	
1095	0	32862	32565	32605	32455	0	32383	32819	33425	
1096	0	32751	32603	32755	32476	0	32253	33111	32511	
1097	0	32742	32663	32722	32487	0	33581	33087	31659	
1098	0	32935	32689	32407	32583	0	36231	33247	30923	
1099	0	32935	32735	32423	32685	0	34835	33565	31569	
1100	0	32875	32738	32555	32518	0	32423	32865	31293	
1101	0	32793	32783	32702	32607	0	30839	32658	31397	
1102	0	32623	32972	32866	32751	0	30662	32553	31383	
1103	0	32638	33023	32855	32891	0	31519	32869	32699	
1104	0	32594	32900	32695	32903	0	32739	32676	33938	
1105	0	32677	32980	32593	32623	0	32107	32762	33511	
1106	0	32967	32721	32242	32630	0	32343	32061	34535	
1107	0	32823	32861	32660	32587	0	32920	31855	35903	
1108	0	32699	32839	32725	32541	0	34719	32435	34883	
1109	0	32713	32705	32818	32706	0	33863	32727	32643	
1110	0	32716	32703	32852	32559	0	31988	32141	32180	
1111	0	32808	32565	32686	32427	0	31234	32055	32399	
1112	0	32973	32415	32487	32391	0	29533	31227	33197	
1113	0	32927	32619	32509	32567	0	28303	31035	33535	
1114	0	32556	33108	32929	33170	0	30224	31799	31670	
1115	0	32461	33388	32943	33415	0	34874	32485	30735	
1116	0	32530	33287	32922	33243	0	37453	33135	31273	
1117	0	32571	33167	33085	33010	0	39616	34350	31035	
1118	0	32683	33014	32851	32805	0	38601	34567	30596	
1119	0	32810	32853	32543	32699	0	34951	34023	31719	
1120	0	32721	32879	32646	32482	0	34103	33487	32219	
1121	0	32743	32727	32711	32635	0	33311	32843	32301	
1122	0	32660	32574	32711	32286	0	32247	33030	31777	
1123	0	32708	32535	32714	31855	0	32799	33137	31534	
1124	0	32796	32555	32718	32383	0	32031	31763	32855	
1125	0	32672	32731	32863	32975	0	30723	31532	33353	
1126	0	32759	32503	32875	32916	0	30921	31996	33613	
1127	0	32827	32455	32795	32388	0	30837	32047	33482	
1128	0	32903	32451	32844	31983	0	31119	32767	34061	
1129	0	32675	32587	32951	31699	0	29831	33391	33903	
1130	0	32477	32879	33136	32007	0	29220	32790	33703	
1131	0	32440	33091	33043	32795	0	29591	31862	33238	
1132	0	32550	32997	32775	33203	0	31047	32759	31847	
1133	0	32706	32645	32687	33348	0	33981	33029	31799	
1134	0	32833	32475	32475	33309	0	35931	32789	31751	
1135	0	32637	32783	32575	33093	0	35375	33140	33182	
1136	0	32603	32850	32729	32796	0	33535	32983	34567	
1137	0	32723	32805	32647	32637	0	33769	32199	34719	
1138	0	32756	32660	32555	32881	0	33671	31087	33299	
1139	0	32799	32493	32748	32787	0	33630	29957	32775	
1140	0	32797	32423	32623	32738	0	34170	29903	33483	
1141	0	32792	32485	32575	32647	0	32854	31589	33947	
1142	0	32858	32566	32551	32343	0	31558	33585	33784	
1143	0	32870	32611	32628	32207	0	28999	33559	32595	
1144	0	32927	32711	32455	32039	0	30983	33069	31683	
1145	0	32948	32685	32773	31858	0	31699	33095	32922	
1146	0	32859	32625	32887	32031	0	31525	33423	33798	
1147	0	32761	32679	33028	32151	0	32391	34657	32689	
1148	0	32674	32855	32999	32659	0	35790	35230	32571	
1149	0	32713	32966	33005	32783	0	38030	35263	29862	
1150	0	32773	32831	32706	32634	0	36102	34797	29828	
1151	0	32826	32794	32605	32698	0	31952	33639	31815	
1152	0	32846	32919	32677	32981	0	31667	33366	32436	
1153	0	32807	33060	32711	33045	0	33773	33538	30910	
1154	0	32887	33044	32709	33011	0	33239	33303	31097	
1155	0	32931	33027	32509	33043	0	32446	33194	31657	
1156	0	32996	33048	32429	32943	0	31303	33104	32199	
1157	0	33136	32946	32407	33155	0	31903	33387	33267	
1158	0	33247	32881	32295	33063	0	33332	32878	33530	
1159	0	33147	32801	32503	32847	0	32159	32861	32916	
1160	0	33158	32810	32532	32751	0	30950	32895	33125	
1161	0	33181	32879	32316	32827	0	31175	32557	34879	
1162	0	33099	32933	32427	32839	0	30727	32460	33799	
1163	0	32972	33125	32391	33257	0	31119	32503	31598	
1164	0	33020	32901	32287	32927	0	32509	32231	30839	
1165	0	33025	32551	32262	32582	0	32699	32370	31319	
1166	0	32874	32903	32559	32991	0	32738	32275	32998	
1167	0	32647	32979	32710	33140	0	32951	32315	33415	
1168	0	32745	32863	32574	32963	0	32805	32647	33479	
1169	0	32820	32599	32617	32807	0	33898	32577	32728	
1170	0	32679	32683	32813	32667	0	33353	32726	32482	
1171	0	32519	32751	32816	33044	0	33943	32647	31751	
1172	0	32447	32743	32916	33142	0	35999	32507	31813	
1173	0	32498	32685	32883	32627	0	34938	32205	33868	
1174	0	32427	32562	32835	32525	0	33327	31979	34426	
1175	0	32546	32559	32831	32389	0	31957	31879	34938	
1176	0	32463	32734	32815	32331	0	31917	32055	33661	
1177	0	32391	32807	32879	32481	0	33415	32362	31615	
1178	0	32388	32807	33066	32359	0	34463	32539	30330	
1179	0	32451	32735	32997	32159	0	33695	32263	32295	
1180	0	32588	32698	32839	32279	0	32383	32195	32836	
1181	0	32657	32755	32903	32343	0	30727	32194	32759	
1182	0	32578	32733	32879	32237	0	31061	32586	32330	
1183	0	32606	32818	32822	32301	0	31099	32671	32189	
1184	0	32710	32745	32771	32239	0	30666	31945	33625	
1185	0	32764	32766	32686	32295	0	30811	32239	33858	
1186	0	32757	32863	32767	32448	0	29919	32546	33187	
1187	0	32928	32587	32358	32135	0	29163	32291	33627	
1188	0	32835	32652	32501	32338	0	27303	31570	34367	
1189	0	32775	32860	32553	32379	0	29031	32289	34603	
1190	0	32676	33079	32691	32824	0	36811	32747	31611	
1191	0	32423	33533	32935	33271	0	40127	33415	30758	
1192	0	32454	33324	32951	33080	0	41664	33991	29861	
1193	0	32665	33199	32674	32859	0	42951	34273	28618	
1194	0	32799	33041	32565	32917	0	37757	33639	31599	
1195	0	32875	32900	32573	33116	0	32251	32911	34292	
1196	0	32719	33053	32807	32951	0	29965	32836	32647	
1197	0	32647	33036	33093	33076	0	30961	32947	31426	
1198	0	32617	32983	33095	33023	0	32677	32754	33031	
1199	0	32660	32865	32895	32929	0	32155	32391	34204	
1200	0	32775	32773	32847	32743	0	32118	32500	34119	
1201	0	32920	32603	32681	32631	0	31855	32485	33899	
1202	0	32968	32445	32403	32759	0	31887	32799	33313	
1203	0	32900	32539	32636	32385	0	31618	32807	33147	
1204	0	32867	32711	32823	32553	0	31743	32554	32681	
1205	0	32871	32587	32711	32578	0	31767	32263	32771	
1206	0	32978	32467	32547	32407	0	32223	32423	32751	
1207	0	32901	32658	32599	32711	0	31830	32557	32911	
1208	0	32761	32701	32631	32387	0	31307	32514	32743	
1209	0	32749	32629	32583	32446	0	32006	33014	32411	
1210	0	32799	32562	32635	32826	0	33415	32895	32828	
1211	0	32805	32638	32599	32549	0	33591	32991	32607	
1212	0	32855	32621	32614	32517	0	33911	32983	32255	
1213	0	32825	32551	32623	32634	0	34199	33060	31814	
1214	0	32791	32511	32647	32582	0	34005	33067	31889	
1215	0	32827	32647	32639	32426	0	33311	32716	33074	
1216	0	32772	32663	32620	32597	0	31031	32372	33135	
1217	0	32799	32599	32556	32340	0	29532	31854	33867	
1218	0	32754	32871	32724	32285	0	29502	32263	34935	
1219	0	32748	32982	32677	32823	0	29715	32605	33727	
1220	0	32677	33127	32687	33453	0	28803	32637	31495	
1221	0	32465	33268	32845	33522	0	30182	32967	30138	
1222	0	32600	33159	32916	33215	0	34216	33158	29547	
1223	0	32647	32901	32870	32935	0	36335	33263	30645	
1224	0	32724	32643	32615	32596	0	34882	32879	32455	
1225	0	32749	32647	32674	32493	0	33667	32863	32999	
1226	0	32721	32719	32679	32274	0	33671	32883	32481	
1227	0	32829	32780	32575	32211	0	33655	32743	33249	
1228	0	32860	32610	32551	32548	0	33786	33159	33155	
1229	0	32908	32370	32557	32501	0	32847	32975	33467	
1230	0	32957	32236	32470	32083	0	32399	33123	33087	
1231	0	32934	32319	32503	32404	0	32627	33133	32247	
1232	0	32840	32679	32573	33011	0	32050	32661	32183	
1233	0	32740	32765	32727	33087	0	31862	32535	31895	
1234	0	32781	32663	32626	33466	0	31816	32542	32083	
1235	0	32726	32655	32847	32821	0	32095	32343	33680	
1236	0	32695	32839	33015	32487	0	32254	31054	35588	
1237	0	32668	32751	32914	32204	0	32447	31623	34330	
1238	0	32724	32770	33010	32127	0	33198	32835	32042	
1239	0	32647	32759	33123	32309	0	34585	31582	33267	
1240	0	32718	32831	32979	32695	0	34500	31015	34855	
1241	0	32742	32919	32975	32751	0	35015	32361	33070	
1242	0	32772	32903	32853	32871	0	33781	33382	32471	
1243	0	32786	32855	32773	32775	0	32487	32738	32983	
1244	0	32733	32847	32789	32678	0	34040	32674	32991	
1245	0	32741	32839	32662	32739	0	35119	33321	32438	
1246	0	32825	32799	32574	32791	0	34631	33287	32151	
1247	0	32780	32858	32467	32716	0	33495	33510	31101	
1248	0	32854	32833	32391	32599	0	32559	33215	31231	
1249	0	32812	32737	32695	32671	0	31251	32738	31919	
1250	0	32751	32751	32843	32685	0	29353	32631	32571	
1251	0	32852	32535	32503	32473	0	29571	32167	32339	
1252	0	32882	32613	32470	32334	0	29863	32596	32543	
1253	0	32809	32687	32570	32405	0	30061	32623	33075	
1254	0	32835	32725	32413	32420	0	31785	32647	32847	
1255	0	32695	32983	32684	32715	0	32317	32999	32199	
1256	0	32647	33019	32647	32831	0	32717	33503	32431	
1257	0	32794	32827	32685	32941	0	34991	33095	32895	
1258	0	32876	32731	32548	32613	0	36314	32549	33143	
1259	0	32830	32819	32605	32895	0	37197	32775	32519	
1260	0	32838	32979	32704	33063	0	36163	33039	32549	
1261	0	32850	32917	32687	32826	0	35181	32775	32555	
1262	0	32726	32949	32703	32846	0	33355	33091	32382	
1263	0	32587	32902	32910	32714	0	31263	32963	33726	
1264	0	32652	32859	32846	32813	0	32615	32801	33407	
1265	0	32968	32623	32619	32613	0	33338	32549	33154	
1266	0	32948	32597	32635	32599	0	31971	32527	33013	
1267	0	32759	32767	32764	32733	0	30666	32679	31365	
1268	0	32735	32773	32883	32694	0	31630	32623	31655	
1269	0	32620	32799	32871	32556	0	32247	32639	32423	
1270	0	32569	32829	32898	32647	0	34241	32973	31503	
1271	0	32751	32773	32915	32491	0	33663	32866	31654	
1272	0	32676	32711	32827	32433	0	31570	32711	32931	
1273	0	32643	32934	32979	32608	0	29831	32916	32531	
1274	0	32602	32825	32743	32427	0	30906	32758	32215	
1275	0	32632	32919	32608	32542	0	30675	32435	32421	
1276	0	32666	32807	32662	32411	0	31005	32818	33133	
1277	0	32818	32709	32551	32535	0	32457	32977	32475	
1278	0	32840	32625	32537	32835	0	32989	32669	31975	
1279	0	33014	32439	32483	33250	0	32059	33271	31479	
1280	0	32866	32789	32557	33103	0	31691	33469	31868	
1281	0	32870	32935	32642	32714	0	31541	32694	33062	
1282	0	32732	32962	32639	32791	0	33367	33104	33431	
1283	0	32785	32807	32743	32713	0	34846	32895	34119	
1284	0	32757	32775	32845	32885	0	35159	32890	33987	
1285	0	32775	32819	32871	32694	0	36228	32541	34869	
1286	0	32788	32763	32849	32382	0	35512	31978	34031	
1287	0	32774	32799	32935	32658	0	31691	31687	33371	
1288	0	32731	32823	32817	32567	0	29855	32022	33033	
1289	0	32846	32647	32823	32340	0	31866	33076	31591	
1290	0	32871	32506	32710	32493	0	33595	33684	31773	
1291	0	32704	32815	32762	32989	0	33654	33938	31879	
1292	0	32775	32875	32583	32629	0	34324	33515	32572	
1293	0	32832	32647	32594	32463	0	33599	33127	33855	
1294	0	32773	32823	32698	32583	0	33631	32775	33057	
1295	0	32731	32893	32631	32900	0	33455	33052	31790	
1296	0	32806	32837	32489	32943	0	32343	32871	31887	
1297	0	32829	32871	32540	32702	0	31207	33231	32391	
1298	0	32797	32807	32590	32630	0	32757	33406	32903	
1299	0	32801	32859	32578	32647	0	32410	32589	32186	
1300	0	32716	32771	32796	32465	0	32431	32405	31445	
1301	0	32693	32823	32903	32442	0	32951	32742	32695	
1302	0	32735	32748	32685	32775	0	32807	32722	32943	
1303	0	32800	32567	32709	32807	0	32871	32971	32677	
1304	0	32786	32469	32759	32620	0	32607	32999	32259	
1305	0	32815	32597	32643	32538	0	32245	32663	32495	
1306	0	32769	32703	32707	32447	0	32405	32891	32881	
1307	0	32695	32767	32765	32647	0	32559	32798	32646	
1308	0	32669	32699	32647	32643	0	32284	32810	32607	
1309	0	32748	32631	32711	32437	0	32579	32573	32839	
1310	0	32810	32740	32751	32775	0	32527	32559	33391	
1311	0	32749	32766	32566	32729	0	32723	32797	33655	
1312	0	32715	32775	32626	32686	0	32532	32676	32847	
1313	0	32687	32805	32787	32674	0	31495	32834	32245	
1314	0	32841	32729	32680	32501	0	33159	32581	33079	
1315	0	32806	32711	32570	32598	0	33513	32749	33463	
1316	0	32847	32703	32629	32638	0	33628	32301	33386	
1317	0	32775	32828	32745	32769	0	31691	32605	33754	
1318	0	32763	32835	32731	32805	0	31763	32751	34227	
1319	0	32690	32924	32807	32719	0	32299	32861	31683	
1320	0	32741	32903	32917	32707	0	31655	33413	30133	
1321	0	32749	32860	32727	32621	0	32114	32939	30975	
1322	0	32790	32839	32727	32861	0	32287	32747	31831	
1323	0	32772	32870	32727	32783	0	32345	32515	33155	
1324	0	32706	32945	32675	32553	0	33021	32381	33223	
1325	0	32809	32815	32763	32663	0	34661	32799	31903	
1326	0	32799	32831	32631	32788	0	34433	32975	31678	
1327	0	32879	32837	32639	32726	0	34323	32999	31540	
1328	0	32782	32747	32771	32913	0	35286	32839	31059	
1329	0	32727	32941	32739	32807	0	34303	32570	31875	
1330	0	32728	32875	32811	32847	0	33091	32579	33190	
1331	0	32710	32735	32655	32647	0	32854	32327	34326	
1332	0	32710	32846	32714	32621	0	32823	32567	34631	
1333	0	32710	32729	32805	32482	0	32343	32583	33078	
1334	0	32751	32823	32553	32431	0	32570	32871	32775	
1335	0	32749	32635	32367	32669	0	32727	33143	33387	
1336	0	32758	32553	32382	32398	0	32983	33335	32605	
1337	0	32773	32615	32507	32453	0	32475	32974	32541	
1338	0	32847	32519	32475	32391	0	31481	32548	33595	
1339	0	32779	32647	32647	32495	0	30655	32347	33732	
1340	0	32815	32749	32877	32606	0	32175	32169	33467	
1341	0	32701	32931	33017	32787	0	32487	32534	32690	
1342	0	32647	32919	33017	32857	0	30343	32611	32309	
1343	0	32810	32811	32801	32695	0	30439	32431	32519	
1344	0	32815	32743	33012	32852	0	31649	32563	33215	
1345	0	32748	32916	33001	32580	0	33911	33663	32911	
1346	0	32686	32967	32956	32767	0	33012	33326	32339	
1347	0	32705	32941	32821	32646	0	33709	33111	33015	
1348	0	32692	32891	32791	32471	0	33789	32407	33093	
1349	0	32772	32815	32617	32525	0	33447	32430	32335	
1350	0	32708	32821	32567	32677	0	32263	32431	32277	
1351	0	32711	32791	32685	32631	0	32125	32434	31765	
1352	0	32827	32677	32565	32524	0	33535	32977	31874	
1353	0	32892	32647	32627	32691	0	34639	32800	32365	
1354	0	32903	32575	32635	32759	0	35259	31947	32007	
1355	0	32678	32647	32957	32486	0	36607	32563	29699	
1356	0	32681	32663	32751	32422	0	35847	32775	30087	
1357	0	32711	32856	32839	32735	0	34507	33042	32237	
1358	0	32720	32933	32801	32734	0	32503	33055	31770	
1359	0	32781	32835	32421	33004	0	30548	32861	32578	
1360	0	32679	32983	32573	33153	0	29550	33086	33338	
1361	0	32775	32964	32681	32927	0	29326	32700	36447	
1362	0	32793	32898	32609	32573	0	28551	32231	36191	
1363	0	32951	32711	32420	31999	0	31465	32331	33437	
1364	0	32793	32751	32623	32583	0	32367	33317	32622	
1365	0	32812	32655	32582	32755	0	32750	33204	33190	
1366	0	32817	32717	32748	32879	0	33695	33110	32311	
1367	0	32684	32994	32862	32862	0	32735	33303	31886	
1368	0	32693	32975	32675	32675	0	32847	32947	31751	
1369	0	32807	32583	32695	32573	0	33287	32759	30893	
1370	0	32799	32550	32685	32511	0	33759	32565	31396	
1371	0	32743	32719	32666	32647	0	33021	32285	32959	
1372	0	32666	32887	32866	32775	0	33181	32941	32919	
1373	0	32658	32815	32643	33342	0	33411	33283	32919	
1374	0	32720	32762	32735	32927	0	33639	33237	33268	
1375	0	32679	32834	32775	32587	0	34987	33018	33275	
1376	0	32610	33018	32640	32991	0	34287	32733	34727	
1377	0	32719	32974	32671	32964	0	32655	32615	33415	
1378	0	32761	32783	32683	32671	0	32244	32786	32485	
1379	0	32719	32699	32667	32750	0	34294	33159	32647	
1380	0	32729	32695	32775	32623	0	34073	32244	31887	
1381	0	32668	32674	32759	32241	0	31847	31317	32391	
1382	0	32811	32644	32785	32423	0	32164	31579	32421	
1383	0	32940	32455	32759	32316	0	33243	32576	32383	
1384	0	32903	32501	32703	32637	0	33563	33111	32063	
1385	0	32856	32669	32807	32663	0	32995	32181	31738	
1386	0	32753	32615	32820	32301	0	31715	32115	32423	
1387	0	32798	32655	32687	32381	0	31279	33028	32839	
1388	0	32809	32711	32827	32519	0	32043	33549	32557	
1389	0	32815	32665	32647	32525	0	32279	33791	32646	
1390	0	32813	32642	32493	32499	0	32111	33076	32434	
1391	0	32726	32871	32629	32451	0	30541	33211	31975	
1392	0	32711	32927	32747	32735	0	29819	33043	32071	
1393	0	32694	32870	32567	32506	0	30813	32865	32171	
1394	0	32826	32799	32524	32367	0	32690	32727	32503	
1395	0	32749	32796	32644	32535	0	33029	32587	33147	
1396	0	32732	32871	32589	32683	0	31350	32407	34831	
1397	0	32797	32706	32639	32855	0	32495	32340	35111	
1398	0	32833	32715	32695	33100	0	34295	32421	34321	
1399	0	32839	32687	32583	33107	0	34039	32621	33627	
1400	0	32841	32857	32609	33010	0	30587	32435	33407	
1401	0	32766	32959	32823	32960	0	31407	32577	32840	
1402	0	32703	32983	32819	33025	0	34637	32726	30247	
1403	0	32647	33079	32799	33111	0	35478	33007	29847	
1404	0	32669	32967	32743	32807	0	37658	33106	30695	
1405	0	32738	32862	32756	32791	0	36758	32871	31458	
1406	0	32783	32829	32663	32733	0	34389	32743	32897	
1407	0	32839	32695	32647	32519	0	33543	32671	32543	
1408	0	32775	32663	32615	32551	0	32391	32439	32735	
1409	0	32724	32703	32765	32407	0	30623	32501	33319	
1410	0	32707	32678	32767	32551	0	31475	32607	32791	
1411	0	32727	32775	32663	32502	0	31353	33199	32955	
1412	0	32686	32767	32775	32260	0	31787	32914	33039	
1413	0	32801	32685	32691	32431	0	32290	32983	32960	
1414	0	32800	32663	32557	32519	0	32239	32951	32807	
1415	0	32817	32687	32563	32799	0	32154	32617	33050	
1416	0	32757	32817	32711	32756	0	31695	32747	33267	
1417	0	32708	32877	32692	32447	0	31351	32587	33829	
1418	0	32740	32727	32791	32507	0	31359	32743	33539	
1419	0	32797	32741	32708	32434	0	32255	32919	32791	
1420	0	32743	32743	32662	32166	0	33220	32535	32436	
1421	0	32868	32591	32646	32378	0	34775	32467	32358	
1422	0	32901	32607	32578	32658	0	34183	32382	31183	
1423	0	32743	32762	32647	32809	0	30185	32234	32274	
1424	0	32852	32762	32519	33009	0	29963	32601	32731	
1425	0	32796	33074	32796	33460	0	32895	33770	30507	
1426	0	32759	33031	32756	33350	0	34323	34397	30121	
1427	0	32660	33093	32935	33053	0	31830	33919	33254	
1428	0	32602	32867	32900	32259	0	33238	33455	33955	
1429	0	32718	32679	32535	32533	0	32980	32995	33183	
1430	0	32880	32631	32627	32773	0	31814	32923	33468	
1431	0	32821	32658	32567	32903	0	33775	32941	34541	
1432	0	32738	32759	32551	32955	0	34875	32493	35463	
1433	0	32762	32679	32832	32917	0	36298	32377	33687	
1434	0	32614	32893	32839	32703	0	35693	32295	31423	
1435	0	32633	33043	32891	32832	0	35173	31303	31839	
1436	0	32708	32983	32764	32839	0	34228	30371	32050	
1437	0	32609	32964	32751	32683	0	32597	30814	32115	
1438	0	32711	32813	32694	32711	0	32018	32051	32404	
1439	0	32829	32681	32629	32642	0	32158	33671	32356	
1440	0	32841	32759	32657	32339	0	32333	34091	32205	
1441	0	32703	32795	32894	32527	0	32373	33971	31860	
1442	0	32786	32742	32730	32668	0	32167	34167	32355	
1443	0	32771	32775	32443	32503	0	31975	33746	32507	
1444	0	32814	32694	32591	32527	0	33587	32977	32751	
1445	0	32825	32669	32689	32535	0	34023	32439	33107	
1446	0	32823	32603	32831	32315	0	32690	32301	32609	
1447	0	32870	32590	32679	32397	0	31214	32135	32923	
1448	0	33001	32517	32415	32318	0	30171	32343	32719	
1449	0	32943	32671	32615	32226	0	28679	32540	33393	
1450	0	32756	32829	32763	32575	0	28886	32406	34363	
1451	0	32721	32863	32758	32877	0	31323	32525	33924	
1452	0	32705	32837	32879	32590	0	33343	32367	32647	
1453	0	32687	32800	32847	32787	0	32851	32791	31383	
1454	0	32609	33063	32982	32807	0	33439	32813	31329	
1455	0	32583	33051	32831	32997	0	34223	32681	31826	
1456	0	32695	32947	32700	32935	0	34484	33075	32534	
1457	0	32674	32927	32775	32807	0	32548	33355	31134	
1458	0	32734	32855	32815	32551	0	32594	33268	30940	
1459	0	32798	32859	32635	32701	0	34329	33023	32359	
1460	0	32732	32877	32734	32519	0	34167	33243	32635	
1461	0	32742	32795	32773	32575	0	32385	32671	32991	
1462	0	32758	32881	32848	33103	0	34655	32489	32343	
1463	0	32791	32711	32698	33071	0	35485	32666	32490	
1464	0	32877	32635	32567	32797	0	33997	32552	33223	
1465	0	32924	32726	32425	32658	0	32367	32523	33308	
1466	0	32848	32663	32579	32561	0	32541	32519	33187	
1467	0	32757	32669	32674	32348	0	32439	32413	32901	
1468	0	32844	32717	32611	32519	0	32471	32743	32438	
1469	0	32759	32775	32716	32562	0	32487	32449	33061	
1470	0	32696	32845	32773	32525	0	31365	32300	33511	
1471	0	32674	32809	32820	32543	0	31538	32679	33164	
1472	0	32698	32679	32859	32463	0	32468	32775	32411	
1473	0	32719	32663	32771	32477	0	31879	32485	32487	
1474	0	32719	32717	32879	32671	0	32115	33082	32559	
1475	0	32703	32765	32807	32863	0	33287	32919	32589	
1476	0	32754	32721	32671	32807	0	33267	32630	32679	
1477	0	32827	32621	32722	32615	0	33623	32916	33063	
1478	0	32871	32514	32663	32303	0	34401	32762	33153	
1479	0	32847	32533	32607	32471	0	34463	32407	33283	
1480	0	32745	32762	32834	32566	0	32328	32915	32491	
1481	0	32696	32894	32813	32463	0	30593	33183	32183	
1482	0	32687	32939	32660	32415	0	30551	33033	32255	
1483	0	32767	32871	32659	32473	0	32128	32574	33205	
1484	0	32847	32895	32439	32220	0	32405	32319	33866	
1485	0	32887	32743	32581	32627	0	32514	32243	34572	
1486	0	32810	32967	32611	33119	0	32799	31879	34586	
1487	0	32733	33059	32445	33443	0	31810	32100	33095	
1488	0	32808	32687	32529	32738	0	31381	32784	30869	
1489	0	32718	32727	32723	32615	0	34107	33317	28878	
1490	0	32621	33151	32884	33351	0	34404	33183	29605	
1491	0	32662	32949	32593	32932	0	33904	32963	31931	
1492	0	32732	32737	32477	33055	0	32303	32847	33143	
1493	0	32908	32483	32365	33919	0	33535	32671	33455	
1494	0	32825	32535	32571	32501	0	34381	32987	32911	
1495	0	32740	32390	32924	31863	0	33503	32999	33095	
1496	0	32785	32367	32997	31954	0	32619	32735	33525	
1497	0	32829	32445	32903	32187	0	32567	32510	33575	
1498	0	32832	32439	32715	32775	0	33251	32519	33458	
1499	0	32812	32511	32859	32839	0	32871	32453	33511	
1500	0	32653	32771	32926	32658	0	32471	32703	33221	
1501	0	32617	32945	32839	32631	0	32241	32306	32165	
1502	0	32694	32839	32933	32595	0	32997	32386	31993	
1503	0	32662	33098	33020	32614	0	32022	32985	31751	
1504	0	32725	32959	32935	32759	0	31213	33205	32287	
1505	0	32783	32895	32843	32631	0	32727	33755	32379	
1506	0	32798	32721	32720	32593	0	33255	33919	32342	
1507	0	32748	32893	32787	32586	0	32863	33095	32455	
1508	0	32775	32903	32797	32455	0	33031	32567	32557	
1509	0	32795	32900	32590	32639	0	32833	32615	32341	
1510	0	32780	32887	32675	32667	0	32319	31783	32543	
1511	0	32736	32898	32692	32589	0	32827	31919	33484	
1512	0	32743	32837	32609	32593	0	33183	32443	33843	
1513	0	32783	32711	32757	32471	0	32530	32703	33471	
1514	0	32737	32802	32634	32669	0	30807	32700	32743	
1515	0	32767	32695	32554	32631	0	31145	32766	32291	
1516	0	32724	32721	32690	32403	0	32992	33021	32566	
1517	0	32692	32855	32727	32679	0	33607	32727	34075	
1518	0	32736	32863	32594	32757	0	34413	33057	34089	
1519	0	32751	32799	32687	32571	0	34178	33263	33239	
1520	0	32775	32765	32519	32807	0	33583	32887	32167	
1521	0	32756	32814	32658	32686	0	32253	32615	31847	
1522	0	32812	32742	32631	32660	0	31847	32957	31981	
1523	0	32775	32829	32687	32707	0	31199	33043	31239	
1524	0	32830	32809	32577	32902	0	30409	33063	31091	
1525	0	32868	32711	32532	32564	0	32903	33437	31689	
1526	0	32823	32702	32771	32557	0	34663	33087	32487	
1527	0	32775	32726	32807	32625	0	35734	32766	33303	
1528	0	32799	32796	32694	32645	0	34407	32643	33127	
1529	0	32694	33083	32871	32935	0	31941	32485	32630	
1530	0	32767	32862	32655	32800	0	31983	32323	33783	
1531	0	32707	32885	32613	32775	0	31989	32109	34540	
1532	0	32685	32775	32679	32811	0	32641	32391	33693	
1533	0	32647	32789	32693	32679	0	33375	33039	32914	
1534	0	32632	32789	32901	32717	0	33239	32459	32279	
1535	0	32658	32893	32895	32795	0	34951	32559	30881	
1536	0	32638	32795	32836	32788	0	35363	32524	30767	
1537	0	32674	32871	32884	32839	0	32900	32734	30711	
1538	0	32762	32793	32815	32807	0	31785	32571	32159	
1539	0	32665	32949	32935	32723	0	32127	32690	32871	
1540	0	32722	32787	32751	32607	0	32340	33105	33311	
1541	0	32781	32690	32771	32521	0	32301	33187	33330	
1542	0	32876	32607	32503	32494	0	31954	32786	33695	
1543	0	32887	32615	32482	32583	0	31799	32815	33482	
1544	0	32903	32677	32493	32530	0	31910	32823	33099	
1545	0	32943	32679	32481	32663	0	32463	32557	33431	
1546	0	32810	32911	32617	32671	0	32235	33020	32751	
1547	0	32775	32814	32686	32698	0	32634	33381	32607	
1548	0	32793	32647	32455	32579	0	32181	33517	32248	
1549	0	32838	32541	32589	32335	0	32870	32679	31762	
1550	0	32818	32643	32506	32485	0	32372	32411	32111	
1551	0	32757	32852	32551	32543	0	33083	32417	32135	
1552	0	32686	32823	32757	32583	0	33543	32951	32801	
1553	0	32647	32935	32915	32746	0	32351	32785	32823	
1554	0	32617	32959	32823	32829	0	32318	32233	32229	
1555	0	32683	32943	32835	32663	0	32699	32471	32573	
1556	0	32639	32937	32799	32813	0	32807	32853	33811	
1557	0	32701	32951	32877	32845	0	32431	32971	33527	
1558	0	32793	32807	32732	32573	0	32783	33069	32215	
1559	0	32896	32694	32593	32551	0	33403	32562	31223	
1560	0	32845	32586	32621	32497	0	33415	32955	31468	
1561	0	32858	32706	32730	32603	0	33159	33215	32669	
1562	0	32839	32662	32685	32469	0	33362	33389	32391	
1563	0	32771	32692	32647	32615	0	33645	32667	32210	
1564	0	32721	32719	32781	32834	0	32519	32637	33135	
1565	0	32750	32844	32762	32659	0	32263	32679	34485	
1566	0	32770	32857	32674	32747	0	32721	32677	34427	
1567	0	32797	32831	32724	32663	0	32911	32931	33459	
1568	0	32845	32703	32679	32709	0	32833	32562	32877	
1569	0	32813	32775	32647	32717	0	31795	32671	33012	
1570	0	32767	32759	32715	32583	0	32505	32583	33005	
1571	0	32759	32626	32591	32523	0	32677	32407	32747	
1572	0	32781	32735	32677	32562	0	32806	32751	32949	
1573	0	32723	32836	32803	32460	0	32103	32583	32141	
1574	0	32637	32783	32635	32383	0	32317	32545	32170	
1575	0	32714	32657	32751	32254	0	32683	32717	31941	
1576	0	32745	32557	32735	32218	0	32439	32775	32125	
1577	0	32804	32559	32709	32246	0	33107	32775	32501	
1578	0	32785	32716	32711	32839	0	33466	32823	32343	
1579	0	32797	32731	32706	32933	0	32043	32318	32759	
1580	0	32730	32854	32735	33299	0	31989	32635	32551	
1581	0	32726	32843	32786	33230	0	31961	32817	32607	
1582	0	32695	32887	32835	32793	0	31339	32999	32459	
1583	0	32745	32931	32847	32991	0	31138	33083	31620	
1584	0	32773	32918	32765	32925	0	31531	33338	30281	
1585	0	32806	32775	32567	32506	0	33345	33746	31849	
1586	0	32753	32831	32719	32613	0	33575	33663	34303	
1587	0	32879	32734	32658	32495	0	35007	32411	34587	
1588	0	32887	32700	32571	32786	0	35047	31965	33043	
1589	0	32888	32735	32495	32871	0	36038	31850	32070	
1590	0	32775	32735	32495	32791	0	36199	32029	32275	
1591	0	32721	32807	32666	32716	0	32547	31197	33079	
1592	0	32613	32791	32791	32621	0	30805	31463	33623	
1593	0	32671	32850	32850	32761	0	30687	30759	34439	
1594	0	32641	32877	32711	32806	0	32994	30213	34036	
1595	0	32582	33055	32718	32958	0	34129	32159	34257	
1596	0	32676	33007	32748	33013	0	33561	35343	34247	
1597	0	32759	32800	32836	32882	0	34102	35890	31697	
1598	0	32705	32823	32811	32754	0	33452	34887	29783	
1599	0	32839	32830	32865	32699	0	33223	33763	30971	
1600	0	32882	32743	32802	32612	0	33295	32479	31415	
1601	0	32842	32670	32733	32406	0	33767	32239	32068	
1602	0	32775	32671	32685	32191	0	32455	32359	32101	
1603	0	32808	32823	32855	32378	0	32301	32827	32419	
1604	0	32780	32831	32796	32322	0	31327	32727	33315	
1605	0	32703	32789	32717	32071	0	30507	32745	33479	
1606	0	32690	32791	32773	32055	0	30014	32561	32959	
1607	0	32754	32787	32593	32673	0	31382	32353	32643	
1608	0	32900	32647	32413	32961	0	32525	32359	32689	
1609	0	32922	32455	32450	32809	0	33385	32459	32093	
1610	0	32911	32335	32567	32847	0	33959	32638	32434	
1611	0	32773	32627	32641	32421	0	32874	32681	31939	
1612	0	32719	32834	32783	32578	0	32105	32793	32079	
1613	0	32770	32671	32710	32583	0	32062	32513	32084	
1614	0	32594	32831	32734	32731	0	30926	32621	31687	
1615	0	32667	32847	32845	32915	0	31295	32895	31354	
1616	0	32677	32775	32801	32981	0	32247	32790	32117	
1617	0	32743	32705	32647	32639	0	33199	32511	33067	
1618	0	32797	32729	32527	32683	0	34015	32197	33877	
1619	0	32690	32759	32695	32692	0	32967	32557	34093	
1620	0	32710	32698	32721	32726	0	31667	32831	33319	
1621	0	32893	32575	32465	32475	0	32826	32991	33437	
1622	0	32886	32743	32663	32399	0	34367	32810	33147	
1623	0	32811	32839	32783	32644	0	33273	33223	33517	
1624	0	32775	32770	32553	32679	0	32773	32553	34231	
1625	0	32836	32893	32577	32597	0	33327	32204	33615	
1626	0	32887	32813	32628	32579	0	33347	32423	33445	
1627	0	32871	32773	32746	32515	0	34563	32925	32719	
1628	0	32722	32916	32966	32719	0	33231	32951	32591	
1629	0	32591	32927	32996	32833	0	30667	32769	32493	
1630	0	32532	32957	32847	32891	0	31263	32871	32412	
1631	0	32652	32869	32871	32729	0	32559	32775	32679	
1632	0	32740	32903	32775	32733	0	33659	32861	30695	
1633	0	32727	32751	32623	32574	0	33170	32447	30663	
1634	0	32692	32797	32677	32754	0	33512	32559	31263	
1635	0	32775	32743	32739	32623	0	33462	32667	30877	
1636	0	32628	32814	32667	32527	0	32305	32829	31559	
1637	0	32727	32723	32751	32679	0	32327	32821	32898	
1638	0	32708	32839	32805	32739	0	31644	33103	33228	
1639	0	32812	32703	32647	32550	0	32047	32982	33535	
1640	0	32852	32721	32671	32735	0	31709	32549	33703	
1641	0	32881	32727	32743	32615	0	31230	32815	33271	
1642	0	32870	32643	32575	32367	0	33213	33135	33511	
1643	0	32903	32775	32759	32476	0	35291	33659	33055	
1644	0	32876	32735	32839	32445	0	35514	32951	32498	
1645	0	32887	32556	32698	32345	0	33542	32143	32925	
1646	0	32720	32725	33028	32607	0	30375	32110	34535	
1647	0	32534	33055	33142	32868	0	31493	32335	33316	
1648	0	32485	33107	32851	33157	0	36699	32700	31972	
1649	0	32703	32877	32543	32807	0	37831	33231	32383	
1650	0	32848	32683	32279	32348	0	34677	33412	32220	
1651	0	32924	32708	32255	32507	0	30278	33607	31126	
1652	0	32939	32543	32463	32253	0	31010	32845	31555	
1653	0	32733	32786	32703	32247	0	30882	32965	31991	
1654	0	32665	33123	32890	33175	0	30610	33568	32873	
1655	0	32615	33071	32903	33179	0	30415	33006	33589	
1656	0	32620	32772	32663	32706	0	30307	32911	32884	
1657	0	32806	32727	32661	33351	0	31021	32412	33206	
1658	0	32932	32527	32535	33033	0	32327	32465	33941	
1659	0	32932	32373	32471	32356	0	34093	32527	35124	
1660	0	32967	32614	32523	32366	0	35111	32127	34889	
1661	0	32814	32727	32743	32580	0	36045	32970	32157	
1662	0	32743	32871	32747	32977	0	35845	33159	30113	
1663	0	32623	32989	32954	32855	0	32477	32830	29831	
1664	0	32395	33232	33047	33047	0	31175	33295	29415	
1665	0	32530	33121	32775	32953	0	33604	32758	29735	
1666	0	32702	32966	32687	32686	0	34350	33137	31922	
1667	0	32765	32775	32724	32679	0	32911	32489	35103	
1668	0	32813	32732	32740	32398	0	31375	32350	33330	
1669	0	32815	32687	32551	32493	0	32775	32849	32607	
1670	0	32806	32754	32591	32551	0	32855	32951	32455	
1671	0	32796	32701	32598	32355	0	32239	33311	31887	
1672	0	32754	32658	32575	32527	0	31655	32943	31847	
1673	0	32780	32623	32724	32479	0	31719	32727	32596	
1674	0	32752	32751	32807	32658	0	32813	32684	33370	
1675	0	32670	32710	32783	32647	0	31895	31237	34021	
1676	0	32786	32723	32623	32676	0	32459	31111	33655	
1677	0	32716	32751	32615	32530	0	32551	31759	33143	
1678	0	32660	32742	32775	32694	0	32575	32175	32775	
1679	0	32772	32706	32763	32615	0	33469	33026	33565	
1680	0	32722	32793	32767	32711	0	34727	33649	34887	
1681	0	32800	32751	32719	32588	0	33895	33577	34921	
1682	0	32869	32701	32691	32471	0	33735	33461	33505	
1683	0	32838	32599	32500	32587	0	32741	32915	33071	
1684	0	32756	32839	32708	32535	0	32066	32799	33167	
1685	0	32801	32735	32674	32646	0	33082	32565	33187	
1686	0	32794	32733	32558	32534	0	32553	32543	33340	
1687	0	32734	32804	32736	32711	0	31367	32349	32607	
1688	0	32764	32974	32699	32796	0	31967	32658	31634	
1689	0	32695	32876	32549	32621	0	33277	32613	31425	
1690	0	32702	32843	32807	32742	0	33478	32743	31647	
1691	0	32807	32675	32644	32579	0	33168	32707	32135	
1692	0	32818	32769	32487	32775	0	32674	32631	32271	
1693	0	32841	32799	32723	32607	0	31799	32955	32443	
1694	0	32796	32886	32815	32659	0	31649	32807	32255	
1695	0	32764	32807	32567	32534	0	31291	33103	31741	
1696	0	32759	32769	32739	32437	0	31127	33068	31681	
1697	0	32775	32835	32765	32606	0	31941	32871	31271	
1698	0	32789	32733	32703	32554	0	32123	32790	31941	
1699	0	32676	32791	32747	32727	0	31791	32487	32743	
1700	0	32704	32832	32845	32835	0	32959	32703	32771	
1701	0	32775	32740	32732	32502	0	33714	32647	32231	
1702	0	32723	32693	32743	32557	0	32669	32703	32495	
1703	0	32750	32735	32812	32589	0	33871	32863	33127	
1704	0	32699	32775	32827	32751	0	34375	32863	33036	
1705	0	32752	32797	32742	32701	0	33139	32749	32743	
1706	0	32813	32621	32671	32846	0	33619	32534	33444	
1707	0	32785	32719	32647	32771	0	33809	33051	33837	
1708	0	32789	32601	32759	32559	0	33566	32983	33831	
1709	0	32748	32685	32758	32589	0	31721	32669	33991	
1710	0	32790	32667	32723	32439	0	32196	32703	33511	
1711	0	32836	32631	32662	31999	0	33463	32471	32901	
1712	0	32888	32381	32587	32159	0	33146	31779	33687	
1713	0	32740	32751	32647	32799	0	31399	32308	32757	
1714	0	32741	32763	32647	32591	0	31903	32566	32271	
1715	0	32765	32698	32479	32647	0	31867	32623	32611	
1716	0	32721	33071	32695	32891	0	32331	32990	30611	
1717	0	32584	33135	32813	33087	0	33919	33159	28519	
1718	0	32636	32903	32743	33026	0	33974	33086	30333	
1719	0	32736	32883	32586	33047	0	32685	32662	31559	
1720	0	32773	32993	32759	33089	0	33079	33190	31358	
1721	0	32804	32863	32687	32831	0	33136	32811	33167	
1722	0	32883	32683	32804	32477	0	33179	32383	34402	
1723	0	32798	32700	32879	32551	0	33501	32469	34163	
1724	0	32767	32697	32903	32293	0	35612	32538	33851	
1725	0	32801	32739	32819	32467	0	34285	32699	33463	
1726	0	32844	32591	32775	32379	0	33471	32090	32730	
1727	0	32766	32658	32787	32335	0	31492	32743	30975	
1728	0	32724	32773	32660	32306	0	30269	32793	30837	
1729	0	32729	32925	32692	32295	0	29658	32221	32786	
1730	0	32633	32973	32717	32775	0	31221	32158	34603	
1731	0	32715	32775	32509	32745	0	33255	32086	34455	
1732	0	32694	32897	32687	33063	0	31468	32425	32871	
1733	0	32691	33039	32623	33187	0	30823	32701	33229	
1734	0	32620	33031	32706	33203	0	32870	33391	32511	
1735	0	32674	33095	32612	33145	0	36018	33567	32658	
1736	0	32721	32955	32647	32827	0	35895	33677	33202	
1737	0	32745	32827	32703	32903	0	34917	33231	32143	
1738	0	32818	32763	32609	32679	0	33719	32543	32119	
1739	0	32782	32709	32666	32751	0	32191	32647	33342	
1740	0	32813	32775	32625	32683	0	31461	32427	33618	
1741	0	32852	32563	32551	32684	0	31802	32383	33762	
1742	0	32851	32509	32629	32533	0	32501	32551	33307	
1743	0	32956	32467	32579	32359	0	32671	32217	33223	
1744	0	32920	32547	32633	32381	0	32427	32285	32860	
1745	0	32758	32615	32783	32545	0	31535	32787	32175	
1746	0	32830	32655	32919	32445	0	31811	32303	33039	
1747	0	32700	32751	32942	32551	0	31736	32721	33381	
1748	0	32629	32903	32775	32738	0	34207	33016	31546	
1749	0	32641	33059	32903	32742	0	35269	33047	30855	
1750	0	32711	32841	32858	32689	0	34279	33335	32191	
1751	0	32720	32735	32871	32759	0	31331	32954	32647	
1752	0	32738	32759	32759	32399	0	31473	33139	31939	
1753	0	32694	32735	32813	32527	0	31074	33138	32191	
1754	0	32727	32731	32643	32383	0	31175	32879	32025	
1755	0	32770	32671	32645	32445	0	32326	32703	32051	
1756	0	32818	32727	32671	32350	0	32751	32786	31653	
1757	0	32806	32681	32687	32487	0	32183	32909	32481	
1758	0	32860	32707	32579	32519	0	32292	32783	32217	
1759	0	32764	32796	32793	32669	0	33394	32903	31303	
1760	0	32809	32711	32639	32819	0	34374	32935	31147	
1761	0	32854	32743	32695	32867	0	33343	32903	32327	
1762	0	32823	32693	32565	32719	0	33079	32479	33774	
1763	0	32673	32933	32735	32759	0	34695	32815	34326	
1764	0	32752	32895	32743	32567	0	34068	32647	34412	
1765	0	32823	32791	32706	32621	0	32036	32487	34759	
1766	0	32873	32730	32631	32710	0	31961	32665	34205	
1767	0	32822	32775	32745	32851	0	31845	33237	32743	
1768	0	32794	32847	32708	32759	0	33751	33317	31931	
1769	0	32817	32748	32619	33110	0	33857	33135	32658	
1770	0	32786	32679	32583	32725	0	33447	32573	33031	
1771	0	32810	32679	32626	32573	0	33063	32863	33031	
1772	0	32772	32709	32579	32447	0	32211	32359	33181	
1773	0	32700	32751	32745	32348	0	31305	31911	33340	
1774	0	32654	32765	32805	32919	0	31946	31725	33501	
1775	0	32726	32894	32631	32755	0	33862	32457	32175	
1776	0	32685	32935	32758	32749	0	33462	33207	30815	
1777	0	32725	32839	32890	32523	0	32679	32839	31958	
1778	0	32770	32788	32775	32659	0	32071	32939	32334	
1779	0	32769	32895	32701	32607	0	30943	32981	32135	
1780	0	32754	32852	32765	32603	0	32259	33134	32305	
1781	0	32799	32819	32868	32637	0	31875	33189	32823	
1782	0	32802	32839	32827	32565	0	30471	33039	32870	
1783	0	32749	32815	32974	32715	0	30447	33001	33538	
1784	0	32738	32695	32766	32611	0	31287	32521	34119	
1785	0	32798	32583	32590	32454	0	32897	32646	33713	
1786	0	32960	32642	32359	32597	0	34119	32645	32299	
1787	0	32996	32551	32149	32548	0	34631	32630	30905	
1788	0	33063	32467	32195	32561	0	32436	32487	32135	
1789	0	32903	32674	32525	32783	0	34695	32071	32684	
1790	0	32659	33020	32769	32943	0	36831	32683	30556	
1791	0	32575	33223	32757	33167	0	35695	33311	29487	
1792	0	32517	33199	32995	33167	0	33693	32987	30767	
1793	0	32579	33022	32903	32818	0	32476	33235	32933	
1794	0	32500	33037	33053	32811	0	31717	33201	34107	
1795	0	32622	32983	32993	32747	0	31501	32886	34742	
1796	0	32650	32859	32943	32819	0	31223	32933	34903	
1797	0	32694	32844	32860	33098	0	32987	32845	32723	
1798	0	32775	32677	32871	32679	0	34265	33027	31087	
1799	0	32784	32614	32629	32591	0	34887	33255	31462	
1800	0	32749	32671	32629	32531	0	33745	32617	32441	
1801	0	32816	32623	32698	32373	0	32799	31602	32967	
1802	0	32864	32551	32719	32453	0	32718	31847	33159	
1803	0	32886	32589	32703	32383	0	32126	31483	33553	
1804	0	32841	32541	32583	32278	0	31873	32239	33105	
1805	0	32807	32611	32679	32519	0	32202	32583	33327	
1806	0	32804	32745	32721	32551	0	32043	32607	33571	
1807	0	32838	32822	32683	32726	0	30930	32187	33428	
1808	0	32838	32813	32586	32601	0	31638	32367	33029	
1809	0	32786	32738	32749	32369	0	32421	33038	33903	
1810	0	32720	32814	32843	32516	0	31834	32975	33798	
1811	0	32690	32854	32573	32426	0	31183	33022	32895	
1812	0	32753	32862	32637	32679	0	32229	32575	32211	
1813	0	32791	32863	32669	32935	0	32583	32939	31398	
1814	0	32730	32757	32545	32815	0	33735	32999	30983	
1815	0	32765	32772	32535	33151	0	35110	32924	31535	
1816	0	32780	32946	32567	33227	0	33651	32914	32935	
1817	0	32720	32859	32597	32655	0	33316	32681	33332	
1818	0	32785	32711	32659	32603	0	33191	32527	33647	
1819	0	32791	32735	32642	32263	0	32791	32237	33069	
1820	0	32775	32711	32775	32066	0	32321	32533	32361	
1821	0	32688	32839	32780	32466	0	31751	32727	32463	
1822	0	32788	32695	32763	32487	0	32422	32326	33103	
1823	0	32823	32658	32771	32621	0	32610	32647	32675	
1824	0	32822	32761	32671	32679	0	32999	33063	32405	
1825	0	32844	32679	32645	32935	0	34295	32851	32687	
1826	0	32832	32647	32669	32356	0	34637	32807	32699	
1827	0	32820	32767	32703	32841	0	33922	32925	32445	
1828	0	32769	32765	32751	33047	0	33967	32987	32962	
1829	0	32753	32846	32607	32679	0	32503	33146	33143	
1830	0	32740	32713	32700	32606	0	31751	33205	32487	
1831	0	32578	32893	32863	32894	0	28965	32751	32358	
1832	0	32657	32999	32815	33047	0	29489	32726	32452	
1833	0	32691	32914	32767	32745	0	31418	32469	33063	
1834	0	32660	32846	32838	32413	0	31750	32733	32399	
1835	0	32736	32799	32797	32575	0	31523	32775	31659	
1836	0	32807	32708	32711	32611	0	32556	32919	31879	
1837	0	32740	32871	32815	32519	0	34983	32498	31678	
1838	0	32829	32627	32667	32118	0	37135	32647	31415	
1839	0	32845	32615	32564	31956	0	36595	32881	32154	
1840	0	32820	32703	32694	32461	0	32466	32727	35071	
1841	0	32858	32631	32623	33120	0	30892	33042	33490	
1842	0	32802	32645	32767	32903	0	32407	33146	30543	
1843	0	32751	32795	32714	33069	0	33511	33313	31597	
1844	0	32775	32684	32693	32741	0	33755	32919	31163	
1845	0	32647	32839	32813	32660	0	33429	33170	31457	
1846	0	32730	32791	32775	32703	0	32903	32783	31955	
1847	0	32708	32725	32715	32767	0	32391	32457	33333	
1848	0	32729	32815	32711	32575	0	32641	32571	34295	
1849	0	32773	32827	32647	32775	0	31431	32207	33599	
1850	0	32764	32743	32550	32863	0	31066	32186	32540	
1851	0	32711	32743	32599	32556	0	32133	32212	32997	
1852	0	32751	32735	32551	32515	0	32361	32687	34693	
1853	0	32769	32687	32559	32405	0	31943	32821	34746	
1854	0	32751	32711	32692	32639	0	31968	32671	34723	
1855	0	32791	32676	32630	32643	0	34407	32015	34003	
1856	0	32557	32998	32986	32829	0	36847	32117	31830	
1857	0	32597	32950	32876	32919	0	34943	31879	32708	
1858	0	32615	32927	32878	32970	0	32011	32231	33137	
1859	0	32692	32919	32839	32705	0	31077	32599	33689	
1860	0	32830	32775	32559	32691	0	31911	33435	32497	
1861	0	32800	32891	32437	32694	0	33889	33916	30551	
1862	0	32799	33022	32699	32754	0	32758	33615	30519	
1863	0	32836	32835	32439	32703	0	33895	33151	31387	
1864	0	32999	32647	32564	32551	0	33300	32541	32710	
1865	0	32896	32607	32647	32434	0	32103	33146	32359	
1866	0	32858	32588	32571	32570	0	31994	32741	33125	
1867	0	32797	32807	32809	32687	0	30372	32789	34023	
1868	0	32753	32739	32793	32605	0	30914	32517	33665	
1869	0	32757	32751	32615	32599	0	31445	33095	32695	
1870	0	32803	32773	32685	32459	0	32263	32745	32655	
1871	0	32779	32819	32710	32739	0	33494	32932	31781	
1872	0	32736	32839	32595	32762	0	34575	32991	31301	
1873	0	32738	32751	32676	32727	0	34453	32786	31453	
1874	0	32716	32935	32770	32801	0	33652	32995	31739	
1875	0	32733	33063	32710	32743	0	33071	32647	32687	
1876	0	32743	32865	32598	32847	0	33315	32747	33619	
1877	0	32797	32847	32749	32803	0	32871	32388	33391	
1878	0	32716	32871	32893	32691	0	33663	32599	33669	
1879	0	32697	32937	32749	32837	0	33794	32647	33071	
1880	0	32692	32819	32855	32615	0	33078	32663	32834	
1881	0	32784	32759	32679	32633	0	32877	32446	32955	
1882	0	32815	32818	32647	32601	0	31791	32543	33509	
1883	0	32818	32662	32708	32511	0	30851	32503	33467	
1884	0	32663	32759	32878	32469	0	30351	33065	32647	
1885	0	32639	32887	32775	32570	0	30405	32895	33063	
1886	0	32643	32839	32833	32734	0	31505	32551	33059	
1887	0	32775	32631	32739	32631	0	33507	32834	32727	
1888	0	32795	32506	32675	32607	0	33947	32709	32435	
1889	0	32660	32621	32837	32420	0	33247	32783	32587	
1890	0	32639	32607	32815	32359	0	33783	32617	32150	
1891	0	32572	32565	32809	32364	0	32263	32511	32733	
1892	0	32624	32451	32959	32156	0	30891	32031	33330	
1893	0	32617	32607	32923	32415	0	31407	32703	32293	
1894	0	32639	32519	32742	32383	0	33511	32523	32017	
1895	0	32636	32617	32719	32375	0	32692	32683	31275	
1896	0	32620	32791	32932	32671	0	32679	32754	31719	
1897	0	32540	32854	33095	32683	0	32909	33119	31663	
1898	0	32543	32831	32954	32691	0	34845	33259	31603	
1899	0	32634	32871	32821	32443	0	34935	33381	31985	
1900	0	32786	32687	32833	32571	0	35298	33091	31588	
1901	0	32871	32503	32775	32347	0	33951	32439	33399	
1902	0	32839	32635	32767	32454	0	32631	32477	33308	
1903	0	32818	32759	32969	32607	0	30956	32723	33169	
1904	0	32774	32691	32945	32402	0	31495	32750	33541	
1905	0	32773	32861	32813	32715	0	32428	33031	33123	
1906	0	32876	32809	32597	32988	0	32609	32911	32939	
1907	0	32909	32775	32541	33224	0	32883	33071	32603	
1908	0	32841	32882	32557	33383	0	32895	33111	33611	
1909	0	32914	32865	32557	33069	0	32580	33303	33129	
1910	0	32957	32879	32350	32945	0	32845	33026	32738	
1911	0	32914	32903	32431	33035	0	32378	32550	33046	
1912	0	32929	32891	32415	32761	0	32743	32548	32775	
1913	0	32975	32868	32523	32775	0	33175	32626	32295	
1914	0	33060	32748	32343	32725	0	33793	32799	32099	
1915	0	33087	32823	32226	32679	0	33980	32711	31783	
1916	0	33084	32813	32335	32871	0	33771	32545	32135	
1917	0	33119	32839	32263	32775	0	32819	32421	32555	
1918	0	33122	32901	32431	32986	0	32805	32803	32611	
1919	0	33172	32751	32483	32811	0	33313	33415	32171	
1920	0	33078	32869	32495	32893	0	33203	33719	32575	
1921	0	33119	32735	32524	32879	0	33610	32749	33910	
1922	0	33212	32810	32444	32763	0	31726	32434	33825	
1923	0	33052	32967	32421	33091	0	28278	32658	33255	
1924	0	32949	33030	32639	32819	0	28287	33335	32666	
1925	0	32698	32999	32647	32844	0	30155	32961	31610	
1926	0	32617	32847	32787	32729	0	32109	32933	32381	
1927	0	32572	32891	32811	32647	0	32615	32975	33095	
1928	0	32704	32807	32647	33091	0	33524	32493	32239	
1929	0	32711	32763	32714	32831	0	34663	32723	32743	
1930	0	32646	32743	32743	32579	0	34694	33023	32695	
1931	0	32588	32631	32847	32445	0	34015	32663	32738	
1932	0	32690	32519	32813	32293	0	33762	32566	32869	
1933	0	32544	32561	32663	32135	0	33197	32019	32698	
1934	0	32527	32727	32911	32535	0	32501	32331	32724	
1935	0	32530	32679	32949	32475	0	33318	32391	33563	
1936	0	32516	32903	32914	32383	0	32083	32495	32794	
1937	0	32431	32903	32945	32477	0	31439	32427	32005	
1938	0	32560	32757	32688	32425	0	33050	32091	33739	
1939	0	32599	32703	32767	32322	0	32573	32085	34646	
1940	0	32425	32903	32943	32473	0	31355	32565	33415	
1941	0	32446	32959	33063	32679	0	34299	32985	31183	
1942	0	32624	32897	32973	32669	0	33059	32991	30461	
1943	0	32530	32901	32855	32887	0	34130	33133	30914	
1944	0	32580	32863	32871	32807	0	35063	32955	32047	
1945	0	32624	32647	32786	32738	0	35477	32859	31159	
1946	0	32662	32573	32794	32455	0	33576	32708	31849	
1947	0	32687	32583	32775	32487	0	32775	32359	33482	
1948	0	32687	32699	32647	32788	0	31957	32301	33477	
1949	0	32786	32573	32679	32509	0	31327	32551	33823	
1950	0	32774	32514	32711	32391	0	30615	32143	34845	
1951	0	32837	32492	32575	32515	0	30127	32171	34523	
1952	0	32837	32717	32629	32731	0	29200	31909	34338	
1953	0	32733	32919	32699	32763	0	30845	32221	33641	
1954	0	32820	32862	32805	32871	0	35207	32989	32450	
1955	0	32695	33071	32885	32755	0	36727	33518	30308	
1956	0	32688	33138	32835	32949	0	36855	33431	29318	
1957	0	32712	32967	32839	32834	0	35671	33333	29847	
1958	0	32823	32807	32564	32879	0	33723	32695	31425	
1959	0	32762	32895	32549	32763	0	32772	32599	31916	
1960	0	32813	32767	32613	32629	0	31911	32718	32719	
1961	0	32846	32671	32578	32687	0	31215	32605	33547	
1962	0	32916	32484	32775	32535	0	31724	32103	33885	
1963	0	32828	32695	32811	32572	0	32023	32311	33699	
1964	0	32785	32831	32965	32629	0	33143	32814	33587	
1965	0	32810	32775	32807	32567	0	33005	32841	34001	
1966	0	32805	32751	32679	32621	0	32733	32893	33543	
1967	0	32756	32803	32813	32511	0	31572	33067	32275	
1968	0	32799	32751	32627	32663	0	31651	32847	31655	
1969	0	32838	32773	32623	32603	0	32173	32764	32035	
1970	0	32807	32743	32579	32687	0	32527	33471	32605	
1971	0	32775	32713	32727	32485	0	33563	33619	32132	
1972	0	32836	32715	32694	32468	0	32713	33062	32435	
1973	0	32863	32715	32555	32540	0	33551	32311	33570	
1974	0	32749	32822	32727	32693	0	32711	32489	33583	
1975	0	32764	32727	32590	32697	0	33515	33183	34637	
1976	0	32725	32883	32595	32621	0	32796	32439	35391	
1977	0	32730	32895	32599	32807	0	32519	32607	34066	
1978	0	32740	32861	32643	32614	0	31724	32951	32263	
1979	0	32633	32972	32786	32956	0	32247	33151	29639	
1980	0	32619	33079	33006	33119	0	32166	32923	29825	
1981	0	32758	32939	32837	32763	0	33235	32245	31649	
1982	0	32867	32813	32509	32839	0	33335	32315	32679	
1983	0	32793	32717	32639	32550	0	32809	31849	32931	
1984	0	32815	32791	32706	32594	0	32709	31991	33061	
1985	0	32879	32687	32734	32711	0	31743	32324	33105	
1986	0	32743	32754	32679	32660	0	30959	33046	32847	
1987	0	32743	32735	32671	32700	0	32135	33087	32995	
1988	0	32820	32717	32719	32541	0	33171	33127	32737	
1989	0	32839	32677	32786	32683	0	33267	32660	32371	
1990	0	32846	32639	32658	32543	0	33239	33053	32255	
1991	0	32726	32670	32759	32671	0	32973	33071	32419	
1992	0	32677	32683	32719	32671	0	33087	33271	32627	
1993	0	32703	32757	32550	32467	0	33175	33119	32439	
1994	0	32718	32775	32805	32631	0	32839	33133	32045	
1995	0	32843	32695	32726	32567	0	32589	33086	32335	
1996	0	32867	32611	32527	32263	0	32547	32679	32609	
1997	0	32831	32559	32647	32199	0	31947	32948	32295	
1998	0	32812	32631	32639	31991	0	32373	32412	33127	
1999	0	32831	32625	32531	32339	0	32479	32047	32991	
2000	0	32769	32747	32679	32681	0	32332	31919	32839	
2001	0	32700	32795	32836	32642	0	32075	32555	32603	
2002	0	32703	32827	32790	32983	0	32517	33054	33927	
2003	0	32706	32932	32769	33023	0	30593	32570	35783	
2004	0	32693	33159	32764	33003	0	30554	32383	35666	
2005	0	32660	33122	32604	32982	0	36469	32895	30969	
2006	0	32773	32963	32583	33227	0	37291	32983	29974	
2007	0	32711	32918	32647	33122	0	35318	33170	31671	
2008	0	32740	32791	32475	33198	0	35491	33159	31838	
2009	0	32803	32749	32555	32909	0	34847	32749	31995	
2010	0	32861	32669	32503	32695	0	33159	32005	32852	
2011	0	32713	32783	32771	32943	0	31639	31750	32775	
2012	0	32720	32719	32775	32903	0	31981	32245	33234	
2013	0	32677	32787	32903	32548	0	31297	32599	33670	
2014	0	32716	32719	32863	32356	0	31995	33007	33367	
2015	0	32687	32715	32948	32548	0	31545	31999	33143	
2016	0	32708	32813	33015	32623	0	30925	32301	32540	
2017	0	32672	32799	32995	32531	0	31739	32797	31398	
2018	0	32647	32759	32875	32565	0	32605	33211	31477	
2019	0	32668	32726	32786	32383	0	32579	33798	32211	
2020	0	32695	32823	32813	32628	0	31579	33595	32829	
2021	0	32836	32769	32693	32527	0	32627	33415	33223	
2022	0	32855	32687	32647	32551	0	33018	33051	33181	
2023	0	32878	32659	32559	32447	0	33021	33003	33703	
2024	0	32874	32603	32671	32509	0	33103	32743	32956	
2025	0	32837	32631	32615	32590	0	33338	32527	32077	
2026	0	32806	32786	32491	32399	0	32327	32660	31059	
2027	0	32739	32766	32591	32658	0	33592	32620	30123	
2028	0	32827	32735	32582	32419	0	34205	32662	30455	
2029	0	32757	32847	32647	32605	0	32942	32583	32363	
2030	0	32775	32844	32535	32754	0	32809	32457	35975	
2031	0	32800	32807	32575	32530	0	32167	32332	36026	
2032	0	32702	32991	32757	32950	0	31047	32755	34101	
2033	0	32706	32967	32815	33087	0	31435	32833	32531	
2034	0	32804	32790	32703	32895	0	33501	32534	32714	
2035	0	32786	32791	32690	32730	0	34535	33041	31887	
2036	0	32701	32806	32820	32723	0	33863	32903	32503	
2037	0	32721	32791	32775	32659	0	33213	32729	32786	
2038	0	32711	32803	32671	32775	0	32949	32658	33109	
2039	0	32802	32749	32774	32763	0	33595	32359	32877	
2040	0	32850	32685	32671	32617	0	33222	32450	32883	
2041	0	32911	32655	32503	32559	0	33098	32351	33679	
2042	0	32943	32647	32597	32807	0	32516	32547	33505	
2043	0	32811	32635	32701	32603	0	30751	32919	32548	
2044	0	32775	32791	32615	32822	0	30418	32835	32208	
2045	0	32743	32791	32679	32957	0	31299	33159	31951	
2046	0	32672	32819	32599	32454	0	33043	32959	31635	
2047	0	32631	32687	32711	32587	0	33437	32657	32097	
2048	0	32711	32554	32647	32439	0	32839	32514	32679	
2049	0	32768	32540	32527	32422	0	32255	32431	33159	
2050	0	32793	32662	32679	32389	0	32701	32663	32555	
2051	0	32759	32871	32676	32681	0	32743	32851	32519	
2052	0	32612	32900	32815	32704	0	33634	32802	32135	
2053	0	32751	32684	32791	32357	0	33479	32255	33075	
2054	0	32800	32635	32667	32481	0	33647	32635	33259	
2055	0	32795	32835	32811	32475	0	32637	32811	32428	
2056	0	32681	32863	32891	32775	0	31167	33263	31979	
2057	0	32748	32854	32634	32763	0	29959	32348	33135	
2058	0	32705	32825	32807	32485	0	31826	32722	32018	
2059	0	32717	32789	32775	32742	0	33869	33671	29661	
2060	0	32692	32891	32695	32759	0	32749	33305	30755	
2061	0	32775	32719	32727	32637	0	34327	33223	32493	
2062	0	32820	32635	32643	32607	0	36595	33187	32891	
2063	0	32844	32719	32681	32487	0	35759	32727	32215	
2064	0	32882	32732	32737	32511	0	33668	32527	34455	
2065	0	32829	33029	32623	32570	0	33829	32924	34667	
2066	0	32690	33167	32919	32732	0	32172	32949	32350	
2067	0	32636	33025	32867	32775	0	30916	33075	31509	
2068	0	32786	32669	32729	32679	0	31341	31981	32711	
2069	0	32783	32775	32831	33070	0	31421	31535	33159	
2070	0	32640	32894	32693	33211	0	32815	31879	33079	
2071	0	32695	32799	32759	32787	0	33697	32484	33453	
2072	0	32736	32751	32820	32565	0	32116	33265	33611	
2073	0	32744	32773	32707	32775	0	31263	32759	33703	
2074	0	32772	32795	32739	32847	0	32276	32203	33707	
2075	0	32788	32687	32541	32513	0	32987	32391	33501	
2076	0	32836	32771	32587	32623	0	32887	32541	32919	
2077	0	32785	32791	32762	32603	0	33082	33195	32386	
2078	0	32788	32662	32759	32839	0	32591	33006	32631	
2079	0	32734	32845	32487	32854	0	31976	32658	32801	
2080	0	32758	32815	32655	32775	0	32299	33004	31540	
2081	0	32764	32748	32667	32693	0	33719	33182	31395	
2082	0	32860	32565	32527	32375	0	33565	32887	32091	
2083	0	32850	32575	32671	32519	0	32883	32981	32083	
2084	0	32752	32743	32757	32541	0	33350	33095	32757	
2085	0	32731	32791	32795	32639	0	32843	32647	32700	
2086	0	32844	32699	32634	32443	0	32229	32559	33075	
2087	0	32800	32711	32687	32378	0	31853	32459	34150	
2088	0	32786	32823	32551	32539	0	32131	32687	33692	
2089	0	32742	32927	32692	32534	0	32831	32667	33155	
2090	0	32806	32708	32559	32524	0	33551	32319	32127	
2091	0	32828	32791	32583	32599	0	32599	32391	32015	
2092	0	32769	32843	32747	32463	0	32195	32601	33259	
2093	0	32783	32891	32773	33106	0	32351	33009	33639	
2094	0	32721	32895	32666	32963	0	32367	32851	32895	
2095	0	32654	32948	32809	32573	0	33415	32643	31527	
2096	0	32601	32903	32724	32836	0	33819	32759	32209	
2097	0	32703	32839	32711	32991	0	33667	32703	31703	
2098	0	32809	32773	32632	32585	0	32230	32391	31898	
2099	0	32823	32759	32668	32633	0	32455	32604	31783	
2100	0	32857	32716	32638	32595	0	34179	32975	31294	
2101	0	32813	32615	32727	32770	0	32895	33463	31245	
2102	0	32752	32710	32911	32885	0	32237	33234	31822	
2103	0	32733	32620	32687	32479	0	32707	32861	33053	
2104	0	32769	32617	32703	32626	0	32647	32477	33868	
2105	0	32816	32598	32716	32575	0	32027	32237	34135	
2106	0	32735	32751	32871	32337	0	32170	32655	32895	
2107	0	32775	32647	32773	32647	0	32577	32525	33671	
2108	0	32694	32847	32715	32978	0	30429	32455	33581	
2109	0	32726	32795	32783	32838	0	30869	32614	32844	
2110	0	32889	32659	32564	32538	0	32047	32299	33381	
2111	0	32863	32663	32655	32527	0	31806	32415	34115	
2112	0	32729	32767	32707	32511	0	32451	32289	33623	
2113	0	32647	32687	32809	32412	0	36263	33010	31956	
2114	0	32688	32811	32815	32443	0	33826	33455	31117	
2115	0	32653	32895	32711	32327	0	33285	33740	30725	
2116	0	32646	32807	32807	32372	0	32441	32837	30863	
2117	0	32705	32711	32663	32378	0	29893	32556	33873	
2118	0	32801	32663	32583	32519	0	31510	32103	36908	
2119	0	32876	32717	32405	32577	0	33243	31849	35298	
2120	0	33029	32619	32383	32557	0	38301	32411	32564	
2121	0	32962	32729	32479	32815	0	39911	32533	30373	
2122	0	32883	32819	32540	33055	0	37647	32910	29447	
2123	0	32676	33045	32852	33263	0	34125	33499	28620	
2124	0	32420	33455	33023	33671	0	30571	33877	29199	
2125	0	32467	33375	32894	33263	0	30831	34362	32335	
2126	0	32647	33029	32811	33191	0	30781	33667	32925	
2127	0	32808	32799	32707	32717	0	32599	33661	32333	
2128	0	32795	32730	32825	32591	0	33204	33087	32959	
2129	0	32791	32705	32871	32431	0	31751	32500	33871	
2130	0	32809	32570	32831	32493	0	30674	32094	33970	
2131	0	32795	32513	32833	32415	0	30655	31959	33479	
2132	0	32754	32477	32903	32185	0	30621	32031	33757	
2133	0	32738	32623	32975	32167	0	31553	32028	33897	
2134	0	32734	32690	32959	32186	0	32123	31842	34341	
2135	0	32694	32701	32742	31927	0	32643	31575	34119	
2136	0	32701	32835	32775	32385	0	31831	31943	33695	
2137	0	32717	32935	32671	32605	0	32342	32243	33757	
2138	0	32677	33079	32503	32729	0	31547	32732	32839	
2139	0	32672	33159	32647	33239	0	30403	33234	32487	
2140	0	32807	32875	32543	33073	0	32325	33311	32001	
2141	0	32863	32711	32492	32791	0	35295	33639	30515	
2142	0	32854	32575	32595	33052	0	36509	33509	30365	
2143	0	32869	32553	32471	32885	0	36563	32985	32347	
2144	0	32846	32687	32647	33018	0	35245	32489	32911	
2145	0	32788	32811	32813	33051	0	33467	32295	32985	
2146	0	32767	32727	32663	32790	0	32461	32391	33410	
2147	0	32738	32643	32751	32755	0	32359	32454	33695	
2148	0	32711	32773	32735	32722	0	32517	32815	33238	
2149	0	32726	32807	32583	32484	0	32335	32903	33007	
2150	0	32793	32823	32619	32862	0	32191	32979	32735	
2151	0	32787	32767	32615	32743	0	31578	32555	32831	
2152	0	32826	32811	32547	32419	0	31425	32679	32615	
2153	0	32758	32813	32703	32499	0	31558	32754	32146	
2154	0	32740	32769	32703	32626	0	32530	32599	32295	
2155	0	32781	32731	32527	32364	0	33639	32667	32539	
2156	0	32807	32763	32597	32583	0	32911	32750	32727	
2157	0	32790	32759	32582	32526	0	32847	32646	32901	
2158	0	32769	32743	32685	32499	0	32785	32599	32669	
2159	0	32754	32647	32677	32447	0	32582	32603	32831	
2160	0	32703	32671	32559	32578	0	32879	32589	32755	
2161	0	32847	32689	32635	32551	0	33071	33191	32527	
2162	0	32827	32703	32647	32581	0	33029	32903	32677	
2163	0	32796	32839	32710	32693	0	32319	32756	32447	
2164	0	32695	32895	32722	32795	0	31719	32919	32547	
2165	0	32720	32787	32641	32583	0	31963	32967	32917	
2166	0	32690	32871	32679	32775	0	32415	32791	32825	
2167	0	32660	32894	32587	32757	0	33159	32631	32833	
2168	0	32749	32850	32738	32620	0	33137	32523	32807	
2169	0	32668	32855	32751	32731	0	32679	32759	32714	
2170	0	32707	32864	32783	32661	0	32487	33015	32684	
2171	0	32731	32835	32917	32701	0	32711	32858	32503	
2172	0	32701	32763	32713	32581	0	32739	32555	32295	
2173	0	32751	32791	32809	32711	0	32783	33015	32313	
2174	0	32807	32819	32675	32607	0	33355	32926	32540	
2175	0	32765	32761	32657	32479	0	33126	33435	32597	
2176	0	32817	32727	32699	32711	0	32363	32893	32847	
2177	0	32900	32644	32517	32621	0	32886	32767	33020	
2178	0	32872	32687	32711	32437	0	32557	33193	32215	
2179	0	32822	32795	32767	32751	0	33679	33011	32444	
2180	0	32783	32941	32839	32833	0	33799	32860	32279	
2181	0	32783	32839	32844	32708	0	33554	32796	32231	
2182	0	32718	32903	32895	32828	0	31975	32367	32615	
2183	0	32751	32884	32715	32898	0	30863	32212	32775	
2184	0	32748	32755	32699	32627	0	31655	32415	33428	
2185	0	32860	32642	32679	32587	0	31931	32237	34247	
2186	0	32903	32685	32636	32669	0	31622	32327	33490	
2187	0	32743	32747	32817	32647	0	31215	32423	32301	
2188	0	32640	32843	32700	32741	0	30932	32465	31506	
2189	0	32666	32830	32735	32655	0	31383	32867	31234	
2190	0	32685	32860	32717	32637	0	32867	32647	31727	
2191	0	32761	32791	32627	32567	0	35247	32383	33734	
2192	0	32855	32655	32564	32590	0	36743	32839	35301	
2193	0	32878	32595	32647	32337	0	37655	32917	35194	
2194	0	32891	32647	32455	32419	0	37967	32445	33667	
2195	0	32769	32795	32775	32638	0	34975	32805	33461	
2196	0	32668	32843	32871	32855	0	31759	33415	33047	
2197	0	32765	32735	32619	32287	0	29229	33607	32367	
2198	0	32738	32820	32710	32421	0	28583	32903	31418	
2199	0	32670	32916	32895	33145	0	31131	32587	29746	
2200	0	32647	33071	32918	33228	0	32151	32477	29698	
2201	0	32732	32919	32722	32879	0	32023	32674	30635	
2202	0	32768	32875	32716	32686	0	32621	32687	31522	
2203	0	32775	32751	32683	32767	0	34103	32814	32223	
2204	0	32820	32695	32621	32610	0	34883	33773	31949	
2205	0	32713	32747	32742	32759	0	34439	33455	32191	
2206	0	32725	32685	32719	32775	0	33761	33198	32375	
2207	0	32769	32567	32515	32799	0	32876	32627	33405	
2208	0	32785	32527	32739	32557	0	31995	32607	34275	
2209	0	32780	32559	32711	32417	0	30860	32340	34009	
2210	0	32767	32775	32607	32735	0	30356	32191	33880	
2211	0	32664	32903	32717	32769	0	31574	32599	33687	
2212	0	32753	32874	32770	32481	0	34251	32851	32983	
2213	0	32746	32861	32578	32667	0	33951	32682	32303	
2214	0	32726	32819	32830	32599	0	32337	32751	31491	
2215	0	32782	32702	32743	32711	0	33360	32487	31639	
2216	0	32740	32775	32627	32571	0	35183	32543	31911	
2217	0	32762	32871	32683	32754	0	34240	32724	32783	
2218	0	32853	32643	32699	32663	0	33561	32847	33251	
2219	0	32856	32690	32669	32662	0	33123	32914	32727	
2220	0	32806	32719	32807	32530	0	31297	32943	32647	
2221	0	32831	32584	32587	32301	0	30989	32719	32869	
2222	0	32791	32767	32756	32663	0	29123	33109	32278	
2223	0	32810	32757	32722	32671	0	30263	33031	32183	
2224	0	32787	32757	32811	32477	0	31813	32967	32199	
2225	0	32769	32738	32827	32690	0	32103	32310	32738	
2226	0	32770	32759	32751	32851	0	32803	32057	33586	
2227	0	32634	32852	32763	32775	0	34171	32227	33799	
2228	0	32705	32785	32809	32722	0	35183	32113	32927	
2229	0	32763	32717	32733	32539	0	34141	32469	33494	
2230	0	32700	32839	32598	32821	0	33934	32755	33511	
2231	0	32724	32935	32679	32855	0	34423	32669	33838	
2232	0	32650	32919	32763	32636	0	33627	32867	33769	
2233	0	32679	32845	32818	32719	0	32715	32783	33556	
2234	0	32738	32846	32845	32805	0	31854	32835	32721	
2235	0	32748	32837	32671	32687	0	31253	32297	32443	
2236	0	32870	32751	32647	32639	0	31680	32805	32487	
2237	0	32750	32706	32673	32578	0	31917	33318	31941	
2238	0	32788	32739	32639	32659	0	31855	33106	31741	
2239	0	32784	32833	32715	32567	0	32044	32871	32147	
2240	0	32864	32647	32683	32454	0	32383	32839	31993	
2241	0	32862	32583	32501	32514	0	33723	32711	31982	
2242	0	32887	32475	32605	32300	0	34373	32487	32821	
2243	0	32725	32663	32635	32491	0	34331	32391	33783	
2244	0	32695	32817	32741	32623	0	33191	32500	33197	
2245	0	32702	32903	32767	32879	0	30879	32909	33709	
2246	0	32732	32829	32733	32923	0	31238	32317	33131	
2247	0	32723	32931	32727	32807	0	31975	32535	32745	
2248	0	32812	32715	32615	32495	0	34031	32634	33132	
2249	0	32853	32567	32615	32215	0	35207	32898	32667	
2250	0	32859	32551	32519	32391	0	34133	32647	31589	
2251	0	32850	32705	32375	32492	0	33071	33031	31382	
2252	0	32621	32997	32634	32727	0	30644	33311	30411	
2253	0	32504	33251	32797	33127	0	30980	33335	30532	
2254	0	32504	33071	32867	32762	0	34643	33910	30590	
2255	0	32717	32919	32799	32765	0	34125	33270	31106	
2256	0	32678	32919	32706	33101	0	32821	32755	32743	
2257	0	32694	32831	32847	33019	0	32743	32333	33237	
2258	0	32711	32775	32743	32870	0	32574	32421	32195	
2259	0	32703	32707	32903	33047	0	33461	32831	32449	
2260	0	32715	32639	32977	32697	0	33577	32457	33347	
2261	0	32654	32743	32901	32719	0	31847	32695	33283	
2262	0	32717	32662	32847	32519	0	31643	32775	32975	
2263	0	32796	32647	32659	32386	0	32075	32623	32877	
2264	0	32893	32670	32527	32455	0	32227	32839	33197	
2265	0	32885	32709	32683	32207	0	33263	32598	33061	
2266	0	32876	32663	32685	32278	0	33518	32775	32829	
2267	0	32790	32793	32663	32263	0	31637	32538	32831	
2268	0	32791	32831	32642	32613	0	31820	32827	33110	
2269	0	32769	32813	32681	32551	0	32311	32635	32989	
2270	0	32796	32791	32644	32819	0	32827	32497	33119	
2271	0	32771	32758	32572	33087	0	32455	32263	32882	
2272	0	32806	32639	32623	32766	0	32080	32681	32927	
2273	0	32775	32695	32677	32795	0	31997	33135	33693	
2274	0	32745	32763	32595	33065	0	32957	32939	34053	
2275	0	32756	32839	32751	32991	0	34447	32551	34179	
2276	0	32796	32903	32754	32963	0	35003	32577	33608	
2277	0	32845	32802	32567	32721	0	34981	32714	32887	
2278	0	32773	32739	32733	32687	0	32858	32455	33710	
2279	0	32729	32687	32788	32604	0	30207	32884	33119	
2280	0	32615	32847	32818	32865	0	29621	32825	31463	
2281	0	32622	32871	32916	32614	0	31741	32661	31074	
2282	0	32731	32729	32885	32263	0	35183	33078	30811	
2283	0	32759	32721	32685	32242	0	34663	32598	31175	
2284	0	32764	32695	32703	32317	0	33991	31903	32075	
2285	0	32798	32711	32708	32517	0	33372	31763	33644	
2286	0	32829	32727	32599	32515	0	32890	32115	33773	
2287	0	32793	32720	32667	32564	0	31543	33027	33705	
2288	0	32798	32738	32535	32519	0	31332	33031	33239	
2289	0	32827	32719	32623	32695	0	32197	32813	33567	
2290	0	32770	32670	32661	32708	0	32947	33137	33187	
2291	0	32693	32703	32690	32615	0	32447	33030	31673	
2292	0	32725	32639	32687	32687	0	32213	32759	31799	
2293	0	32748	32837	32601	32635	0	32621	33031	32509	
2294	0	32743	32870	32847	32550	0	33267	33039	32046	
2295	0	32725	32788	32930	32495	0	33435	32406	31915	
2296	0	32844	32667	32835	32659	0	33293	32783	31895	
2297	0	32742	32875	32886	32783	0	33087	33257	31351	
2298	0	32692	32859	32771	32775	0	32447	33131	32479	
2299	0	32679	32871	32847	32647	0	33043	33074	32827	
2300	0	32731	32885	32817	32751	0	33327	32735	33159	
2301	0	32731	32926	32711	32722	0	32901	32719	32759	
2302	0	32795	32819	32809	33007	0	31922	32734	33437	
2303	0	32856	32847	32647	32871	0	30757	32567	34509	
2304	0	32887	32567	32467	32473	0	31561	33054	34009	
2305	0	32821	32732	32557	32735	0	32521	33223	32775	
2306	0	32677	32974	32775	32967	0	31582	32391	32484	
2307	0	32724	32892	32729	32711	0	31895	32125	32295	
2308	0	32726	32839	32715	32619	0	33431	32472	32581	
2309	0	32735	32775	32663	32499	0	35375	32940	32219	
2310	0	32698	32701	32597	32542	0	35287	32749	31550	
2311	0	32782	32607	32534	32383	0	34972	32621	31547	
2312	0	32758	32759	32570	32372	0	34623	32895	31507	
