# OpenSignals Text File Format
# {"00:07:80:64:6D:DA": {"sensor": ["CUSTOM/0.5/1.0/V", "CUSTOM/0.5/1.0/V", "CUSTOM/0.5/1.0/V", "CUSTOM/0.5/1.0/V"], "device name": "Plataforma", "column": ["nSeq", "DI", "CH1", "CH2", "CH3", "CH4"], "sync interval": 2, "time": "10:55:46.869", "comments": "", "device connection": "BTH00:07:80:64:6D:DA", "channels": [1, 2, 3, 4], "date": "2017-6-2", "mode": 0, "digital IO": [0, 1], "firmware version": 772, "device": "biosignalsplux", "position": 0, "sampling rate": 1000, "label": ["CH1", "CH2", "CH3", "CH4"], "resolution": [16, 16, 16, 16], "special": [{}, {}, {}, {}]}, "00:07:80:3B:46:38": {"sensor": ["CUSTOM/0.5/1.0/V", "CUSTOM/0.5/1.0/V", "CUSTOM/0.5/1.0/V", "CUSTOM/0.5/1.0/V", "CUSTOM/0.5/1.0/V", "CUSTOM/0.5/1.0/V", "CUSTOM/0.5/1.0/V", "CUSTOM/0.5/1.0/V"], "device name": "EMGs", "column": ["nSeq", "DI", "RA_L", "RA_R", "OE_L", "OE:R", "IL_L", "IL_R", "MF_L", "MF_R"], "sync interval": 2, "time": "10:55:46.869", "comments": "", "device connection": "BTH00:07:80:3B:46:38", "channels": [1, 2, 3, 4, 5, 6, 7, 8], "date": "2017-6-2", "mode": 0, "digital IO": [0, 1], "firmware version": 772, "device": "biosignalsplux", "position": 1, "sampling rate": 1000, "label": ["RA_L", "RA_R", "OE_L", "OE:R", "IL_L", "IL_R", "MF_L", "MF_R"], "resolution": [16, 16, 16, 16, 16, 16, 16, 16], "special": [{}, {}, {}, {}, {}, {}, {}, {}]}}
# EndOfHeader
0	0	4074	4788	2729	6662	1128	0	32793	32735	32807	33045	32813	32879	32767	32807	
1	0	4048	4765	2810	6646	1129	0	32694	32860	32793	33173	32725	32803	32767	32751	
2	0	4082	4820	2804	6649	1130	0	32749	32871	32759	33149	32727	32855	32677	32722	
3	0	4075	4777	2814	6699	1131	0	32797	32901	32771	32860	32687	32761	32785	32831	
4	0	4079	4740	2768	6653	1132	0	32807	32711	32643	32673	32674	32757	32731	32823	
5	0	4081	4754	2828	6669	1133	0	32863	32703	32739	32695	32643	32660	32663	32811	
6	0	4073	4752	2773	6611	1134	0	32828	32799	32739	32467	32709	32802	32819	32820	
7	0	4074	4772	2774	6648	1135	0	32739	32533	32767	32207	32769	32767	32766	32831	
8	0	4099	4734	2813	6667	1136	0	32819	32615	32743	32087	32754	32743	32631	32836	
9	0	4045	4802	2787	6648	1137	0	32827	32399	32783	32047	32826	32814	32707	32771	
10	0	4086	4741	2767	6606	1138	0	32721	32749	32851	32331	32775	32695	32639	32682	
11	0	4061	4743	2790	6682	1139	0	32690	32683	32713	32683	32815	32802	32723	32762	
12	0	4121	4809	2809	6644	1140	0	32742	32949	32745	32723	32773	32671	32675	32783	
13	0	4096	4773	2764	6646	1141	0	32806	32815	32755	32718	32737	32815	32765	32734	
14	0	4047	4804	2823	6681	1142	0	32771	32813	32835	32877	32739	32823	32667	32701	
15	0	4057	4735	2840	6661	1143	0	32759	32869	32823	33013	32738	32765	32719	32708	
16	0	4064	4758	2757	6600	1144	0	32736	32852	32795	33103	32727	32801	32559	32762	
17	0	4118	4763	2844	6604	1145	0	32727	32899	32822	32999	32705	32738	32701	32791	
18	0	4075	4765	2793	6637	1146	0	32742	32727	32709	32707	32749	32775	32695	32757	
19	0	4066	4774	2738	6646	1147	0	32773	32481	32662	32727	32615	32833	32679	32771	
20	0	4085	4768	2805	6643	1148	0	32755	32623	32767	32751	32667	32679	32739	32791	
21	0	4074	4744	2820	6626	1149	0	32721	32731	32755	32711	32694	32767	32699	32790	
22	0	4068	4781	2798	6650	1150	0	32743	32959	32687	32497	32738	32783	32693	32721	
23	0	4067	4802	2803	6610	1151	0	32711	33101	32687	32639	32772	32775	32631	32775	
24	0	4079	4757	2766	6624	1152	0	32740	32921	32739	32659	32758	32773	32703	32866	
25	0	4098	4792	2790	6603	1153	0	32734	32847	32622	32543	32626	32683	32628	32797	
26	0	4107	4766	2800	6648	1154	0	32764	32391	32622	32525	32535	32811	32753	32759	
27	0	4136	4788	2759	6654	1155	0	32702	32391	32605	32527	32583	32667	32636	32839	
28	0	4063	4802	2781	6641	1156	0	32775	32167	32754	32679	32511	32799	32730	32829	
29	0	4064	4812	2792	6660	1157	0	32851	32329	32663	32895	32526	32767	32807	32657	
30	0	4100	4765	2779	6613	1158	0	32837	32559	32707	32999	32459	32734	32719	32708	
31	0	4072	4783	2771	6627	1159	0	32813	32903	32628	33146	32579	32837	32788	32773	
32	0	4094	4740	2805	6610	1160	0	32802	32815	32662	32938	32599	32811	32731	32727	
33	0	4130	4846	2770	6630	1161	0	32842	33092	32626	32935	32506	32733	32756	32735	
34	0	4098	4774	2806	6621	1162	0	32795	32875	32691	32976	32535	32858	32679	32797	
35	0	4102	4752	2733	6618	1163	0	32800	33062	32619	33023	32527	32807	32734	32713	
36	0	4088	4787	2780	6598	1164	0	32797	32799	32636	33024	32697	32774	32791	32707	
37	0	4110	4804	2789	6620	1165	0	32772	32869	32611	32973	32743	32796	32791	32807	
38	0	4144	4782	2780	6613	1166	0	32683	32997	32535	32966	32755	32893	32789	32839	
39	0	4072	4803	2769	6626	1167	0	32644	32695	32639	32902	32727	32765	32609	32925	
40	0	4105	4825	2795	6632	1168	0	32742	32831	32679	32751	32717	32727	32738	32673	
41	0	4120	4814	2774	6645	1169	0	32749	32717	32767	32730	32775	32674	32607	32695	
42	0	4106	4768	2788	6580	1170	0	32704	32679	32819	32738	32655	32731	32671	32799	
43	0	4104	4828	2733	6611	1171	0	32767	32487	32785	32725	32801	32797	32743	32799	
44	0	4123	4796	2772	6593	1172	0	32831	32767	32890	32921	32851	32631	32701	32701	
45	0	4111	4727	2808	6589	1173	0	32815	32685	32815	32831	32573	32797	32719	32743	
46	0	4082	4764	2790	6595	1174	0	32775	32781	32818	32689	32539	32791	32790	32743	
47	0	4128	4844	2793	6586	1175	0	32655	32698	32903	32621	32559	32742	32775	32757	
48	0	4128	4801	2808	6646	1176	0	32734	32861	32855	32617	32558	32719	32722	32753	
49	0	4098	4745	2805	6582	1177	0	32796	32748	32805	32647	32578	32823	32721	32767	
50	0	4065	4804	2793	6587	1178	0	32741	32850	32813	32690	32597	32719	32621	32663	
51	0	4091	4802	2757	6581	1179	0	32639	32647	32717	32775	32525	32819	32695	32757	
52	0	4131	4796	2756	6613	1180	0	32679	32952	32633	32855	32564	32703	32583	32847	
53	0	4128	4788	2780	6618	1181	0	32710	32701	32583	32814	32575	32751	32747	32799	
54	0	4082	4772	2768	6560	1182	0	32758	32871	32626	32863	32674	32827	32719	32765	
55	0	4120	4861	2796	6620	1183	0	32738	32666	32519	32740	32743	32775	32595	32769	
56	0	4122	4782	2784	6624	1184	0	32716	32775	32610	32647	32660	32854	32769	32825	
57	0	4110	4783	2756	6592	1185	0	32788	32775	32903	32711	32669	32855	32723	32759	
58	0	4100	4787	2813	6584	1186	0	32734	32751	33055	32699	32703	32759	32637	32723	
59	0	4170	4820	2790	6572	1187	0	32727	32775	33053	32493	32683	32759	32775	32771	
60	0	4125	4856	2773	6595	1188	0	32812	32422	33043	32549	32643	32850	32788	32879	
61	0	4113	4825	2795	6580	1189	0	32810	32455	32903	32659	32679	32717	32748	32837	
62	0	4120	4837	2770	6540	1190	0	32799	32378	32773	32647	32585	32775	32903	32727	
63	0	4135	4810	2777	6601	1191	0	32804	32703	32581	32630	32665	32823	32684	32685	
64	0	4054	4829	2807	6591	1192	0	32759	32949	32341	32758	32735	32773	32701	32735	
65	0	4104	4764	2788	6551	1193	0	32716	32867	32367	32924	32673	32734	32765	32790	
66	0	4107	4793	2788	6533	1194	0	32751	33058	32437	33018	32719	32748	32679	32867	
67	0	4125	4780	2765	6608	1195	0	32726	32871	32463	32999	32687	32847	32567	32827	
68	0	4170	4804	2793	6620	1196	0	32737	32863	32438	32964	32698	32771	32723	32740	
69	0	4070	4793	2742	6568	1197	0	32753	32799	32409	32879	32698	32722	32647	32772	
70	0	4111	4830	2770	6576	1198	0	32690	32771	32388	32727	32621	32831	32735	32879	
71	0	4091	4810	2758	6537	1199	0	32738	32845	32453	32787	32439	32738	32655	32791	
72	0	4135	4833	2831	6610	1200	0	32794	32823	32581	32795	32574	32839	32655	32775	
73	0	4128	4842	2794	6575	1201	0	32797	32801	32647	32884	32742	32803	32775	32725	
74	0	4117	4878	2786	6578	1202	0	32739	32564	32669	33018	32754	32823	32727	32773	
75	0	4101	4826	2749	6596	1203	0	32797	32775	32830	33079	32735	32770	32711	32765	
76	0	4156	4822	2746	6653	1204	0	32745	32621	32899	32919	32719	32791	32802	32713	
77	0	4087	4838	2758	6590	1205	0	32734	32831	32891	32743	32675	32773	32637	32732	
78	0	4080	4849	2795	6554	1206	0	32677	32617	32719	32621	32685	32634	32646	32828	
79	0	4120	4832	2752	6548	1207	0	32694	32703	32731	32627	32695	32731	32571	32846	
80	0	4116	4798	2770	6592	1208	0	32727	32559	32807	32423	32666	32647	32679	32828	
81	0	4142	4821	2732	6558	1209	0	32758	32743	32869	32519	32727	32807	32662	32822	
82	0	4136	4827	2811	6602	1210	0	32845	32497	32811	32415	32743	32715	32735	32719	
83	0	4089	4834	2769	6589	1211	0	32842	32707	32893	32403	32756	32788	32615	32727	
84	0	4141	4810	2836	6606	1212	0	32825	32583	32807	32426	32773	32773	32679	32677	
85	0	4054	4837	2791	6562	1213	0	32773	32815	32822	32431	32646	32854	32773	32697	
86	0	4148	4811	2835	6601	1214	0	32748	32873	32823	32555	32595	32738	32668	32719	
87	0	4153	4899	2792	6534	1215	0	32688	32932	32801	32687	32559	32795	32640	32723	
88	0	4128	4840	2792	6556	1216	0	32681	32903	32707	32893	32531	32835	32813	32663	
89	0	4100	4852	2772	6596	1217	0	32739	32893	32647	32972	32607	32679	32620	32846	
90	0	4132	4809	2776	6584	1218	0	32808	32813	32671	33025	32815	32767	32767	32921	
91	0	4101	4843	2752	6574	1219	0	32823	32575	32746	33071	32807	32850	32722	32734	
92	0	4112	4799	2774	6556	1220	0	32844	32613	32770	32965	32669	32881	32741	32829	
93	0	4135	4810	2765	6566	1221	0	32815	32403	32765	32895	32634	32925	32735	32903	
94	0	4098	4855	2770	6604	1222	0	32762	32700	32658	32791	32663	32854	32643	32645	
95	0	4131	4867	2757	6571	1223	0	32671	32851	32685	32711	32685	32711	32783	32743	
96	0	4064	4841	2789	6582	1224	0	32701	32604	32555	32759	32497	32687	32791	32739	
97	0	4093	4823	2772	6590	1225	0	32740	32751	32655	32863	32495	32691	32727	32564	
98	0	4093	4860	2789	6568	1226	0	32800	32613	32743	32735	32698	32621	32798	32692	
99	0	4097	4829	2832	6568	1227	0	32841	32789	32897	32739	32756	32647	32754	32687	
100	0	4109	4859	2805	6544	1228	0	32932	32874	32851	32751	32635	32695	32799	32739	
101	0	4136	4856	2824	6593	1229	0	32827	33002	32897	32633	32580	32785	32679	32775	
102	0	4068	4809	2793	6596	1230	0	32765	32739	32775	32617	32687	32855	32693	32811	
103	0	4114	4844	2803	6530	1231	0	32802	32999	32755	32630	32743	32775	32727	32727	
104	0	4111	4840	2786	6596	1232	0	32845	32702	32690	32627	32727	32834	32663	32727	
105	0	4169	4858	2818	6574	1233	0	32822	32775	32671	32797	32773	32855	32725	32775	
106	0	4140	4846	2836	6602	1234	0	32732	32439	32563	32895	32804	32811	32635	32785	
107	0	4092	4809	2724	6544	1235	0	32647	32775	32543	33055	32667	32875	32803	32692	
108	0	4082	4832	2837	6600	1236	0	32586	32615	32519	33077	32655	32871	32747	32732	
109	0	4074	4873	2751	6538	1237	0	32647	32955	32545	33179	32718	32815	32719	32837	
110	0	4096	4901	2788	6518	1238	0	32758	32787	32515	33107	32790	32869	32809	32879	
111	0	4096	4826	2785	6574	1239	0	32775	32955	32740	33029	32813	32791	32621	32751	
112	0	4096	4852	2827	6551	1240	0	32728	33055	32975	32937	32679	32723	32700	32727	
113	0	4115	4845	2794	6547	1241	0	32808	33005	32898	32921	32579	32787	32775	32765	
114	0	4127	4838	2798	6560	1242	0	32873	32975	32818	32859	32603	32749	32647	32845	
115	0	4101	4862	2756	6552	1243	0	32832	32679	32805	32572	32583	32807	32761	32755	
116	0	4093	4866	2766	6568	1244	0	32771	32487	32735	32327	32583	32899	32660	32809	
117	0	4178	4880	2822	6549	1245	0	32753	32356	32807	32391	32647	32735	32727	32772	
118	0	4146	4817	2737	6576	1246	0	32793	32419	32731	32389	32759	32738	32711	32721	
119	0	4079	4862	2774	6518	1247	0	32823	32366	32805	32517	32835	32754	32615	32783	
120	0	4092	4858	2814	6556	1248	0	32771	32775	32610	32539	32806	32731	32739	32830	
121	0	4101	4824	2790	6546	1249	0	32698	32701	32549	32630	32703	32715	32655	32769	
122	0	4081	4871	2806	6563	1250	0	32701	32903	32613	32679	32691	32699	32679	32831	
123	0	4114	4838	2808	6556	1251	0	32724	32855	32615	32775	32663	32914	32591	32847	
124	0	4124	4830	2765	6505	1252	0	32697	33035	32702	32949	32698	32738	32805	32802	
125	0	4136	4826	2793	6590	1253	0	32697	33117	32647	32946	32759	32839	32775	32715	
126	0	4065	4840	2799	6509	1254	0	32754	33121	32679	32935	32689	32903	32703	32700	
127	0	4122	4854	2763	6562	1255	0	32800	33229	32805	33019	32599	32679	32783	32695	
128	0	4163	4811	2764	6547	1256	0	32780	32963	32789	33087	32639	32763	32723	32835	
129	0	4119	4842	2776	6577	1257	0	32847	33071	32731	32991	32623	32726	32775	32773	
130	0	4092	4860	2778	6540	1258	0	32735	32898	32790	32772	32675	32666	32939	32724	
131	0	4122	4876	2789	6506	1259	0	32743	32862	32852	32775	32843	32818	32871	32740	
132	0	4098	4843	2787	6578	1260	0	32819	32551	32887	32757	32844	32769	32811	32775	
133	0	4119	4856	2756	6528	1261	0	32854	32279	32807	32565	32705	32730	32855	32769	
134	0	4118	4838	2832	6532	1262	0	32811	32311	32668	32519	32702	32775	32838	32711	
135	0	4111	4857	2768	6516	1263	0	32814	32199	32571	32571	32676	32820	32789	32663	
136	0	4108	4856	2801	6540	1264	0	32759	32551	32573	32703	32695	32670	32751	32699	
137	0	4060	4840	2744	6531	1265	0	32707	32391	32599	32762	32707	32687	32709	32745	
138	0	4106	4866	2807	6507	1266	0	32748	32635	32679	32745	32799	32730	32762	32711	
139	0	4107	4836	2765	6531	1267	0	32724	32719	32686	32694	32669	32647	32647	32714	
140	0	4126	4847	2803	6528	1268	0	32796	32599	32705	32663	32655	32727	32638	32695	
141	0	4104	4863	2796	6516	1269	0	32697	32839	32659	32767	32581	32799	32742	32783	
142	0	4128	4876	2801	6524	1270	0	32718	32709	32469	32855	32630	32795	32637	32711	
143	0	4105	4858	2826	6532	1271	0	32708	32903	32618	32685	32707	32767	32647	32852	
144	0	4088	4849	2816	6537	1272	0	32709	32572	32671	32815	32596	32807	32587	32826	
145	0	4147	4871	2840	6564	1273	0	32624	32823	32691	32798	32598	32775	32678	32770	
146	0	4098	4864	2768	6521	1274	0	32690	32831	32647	32793	32725	32694	32695	32729	
147	0	4146	4904	2756	6506	1275	0	32778	32859	32609	32775	32634	32742	32767	32775	
148	0	4091	4859	2771	6538	1276	0	32711	32951	32607	32763	32647	32839	32698	32799	
149	0	4109	4884	2793	6514	1277	0	32726	32765	32623	32823	32597	32783	32661	32819	
150	0	4126	4879	2777	6486	1278	0	32784	33025	32647	32829	32554	32854	32709	32827	
151	0	4109	4842	2784	6483	1279	0	32732	32903	32839	32841	32479	32769	32701	32755	
152	0	4153	4845	2796	6548	1280	0	32775	33295	32994	32815	32535	32719	32727	32785	
153	0	4126	4884	2789	6478	1281	0	32871	33050	33039	32701	32615	32691	32661	32741	
154	0	4114	4840	2740	6488	1282	0	32876	33123	32877	32570	32685	32825	32683	32730	
155	0	4105	4852	2774	6528	1283	0	32861	32959	32857	32491	32722	32831	32766	32737	
156	0	4113	4919	2757	6476	1284	0	32805	32303	32670	32181	32691	32775	32754	32764	
157	0	4131	4861	2771	6498	1285	0	32802	32207	32583	32098	32766	32775	32627	32835	
158	0	4139	4872	2776	6500	1286	0	32736	32199	32615	32431	32775	32819	32652	32847	
159	0	4101	4877	2807	6505	1287	0	32775	31995	32709	32613	32738	32820	32671	32731	
160	0	4108	4867	2777	6540	1288	0	32824	31987	32762	32613	32766	32703	32708	32839	
161	0	4088	4876	2791	6496	1289	0	32895	32199	32795	32775	32629	32727	32747	32687	
162	0	4113	4871	2821	6494	1290	0	32838	32647	32671	32937	32549	32771	32647	32783	
163	0	4118	4839	2816	6534	1291	0	32656	32941	32765	32879	32555	32855	32750	32775	
164	0	4117	4856	2772	6521	1292	0	32659	32754	32633	32879	32703	32695	32822	32799	
165	0	4118	4867	2784	6537	1293	0	32732	32830	32539	32869	32769	32731	32676	32915	
166	0	4145	4887	2869	6480	1294	0	32753	32962	32658	32935	32711	32735	32663	33005	
167	0	4142	4846	2784	6505	1295	0	32662	32831	32751	33005	32667	32855	32743	32679	
168	0	4152	4813	2793	6516	1296	0	32644	33015	32783	33194	32676	32839	32639	32658	
169	0	4161	4867	2842	6478	1297	0	32551	32951	32569	33415	32719	32969	32639	32842	
170	0	4112	4861	2795	6502	1298	0	32588	33014	32642	33348	32687	32948	32634	32903	
171	0	4088	4873	2757	6524	1299	0	32660	33095	32725	33239	32647	32796	32647	32943	
172	0	4111	4864	2769	6539	1300	0	32761	32711	32733	33111	32654	32775	32832	32711	
173	0	4113	4859	2809	6508	1301	0	32802	32975	32759	32953	32573	32838	32735	32565	
174	0	4118	4833	2797	6486	1302	0	32763	32858	32647	32709	32543	32751	32775	32610	
175	0	4138	4835	2825	6497	1303	0	32757	32977	32669	32326	32634	32607	32647	32710	
176	0	4137	4880	2787	6507	1304	0	32900	32642	32730	32533	32582	32729	32729	32775	
177	0	4147	4837	2790	6530	1305	0	32907	32719	32771	32551	32609	32772	32612	32843	
178	0	4125	4824	2756	6514	1306	0	32901	32846	32692	32591	32790	32687	32647	32783	
179	0	4102	4846	2835	6496	1307	0	32890	32589	32530	32639	32795	32739	32725	32730	
180	0	4131	4896	2802	6469	1308	0	32762	32775	32664	32535	32647	32820	32703	32767	
181	0	4128	4863	2751	6525	1309	0	32719	32623	32763	32429	32694	32671	32719	32733	
182	0	4092	4866	2780	6503	1310	0	32685	32903	32671	32467	32756	32751	32756	32686	
183	0	4125	4810	2760	6506	1311	0	32660	32799	32667	32662	32811	32701	32739	32858	
184	0	4145	4882	2788	6520	1312	0	32659	32911	32729	32621	32733	32717	32767	32838	
185	0	4163	4824	2793	6530	1313	0	32679	32835	32859	32615	32783	32708	32675	32785	
186	0	4115	4842	2788	6516	1314	0	32808	32754	32707	32658	32830	32773	32743	32735	
187	0	4098	4853	2810	6501	1315	0	32775	32869	32698	32791	32751	32817	32756	32750	
188	0	4106	4847	2781	6514	1316	0	32701	32647	32756	32706	32647	32767	32767	32770	
189	0	4090	4858	2811	6480	1317	0	32727	32791	32858	32731	32677	32835	32647	32771	
190	0	4160	4881	2763	6509	1318	0	32662	32789	32819	33038	32637	32801	32751	32746	
191	0	4110	4879	2761	6512	1319	0	32684	32813	32871	32925	32646	32757	32607	32761	
192	0	4106	4849	2804	6527	1320	0	32722	32501	32843	32889	32711	32756	32716	32807	
193	0	4112	4877	2796	6534	1321	0	32797	32711	32794	32915	32706	32775	32667	32783	
194	0	4124	4844	2761	6529	1322	0	32779	32557	32724	32694	32623	32876	32722	32839	
195	0	4146	4874	2773	6526	1323	0	32811	32706	32766	32591	32685	32871	32699	32727	
196	0	4132	4824	2800	6502	1324	0	32770	32685	32702	32437	32747	32882	32793	32839	
197	0	4110	4864	2782	6528	1325	0	32720	32999	32591	32487	32773	32870	32773	32795	
198	0	4136	4834	2780	6468	1326	0	32751	32999	32603	32608	32687	32758	32711	32814	
199	0	4126	4865	2756	6528	1327	0	32812	33093	32613	32677	32788	32743	32751	32823	
200	0	4154	4847	2830	6533	1328	0	32794	33159	32679	32631	32679	32775	32629	32900	
201	0	4188	4886	2799	6490	1329	0	32811	32979	32671	32681	32639	32771	32679	32891	
202	0	4105	4874	2798	6484	1330	0	32813	33055	32695	32995	32623	32869	32578	32894	
203	0	4133	4848	2758	6512	1331	0	32767	33023	32687	32999	32615	32773	32583	32931	
204	0	4168	4882	2764	6498	1332	0	32767	33075	32771	32943	32639	32861	32575	32965	
205	0	4136	4851	2753	6501	1333	0	32746	32829	32807	32775	32615	32903	32605	32916	
206	0	4102	4850	2821	6493	1334	0	32754	33007	32749	32759	32645	32796	32575	32937	
207	0	4140	4848	2773	6508	1335	0	32705	32711	32703	32876	32659	32876	32454	32871	
208	0	4125	4854	2756	6548	1336	0	32666	32647	32663	32889	32709	32775	32509	32815	
209	0	4149	4882	2777	6533	1337	0	32535	32293	32639	32715	32647	32811	32493	32775	
210	0	4078	4878	2816	6541	1338	0	32492	32494	32660	32663	32677	32918	32647	32754	
211	0	4137	4856	2791	6504	1339	0	32498	32215	32559	32547	32709	32727	32541	32701	
212	0	4139	4828	2813	6509	1340	0	32528	32402	32603	32519	32667	32795	32647	32731	
213	0	4144	4886	2781	6524	1341	0	32515	32254	32553	32509	32674	32918	32537	32807	
214	0	4156	4835	2780	6525	1342	0	32534	32559	32451	32475	32663	32775	32584	32747	
215	0	4175	4854	2773	6502	1343	0	32535	32737	32511	32466	32556	32767	32482	32804	
216	0	4088	4859	2811	6491	1344	0	32553	32586	32631	32411	32583	32859	32369	32843	
217	0	4107	4866	2764	6508	1345	0	32548	32757	32567	32502	32647	32843	32495	32871	
218	0	4127	4863	2759	6518	1346	0	32588	32667	32623	32503	32622	32748	32537	32806	
219	0	4146	4828	2727	6532	1347	0	32586	32726	32447	32541	32559	32879	32603	32765	
220	0	4159	4836	2759	6477	1348	0	32647	32539	32447	32575	32620	32685	32711	32683	
221	0	4122	4874	2776	6533	1349	0	32809	32527	32451	32523	32719	32756	32725	32567	
222	0	4149	4873	2776	6488	1350	0	32879	32354	32623	32423	32813	32623	32817	32551	
223	0	4140	4860	2813	6512	1351	0	32949	32371	32657	32571	32759	32669	32692	32533	
224	0	4163	4858	2791	6517	1352	0	32967	32515	32731	32639	32751	32759	32802	32638	
225	0	4152	4884	2788	6538	1353	0	32967	32639	32763	32793	32735	32727	32679	32673	
226	0	4107	4884	2788	6512	1354	0	32895	32773	32694	32820	32745	32804	32769	32735	
227	0	4100	4864	2760	6479	1355	0	32785	32583	32802	32771	32767	32863	32831	32727	
228	0	4139	4854	2848	6520	1356	0	32845	32807	32863	32775	32835	32647	32903	32717	
229	0	4109	4841	2800	6534	1357	0	32660	32631	32811	32767	32627	32719	33047	32575	
230	0	4121	4875	2786	6519	1358	0	32588	33007	32773	32775	32687	32723	33207	32526	
231	0	4112	4862	2784	6501	1359	0	32662	33051	32797	32915	32749	32726	33147	32516	
232	0	4140	4900	2813	6496	1360	0	32697	32927	32854	32923	32913	32620	33122	32611	
233	0	4157	4876	2757	6476	1361	0	32837	32949	32895	33022	32866	32681	33139	32631	
234	0	4094	4854	2792	6508	1362	0	32956	32661	32813	32967	32932	32681	33065	32615	
235	0	4146	4835	2757	6496	1363	0	33124	32875	32823	32825	32951	32479	33215	32590	
236	0	4119	4856	2761	6526	1364	0	33257	32647	32935	32903	32927	32631	33129	32634	
237	0	4152	4859	2784	6559	1365	0	33399	32890	33181	33003	32993	32647	33249	32647	
238	0	4145	4876	2820	6480	1366	0	33487	32903	33263	33130	32981	32519	33383	32535	
239	0	4160	4880	2856	6509	1367	0	33473	33199	33257	33141	32965	32635	33247	32582	
240	0	4104	4847	2845	6503	1368	0	33252	33045	33139	32959	32885	32645	33213	32639	
241	0	4181	4834	2778	6509	1369	0	33241	33063	33063	33010	32890	32621	32957	32739	
242	0	4091	4868	2805	6534	1370	0	33182	32791	33012	33054	32818	32743	32895	32707	
243	0	4149	4856	2787	6554	1371	0	33096	32775	32973	33156	32746	32775	32758	32747	
244	0	4132	4890	2807	6520	1372	0	33031	32593	32983	32941	32775	32713	32755	32825	
245	0	4152	4879	2787	6520	1373	0	32969	32495	32641	32787	32873	32809	32742	32766	
246	0	4149	4886	2766	6504	1374	0	32836	32423	32543	32669	32731	32775	32611	32715	
247	0	4108	4887	2770	6500	1375	0	32647	32484	32491	32630	32511	32681	32623	32831	
248	0	4110	4872	2824	6488	1376	0	32536	32787	32519	32646	32461	32891	32459	32967	
249	0	4169	4833	2827	6500	1377	0	32497	32621	32367	32579	32509	32903	32543	32921	
250	0	4110	4880	2787	6514	1378	0	32388	33003	32391	32482	32471	32844	32515	32919	
251	0	4130	4897	2793	6501	1379	0	32452	32962	32407	32554	32421	32902	32479	32922	
252	0	4145	4844	2778	6503	1380	0	32541	33022	32610	32660	32590	32849	32525	32856	
253	0	4094	4832	2819	6508	1381	0	32586	32739	32663	32613	32591	32927	32437	32933	
254	0	4141	4862	2814	6469	1382	0	32635	33007	32729	32667	32495	32931	32463	32975	
255	0	4098	4910	2762	6460	1383	0	32598	32763	32719	32685	32495	32851	32450	32775	
256	0	4138	4868	2802	6527	1384	0	32622	33031	32749	32775	32507	32847	32563	32809	
257	0	4110	4829	2786	6507	1385	0	32695	32917	32719	32827	32581	32879	32548	32743	
258	0	4075	4906	2805	6514	1386	0	32709	32767	32773	32759	32581	32811	32665	32775	
259	0	4156	4897	2802	6542	1387	0	32683	32793	32687	32695	32571	32733	32559	32819	
260	0	4124	4859	2806	6512	1388	0	32726	32676	32663	32747	32698	32887	32711	32802	
261	0	4139	4872	2800	6494	1389	0	32727	32769	32646	32751	32590	32813	32594	32759	
262	0	4128	4882	2768	6489	1390	0	32688	32692	32593	32751	32517	32829	32690	32757	
263	0	4147	4872	2762	6458	1391	0	32693	32725	32525	32835	32515	32841	32599	32757	
264	0	4163	4852	2771	6500	1392	0	32773	32506	32646	32867	32533	32821	32727	32834	
265	0	4130	4900	2781	6488	1393	0	32655	32703	32703	32741	32623	32803	32627	32839	
266	0	4116	4876	2812	6478	1394	0	32703	32695	32871	32617	32771	32695	32716	32797	
267	0	4148	4880	2800	6466	1395	0	32716	32848	32983	32548	32775	32787	32621	32811	
268	0	4141	4878	2764	6456	1396	0	32743	32565	32983	32603	32758	32837	32679	32842	
269	0	4134	4860	2788	6501	1397	0	32748	32791	32850	32627	32783	32919	32609	32738	
270	0	4158	4892	2800	6504	1398	0	32767	32617	32871	32808	32647	32819	32721	32711	
271	0	4124	4926	2803	6507	1399	0	32724	32823	32753	32807	32748	32612	32727	32773	
272	0	4118	4861	2795	6459	1400	0	32748	32733	32695	32810	32727	32647	32705	32727	
273	0	4124	4912	2782	6493	1401	0	32815	32631	32643	32811	32725	32699	32581	32635	
274	0	4113	4854	2788	6460	1402	0	32718	32647	32511	32697	32679	32742	32663	32799	
275	0	4124	4902	2812	6520	1403	0	32671	32591	32495	32685	32647	32731	32610	32687	
276	0	4092	4857	2788	6497	1404	0	32713	32837	32427	32463	32775	32871	32719	32739	
277	0	4158	4900	2762	6482	1405	0	32740	32637	32391	32540	32732	32813	32615	32883	
278	0	4101	4909	2768	6496	1406	0	32765	32855	32410	32671	32749	32795	32743	32759	
279	0	4128	4848	2804	6521	1407	0	32742	32690	32557	32687	32747	32791	32647	32805	
280	0	4155	4902	2776	6473	1408	0	32790	33029	32660	32756	32692	32799	32722	32769	
281	0	4105	4864	2806	6497	1409	0	32823	32797	32701	32823	32767	32850	32642	32789	
282	0	4131	4876	2832	6448	1410	0	32805	32929	32805	32855	32727	32737	32711	32684	
283	0	4109	4857	2786	6498	1411	0	32811	32679	32771	32887	32713	32766	32683	32875	
284	0	4086	4892	2802	6442	1412	0	32732	32847	32749	32854	32726	32891	32615	32919	
285	0	4131	4883	2837	6488	1413	0	32687	32805	32879	32846	32667	32747	32749	32661	
286	0	4092	4855	2757	6473	1414	0	32729	32659	32903	32943	32669	32791	32607	32711	
287	0	4105	4892	2786	6475	1415	0	32726	32756	32775	32838	32751	32818	32727	32871	
288	0	4114	4881	2786	6485	1416	0	32650	32713	32743	32834	32755	32723	32839	32756	
289	0	4078	4895	2787	6509	1417	0	32665	32637	32559	32453	32681	32804	32733	32722	
290	0	4137	4848	2802	6515	1418	0	32716	32593	32663	32553	32605	32937	32803	32734	
291	0	4136	4854	2849	6454	1419	0	32673	32752	32771	32615	32621	32775	32676	32765	
292	0	4114	4872	2825	6481	1420	0	32704	32775	32818	32595	32588	32741	32775	32721	
293	0	4067	4898	2802	6484	1421	0	32711	32898	32735	32548	32749	32741	32796	32750	
294	0	4108	4899	2831	6492	1422	0	32725	32687	32568	32578	32711	32647	32637	32703	
295	0	4106	4836	2819	6441	1423	0	32743	32823	32598	32631	32676	32758	32763	32722	
296	0	4110	4896	2826	6465	1424	0	32729	32724	32611	32515	32735	32837	32771	32839	
297	0	4101	4895	2832	6465	1425	0	32785	32735	32615	32598	32756	32711	32647	32809	
298	0	4127	4932	2795	6494	1426	0	32826	32807	32605	32795	32775	32751	32707	32931	
299	0	4094	4886	2844	6469	1427	0	32815	32787	32566	33057	32759	32703	32575	32925	
300	0	4126	4910	2789	6460	1428	0	32854	32807	32775	33103	32755	32775	32720	32721	
301	0	4078	4873	2818	6484	1429	0	32828	32775	32739	33018	32727	32821	32679	32721	
302	0	4072	4890	2789	6452	1430	0	32817	32949	32668	32815	32655	32718	32762	32725	
303	0	4080	4893	2804	6446	1431	0	32853	32611	32663	32751	32483	32749	32797	32655	
304	0	4137	4912	2766	6437	1432	0	32785	32914	32684	32723	32551	32751	32540	32911	
305	0	4146	4860	2786	6480	1433	0	32672	32663	32727	32678	32505	32805	32647	32693	
306	0	4098	4815	2823	6447	1434	0	32735	32941	32845	32607	32594	32871	32660	32751	
307	0	4108	4870	2796	6491	1435	0	32806	32735	32946	32543	32655	32825	32797	32743	
308	0	4094	4921	2790	6457	1436	0	32746	32628	32962	32619	32703	32804	32698	32701	
309	0	4080	4907	2787	6479	1437	0	32718	32943	32923	32866	32711	32787	32775	32735	
310	0	4046	4878	2761	6488	1438	0	32756	32637	32851	32791	32735	32891	32615	32628	
311	0	4094	4897	2834	6477	1439	0	32869	32806	32806	32687	32710	32859	32725	32794	
312	0	4105	4918	2830	6434	1440	0	32820	32663	32673	32587	32727	32627	32709	32692	
313	0	4127	4877	2811	6442	1441	0	32806	32774	32711	32797	32663	32695	32735	32759	
314	0	4094	4910	2802	6489	1442	0	32869	32687	32698	32595	32735	32834	32595	32847	
315	0	4080	4888	2805	6494	1443	0	32870	32783	32679	32583	32674	32855	32733	32925	
316	0	4086	4926	2786	6486	1444	0	32801	32587	32703	32687	32745	32825	32826	32847	
317	0	4097	4908	2814	6448	1445	0	32676	32859	32757	32775	32692	32743	32670	32896	
318	0	4082	4928	2799	6414	1446	0	32570	32655	32759	32663	32607	32715	32729	32891	
319	0	4091	4936	2805	6468	1447	0	32588	32789	32607	32694	32499	32749	32647	32881	
320	0	4104	4907	2798	6449	1448	0	32661	32795	32577	32883	32604	32859	32726	32911	
321	0	4072	4911	2804	6443	1449	0	32688	32884	32583	32861	32607	32807	32679	32827	
322	0	4114	4892	2809	6472	1450	0	32720	32851	32787	32867	32647	32867	32605	32759	
323	0	4074	4913	2832	6467	1451	0	32769	32615	32738	32775	32743	32851	32701	32711	
324	0	4076	4892	2793	6416	1452	0	32810	32767	32799	32763	32767	32717	32759	32706	
325	0	4087	4933	2853	6459	1453	0	32791	32567	32773	32755	32727	32791	32676	32802	
326	0	4101	4887	2814	6459	1454	0	32794	32871	32767	32959	32771	32739	32745	32647	
327	0	4128	4856	2852	6457	1455	0	32700	32671	32708	32983	32722	32725	32666	32559	
328	0	4088	4878	2825	6453	1456	0	32683	32775	32705	32886	32657	32806	32735	32617	
329	0	4078	4896	2833	6425	1457	0	32764	32647	32811	32863	32719	32717	32695	32765	
330	0	4131	4915	2849	6470	1458	0	32824	32789	32749	32743	32733	32708	32843	32719	
331	0	4068	4900	2765	6476	1459	0	32809	32751	32763	32661	32767	32727	32701	32735	
332	0	4114	4893	2797	6416	1460	0	32788	32719	32757	32792	32786	32815	32754	32823	
333	0	4096	4911	2802	6438	1461	0	32834	32765	32689	32407	32615	32763	32684	32775	
334	0	4099	4893	2796	6441	1462	0	32738	32577	32647	32573	32467	32829	32698	32871	
335	0	4086	4891	2815	6436	1463	0	32856	32837	32636	32806	32626	32735	32736	32739	
336	0	4073	4912	2775	6422	1464	0	32738	32846	32628	32845	32659	32871	32591	32775	
337	0	4137	4929	2813	6429	1465	0	32740	32647	32690	32931	32607	32813	32669	32735	
338	0	4137	4955	2788	6447	1466	0	32674	32878	32563	32765	32655	32783	32593	32759	
339	0	4144	4893	2800	6449	1467	0	32662	32754	32543	32639	32720	32660	32667	32767	
340	0	4063	4916	2853	6428	1468	0	32677	32809	32592	32621	32775	32695	32647	32775	
341	0	4057	4873	2835	6428	1469	0	32683	32797	32647	32677	32795	32692	32730	32775	
342	0	4086	4931	2788	6404	1470	0	32772	32647	32773	32753	32845	32803	32697	32762	
343	0	4107	4889	2834	6418	1471	0	32789	32791	32715	32755	32850	32887	32753	32741	
344	0	4044	4900	2847	6463	1472	0	32872	32699	32615	32815	32738	32834	32751	32827	
345	0	4075	4923	2817	6436	1473	0	32899	32895	32535	32785	32719	32903	32801	32797	
346	0	4098	4936	2872	6439	1474	0	32788	32715	32644	32775	32809	32763	32627	32756	
347	0	4132	4934	2821	6423	1475	0	32736	32893	32551	32858	32745	32839	32740	32797	
348	0	4090	4932	2853	6416	1476	0	32764	32831	32689	32865	32679	32855	32658	32823	
349	0	4069	4946	2814	6432	1477	0	32658	33047	32833	32996	32663	32823	32719	32743	
350	0	4080	4905	2840	6433	1478	0	32727	32803	32847	33044	32726	32801	32623	32815	
351	0	4088	4936	2825	6433	1479	0	32720	33031	32885	32875	32736	32771	32743	32715	
352	0	4049	4922	2801	6385	1480	0	32782	32719	32948	32787	32716	32790	32676	32775	
353	0	4088	4968	2873	6406	1481	0	32767	32807	32890	32671	32733	32691	32743	32791	
354	0	4082	4920	2851	6409	1482	0	32788	32475	32835	32571	32663	32807	32708	32723	
355	0	4084	4932	2852	6379	1483	0	32647	32597	32828	32574	32679	32687	32711	32827	
356	0	4048	4950	2803	6374	1484	0	32742	32489	32791	32573	32623	32845	32647	32807	
357	0	4072	4927	2817	6468	1485	0	32762	32593	32661	32639	32685	32919	32700	32758	
358	0	4066	4922	2820	6396	1486	0	32748	32447	32687	32717	32695	32749	32696	32743	
359	0	4033	4926	2836	6391	1487	0	32687	32647	32679	32757	32635	32679	32662	32719	
360	0	4113	4905	2815	6404	1488	0	32647	32425	32647	32827	32659	32743	32795	32846	
361	0	4062	4941	2872	6430	1489	0	32617	32799	32635	32731	32708	32708	32643	32791	
362	0	4053	4936	2819	6406	1490	0	32705	32671	32605	32727	32695	32707	32796	32759	
363	0	4064	4910	2863	6433	1491	0	32668	32932	32669	32799	32662	32753	32833	32815	
364	0	4042	4940	2868	6437	1492	0	32790	32771	32724	32719	32635	32719	32734	32789	
365	0	4056	4936	2856	6397	1493	0	32820	32815	32767	32653	32661	32799	32833	32799	
366	0	4086	4876	2843	6418	1494	0	32806	32687	32732	32813	32734	32789	32734	32756	
367	0	4077	4914	2847	6394	1495	0	32866	32885	32717	32853	32771	32647	32793	32863	
368	0	4050	4926	2856	6398	1496	0	32844	32676	32706	32743	32707	32723	32695	32739	
369	0	4068	4896	2854	6421	1497	0	32871	32793	32762	32775	32727	32786	32615	32749	
370	0	4028	4925	2822	6425	1498	0	32783	32711	32729	32869	32645	32699	32709	32763	
371	0	4073	4934	2875	6468	1499	0	32773	32815	32691	32791	32575	32727	32630	32719	
372	0	4066	4951	2839	6394	1500	0	32807	32767	32749	32788	32592	32797	32719	32690	
373	0	4040	4926	2851	6394	1501	0	32783	32814	32701	32825	32557	32709	32791	32723	
374	0	4026	4945	2862	6414	1502	0	32750	32839	32757	32863	32629	32735	32647	32740	
375	0	4056	4925	2868	6418	1503	0	32808	32659	32761	32911	32607	32843	32702	32762	
376	0	4056	4924	2846	6420	1504	0	32810	32722	32811	32947	32711	32751	32738	32859	
377	0	4053	4963	2883	6415	1505	0	32799	32696	32788	32911	32767	32820	32697	32855	
378	0	4020	4946	2881	6438	1506	0	32775	32711	32692	32719	32791	32815	32647	32871	
379	0	4033	4912	2854	6432	1507	0	32798	32731	32619	32647	32813	32775	32723	32727	
380	0	4053	4932	2830	6414	1508	0	32799	32827	32525	32597	32898	32765	32711	32751	
381	0	4036	4947	2840	6405	1509	0	32734	32789	32563	32559	32859	32773	32647	32719	
382	0	4039	4942	2862	6412	1510	0	32658	32579	32602	32633	32791	32811	32751	32647	
383	0	4050	4934	2907	6399	1511	0	32647	32818	32711	32519	32695	32787	32635	32711	
384	0	4018	4940	2882	6402	1512	0	32658	32628	32814	32667	32743	32722	32676	32770	
385	0	4050	4957	2889	6401	1513	0	32679	32932	32827	32627	32759	32845	32626	32701	
386	0	4070	4916	2848	6344	1514	0	32769	32863	32871	32719	32743	32804	32740	32802	
387	0	4050	4903	2845	6436	1515	0	32756	32895	32895	32775	32703	32873	32679	32817	
388	0	4021	4941	2864	6396	1516	0	32805	32791	32853	32674	32570	32754	32807	32824	
389	0	4032	4921	2879	6424	1517	0	32796	32615	32804	32666	32507	32775	32743	32775	
390	0	4022	4953	2897	6428	1518	0	32783	32759	32666	32687	32529	32755	32735	32770	
391	0	4057	4955	2857	6443	1519	0	32791	32615	32647	32759	32612	32815	32670	32799	
392	0	4061	4905	2892	6416	1520	0	32780	32879	32607	32947	32583	32808	32770	32822	
393	0	4034	4929	2898	6426	1521	0	32724	32771	32588	33005	32662	32803	32692	32727	
394	0	4068	4917	2892	6404	1522	0	32714	33119	32634	33001	32811	32813	32703	32675	
395	0	4038	4908	2900	6452	1523	0	32699	33131	32493	32951	32751	32791	32711	32727	
396	0	4056	4920	2839	6421	1524	0	32633	33281	32499	32919	32701	32734	32605	32740	
397	0	4029	4942	2872	6420	1525	0	32621	32901	32626	32769	32621	32747	32657	32773	
398	0	4052	4932	2886	6430	1526	0	32757	32980	32709	32813	32514	32695	32647	32845	
399	0	4040	4968	2875	6436	1527	0	32790	32527	32745	32757	32543	32771	32803	32707	
400	0	4032	4964	2908	6423	1528	0	32788	32455	32826	32533	32674	32718	32637	32690	
401	0	4044	4922	2875	6473	1529	0	32732	31830	32911	32431	32647	32821	32743	32757	
402	0	4008	4934	2869	6438	1530	0	32722	32145	32959	32508	32591	32831	32647	32775	
403	0	4022	4931	2878	6481	1531	0	32738	32074	32867	32481	32679	32807	32794	32812	
404	0	4052	4943	2910	6395	1532	0	32736	32715	32755	32656	32621	32825	32703	32775	
405	0	4063	4944	2847	6435	1533	0	32726	32833	32775	32887	32563	32677	32853	32756	
406	0	4044	4914	2909	6417	1534	0	32723	32875	32631	32887	32507	32775	32725	32765	
407	0	4008	4907	2884	6447	1535	0	32736	32995	32646	32867	32646	32699	32799	32743	
408	0	4020	4949	2862	6408	1536	0	32764	33095	32692	32751	32635	32819	32694	32805	
409	0	4074	4938	2919	6401	1537	0	32662	32981	32647	32775	32615	32877	32822	32765	
410	0	4049	4888	2864	6408	1538	0	32712	32903	32615	32713	32644	32833	32667	32786	
411	0	3967	4912	2896	6412	1539	0	32760	32659	32667	32535	32619	32851	32719	32813	
412	0	4035	4930	2856	6414	1540	0	32779	32679	32627	32722	32495	32829	32645	32727	
413	0	4014	4952	2921	6422	1541	0	32730	32647	32643	32977	32575	32823	32803	32775	
414	0	4010	4909	2899	6414	1542	0	32823	32516	32667	32852	32617	32807	32686	32756	
415	0	4019	4900	2853	6435	1543	0	32815	32692	32703	32787	32679	32767	32700	32783	
416	0	4032	4917	2903	6426	1544	0	32791	32427	32647	32758	32615	32850	32643	32855	
417	0	3998	4930	2888	6435	1545	0	32815	32693	32519	32751	32612	32786	32687	32806	
418	0	4061	4940	2882	6444	1546	0	32796	32562	32543	32668	32764	32717	32668	32793	
419	0	4004	4920	2875	6464	1547	0	32856	32775	32548	32717	32711	32786	32715	32700	
420	0	3976	4911	2902	6424	1548	0	32871	32746	32775	32799	32687	32710	32739	32673	
421	0	4018	4880	2887	6392	1549	0	32892	32719	32927	32804	32679	32739	32647	32799	
422	0	3996	4923	2866	6458	1550	0	32886	32969	32811	32918	32623	32679	32734	32724	
423	0	4006	4941	2895	6453	1551	0	32893	32879	32806	32815	32675	32762	32679	32647	
424	0	3954	4923	2876	6408	1552	0	32879	32895	32739	32705	32703	32775	32795	32791	
425	0	4001	4936	2899	6464	1553	0	32848	32661	32858	32599	32695	32767	32660	32818	
426	0	3978	4936	2903	6449	1554	0	32748	32996	32767	32765	32790	32754	32766	32727	
427	0	3991	4916	2889	6435	1555	0	32625	32957	32727	32767	32757	32743	32655	32687	
428	0	4032	4936	2903	6465	1556	0	32601	33051	32695	32687	32790	32823	32707	32823	
429	0	4004	4921	2944	6462	1557	0	32684	32743	32694	32658	32851	32733	32817	32703	
430	0	4000	4897	2875	6438	1558	0	32653	32890	32733	32817	32895	32857	32756	32683	
431	0	3950	4954	2903	6445	1559	0	32688	32635	32803	32985	32784	32747	32768	32791	
432	0	4006	4930	2890	6488	1560	0	32655	32835	32839	33175	32687	32807	32631	32775	
433	0	4030	4957	2889	6465	1561	0	32819	32549	32826	33143	32694	32863	32711	32903	
434	0	4012	4908	2895	6417	1562	0	32831	32767	32964	33099	32662	32836	32565	32735	
435	0	3976	4932	2898	6491	1563	0	32763	32636	32931	32949	32684	32891	32739	32786	
436	0	4004	4931	2906	6452	1564	0	32739	32967	32859	32593	32669	32749	32575	32860	
437	0	4020	4920	2881	6470	1565	0	32775	32647	32735	32387	32713	32743	32595	32863	
438	0	4001	4943	2915	6472	1566	0	32794	32931	32557	32281	32707	32683	32631	32775	
439	0	3994	4943	2898	6439	1567	0	32703	32754	32421	32223	32705	32775	32725	32725	
440	0	4022	4897	2921	6477	1568	0	32762	32705	32263	32284	32599	32709	32687	32755	
441	0	4027	4980	2934	6474	1569	0	32770	32807	32383	32492	32645	32685	32743	32717	
442	0	4026	4898	2952	6473	1570	0	32796	32478	32435	32682	32749	32759	32687	32673	
443	0	4018	4931	2906	6469	1571	0	32786	32699	32493	32991	32747	32767	32738	32729	
444	0	3986	4937	2913	6473	1572	0	32737	32660	32533	33001	32679	32811	32763	32639	
445	0	3994	4948	2904	6446	1573	0	32671	32692	32619	32803	32647	32764	32707	32771	
446	0	4033	4930	2894	6460	1574	0	32815	32748	32732	32863	32639	32839	32663	32806	
447	0	3993	4938	2921	6459	1575	0	32863	32573	32823	32903	32598	32775	32642	32814	
448	0	4026	4917	2916	6442	1576	0	32847	32851	32899	32847	32630	32791	32775	32869	
449	0	4012	4882	2878	6464	1577	0	32729	32531	32925	32759	32659	32711	32690	32767	
450	0	3972	4925	2954	6412	1578	0	32705	32783	32987	32627	32580	32775	32767	32759	
451	0	4049	4976	2910	6458	1579	0	32726	32735	33107	32687	32591	32791	32644	32839	
452	0	4040	4941	2944	6454	1580	0	32807	32721	32940	32719	32659	32823	32677	32783	
453	0	3988	4904	2914	6405	1581	0	32749	32703	32763	32639	32743	32758	32639	32863	
454	0	4006	4940	2972	6436	1582	0	32767	32591	32659	32695	32702	32860	32764	32785	
455	0	3998	4925	2988	6455	1583	0	32658	32959	32483	32754	32743	32734	32603	32814	
456	0	3958	4938	2951	6516	1584	0	32636	32831	32356	32818	32809	32757	32756	32735	
457	0	3972	4913	2950	6473	1585	0	32711	32845	32444	32922	32719	32735	32799	32767	
458	0	4011	4953	2916	6434	1586	0	32704	32850	32497	32977	32751	32895	32790	32723	
459	0	3988	4923	2983	6460	1587	0	32742	32743	32623	33007	32751	32756	32647	32697	
460	0	4005	4924	2909	6425	1588	0	32701	32918	32771	32895	32659	32757	32724	32725	
461	0	3996	4940	2941	6461	1589	0	32634	32675	32875	32942	32607	32723	32578	32751	
462	0	3994	4953	2935	6515	1590	0	32634	32878	32949	32799	32666	32795	32726	32734	
463	0	3993	4936	2921	6438	1591	0	32788	32538	32935	32582	32719	32834	32711	32839	
464	0	3982	4935	2937	6429	1592	0	32799	32711	32935	32679	32758	32759	32785	32959	
465	0	3995	4915	2956	6445	1593	0	32850	32518	32839	32675	32775	32823	32764	32855	
466	0	4015	4938	2950	6417	1594	0	32855	32751	32948	32613	32765	32879	32775	32903	
467	0	4004	4933	2943	6472	1595	0	32924	32747	33027	32676	32767	32727	32726	32898	
468	0	3980	4950	2937	6464	1596	0	32887	32819	33054	32669	32725	32805	32791	32802	
469	0	3984	4958	2916	6488	1597	0	32909	32644	32970	32587	32815	32759	32751	32691	
470	0	3970	4960	2951	6418	1598	0	32807	32993	32851	32707	32775	32747	32640	32679	
471	0	3979	4968	2931	6485	1599	0	32730	32811	32647	32679	32694	32794	32749	32694	
472	0	3928	4943	2900	6485	1600	0	32787	33073	32563	32703	32732	32695	32626	32715	
473	0	3937	4960	2967	6474	1601	0	32719	32847	32389	32775	32647	32751	32679	32731	
474	0	3982	4930	2988	6388	1602	0	32602	32994	32295	32867	32612	32745	32573	32775	
475	0	3976	4887	2972	6436	1603	0	32613	32962	32287	32942	32655	32740	32621	32735	
476	0	3965	4925	2937	6449	1604	0	32653	32879	32479	32879	32731	32667	32668	32709	
477	0	4012	4921	2938	6440	1605	0	32722	32662	32636	32748	32735	32727	32799	32699	
478	0	3959	4908	2919	6436	1606	0	32858	32622	32693	32636	32759	32767	32799	32663	
479	0	3968	4940	2957	6445	1607	0	32807	32679	32748	32647	32791	32815	32819	32756	
480	0	3957	4940	2927	6454	1608	0	32721	32535	32775	32646	32771	32903	32738	32785	
481	0	3948	4929	2994	6410	1609	0	32775	32763	32823	32698	32772	32797	32790	32775	
482	0	3978	4916	2961	6422	1610	0	32895	32533	32828	32709	32775	32815	32679	32797	
483	0	4020	4940	2986	6431	1611	0	32863	32819	32742	32694	32722	32805	32595	32807	
484	0	3987	4950	2973	6472	1612	0	32750	32599	32721	32733	32690	32739	32793	32775	
485	0	3947	4968	2969	6425	1613	0	32743	32847	32747	32759	32749	32807	32679	32743	
486	0	3986	4924	2978	6434	1614	0	32765	32599	32763	32855	32695	32749	32741	32758	
487	0	3978	4909	2966	6476	1615	0	32811	32730	32813	32846	32694	32727	32659	32711	
488	0	3994	4931	2976	6402	1616	0	32844	32540	32839	32926	32786	32767	32724	32693	
489	0	3970	4936	2954	6450	1617	0	32822	32839	32895	32893	32822	32773	32748	32783	
490	0	3971	4996	2921	6448	1618	0	32850	32871	32983	33007	32775	32767	32887	32687	
491	0	3954	4930	2949	6476	1619	0	32831	32814	32971	33055	32795	32833	32711	32827	
492	0	3935	4939	2940	6416	1620	0	32769	32839	32869	33014	32677	32795	32805	32745	
493	0	3988	4925	2974	6422	1621	0	32823	32663	32807	32980	32723	32787	32697	32711	
494	0	3970	4898	2944	6450	1622	0	32858	32767	32749	32993	32764	32795	32787	32783	
495	0	3978	4992	3027	6430	1623	0	32831	32613	32678	32959	32706	32715	32727	32833	
496	0	4013	4932	2972	6448	1624	0	32799	32748	32647	32927	32703	32818	32791	32805	
497	0	3960	4889	2950	6389	1625	0	32788	32786	32642	32879	32695	32821	32669	32806	
498	0	3926	4939	2950	6464	1626	0	32734	32799	32722	32797	32694	32714	32817	32823	
499	0	3911	4904	2984	6433	1627	0	32748	32775	32591	32592	32679	32810	32755	32759	
500	0	3949	4968	2946	6465	1628	0	32718	32717	32514	32463	32647	32685	32783	32723	
501	0	4002	4921	2958	6444	1629	0	32839	32793	32551	32379	32711	32767	32758	32715	
502	0	3940	4930	2959	6440	1630	0	32789	32655	32647	32301	32797	32715	32731	32743	
503	0	4016	4904	2988	6451	1631	0	32754	32997	32671	32436	32684	32634	32775	32701	
504	0	3942	4950	2949	6411	1632	0	32751	32766	32731	32463	32755	32766	32755	32699	
505	0	3896	4980	2996	6432	1633	0	32753	32947	32595	32557	32799	32679	32819	32731	
506	0	3921	4909	2934	6422	1634	0	32658	32656	32451	32713	32726	32767	32663	32711	
507	0	3944	4947	2981	6374	1635	0	32724	32735	32485	32765	32662	32839	32679	32863	
508	0	3954	4921	2953	6409	1636	0	32844	32455	32579	32822	32675	32797	32679	32935	
509	0	3929	4929	2902	6434	1637	0	32876	32683	32707	32919	32775	32796	32775	32727	
510	0	3928	4932	2987	6390	1638	0	32862	32543	32797	32843	32799	32639	32590	32727	
511	0	3898	4904	2983	6454	1639	0	32830	32902	32935	32915	32698	32821	32727	32759	
512	0	3907	4930	2978	6404	1640	0	32772	32857	32899	32935	32711	32717	32691	32694	
513	0	3916	4933	2970	6424	1641	0	32739	32925	32924	32877	32751	32767	32815	32735	
514	0	3941	4950	2936	6448	1642	0	32740	32975	32809	32903	32769	32758	32631	32835	
515	0	3889	4900	2994	6501	1643	0	32694	33159	32773	32879	32717	32869	32735	32749	
516	0	3944	4898	2917	6415	1644	0	32760	33151	32903	32935	32749	32827	32707	32746	
517	0	3914	4970	2950	6432	1645	0	32812	33023	32995	32963	32711	32773	32767	32717	
518	0	3963	4906	2947	6397	1646	0	32818	33039	32971	32719	32714	32799	32683	32712	
519	0	3920	4922	2960	6444	1647	0	32870	32755	32919	32559	32717	32803	32758	32747	
520	0	3902	4886	2956	6410	1648	0	32931	32421	32885	32651	32727	32724	32698	32713	
521	0	3960	4954	2950	6474	1649	0	32972	32383	32639	32628	32681	32815	32683	32815	
522	0	3952	4901	2957	6418	1650	0	32958	31963	32623	32647	32543	32807	32772	32775	
523	0	3893	4901	2972	6428	1651	0	32831	32227	32459	32669	32614	32839	32671	32805	
524	0	3908	4930	2968	6426	1652	0	32636	32293	32307	32719	32639	32775	32770	32677	
525	0	3969	4934	2991	6465	1653	0	32529	32679	32339	32775	32663	32830	32706	32694	
526	0	3928	4930	3013	6436	1654	0	32489	32599	32455	32662	32601	32797	32692	32799	
527	0	3868	4953	2982	6420	1655	0	32501	32973	32551	32895	32511	32805	32639	32754	
528	0	3908	4948	2977	6394	1656	0	32551	32647	32647	32903	32551	32783	32732	32821	
529	0	3884	4904	2999	6437	1657	0	32561	32935	32663	32839	32583	32772	32715	32807	
530	0	3965	4925	2964	6423	1658	0	32572	33031	32591	32887	32629	32749	32818	32713	
531	0	3920	4896	2944	6436	1659	0	32590	33046	32703	32819	32597	32759	32699	32791	
532	0	3907	4916	2942	6421	1660	0	32704	32935	32856	32763	32581	32795	32677	32759	
533	0	3905	4949	2972	6433	1661	0	32769	32890	32855	32807	32527	32725	32621	32810	
534	0	3894	4932	2949	6416	1662	0	32839	32769	32884	32733	32599	32767	32647	32811	
535	0	3920	4934	2996	6442	1663	0	32839	32612	32759	32615	32794	32719	32644	32775	
536	0	3914	4866	3011	6470	1664	0	32804	32787	32775	32580	32641	32830	32692	32775	
537	0	3874	4908	2948	6386	1665	0	32775	32831	32669	32663	32583	32767	32690	32851	
538	0	3940	4937	2980	6431	1666	0	32825	32706	32563	32559	32556	32686	32674	32707	
539	0	3914	4904	2966	6464	1667	0	32868	32775	32615	32641	32647	32759	32685	32823	
540	0	3879	4942	2974	6436	1668	0	32912	32739	32696	32783	32655	32775	32655	32837	
541	0	3897	4947	3003	6425	1669	0	32916	32703	32723	32756	32681	32758	32757	32722	
542	0	3914	4950	2979	6436	1670	0	32865	32865	32841	32735	32687	32839	32825	32742	
543	0	3891	4928	3024	6406	1671	0	32881	32630	32775	32687	32694	32710	32695	32766	
544	0	3879	4934	2946	6371	1672	0	32822	32715	32838	32695	32657	32775	32675	32727	
545	0	3912	4923	2973	6439	1673	0	32804	32487	32867	32755	32684	32775	32791	32839	
546	0	3869	4937	2932	6414	1674	0	32759	32741	32876	32839	32687	32757	32701	32798	
547	0	3892	4937	2979	6418	1675	0	32663	32591	32810	32887	32738	32709	32655	32767	
548	0	3888	4944	2980	6412	1676	0	32743	32887	32830	32711	32701	32766	32687	32775	
549	0	3889	4915	2954	6380	1677	0	32681	32741	32615	32629	32731	32863	32647	32771	
550	0	3909	4930	2976	6411	1678	0	32647	33031	32564	32551	32775	32884	32713	32815	
551	0	3908	4907	2961	6410	1679	0	32623	32727	32575	32391	32749	32843	32685	32799	
552	0	3850	4914	2957	6452	1680	0	32566	33045	32647	32607	32734	32735	32647	32683	
553	0	3886	4912	2982	6430	1681	0	32544	32999	32719	32677	32783	32865	32762	32713	
554	0	3873	4956	2973	6411	1682	0	32623	33223	32821	32948	32755	32825	32641	32695	
555	0	3866	4963	2946	6416	1683	0	32775	33201	32815	32927	32743	32821	32807	32692	
556	0	3907	4909	2978	6417	1684	0	32775	33009	32717	33071	32661	32735	32647	32791	
557	0	3913	4897	2985	6434	1685	0	32875	32897	32687	33112	32718	32758	32763	32755	
558	0	3880	4893	2947	6398	1686	0	32854	32819	32763	32797	32811	32759	32813	32775	
559	0	3904	4947	2958	6401	1687	0	32943	32447	32845	32877	32740	32807	32703	32887	
560	0	3930	4928	2973	6435	1688	0	32975	32498	32847	32717	32687	32855	32703	32677	
561	0	3896	4958	2971	6412	1689	0	32827	32383	32839	32631	32575	32711	32662	32789	
562	0	3902	4914	2968	6427	1690	0	32647	32484	32877	32505	32553	32839	32703	32802	
563	0	3888	4952	2978	6392	1691	0	32630	32399	32727	32413	32509	32731	32621	32850	
564	0	3821	4907	2983	6424	1692	0	32626	32513	32531	32423	32630	32819	32775	32879	
565	0	3832	4918	2958	6420	1693	0	32703	32389	32519	32623	32519	32775	32647	32791	
566	0	3890	4922	2988	6451	1694	0	32681	32519	32631	32775	32517	32787	32775	32775	
567	0	3849	4877	3007	6420	1695	0	32657	32503	32610	32955	32551	32814	32711	32828	
568	0	3877	4906	2985	6424	1696	0	32735	32894	32636	32951	32455	32693	32732	32741	
569	0	3899	4912	2960	6395	1697	0	32798	32933	32642	33107	32591	32735	32609	32751	
570	0	3853	4964	2989	6416	1698	0	33031	32743	32698	32873	32709	32684	32695	32799	
571	0	3856	4938	3011	6399	1699	0	33044	32703	32725	32765	32639	32799	32588	32745	
572	0	3904	4958	2979	6410	1700	0	32959	32775	32851	32738	32559	32855	32684	32761	
573	0	3850	4917	2980	6456	1701	0	32822	32667	32804	32855	32635	32813	32655	32775	
574	0	3841	4918	2966	6388	1702	0	32852	32759	32703	32847	32638	32825	32715	32791	
575	0	3847	4918	3015	6450	1703	0	32717	32775	32583	32710	32661	32731	32667	32771	
576	0	3860	4921	2984	6388	1704	0	32699	32911	32471	32647	32757	32769	32727	32764	
577	0	3899	4937	3018	6428	1705	0	32627	32743	32330	32685	32787	32749	32663	32732	
578	0	3861	4958	3028	6473	1706	0	32633	33111	32311	32751	32659	32663	32751	32643	
579	0	3892	4889	2979	6459	1707	0	32579	33079	32350	32773	32604	32775	32719	32762	
580	0	3876	4864	2993	6449	1708	0	32619	33031	32506	32734	32611	32841	32855	32725	
581	0	3905	4978	2984	6434	1709	0	32735	32959	32663	32736	32615	32807	32743	32703	
582	0	3821	4936	3011	6408	1710	0	32745	32742	32679	32543	32519	32751	32756	32738	
583	0	3864	4965	2985	6400	1711	0	32799	32679	32731	32453	32479	32839	32647	32763	
584	0	3839	4916	3039	6432	1712	0	32735	32740	32759	32551	32659	32773	32791	32767	
585	0	3876	4966	3003	6450	1713	0	32773	32621	32839	32745	32793	32789	32687	32789	
586	0	3914	4908	3016	6466	1714	0	32816	32839	32806	32769	32711	32845	32622	32771	
587	0	3839	4901	2977	6445	1715	0	32761	32655	32903	32903	32637	32771	32727	32715	
588	0	3869	4955	3016	6470	1716	0	32821	32823	32935	32871	32723	32839	32707	32775	
589	0	3841	4925	3012	6442	1717	0	32903	32711	32947	32915	32740	32799	32737	32684	
590	0	3819	4950	3042	6459	1718	0	32845	32810	32931	32903	32757	32735	32717	32748	
591	0	3857	4942	2986	6430	1719	0	32800	32885	32751	32935	32719	32782	32711	32684	
592	0	3878	4952	3036	6439	1720	0	32751	32591	32603	32919	32587	32839	32803	32845	
593	0	3904	4949	3009	6452	1721	0	32741	32786	32727	32775	32673	32734	32682	32823	
594	0	3828	4912	3059	6446	1722	0	32819	32855	32804	32621	32791	32719	32799	32839	
595	0	3844	4942	3016	6453	1723	0	32773	32633	32711	32591	32687	32807	32772	32727	
596	0	3820	4928	3054	6418	1724	0	32766	32858	32713	32695	32647	32770	32615	32575	
597	0	3875	4930	2993	6446	1725	0	32861	32665	32902	32635	32613	32731	32663	32743	
598	0	3878	4926	3017	6453	1726	0	32857	32841	33191	32623	32643	32807	32643	32743	
599	0	3860	4909	3012	6421	1727	0	32895	32566	33201	32639	32684	32838	32726	32785	
600	0	3798	4945	3044	6446	1728	0	32767	32791	33079	32807	32685	32749	32749	32829	
601	0	3854	4884	3053	6429	1729	0	32775	32599	32807	32731	32770	32807	32724	32861	
602	0	3870	4961	3026	6423	1730	0	32775	32865	32585	32643	32726	32725	32810	32775	
603	0	3842	4961	2994	6433	1731	0	32720	32711	32447	32602	32711	32736	32727	32871	
604	0	3824	4922	3092	6456	1732	0	32613	33006	32347	32799	32732	32730	32759	32883	
605	0	3837	4941	3001	6481	1733	0	32622	32783	32269	32918	32861	32679	32839	32707	
606	0	3867	4917	3037	6457	1734	0	32598	33039	32278	32965	32687	32767	32822	32691	
607	0	3835	4904	3115	6450	1735	0	32668	32695	32405	32775	32743	32813	32679	32820	
608	0	3838	4936	3046	6448	1736	0	32669	32775	32481	32719	32645	32773	32735	32707	
609	0	3873	4942	3010	6430	1737	0	32644	32423	32367	32815	32523	32717	32599	32725	
610	0	3800	4912	3036	6448	1738	0	32663	32571	32423	32988	32563	32811	32647	32749	
611	0	3816	4920	3058	6470	1739	0	32663	32493	32615	32857	32508	32823	32615	32774	
612	0	3828	4931	3094	6439	1740	0	32662	32917	32839	32859	32577	32821	32717	32809	
613	0	3832	4946	3062	6438	1741	0	32684	32911	33023	32751	32587	32783	32605	32787	
614	0	3811	4920	3056	6427	1742	0	32701	32980	32973	32605	32557	32816	32692	32783	
615	0	3852	4912	3035	6451	1743	0	32691	32647	32852	32582	32587	32711	32637	32767	
616	0	3840	4947	3080	6453	1744	0	32692	32959	32631	32732	32511	32765	32799	32743	
617	0	3804	4913	3055	6434	1745	0	32710	32766	32695	32715	32509	32775	32663	32766	
618	0	3856	4941	3048	6422	1746	0	32781	32765	32711	32701	32586	32879	32745	32743	
619	0	3855	4912	3098	6462	1747	0	32852	32435	32834	32755	32686	32949	32803	32787	
620	0	3805	4860	3026	6446	1748	0	32924	32591	32803	32709	32635	32795	32643	32806	
621	0	3842	4912	3021	6473	1749	0	32865	32461	32775	32818	32609	32814	32746	32772	
622	0	3825	4942	3080	6420	1750	0	32834	32580	32767	32854	32763	32803	32647	32708	
623	0	3813	4919	3072	6443	1751	0	32857	32765	32915	32879	32711	32774	32679	32787	
624	0	3874	4896	3040	6497	1752	0	32813	32729	32911	32867	32735	32814	32679	32785	
625	0	3775	4924	3109	6476	1753	0	32802	32711	32813	32915	32735	32847	32727	32710	
626	0	3776	4932	3085	6432	1754	0	32767	32687	32812	32799	32674	32735	32695	32743	
627	0	3873	4936	3074	6419	1755	0	32791	32877	32673	32759	32540	32727	32607	32767	
628	0	3826	4883	3051	6449	1756	0	32767	32773	32759	32711	32628	32714	32745	32775	
629	0	3848	4944	3069	6436	1757	0	32773	32948	32610	32819	32710	32665	32829	32754	
630	0	3834	4919	3115	6434	1758	0	32759	32767	32725	32838	32759	32802	32735	32735	
631	0	3784	4946	3068	6429	1759	0	32826	32892	32623	32877	32791	32805	32727	32812	
632	0	3848	4932	3082	6456	1760	0	32756	32543	32619	32687	32819	32734	32642	32807	
633	0	3818	4921	3044	6442	1761	0	32856	32839	32612	32647	32683	32879	32775	32734	
634	0	3759	4909	3070	6451	1762	0	32820	32759	32687	32845	32671	32822	32621	32783	
635	0	3816	4930	3060	6458	1763	0	32694	32935	32768	32791	32755	32878	32644	32795	
636	0	3821	4937	3047	6437	1764	0	32759	32757	32834	32860	32775	32764	32685	32798	
637	0	3807	4922	3075	6466	1765	0	32852	32988	32775	32786	32718	32743	32723	32754	
638	0	3841	4901	3083	6444	1766	0	32817	32726	32706	32811	32699	32823	32735	32735	
639	0	3808	4906	3114	6464	1767	0	32775	32845	32519	32782	32731	32708	32775	32743	
640	0	3804	4969	3065	6457	1768	0	32729	32587	32487	32671	32775	32791	32806	32757	
641	0	3817	4945	3075	6496	1769	0	32740	32599	32595	32639	32877	32826	32663	32759	
642	0	3836	4989	3050	6477	1770	0	32675	32647	32639	32639	32755	32702	32679	32711	
643	0	3826	4909	3079	6424	1771	0	32775	32855	32710	32516	32711	32751	32669	32717	
644	0	3778	4910	3100	6429	1772	0	32789	32775	32647	32575	32676	32775	32863	32751	
645	0	3801	4902	3104	6465	1773	0	32858	32999	32615	32623	32709	32726	32805	32707	
646	0	3798	4917	3079	6424	1774	0	32839	32775	32770	32699	32751	32789	32727	32699	
647	0	3820	4938	3065	6472	1775	0	32812	32732	32759	32671	32695	32791	32843	32797	
648	0	3823	4905	3102	6442	1776	0	32787	32415	32679	32679	32765	32787	32662	32759	
649	0	3780	4958	3046	6409	1777	0	32825	32343	32814	32738	32719	32868	32751	32775	
650	0	3812	4912	3054	6464	1778	0	32784	32439	32775	32812	32685	32789	32743	32783	
651	0	3785	4928	3048	6431	1779	0	32836	32739	32825	32829	32698	32767	32703	32719	
652	0	3789	4924	3077	6465	1780	0	32804	32919	32885	32879	32717	32731	32702	32759	
653	0	3824	4920	3077	6473	1781	0	32813	33017	32884	32747	32675	32750	32789	32764	
654	0	3811	4892	3094	6473	1782	0	32726	32999	32635	32711	32571	32791	32773	32787	
655	0	3758	4968	3090	6452	1783	0	32671	32661	32615	32885	32703	32655	32687	32793	
656	0	3785	4954	3096	6496	1784	0	32688	32947	32714	32773	32772	32695	32685	32797	
657	0	3774	4903	3088	6474	1785	0	32617	32903	32683	32769	32703	32767	32721	32829	
658	0	3807	4940	3125	6422	1786	0	32596	32791	32715	32647	32658	32851	32743	32735	
659	0	3782	4904	3101	6450	1787	0	32666	32865	32829	32676	32695	32715	32804	32788	
660	0	3779	4917	3176	6461	1788	0	32694	32642	32915	32646	32727	32757	32738	32823	
661	0	3784	4910	3088	6447	1789	0	32725	32884	33089	32575	32751	32839	32663	32903	
662	0	3809	4931	3070	6434	1790	0	32770	32551	32989	32461	32607	32767	32721	32835	
663	0	3804	4902	3125	6462	1791	0	32782	32831	32786	32439	32533	32839	32704	32804	
664	0	3859	4916	3104	6473	1792	0	32810	32974	32922	32519	32706	32791	32607	32839	
665	0	3785	4945	3085	6442	1793	0	32897	32919	32837	32685	32766	32716	32739	32803	
666	0	3731	4928	3094	6464	1794	0	32903	33110	32691	32855	32767	32791	32647	32759	
667	0	3789	4908	3087	6453	1795	0	32711	32815	32527	32956	32727	32812	32731	32739	
668	0	3802	4950	3107	6450	1796	0	32679	32589	32315	32959	32757	32743	32751	32739	
669	0	3798	4930	3063	6456	1797	0	32687	32086	32191	32919	32758	32791	32683	32821	
670	0	3776	4945	3088	6474	1798	0	32647	32165	32251	32879	32685	32767	32716	32809	
671	0	3776	4931	3068	6462	1799	0	32663	32457	32231	32868	32691	32722	32718	32683	
672	0	3774	4925	3052	6453	1800	0	32716	32379	32263	32964	32671	32791	32719	32671	
673	0	3796	4957	3091	6453	1801	0	32806	32703	32339	32972	32711	32701	32647	32726	
674	0	3818	4976	3094	6482	1802	0	32762	32927	32443	32977	32727	32773	32701	32839	
675	0	3804	4913	3120	6454	1803	0	32650	33159	32583	33052	32707	32763	32743	32738	
676	0	3755	4934	3151	6485	1804	0	32754	33055	32679	32855	32681	32789	32791	32746	
677	0	3767	4938	3120	6488	1805	0	32793	33047	32815	32828	32791	32863	32765	32751	
678	0	3797	4951	3080	6426	1806	0	32710	33005	32887	32646	32631	32775	32609	32809	
679	0	3766	4945	3095	6466	1807	0	32716	32554	33185	32630	32551	32685	32695	32748	
680	0	3783	4943	3098	6418	1808	0	32784	32727	33167	32639	32567	32775	32693	32831	
681	0	3751	4881	3087	6461	1809	0	32811	32687	33075	32562	32533	32805	32671	32818	
682	0	3772	4915	3123	6456	1810	0	32804	32562	32951	32609	32615	32819	32595	32763	
683	0	3773	4928	3120	6459	1811	0	32828	32306	32903	32963	32633	32824	32671	32711	
684	0	3776	4930	3096	6437	1812	0	32860	32150	32903	33007	32761	32890	32647	32679	
685	0	3737	4930	3076	6418	1813	0	32740	32671	32828	32935	32804	32771	32749	32727	
686	0	3784	4955	3075	6458	1814	0	32610	32722	32756	33118	32738	32775	32679	32747	
687	0	3768	4936	3097	6472	1815	0	32642	33170	32692	33131	32719	32695	32766	32789	
688	0	3781	4924	3111	6457	1816	0	32727	33231	32713	32970	32674	32879	32589	32769	
689	0	3770	4912	3140	6436	1817	0	32745	33187	32721	32845	32731	32831	32701	32879	
690	0	3734	4924	3061	6494	1818	0	32790	33127	32713	32604	32756	32795	32679	32829	
691	0	3726	4982	3114	6484	1819	0	32863	32821	32647	32487	32754	32647	32762	32764	
692	0	3768	4952	3081	6476	1820	0	32848	32723	32895	32417	32747	32647	32757	32749	
693	0	3769	4931	3144	6468	1821	0	32831	32679	32767	32671	32608	32854	32700	32823	
694	0	3738	4940	3037	6445	1822	0	32823	32647	32589	32690	32589	32687	32742	32789	
695	0	3772	4924	3102	6464	1823	0	32729	32455	32511	32605	32703	32791	32633	32717	
696	0	3708	4905	3127	6460	1824	0	32727	32759	32583	32791	32647	32703	32711	32791	
697	0	3758	4944	3107	6425	1825	0	32775	32647	32687	32853	32582	32821	32598	32749	
698	0	3724	4898	3088	6415	1826	0	32769	32975	32631	32711	32585	32811	32733	32805	
699	0	3755	4934	3118	6430	1827	0	32822	32677	32557	32764	32589	32791	32690	32822	
700	0	3794	4903	3145	6429	1828	0	32809	32985	32659	32937	32599	32812	32765	32797	
701	0	3737	4894	3095	6432	1829	0	32808	32902	32724	32895	32582	32739	32647	32815	
702	0	3775	4946	3136	6464	1830	0	32778	32739	32735	32846	32551	32794	32747	32701	
703	0	3779	4938	3062	6464	1831	0	32769	32717	32646	32855	32486	32769	32647	32725	
704	0	3742	4949	3112	6437	1832	0	32679	32711	32585	32749	32551	32819	32759	32821	
705	0	3761	4938	3090	6435	1833	0	32717	32795	32622	32742	32537	32722	32587	32735	
706	0	3734	4899	3101	6449	1834	0	32770	32818	32759	32803	32525	32758	32759	32687	
707	0	3790	4947	3162	6440	1835	0	32729	32793	32660	32647	32727	32678	32711	32647	
708	0	3747	4932	3113	6464	1836	0	32681	32493	32783	32573	32550	32715	32772	32659	
709	0	3731	4976	3154	6432	1837	0	32674	32506	32679	32388	32687	32731	32623	32807	
710	0	3711	4971	3108	6455	1838	0	32695	32353	32765	32295	32627	32703	32747	32815	
711	0	3769	4928	3081	6439	1839	0	32726	32613	32915	32590	32615	32797	32621	32718	
712	0	3779	4916	3130	6468	1840	0	32792	32542	32951	32723	32636	32738	32695	32767	
713	0	3743	4907	3138	6475	1841	0	32800	32759	32903	32482	32597	32825	32638	32796	
714	0	3744	4923	3138	6467	1842	0	32774	32498	32731	32615	32607	32835	32732	32763	
715	0	3727	4964	3145	6456	1843	0	32733	32774	32676	32933	32707	32740	32708	32799	
716	0	3746	4917	3089	6430	1844	0	32759	32813	32731	32903	32806	32727	32626	32839	
717	0	3736	4947	3180	6442	1845	0	32811	33187	32743	32893	32741	32783	32677	32822	
718	0	3747	4913	3161	6468	1846	0	32769	33237	32735	32918	32775	32759	32631	32775	
719	0	3766	4963	3157	6469	1847	0	32638	33238	32548	32884	32707	32863	32724	32751	
720	0	3780	4911	3112	6453	1848	0	32732	33122	32579	32887	32687	32767	32647	32803	
721	0	3756	4944	3128	6483	1849	0	32820	32511	32551	32815	32788	32749	32619	32793	
722	0	3752	4920	3108	6432	1850	0	32851	32687	32679	32713	32578	32893	32691	32807	
723	0	3736	4949	3163	6460	1851	0	32818	32527	32613	32711	32509	32787	32620	32823	
724	0	3748	4937	3107	6504	1852	0	32884	32495	32617	32795	32571	32739	32796	32767	
725	0	3728	4929	3103	6435	1853	0	32795	32603	32658	32671	32635	32835	32761	32699	
726	0	3751	4944	3102	6446	1854	0	32821	32498	32647	32727	32775	32799	32751	32573	
727	0	3726	4958	3141	6486	1855	0	32791	32645	32615	32771	32871	32807	32815	32693	
728	0	3721	4972	3151	6488	1856	0	32742	32647	32751	32683	32685	32743	32789	32703	
729	0	3708	4878	3131	6452	1857	0	32674	32817	32807	32575	32675	32749	32719	32839	
730	0	3791	4924	3130	6466	1858	0	32719	32951	32820	32621	32803	32759	32763	32871	
731	0	3752	4967	3141	6495	1859	0	32783	32551	32839	32636	32775	32775	32681	32686	
732	0	3736	4940	3105	6445	1860	0	32804	32899	32775	32798	32759	32679	32743	32679	
733	0	3764	4883	3180	6446	1861	0	32839	32617	32811	32719	32732	32807	32641	32815	
734	0	3711	4902	3161	6478	1862	0	32767	33063	32762	32805	32765	32742	32665	32815	
735	0	3720	4926	3178	6436	1863	0	32823	32763	32743	32754	32755	32841	32599	32791	
736	0	3690	4924	3164	6469	1864	0	32804	32903	32766	32769	32797	32802	32713	32767	
737	0	3726	4963	3120	6492	1865	0	32841	32799	32775	32761	32676	32797	32783	32775	
738	0	3742	4992	3114	6491	1866	0	32807	32775	32612	32814	32669	32871	32767	32735	
739	0	3695	4929	3091	6474	1867	0	32787	32861	32646	32836	32719	32719	32732	32819	
740	0	3728	4938	3101	6498	1868	0	32717	32951	32647	32823	32715	32807	32685	32741	
741	0	3713	4979	3126	6486	1869	0	32828	32845	32766	32785	32697	32733	32756	32747	
742	0	3712	4917	3159	6475	1870	0	32757	32876	32923	32815	32713	32735	32639	32827	
743	0	3719	4930	3130	6463	1871	0	32786	32842	32857	32835	32559	32791	32727	32819	
744	0	3732	4888	3178	6527	1872	0	32775	32647	32845	32889	32647	32789	32645	32815	
745	0	3768	4961	3149	6454	1873	0	32695	32749	32669	32882	32647	32775	32727	32759	
746	0	3733	4902	3115	6479	1874	0	32617	32607	32563	32870	32567	32794	32767	32775	
747	0	3739	4897	3112	6454	1875	0	32596	32695	32571	32869	32619	32852	32683	32743	
748	0	3745	4958	3172	6507	1876	0	32644	32704	32495	32865	32529	32830	32799	32741	
749	0	3744	4977	3109	6464	1877	0	32703	32736	32423	32783	32535	32719	32679	32775	
750	0	3748	4932	3089	6457	1878	0	32676	32726	32439	32720	32783	32823	32796	32727	
751	0	3750	4909	3179	6448	1879	0	32707	32967	32503	32711	32631	32790	32639	32647	
752	0	3756	4935	3106	6434	1880	0	32745	32815	32487	32755	32507	32850	32718	32754	
753	0	3691	4936	3180	6501	1881	0	32748	32957	32563	32702	32605	32767	32599	32803	
754	0	3740	4924	3187	6458	1882	0	32854	32692	32829	32770	32647	32734	32711	32783	
755	0	3693	4928	3126	6508	1883	0	32922	32790	32911	32691	32743	32771	32644	32759	
756	0	3777	4953	3121	6496	1884	0	32825	32541	32964	32747	32666	32687	32783	32679	
757	0	3731	4954	3112	6466	1885	0	32819	32735	32835	32801	32798	32807	32685	32799	
758	0	3725	4974	3102	6512	1886	0	32767	32507	32822	32793	32761	32713	32815	32772	
759	0	3734	4934	3129	6488	1887	0	32825	32807	32743	32727	32727	32799	32775	32699	
760	0	3705	4938	3134	6504	1888	0	32833	32573	32646	32665	32847	32647	32835	32758	
761	0	3748	4954	3156	6468	1889	0	32783	32875	32603	32683	32783	32743	32821	32775	
762	0	3677	4898	3177	6477	1890	0	32793	32823	32549	32525	32758	32674	32719	32719	
763	0	3707	4982	3178	6480	1891	0	32809	32925	32612	32573	32739	32783	32743	32670	
764	0	3734	4970	3126	6451	1892	0	32834	32655	32732	32543	32727	32762	32711	32727	
765	0	3723	4934	3161	6480	1893	0	32720	32807	32773	32567	32699	32751	32747	32834	
766	0	3704	4931	3082	6492	1894	0	32692	32415	32859	32709	32644	32759	32701	32767	
767	0	3713	4870	3126	6436	1895	0	32708	32567	32962	32748	32633	32643	32757	32807	
768	0	3677	4933	3120	6423	1896	0	32656	32470	32964	32909	32655	32804	32763	32803	
769	0	3701	4908	3165	6456	1897	0	32679	32711	32983	32925	32549	32823	32647	32751	
770	0	3704	4909	3189	6445	1898	0	32709	32555	32943	32999	32564	32721	32789	32771	
771	0	3770	4916	3142	6484	1899	0	32742	33010	32809	32919	32602	32807	32663	32687	
772	0	3702	4930	3127	6506	1900	0	32695	33087	32751	32931	32517	32783	32679	32677	
773	0	3689	4906	3145	6460	1901	0	32756	33471	32847	32903	32543	32815	32748	32748	
774	0	3700	4913	3137	6476	1902	0	32784	33223	32807	32866	32663	32822	32662	32775	
775	0	3747	4953	3130	6499	1903	0	32834	32951	32714	32812	32663	32845	32743	32709	
776	0	3698	4942	3134	6453	1904	0	32839	32687	32666	32732	32740	32822	32655	32739	
777	0	3716	4949	3151	6435	1905	0	32886	32295	32540	32566	32722	32723	32683	32795	
778	0	3711	4952	3146	6458	1906	0	32852	32327	32466	32559	32703	32731	32644	32799	
779	0	3718	4908	3108	6437	1907	0	32834	32463	32578	32734	32679	32661	32775	32810	
780	0	3758	4972	3155	6497	1908	0	32791	32398	32663	32614	32660	32759	32582	32883	
781	0	3764	4925	3176	6454	1909	0	32827	32342	32718	32620	32639	32875	32732	32839	
782	0	3716	4951	3161	6459	1910	0	32756	32791	32729	32714	32595	32820	32575	32839	
783	0	3701	4978	3214	6477	1911	0	32829	32871	32749	32973	32578	32685	32691	32887	
784	0	3721	4926	3166	6456	1912	0	32725	32871	32759	33074	32662	32738	32559	32898	
785	0	3694	4948	3153	6472	1913	0	32766	32852	32647	32971	32525	32775	32647	32991	
786	0	3704	4900	3136	6465	1914	0	32798	32567	32615	32901	32583	32844	32663	32823	
787	0	3698	4937	3160	6497	1915	0	32713	32843	32643	32959	32671	32819	32786	32731	
788	0	3691	4938	3146	6472	1916	0	32710	32613	32613	32687	32629	32823	32719	32787	
789	0	3710	4952	3123	6434	1917	0	32837	32745	32695	32615	32711	32827	32819	32862	
790	0	3729	4930	3171	6446	1918	0	32780	32674	32829	32599	32659	32738	32692	32642	
791	0	3684	4922	3140	6416	1919	0	32792	32986	32767	32687	32708	32729	32743	32555	
792	0	3697	4934	3137	6445	1920	0	32793	32655	32621	32709	32711	32754	32619	32531	
793	0	3707	4954	3130	6448	1921	0	32743	32743	32534	32663	32791	32730	32706	32793	
794	0	3702	4963	3148	6467	1922	0	32742	32647	32642	32679	32727	32790	32669	32743	
795	0	3779	4892	3140	6435	1923	0	32740	32591	32795	32807	32733	32915	32759	32845	
796	0	3685	4942	3140	6431	1924	0	32692	32847	32799	32918	32757	32807	32639	32759	
797	0	3696	4931	3138	6480	1925	0	32690	32820	32617	32903	32717	32851	32695	32671	
798	0	3683	4952	3127	6434	1926	0	32760	32765	32730	32865	32695	32715	32628	32836	
799	0	3706	4968	3163	6462	1927	0	32835	32975	32709	32804	32703	32734	32763	32775	
800	0	3701	4934	3130	6467	1928	0	32769	32964	32677	32683	32714	32837	32691	32796	
801	0	3715	4944	3108	6457	1929	0	32903	32821	32708	32691	32666	32753	32709	32829	
802	0	3722	4977	3153	6460	1930	0	32791	32804	32793	32611	32695	32767	32617	32775	
803	0	3690	4932	3128	6434	1931	0	32766	32647	32784	32583	32703	32829	32727	32860	
804	0	3672	4947	3136	6437	1932	0	32780	32951	32741	32670	32661	32861	32699	32775	
805	0	3719	4917	3133	6500	1933	0	32717	32919	32727	32756	32635	32871	32730	32743	
806	0	3660	4936	3161	6436	1934	0	32730	33063	32739	32820	32669	32687	32866	32775	
807	0	3700	4965	3156	6436	1935	0	32698	32775	32898	32723	32681	32805	32715	32850	
808	0	3713	4928	3152	6433	1936	0	32684	32943	32914	32756	32713	32791	32813	32747	
809	0	3688	4939	3119	6444	1937	0	32779	32705	32775	32787	32749	32679	32701	32760	
810	0	3692	4976	3184	6462	1938	0	32753	32722	32834	32801	32587	32759	32751	32775	
811	0	3687	4942	3140	6466	1939	0	32727	32647	32794	32698	32543	32757	32731	32767	
812	0	3649	4976	3149	6417	1940	0	32742	32483	32823	32639	32615	32822	32759	32669	
813	0	3676	4939	3190	6426	1941	0	32814	32455	32764	32710	32679	32889	32818	32737	
814	0	3655	4945	3150	6441	1942	0	32630	32519	32639	32556	32625	32775	32655	32794	
815	0	3738	4968	3188	6462	1943	0	32671	32514	32721	32507	32615	32859	32747	32759	
816	0	3711	4939	3183	6432	1944	0	32695	32799	32706	32574	32574	32734	32647	32815	
817	0	3711	4974	3184	6436	1945	0	32615	33035	32667	32749	32631	32735	32749	32819	
818	0	3672	4929	3160	6421	1946	0	32724	32927	32658	32775	32703	32786	32715	32854	
819	0	3748	4957	3155	6406	1947	0	32729	32751	32538	33047	32743	32819	32676	32759	
820	0	3662	4953	3137	6482	1948	0	32754	32839	32551	32893	32733	32671	32647	32701	
821	0	3678	4936	3174	6467	1949	0	32850	32785	32591	32985	32719	32852	32706	32791	
822	0	3704	4953	3151	6440	1950	0	32951	32887	32739	32961	32669	32759	32602	32727	
823	0	3713	4915	3174	6411	1951	0	32890	32900	32775	32867	32694	32775	32663	32773	
824	0	3701	4944	3164	6384	1952	0	32780	33109	32725	32847	32759	32803	32673	32791	
825	0	3763	4949	3132	6402	1953	0	32813	32988	32607	32957	32719	32804	32655	32791	
826	0	3674	4928	3186	6412	1954	0	32670	32885	32647	32962	32735	32795	32751	32759	
827	0	3709	4958	3146	6464	1955	0	32726	32901	32543	32941	32724	32821	32727	32850	
828	0	3746	4921	3175	6437	1956	0	32729	33043	32607	33031	32775	32863	32799	32811	
829	0	3725	4948	3171	6428	1957	0	32769	33185	32674	33071	32731	32747	32692	32835	
830	0	3680	4977	3201	6404	1958	0	32799	32986	32576	33106	32727	32809	32702	32903	
831	0	3704	4969	3181	6444	1959	0	32756	32969	32719	33067	32691	32727	32647	32885	
832	0	3713	4964	3195	6468	1960	0	32767	32823	32735	33127	32535	32767	32685	32897	
833	0	3645	4971	3218	6451	1961	0	32821	32816	32727	32985	32655	32769	32527	32891	
834	0	3732	4960	3172	6437	1962	0	32841	32535	32612	32723	32635	32871	32615	32898	
835	0	3706	4941	3197	6462	1963	0	32810	32617	32427	32538	32702	32799	32559	32818	
836	0	3699	4939	3174	6428	1964	0	32631	32599	32251	32331	32733	32831	32529	32821	
837	0	3674	4936	3116	6439	1965	0	32580	32730	32295	32239	32743	32822	32511	32892	
838	0	3689	4920	3198	6410	1966	0	32455	32667	32457	32202	32603	32786	32615	32807	
839	0	3692	4929	3168	6435	1967	0	32487	32835	32601	32339	32643	32908	32525	32783	
840	0	3701	4933	3128	6427	1968	0	32501	32830	32663	32351	32641	32764	32615	32863	
841	0	3717	4950	3169	6416	1969	0	32583	32983	32802	32453	32557	32847	32415	32885	
842	0	3716	4964	3181	6382	1970	0	32601	32564	32925	32503	32599	32951	32579	32703	
843	0	3719	4989	3177	6462	1971	0	32608	32579	33043	32485	32550	32934	32503	32806	
844	0	3704	4916	3181	6440	1972	0	32634	32371	32983	32374	32637	32951	32443	32815	
845	0	3687	4950	3175	6468	1973	0	32752	32455	32839	32391	32546	32979	32483	32871	
846	0	3668	4949	3202	6386	1974	0	32781	32435	32811	32524	32545	32855	32443	32799	
847	0	3681	4944	3210	6406	1975	0	32754	32597	32519	32559	32495	32799	32617	32705	
848	0	3701	4914	3173	6442	1976	0	32711	32614	32543	32663	32626	32855	32676	32663	
849	0	3684	4914	3132	6403	1977	0	32678	32623	32557	32757	32639	32742	32611	32679	
850	0	3700	4906	3140	6450	1978	0	32738	32579	32435	32875	32793	32701	32734	32591	
851	0	3684	4916	3202	6424	1979	0	32654	32539	32566	32898	32820	32671	32655	32436	
852	0	3732	4931	3227	6444	1980	0	32874	32775	32637	32982	32751	32686	32803	32559	
853	0	3680	4970	3148	6469	1981	0	32848	32491	32647	32935	32797	32695	32708	32639	
854	0	3704	4940	3197	6429	1982	0	32750	32839	32541	32871	32709	32671	32715	32679	
855	0	3705	4977	3189	6474	1983	0	32676	32775	32606	32723	32681	32759	32708	32757	
856	0	3681	4944	3201	6442	1984	0	32720	32902	32639	32759	32743	32703	32895	32740	
857	0	3684	4959	3169	6400	1985	0	32742	32887	32794	32719	32755	32773	32973	32647	
858	0	3673	4929	3209	6478	1986	0	32705	32933	32820	32855	32783	32647	33233	32620	
859	0	3684	4948	3172	6440	1987	0	32671	33097	33019	32786	32783	32623	33355	32553	
860	0	3700	4931	3199	6446	1988	0	32684	33187	32935	32871	32827	32702	33055	32723	
861	0	3669	4959	3164	6407	1989	0	32846	32981	33075	32887	32805	32671	32983	32833	
862	0	3703	4951	3169	6427	1990	0	33033	32991	33087	32932	32775	32690	33007	32743	
863	0	3707	4977	3216	6454	1991	0	33097	32547	33063	33031	32718	32708	33060	32516	
864	0	3707	4977	3213	6445	1992	0	33238	32903	33015	33121	32773	32635	33254	32426	
865	0	3707	4942	3194	6446	1993	0	33302	32763	33089	33199	32871	32587	33232	32574	
866	0	3713	4950	3188	6448	1994	0	33409	33113	33349	33245	33043	32592	33375	32599	
867	0	3716	4926	3170	6480	1995	0	33358	32833	33364	33213	33045	32558	33318	32551	
868	0	3689	4954	3209	6399	1996	0	33273	33011	33189	33159	32938	32703	33047	32647	
869	0	3671	4948	3172	6436	1997	0	33186	32795	32998	33036	32859	32754	33015	32687	
870	0	3660	4903	3184	6462	1998	0	33143	33038	32975	32876	32933	32683	32850	32751	
871	0	3706	4944	3231	6473	1999	0	33099	32924	32799	32785	32734	32688	32799	32797	
872	0	3656	4954	3161	6488	2000	0	33050	32887	32747	32655	32647	32719	32823	32775	
873	0	3693	4957	3172	6432	2001	0	33046	32903	32599	32676	32561	32743	32697	32823	
874	0	3693	4925	3188	6436	2002	0	32951	32595	32631	32775	32623	32739	32727	32899	
875	0	3726	4922	3167	6484	2003	0	32775	32759	32511	32775	32738	32743	32639	32887	
876	0	3717	4948	3152	6480	2004	0	32609	32477	32445	32731	32685	32787	32505	32903	
877	0	3718	4922	3176	6442	2005	0	32663	32599	32391	32722	32611	32850	32478	32888	
878	0	3715	4949	3214	6413	2006	0	32580	32447	32421	32743	32557	32955	32306	33031	
879	0	3687	4961	3167	6446	2007	0	32605	32455	32586	32775	32563	32855	32467	33007	
880	0	3748	4967	3208	6447	2008	0	32609	32263	32578	32664	32595	32852	32417	32901	
881	0	3727	4934	3224	6424	2009	0	32612	32447	32599	32493	32628	32783	32519	32878	
882	0	3692	4910	3194	6445	2010	0	32690	32567	32647	32427	32642	32890	32460	32805	
883	0	3689	4978	3184	6440	2011	0	32630	32877	32735	32554	32605	32791	32495	32773	
884	0	3690	4931	3224	6440	2012	0	32623	32859	32737	32687	32638	32855	32580	32783	
885	0	3741	4942	3198	6443	2013	0	32714	33103	32759	32804	32695	32788	32743	32727	
886	0	3744	4909	3190	6460	2014	0	32720	32861	32765	32836	32671	32827	32647	32691	
887	0	3678	4918	3243	6441	2015	0	32711	32999	32883	32903	32743	32924	32647	32739	
888	0	3748	4929	3242	6426	2016	0	32719	32883	32807	32875	32663	32870	32599	32703	
889	0	3728	4922	3169	6444	2017	0	32702	33046	32831	32887	32607	32815	32734	32761	
890	0	3754	4924	3172	6462	2018	0	32685	32895	32859	32919	32619	32783	32639	32847	
891	0	3697	4950	3206	6446	2019	0	32597	33159	32629	32935	32617	32815	32662	32817	
892	0	3737	4972	3215	6432	2020	0	32601	32783	32621	32923	32583	32873	32711	32807	
893	0	3702	4947	3234	6392	2021	0	32679	32903	32802	32703	32621	32754	32532	32775	
894	0	3685	4970	3212	6460	2022	0	32780	32703	32822	32683	32606	32813	32663	32775	
895	0	3708	4966	3189	6413	2023	0	32745	32333	32621	32507	32620	32822	32611	32687	
896	0	3737	4949	3207	6484	2024	0	32800	32183	32563	32391	32666	32819	32720	32615	
897	0	3726	4944	3246	6440	2025	0	32722	32390	32573	32547	32555	32775	32647	32763	
898	0	3717	4930	3210	6433	2026	0	32646	32671	32323	32589	32590	32733	32805	32757	
899	0	3718	4994	3192	6467	2027	0	32632	32967	32159	32647	32543	32799	32770	32789	
900	0	3703	4956	3190	6404	2028	0	32617	32831	32231	32703	32466	32835	32827	32775	
901	0	3708	4929	3234	6436	2029	0	32623	32731	32391	32707	32475	32683	32647	32823	
902	0	3712	4912	3195	6446	2030	0	32574	32679	32612	32807	32551	32803	32705	32767	
903	0	3728	4931	3207	6469	2031	0	32704	32804	32773	32871	32559	32695	32740	32743	
904	0	3685	4956	3224	6466	2032	0	32743	32845	32945	32894	32655	32804	32675	32751	
905	0	3715	4994	3186	6432	2033	0	32863	33043	32859	32804	32791	32803	32733	32834	
906	0	3736	4938	3225	6466	2034	0	32807	32821	32999	32739	32775	32706	32647	32791	
907	0	3715	4959	3220	6458	2035	0	32697	32943	32959	32767	32627	32759	32756	32791	
908	0	3725	4974	3172	6412	2036	0	32580	32743	32815	32775	32719	32732	32815	32802	
909	0	3733	4957	3219	6457	2037	0	32644	32883	32749	32855	32727	32671	32703	32815	
910	0	3662	4990	3200	6443	2038	0	32607	32669	32679	32871	32693	32756	32775	32767	
911	0	3672	4950	3253	6451	2039	0	32662	32800	32551	32914	32725	32866	32577	32805	
912	0	3688	4986	3166	6409	2040	0	32700	32759	32543	32899	32637	32883	32711	32851	
913	0	3692	4923	3212	6431	2041	0	32703	32697	32578	32887	32555	32771	32741	32879	
914	0	3701	4948	3178	6435	2042	0	32831	32756	32636	32901	32545	32771	32755	32806	
915	0	3734	4906	3207	6438	2043	0	32845	32951	32700	32991	32771	32772	32591	32827	
916	0	3704	4946	3206	6428	2044	0	32831	32823	32657	32937	32705	32855	32613	32868	
917	0	3733	4945	3222	6417	2045	0	32735	32818	32708	32921	32743	32940	32727	32790	
918	0	3718	4986	3214	6428	2046	0	32735	32542	32659	32757	32735	32799	32719	32903	
919	0	3743	4972	3195	6400	2047	0	32808	32647	32594	32510	32711	32860	32739	32815	
920	0	3730	4964	3209	6419	2048	0	32807	32471	32623	32607	32795	32692	32655	32703	
921	0	3698	4974	3208	6443	2049	0	32794	32623	32855	32679	32854	32749	32771	32743	
922	0	3694	4930	3220	6428	2050	0	32869	32573	32807	32797	32711	32830	32530	32773	
923	0	3696	4950	3196	6382	2051	0	32810	32813	32827	32819	32647	32699	32705	32671	
924	0	3719	4940	3224	6413	2052	0	32714	32831	32838	32791	32735	32699	32665	32621	
925	0	3760	4994	3242	6396	2053	0	32794	32990	32775	32647	32727	32647	32743	32748	
926	0	3698	4990	3184	6441	2054	0	32868	32791	32807	32571	32743	32757	32647	32647	
927	0	3724	4958	3216	6448	2055	0	32824	32865	32863	32449	32770	32773	32767	32711	
928	0	3698	4989	3216	6394	2056	0	32815	32549	32799	32467	32759	32711	32594	32775	
929	0	3713	4970	3212	6400	2057	0	32871	32623	32727	32661	32817	32739	32758	32743	
930	0	3721	4954	3238	6436	2058	0	32823	32523	32767	32804	32754	32647	32663	32767	
931	0	3735	5004	3190	6400	2059	0	32773	32775	32821	32919	32749	32769	32668	32671	
932	0	3706	4985	3169	6436	2060	0	32772	32495	32751	32903	32706	32810	32630	32709	
933	0	3672	4957	3278	6413	2061	0	32807	32839	32687	32887	32730	32947	32665	32809	
934	0	3682	4967	3231	6409	2062	0	32799	32667	32683	32847	32759	32761	32665	32719	
935	0	3679	5023	3200	6416	2063	0	32751	32971	32605	32835	32726	32773	32719	32823	
936	0	3668	4957	3208	6390	2064	0	32749	32677	32585	32703	32692	32809	32663	32793	
937	0	3680	4955	3218	6435	2065	0	32679	32871	32530	32583	32630	32816	32726	32738	
938	0	3723	4956	3211	6420	2066	0	32689	32634	32598	32539	32674	32839	32669	32831	
939	0	3713	4961	3159	6405	2067	0	32664	32803	32567	32614	32721	32735	32754	32871	
940	0	3664	4956	3229	6375	2068	0	32622	32547	32580	32707	32655	32769	32639	32833	
941	0	3704	4954	3198	6377	2069	0	32656	32842	32647	32641	32746	32767	32716	32766	
942	0	3674	4925	3181	6428	2070	0	32668	32843	32685	32731	32813	32765	32617	32767	
943	0	3673	4961	3213	6434	2071	0	32667	32834	32655	32861	32775	32725	32751	32787	
944	0	3683	4929	3203	6413	2072	0	32668	32914	32589	32839	32716	32803	32691	32803	
945	0	3710	4994	3172	6402	2073	0	32658	32839	32607	32835	32663	32871	32725	32742	
946	0	3728	4930	3223	6400	2074	0	32695	32975	32751	32935	32647	32747	32674	32775	
947	0	3712	4938	3225	6424	2075	0	32758	32687	32915	32877	32598	32783	32791	32855	
948	0	3721	4972	3166	6430	2076	0	32699	33037	32935	32775	32571	32765	32679	32749	
949	0	3720	4946	3230	6420	2077	0	32796	32819	32948	32805	32541	32763	32783	32831	
950	0	3676	4952	3214	6462	2078	0	32887	32719	32915	32775	32663	32742	32681	32772	
951	0	3742	4958	3213	6467	2079	0	32793	32735	32851	32713	32647	32871	32735	32775	
952	0	3700	4981	3221	6390	2080	0	32753	32574	32839	32626	32615	32771	32637	32765	
953	0	3704	4952	3268	6440	2081	0	32834	32667	32775	32563	32603	32850	32775	32675	
954	0	3769	4945	3188	6399	2082	0	32789	32365	32682	32583	32507	32925	32734	32699	
955	0	3698	4972	3208	6438	2083	0	32785	32460	32677	32626	32554	32811	32711	32863	
956	0	3711	4951	3209	6390	2084	0	32785	32391	32683	32719	32583	32767	32647	32751	
957	0	3724	4954	3219	6387	2085	0	32732	32731	32647	32738	32509	32647	32757	32756	
958	0	3657	4938	3224	6422	2086	0	32702	32579	32663	32843	32492	32798	32596	32827	
959	0	3682	4963	3231	6402	2087	0	32827	32733	32713	32731	32511	32823	32705	32827	
960	0	3690	4940	3211	6424	2088	0	32807	32491	32766	32717	32591	32786	32707	32739	
961	0	3704	4956	3192	6414	2089	0	32823	32721	32699	32719	32603	32819	32743	32811	
962	0	3706	4958	3222	6432	2090	0	32745	32745	32647	32687	32654	32742	32619	32775	
963	0	3740	4990	3172	6398	2091	0	32694	33081	32615	32703	32667	32871	32813	32805	
964	0	3659	4994	3171	6386	2092	0	32663	33007	32583	32815	32583	32739	32775	32723	
965	0	3696	4945	3210	6393	2093	0	32756	33354	32756	32867	32559	32831	32683	32823	
966	0	3720	4946	3245	6457	2094	0	32740	33177	32783	32943	32626	32813	32703	32791	
967	0	3672	4922	3184	6408	2095	0	32647	33206	32604	32935	32727	32791	32799	32735	
968	0	3667	4942	3211	6396	2096	0	32716	32981	32692	32893	32705	32687	32687	32723	
969	0	3679	4935	3216	6400	2097	0	32708	32339	32866	32935	32711	32799	32775	32701	
970	0	3692	4914	3193	6455	2098	0	32780	32255	32853	32758	32655	32811	32609	32795	
971	0	3638	4938	3206	6408	2099	0	32759	32071	32910	32743	32679	32734	32803	32767	
972	0	3683	4936	3203	6443	2100	0	32791	32575	32851	32863	32723	32751	32707	32699	
973	0	3681	4947	3196	6412	2101	0	32780	32815	32857	32709	32740	32765	32686	32851	
974	0	3720	4956	3195	6440	2102	0	32751	33079	32871	32415	32738	32811	32756	32843	
975	0	3683	4961	3266	6400	2103	0	32775	33047	32842	32307	32783	32763	32647	32839	
976	0	3616	4975	3248	6429	2104	0	32797	33010	32845	32415	32751	32771	32757	32703	
977	0	3683	4935	3229	6475	2105	0	32871	32852	32661	32541	32748	32725	32731	32783	
978	0	3671	4933	3174	6402	2106	0	32863	32447	32627	32567	32607	32738	32671	32754	
979	0	3686	4944	3189	6394	2107	0	32868	32507	32579	32679	32570	32707	32731	32828	
980	0	3679	4930	3221	6408	2108	0	32872	32246	32535	32823	32541	32833	32695	32775	
981	0	3718	4979	3220	6435	2109	0	32775	32419	32413	32775	32549	32725	32662	32735	
982	0	3673	4917	3200	6429	2110	0	32739	32423	32421	32839	32626	32839	32711	32745	
983	0	3709	4910	3173	6405	2111	0	32789	32565	32636	32869	32558	32791	32556	32829	
984	0	3669	4966	3174	6437	2112	0	32816	32749	32701	32850	32667	32829	32658	32790	
985	0	3741	4980	3216	6414	2113	0	32787	33107	32631	32785	32718	32871	32748	32729	
986	0	3660	4964	3254	6436	2114	0	32703	33158	32547	32847	32791	32733	32698	32738	
987	0	3695	4940	3212	6387	2115	0	32816	33001	32627	32789	32759	32767	32765	32827	
988	0	3706	4960	3194	6392	2116	0	32796	32871	32887	32838	32751	32804	32717	32721	
989	0	3684	4945	3230	6426	2117	0	32797	32597	32894	32754	32715	32755	32807	32729	
990	0	3683	4924	3210	6415	2118	0	32676	32831	32798	32910	32755	32719	32775	32739	
991	0	3672	4917	3196	6410	2119	0	32695	32639	32634	32795	32738	32754	32621	32769	
992	0	3698	4974	3232	6436	2120	0	32836	32767	32607	32823	32717	32775	32704	32828	
993	0	3691	4950	3225	6440	2121	0	32903	32885	32726	32894	32599	32687	32813	32753	
994	0	3684	4925	3246	6424	2122	0	32806	32613	32767	32699	32559	32783	32727	32785	
995	0	3699	4945	3234	6411	2123	0	32835	32687	32697	32448	32589	32845	32742	32775	
996	0	3692	4960	3250	6421	2124	0	32775	32187	32730	32431	32535	32740	32639	32815	
997	0	3679	4965	3200	6432	2125	0	32722	32498	32837	32513	32466	32844	32717	32751	
998	0	3664	4900	3229	6394	2126	0	32676	32615	32826	32639	32555	32759	32750	32769	
999	0	3684	4944	3224	6417	2127	0	32647	33029	32821	32736	32615	32771	32671	32775	
1000	0	3691	4978	3229	6414	2128	0	32586	32927	32794	32679	32675	32775	32709	32807	
1001	0	3663	4980	3236	6410	2129	0	32647	33031	32861	32705	32717	32874	32647	32751	
1002	0	3653	4902	3236	6399	2130	0	32744	32847	32844	32605	32724	32773	32757	32731	
1003	0	3669	4904	3221	6422	2131	0	32781	32823	32761	32662	32711	32793	32690	32758	
1004	0	3686	4968	3246	6448	2132	0	32799	32803	32635	32679	32788	32903	32671	32838	
1005	0	3645	4946	3217	6389	2133	0	32733	32674	32498	32629	32798	32795	32742	32715	
1006	0	3711	4931	3240	6418	2134	0	32730	32819	32423	32726	32711	32833	32647	32647	
1007	0	3660	4982	3203	6431	2135	0	32741	32723	32536	32815	32749	32799	32867	32695	
1008	0	3686	4948	3196	6454	2136	0	32761	33159	32468	32820	32807	32690	32784	32775	
1009	0	3633	4945	3209	6394	2137	0	32775	32996	32595	32819	32751	32703	32731	32767	
1010	0	3677	4945	3240	6394	2138	0	32799	33111	32550	32726	32823	32751	32749	32715	
1011	0	3686	4966	3211	6450	2139	0	32754	32839	32699	32862	32695	32655	32647	32713	
1012	0	3681	4971	3213	6416	2140	0	32665	32885	32775	32959	32615	32775	32685	32809	
1013	0	3682	4911	3204	6429	2141	0	32710	32445	32742	32870	32567	32841	32647	32729	
1014	0	3643	4939	3238	6401	2142	0	32679	32303	32847	32699	32562	32783	32791	32793	
1015	0	3669	4968	3250	6410	2143	0	32708	32387	32847	32560	32529	32863	32787	32836	
1016	0	3638	4956	3220	6429	2144	0	32705	32887	32765	32507	32527	32743	32715	32839	
1017	0	3702	4934	3237	6404	2145	0	32736	32707	32775	32535	32577	32743	32727	32814	
1018	0	3680	4927	3197	6382	2146	0	32724	32717	32809	32615	32586	32795	32677	32823	
1019	0	3625	4926	3209	6454	2147	0	32713	32595	32762	32507	32679	32796	32735	32863	
1020	0	3694	4941	3232	6450	2148	0	32741	32770	32719	32491	32828	32754	32599	32775	
1021	0	3645	4929	3240	6428	2149	0	32756	32676	32695	32514	32757	32759	32774	32643	
1022	0	3659	4947	3211	6408	2150	0	32831	32255	32711	32612	32749	32815	32709	32671	
1023	0	3629	4961	3235	6397	2151	0	32937	32189	32662	32662	32669	32835	32775	32763	
1024	0	3662	4926	3259	6468	2152	0	32861	32391	32655	32834	32751	32819	32685	32810	
1025	0	3642	4938	3250	6392	2153	0	32832	32978	32599	32763	32703	32775	32690	32765	
1026	0	3674	4919	3226	6432	2154	0	32827	32965	32662	32839	32745	32899	32679	32751	
1027	0	3695	4970	3295	6426	2155	0	32756	33362	32687	32719	32725	32751	32679	32775	
1028	0	3610	4929	3222	6431	2156	0	32710	33311	32591	32579	32743	32771	32631	32740	
1029	0	3666	4921	3212	6413	2157	0	32703	33187	32551	32607	32691	32775	32738	32759	
1030	0	3653	4950	3219	6439	2158	0	32874	32854	32803	32679	32757	32662	32700	32799	
1031	0	3672	4963	3197	6396	2159	0	32875	32663	32859	32735	32759	32765	32709	32811	
1032	0	3678	4986	3250	6426	2160	0	32827	32447	32999	32839	32711	32734	32846	32775	
1033	0	3668	4941	3283	6453	2161	0	32805	32357	33041	32932	32718	32775	32732	32725	
1034	0	3701	4953	3230	6434	2162	0	32711	32471	32886	33063	32668	32819	32802	32719	
1035	0	3673	4956	3233	6412	2163	0	32621	32607	32713	32943	32633	32743	32671	32751	
1036	0	3670	4939	3232	6412	2164	0	32633	32996	32711	32874	32639	32794	32727	32815	
1037	0	3638	4906	3245	6370	2165	0	32646	33135	32630	32938	32663	32799	32639	32771	
1038	0	3634	4908	3248	6478	2166	0	32551	33091	32580	32974	32503	32788	32762	32775	
1039	0	3624	4948	3240	6398	2167	0	32678	32669	32556	33011	32519	32775	32730	32813	
1040	0	3616	4918	3231	6400	2168	0	32825	32787	32628	33197	32675	32859	32567	32759	
1041	0	3652	4900	3231	6436	2169	0	32886	32775	32683	33207	32647	32787	32639	32805	
1042	0	3649	4928	3238	6421	2170	0	32959	32811	32719	33093	32679	32834	32697	32735	
1043	0	3662	4972	3204	6377	2171	0	32976	32815	32615	33027	32667	32902	32687	32763	
1044	0	3637	4950	3203	6380	2172	0	32879	33121	32583	33055	32741	32865	32594	32903	
1045	0	3687	4928	3246	6375	2173	0	32820	33155	32583	32807	32773	32851	32749	32818	
1046	0	3673	4984	3199	6404	2174	0	32647	33197	32591	32679	32731	32763	32718	32836	
1047	0	3699	4940	3264	6440	2175	0	32653	32836	32644	32577	32740	32775	32642	32790	
1048	0	3648	4946	3208	6433	2176	0	32651	32551	32775	32493	32771	32775	32738	32775	
1049	0	3642	4937	3264	6406	2177	0	32743	32171	32685	32391	32773	32725	32647	32795	
1050	0	3674	4942	3260	6409	2178	0	32819	32271	32770	32487	32733	32763	32735	32799	
1051	0	3651	4931	3267	6385	2179	0	32903	32007	32927	32594	32759	32706	32639	32675	
1052	0	3639	4940	3204	6428	2180	0	32903	32451	32826	32727	32735	32803	32771	32723	
1053	0	3682	4926	3280	6408	2181	0	32820	32643	32687	32860	32690	32787	32644	32831	
1054	0	3654	4896	3261	6454	2182	0	32783	32945	32619	32975	32703	32698	32791	32758	
1055	0	3661	4916	3248	6432	2183	0	32673	32839	32543	32903	32773	32775	32837	32725	
1056	0	3636	4926	3294	6400	2184	0	32668	32587	32505	32890	32756	32795	32733	32789	
1057	0	3629	4926	3227	6434	2185	0	32682	32507	32583	32786	32769	32797	32833	32791	
1058	0	3602	4950	3257	6398	2186	0	32647	32799	32669	32549	32775	32823	32645	32839	
1059	0	3633	4930	3262	6420	2187	0	32567	32845	32674	32387	32828	32730	32791	32703	
1060	0	3591	4947	3259	6368	2188	0	32590	32839	32719	32262	32734	32811	32671	32762	
1061	0	3695	4911	3305	6396	2189	0	32600	32886	32599	32223	32593	32775	32773	32687	
1062	0	3596	4899	3268	6400	2190	0	32679	32610	32728	32323	32775	32845	32756	32642	
1063	0	3627	4933	3226	6408	2191	0	32785	32799	32775	32487	32764	32747	32632	32807	
1064	0	3622	4924	3275	6450	2192	0	32820	32558	32747	32631	32751	32775	32711	32889	
1065	0	3620	4903	3250	6465	2193	0	32780	32843	32731	32711	32747	32814	32629	32797	
1066	0	3636	4931	3257	6440	2194	0	32773	32691	32723	32921	32709	32711	32722	32835	
1067	0	3608	4942	3252	6409	2195	0	32771	32948	32695	32935	32747	32766	32711	32853	
1068	0	3632	4944	3295	6426	2196	0	32799	32667	32725	32924	32695	32812	32775	32678	
1069	0	3621	4923	3279	6434	2197	0	32786	32829	32647	32955	32687	32727	32791	32726	
1070	0	3595	4920	3282	6407	2198	0	32788	32724	32701	32847	32741	32757	32699	32724	
1071	0	3596	4954	3307	6448	2199	0	32738	33058	32723	32834	32730	32799	32734	32738	
1072	0	3664	4908	3264	6451	2200	0	32668	32951	32631	32706	32775	32683	32685	32783	
1073	0	3635	4921	3261	6480	2201	0	32724	32973	32827	32519	32756	32773	32721	32833	
1074	0	3621	4904	3252	6449	2202	0	32694	32783	32798	32567	32735	32743	32631	32837	
1075	0	3634	4933	3281	6424	2203	0	32668	33087	32725	32493	32742	32839	32763	32719	
1076	0	3628	4912	3254	6475	2204	0	32653	32759	32679	32506	32751	32848	32703	32723	
1077	0	3658	4939	3280	6436	2205	0	32709	32903	32679	32551	32743	32831	32612	32815	
1078	0	3635	4910	3254	6447	2206	0	32686	32613	32690	32615	32740	32884	32735	32647	
1079	0	3601	4967	3278	6475	2207	0	32871	32741	32955	32591	32767	32854	32635	32710	
1080	0	3624	4915	3264	6465	2208	0	32924	32199	32979	32620	32607	32772	32743	32821	
1081	0	3608	4927	3285	6435	2209	0	32871	32100	32869	32821	32547	32758	32703	32807	
1082	0	3565	4942	3260	6448	2210	0	32828	32119	32794	32767	32535	32852	32711	32742	
1083	0	3626	4930	3315	6430	2211	0	32806	32466	32821	32878	32541	32807	32679	32807	
1084	0	3642	4909	3277	6448	2212	0	32865	32547	32763	32993	32565	32811	32647	32799	
1085	0	3582	4948	3226	6498	2213	0	32865	32887	32791	32863	32639	32811	32773	32751	
1086	0	3620	4884	3280	6440	2214	0	32740	32742	32796	32858	32628	32735	32677	32801	
1087	0	3586	4856	3303	6488	2215	0	32745	33063	32732	32966	32683	32773	32728	32787	
1088	0	3584	4944	3305	6517	2216	0	32761	32979	32662	33197	32679	32767	32730	32890	
1089	0	3597	4937	3298	6493	2217	0	32740	32962	32598	33055	32635	32854	32663	32759	
1090	0	3641	4899	3282	6466	2218	0	32748	32999	32523	32991	32687	32729	32735	32815	
1091	0	3583	4908	3320	6459	2219	0	32806	32795	32551	32999	32686	32812	32684	32837	
1092	0	3583	4910	3285	6466	2220	0	32842	33139	32484	32981	32725	32783	32836	32717	
1093	0	3638	4863	3263	6440	2221	0	32753	33046	32525	32767	32751	32756	32647	32718	
1094	0	3591	4934	3305	6466	2222	0	32766	32955	32494	32790	32775	32787	32812	32593	
1095	0	3557	4887	3307	6507	2223	0	32861	32902	32643	32742	32658	32861	32764	32722	
1096	0	3621	4924	3263	6453	2224	0	32869	32567	32619	32772	32711	32863	32794	32639	
1097	0	3541	4905	3335	6462	2225	0	32837	32743	32673	32773	32790	32858	32767	32727	
1098	0	3600	4953	3251	6471	2226	0	32760	32551	32663	32885	32775	32769	32767	32875	
1099	0	3564	4916	3240	6492	2227	0	32750	32685	32670	32775	32737	32797	32658	32879	
1100	0	3578	4913	3296	6446	2228	0	32786	32492	32725	32759	32707	32815	32671	32840	
1101	0	3555	4926	3293	6452	2229	0	32758	32723	32863	32671	32723	32823	32655	32802	
1102	0	3611	4901	3252	6446	2230	0	32690	32399	32831	32591	32774	32794	32813	32767	
1103	0	3556	4933	3336	6499	2231	0	32694	32541	32816	32526	32782	32771	32693	32775	
1104	0	3589	4905	3289	6494	2232	0	32696	32703	32827	32487	32773	32739	32743	32775	
1105	0	3556	4904	3329	6507	2233	0	32771	32951	32703	32575	32775	32767	32710	32711	
1106	0	3589	4920	3314	6462	2234	0	32741	32711	32615	32588	32719	32719	32767	32646	
1107	0	3616	4897	3289	6489	2235	0	32685	32975	32611	32745	32663	32707	32635	32771	
1108	0	3581	4882	3288	6452	2236	0	32719	32863	32723	32722	32575	32663	32694	32735	
1109	0	3575	4924	3319	6504	2237	0	32730	32839	32827	32694	32713	32715	32773	32691	
1110	0	3581	4906	3300	6478	2238	0	32802	32883	32844	32815	32606	32743	32771	32751	
1111	0	3556	4899	3281	6532	2239	0	32885	32841	32775	32910	32615	32775	32715	32711	
1112	0	3585	4894	3281	6514	2240	0	32766	32885	32730	32751	32757	32678	32735	32787	
1113	0	3592	4900	3295	6510	2241	0	32755	32633	32757	32959	32733	32753	32795	32719	
1114	0	3579	4910	3318	6517	2242	0	32834	32711	32657	32967	32783	32847	32795	32687	
1115	0	3551	4924	3296	6511	2243	0	32786	32565	32730	32991	32708	32775	32679	32786	
1116	0	3565	4887	3277	6528	2244	0	32903	32817	32827	32903	32699	32695	32701	32775	
1117	0	3575	4971	3305	6454	2245	0	32818	32746	32739	32839	32741	32786	32635	32707	
1118	0	3587	4923	3265	6479	2246	0	32862	32743	32743	32725	32610	32743	32709	32754	
1119	0	3580	4934	3307	6511	2247	0	32910	32589	32731	32470	32687	32727	32563	32773	
1120	0	3572	4921	3278	6492	2248	0	32812	32797	32607	32439	32623	32799	32731	32857	
1121	0	3546	4884	3292	6491	2249	0	32850	32685	32698	32431	32647	32725	32758	32783	
1122	0	3557	4902	3346	6492	2250	0	32775	32806	32699	32509	32756	32831	32681	32797	
1123	0	3592	4961	3274	6519	2251	0	32892	32815	32739	32727	32815	32793	32749	32804	
1124	0	3584	4892	3265	6548	2252	0	32751	32805	32815	32903	32825	32725	32644	32871	
1125	0	3555	4882	3293	6539	2253	0	32792	32815	32863	32941	32775	32787	32797	32802	
1126	0	3548	4889	3319	6499	2254	0	32816	32715	32924	32877	32731	32754	32708	32727	
1127	0	3552	4908	3336	6541	2255	0	32775	32869	32931	32877	32775	32709	32749	32723	
1128	0	3537	4917	3274	6488	2256	0	32743	32823	32959	32767	32759	32850	32566	32775	
1129	0	3585	4901	3314	6522	2257	0	32747	32762	32863	32858	32719	32757	32775	32767	
1130	0	3580	4916	3317	6508	2258	0	32706	32763	32783	32871	32543	32889	32705	32711	
1131	0	3537	4918	3293	6502	2259	0	32718	32694	32663	32775	32557	32740	32819	32647	
1132	0	3516	4889	3331	6483	2260	0	32714	32839	32659	32717	32477	32814	32827	32787	
1133	0	3519	4908	3250	6500	2261	0	32770	32711	32638	32775	32559	32773	32695	32731	
1134	0	3517	4960	3333	6512	2262	0	32730	32730	32466	32759	32637	32850	32849	32751	
1135	0	3523	4943	3299	6516	2263	0	32657	32682	32461	32631	32683	32717	32710	32839	
1136	0	3580	4910	3355	6530	2264	0	32690	32775	32559	32558	32603	32791	32802	32681	
1137	0	3536	4928	3318	6481	2265	0	32771	32682	32534	32603	32599	32829	32813	32807	
1138	0	3560	4847	3300	6526	2266	0	32734	32885	32613	32765	32566	32681	32692	32805	
1139	0	3552	4873	3342	6492	2267	0	32647	32903	32610	32911	32562	32811	32803	32753	
1140	0	3582	4851	3254	6532	2268	0	32744	32775	32647	32911	32709	32782	32711	32796	
1141	0	3529	4884	3369	6497	2269	0	32735	32803	32826	32887	32743	32818	32799	32694	
1142	0	3536	4902	3312	6526	2270	0	32778	32607	32799	32967	32739	32670	32810	32757	
1143	0	3546	4914	3326	6507	2271	0	32745	32831	32795	32925	32679	32738	32775	32839	
1144	0	3583	4893	3292	6528	2272	0	32715	32605	32773	32701	32662	32727	32756	32775	
1145	0	3484	4900	3327	6538	2273	0	32734	32890	32738	32583	32687	32879	32613	32786	
1146	0	3537	4926	3334	6548	2274	0	32756	32775	32855	32691	32770	32804	32659	32647	
1147	0	3527	4863	3288	6509	2275	0	32815	32839	32947	32553	32702	32730	32647	32647	
1148	0	3581	4879	3248	6501	2276	0	32835	32727	32847	32518	32727	32775	32602	32719	
1149	0	3552	4866	3265	6508	2277	0	32852	33111	32834	32499	32725	32679	32638	32765	
1150	0	3560	4872	3315	6536	2278	0	32885	32903	32805	32542	32695	32689	32575	32806	
1151	0	3538	4853	3358	6538	2279	0	32805	32810	32742	32509	32671	32740	32687	32795	
1152	0	3530	4900	3353	6517	2280	0	32852	32705	32654	32548	32572	32719	32662	32787	
1153	0	3503	4924	3298	6533	2281	0	32858	32580	32518	32498	32557	32799	32679	32727	
1154	0	3504	4865	3290	6517	2282	0	32890	32467	32595	32375	32543	32845	32757	32787	
1155	0	3517	4892	3289	6556	2283	0	32897	32513	32465	32443	32638	32819	32746	32707	
1156	0	3546	4877	3268	6531	2284	0	32804	32577	32505	32487	32643	32839	32725	32799	
1157	0	3497	4839	3341	6530	2285	0	32775	32748	32677	32630	32577	32719	32663	32791	
1158	0	3506	4903	3290	6545	2286	0	32702	32743	32543	32709	32615	32823	32747	32771	
1159	0	3489	4894	3345	6559	2287	0	32738	32867	32567	32839	32723	32757	32627	32775	
1160	0	3545	4855	3288	6559	2288	0	32719	32799	32636	32965	32627	32773	32723	32757	
1161	0	3535	4855	3270	6540	2289	0	32679	32887	32619	33091	32561	32767	32692	32709	
1162	0	3530	4901	3289	6549	2290	0	32736	32815	32681	33105	32541	32757	32823	32693	
1163	0	3540	4897	3343	6523	2291	0	32802	32692	32703	33063	32543	32803	32647	32703	
1164	0	3498	4904	3323	6524	2292	0	32762	32901	32705	33138	32646	32831	32751	32709	
1165	0	3514	4872	3376	6542	2293	0	32752	32583	32621	33031	32563	32844	32613	32805	
1166	0	3536	4862	3345	6554	2294	0	32782	32731	32743	32825	32519	32860	32701	32803	
1167	0	3522	4860	3328	6535	2295	0	32736	32571	32567	32551	32577	32756	32738	32746	
1168	0	3498	4884	3344	6580	2296	0	32726	32604	32479	32621	32687	32826	32667	32679	
1169	0	3472	4898	3335	6501	2297	0	32703	32796	32575	32720	32723	32775	32788	32751	
1170	0	3534	4899	3345	6568	2298	0	32666	33018	32711	32997	32684	32789	32636	32836	
1171	0	3492	4877	3312	6570	2299	0	32760	32958	32837	33251	32597	32659	32841	32799	
1172	0	3510	4864	3299	6519	2300	0	32804	33071	32879	33207	32541	32751	32703	32853	
1173	0	3488	4870	3357	6483	2301	0	32768	32785	32838	33185	32582	32758	32767	32794	
1174	0	3520	4854	3376	6507	2302	0	32759	32895	32903	33063	32685	32813	32689	32758	
1175	0	3510	4886	3320	6528	2303	0	32708	32767	32867	32967	32679	32823	32867	32775	
1176	0	3533	4856	3322	6508	2304	0	32599	32864	32663	32783	32855	32671	32707	32831	
1177	0	3536	4909	3304	6576	2305	0	32583	32698	32647	32580	32775	32807	32679	32767	
1178	0	3452	4856	3369	6528	2306	0	32695	32787	32745	32677	32743	32711	32691	32831	
1179	0	3520	4876	3312	6534	2307	0	32772	32685	32850	32709	32715	32771	32709	32845	
1180	0	3474	4848	3327	6532	2308	0	32808	32685	32854	32543	32617	32699	32639	32735	
1181	0	3506	4884	3313	6552	2309	0	32807	32567	32935	32535	32695	32775	32602	32815	
1182	0	3496	4887	3322	6563	2310	0	32753	32719	32959	32557	32733	32839	32672	32821	
1183	0	3492	4884	3330	6520	2311	0	32775	32959	32803	32523	32687	32751	32703	32815	
1184	0	3491	4870	3332	6522	2312	0	32709	32971	32653	32647	32748	32873	32775	32871	
1185	0	3514	4901	3337	6530	2313	0	32694	32965	32515	32695	32772	32718	32775	32759	
1186	0	3511	4867	3325	6512	2314	0	32647	32666	32529	32825	32787	32807	32823	32751	
1187	0	3489	4854	3354	6530	2315	0	32692	32813	32701	32730	32671	32679	32772	32799	
1188	0	3493	4898	3370	6568	2316	0	32703	32785	32863	32671	32599	32761	32787	32711	
1189	0	3493	4886	3317	6571	2317	0	32798	32914	32804	32685	32592	32710	32632	32727	
1190	0	3474	4869	3329	6535	2318	0	32789	32990	32806	32655	32578	32809	32775	32767	
1191	0	3468	4881	3360	6554	2319	0	32799	33147	32703	32839	32611	32751	32647	32763	
1192	0	3506	4920	3357	6542	2320	0	32799	32773	32561	32897	32615	32817	32647	32787	
1193	0	3429	4881	3306	6568	2321	0	32702	32847	32508	32871	32605	32887	32639	32834	
1194	0	3443	4889	3368	6558	2322	0	32701	32487	32551	32850	32802	32799	32724	32775	
1195	0	3508	4911	3370	6605	2323	0	32718	32426	32540	32785	32732	32875	32635	32751	
1196	0	3451	4894	3382	6560	2324	0	32775	32079	32437	32821	32661	32835	32709	32719	
1197	0	3540	4926	3400	6547	2325	0	32763	32543	32458	32767	32685	32743	32663	32854	
1198	0	3522	4825	3344	6592	2326	0	32861	32676	32519	32715	32757	32765	32783	32842	
1199	0	3509	4872	3376	6546	2327	0	32869	32679	32689	32711	32724	32692	32695	32716	
1200	0	3464	4880	3335	6590	2328	0	32882	32399	32847	32845	32639	32727	32751	32753	
1201	0	3404	4837	3327	6601	2329	0	32891	32607	32963	32825	32625	32671	32639	32685	
1202	0	3473	4897	3368	6560	2330	0	32893	32484	32933	32865	32551	32742	32743	32799	
1203	0	3475	4911	3320	6566	2331	0	32797	32863	32946	32735	32602	32759	32647	32709	
1204	0	3461	4845	3373	6561	2332	0	32751	32711	32801	32691	32674	32727	32758	32799	
1205	0	3482	4899	3336	6538	2333	0	32642	32962	32701	32647	32598	32840	32709	32804	
1206	0	3490	4853	3373	6564	2334	0	32681	32959	32598	32628	32665	32717	32722	32751	
1207	0	3494	4888	3357	6569	2335	0	32643	32951	32605	32727	32698	32735	32748	32797	
1208	0	3434	4895	3373	6544	2336	0	32629	32955	32531	32658	32829	32804	32669	32742	
1209	0	3449	4901	3338	6607	2337	0	32710	32710	32589	32595	32738	32811	32756	32739	
1210	0	3487	4836	3382	6568	2338	0	32692	32893	32647	32721	32691	32759	32607	32812	
1211	0	3444	4871	3392	6609	2339	0	32743	32775	32579	32761	32799	32731	32721	32799	
1212	0	3480	4808	3380	6545	2340	0	32749	32877	32727	32663	32703	32783	32716	32791	
1213	0	3462	4867	3367	6564	2341	0	32816	32674	32711	32546	32643	32807	32707	32815	
1214	0	3440	4885	3376	6587	2342	0	32790	32738	32753	32359	32735	32807	32711	32737	
1215	0	3434	4842	3317	6583	2343	0	32775	32812	32702	32468	32742	32850	32564	32698	
1216	0	3469	4892	3388	6594	2344	0	32786	32658	32694	32615	32713	32685	32726	32711	
1217	0	3467	4849	3330	6538	2345	0	32724	32783	32775	32722	32719	32812	32743	32759	
1218	0	3482	4855	3405	6577	2346	0	32707	32847	32773	32804	32771	32839	32623	32805	
1219	0	3473	4842	3376	6568	2347	0	32756	32647	32729	32867	32721	32763	32717	32732	
1220	0	3470	4859	3329	6558	2348	0	32728	32832	32775	32935	32683	32753	32690	32763	
1221	0	3458	4854	3377	6548	2349	0	32729	32853	32839	32811	32751	32759	32647	32775	
1222	0	3436	4892	3336	6566	2350	0	32850	32863	32787	32926	32571	32852	32711	32819	
1223	0	3423	4821	3362	6577	2351	0	32889	32943	32807	32802	32562	32893	32687	32724	
1224	0	3483	4900	3357	6564	2352	0	32809	32585	32725	32841	32531	32679	32727	32783	
1225	0	3403	4830	3390	6568	2353	0	32784	32847	32692	32834	32595	32829	32621	32771	
1226	0	3475	4888	3356	6570	2354	0	32745	32599	32743	32681	32677	32815	32764	32783	
1227	0	3430	4904	3409	6588	2355	0	32795	32677	32767	32655	32695	32738	32775	32757	
1228	0	3442	4852	3331	6566	2356	0	32734	32695	32690	32653	32767	32783	32655	32854	
1229	0	3395	4875	3361	6589	2357	0	32775	32738	32693	32775	32765	32839	32741	32806	
1230	0	3444	4887	3418	6577	2358	0	32740	32775	32743	32775	32671	32698	32715	32827	
1231	0	3442	4876	3433	6600	2359	0	32810	32738	32837	32726	32735	32743	32847	32786	
1232	0	3414	4878	3328	6597	2360	0	32751	32831	32715	32810	32698	32795	32820	32803	
1233	0	3485	4894	3359	6576	2361	0	32807	32519	32643	32775	32771	32718	32617	32759	
1234	0	3469	4841	3428	6602	2362	0	32833	32775	32749	32727	32797	32775	32717	32757	
1235	0	3453	4826	3369	6628	2363	0	32838	32607	32745	32771	32767	32775	32603	32749	
1236	0	3432	4884	3350	6580	2364	0	32805	32852	32783	32683	32731	32802	32719	32766	
1237	0	3454	4827	3390	6620	2365	0	32834	32885	32757	32685	32714	32859	32755	32799	
1238	0	3423	4840	3384	6624	2366	0	32852	32834	32871	32695	32698	32751	32727	32703	
1239	0	3459	4909	3434	6612	2367	0	32793	32903	32863	32823	32647	32703	32667	32795	
1240	0	3386	4868	3352	6552	2368	0	32738	32875	32780	32803	32707	32796	32706	32797	
1241	0	3444	4802	3397	6569	2369	0	32747	32834	32701	32844	32667	32775	32628	32807	
1242	0	3470	4806	3396	6553	2370	0	32791	32783	32799	32799	32628	32839	32737	32765	
1243	0	3466	4866	3384	6584	2371	0	32701	32739	32799	32703	32703	32827	32751	32797	
1244	0	3420	4858	3418	6581	2372	0	32717	32879	32671	32783	32827	32837	32703	32897	
1245	0	3487	4872	3377	6595	2373	0	32647	32587	32647	32823	32765	32787	32783	32690	
1246	0	3433	4878	3395	6608	2374	0	32635	32815	32663	32743	32775	32791	32715	32633	
1247	0	3440	4842	3385	6604	2375	0	32669	32644	32607	32831	32731	32668	32830	32715	
1248	0	3432	4843	3396	6588	2376	0	32786	32859	32525	32875	32708	32709	32742	32788	
1249	0	3431	4813	3407	6577	2377	0	32757	32708	32575	32903	32735	32837	32747	32621	
1250	0	3421	4872	3394	6599	2378	0	32711	32773	32595	32924	32734	32739	32734	32690	
1251	0	3422	4815	3363	6620	2379	0	32775	32740	32734	32902	32725	32798	32614	32797	
1252	0	3437	4820	3428	6632	2380	0	32712	32763	32689	32869	32807	32765	32735	32835	
1253	0	3464	4864	3362	6578	2381	0	32679	32850	32535	32829	32663	32740	32775	32747	
1254	0	3425	4859	3362	6630	2382	0	32693	32839	32525	32791	32685	32851	32639	32796	
1255	0	3421	4863	3389	6626	2383	0	32796	32999	32693	32810	32716	32738	32734	32863	
1256	0	3449	4833	3366	6598	2384	0	32793	32852	32738	32819	32713	32859	32655	32775	
1257	0	3420	4912	3394	6605	2385	0	32824	32903	32865	32819	32607	32809	32636	32853	
1258	0	3443	4798	3397	6618	2386	0	32867	32647	32765	32845	32526	32798	32679	32817	
1259	0	3385	4874	3371	6628	2387	0	32909	32895	32813	32847	32534	32828	32660	32831	
1260	0	3460	4849	3358	6578	2388	0	32856	32557	32881	32842	32519	32775	32806	32739	
1261	0	3488	4829	3370	6577	2389	0	32792	32787	32931	32847	32519	32862	32677	32774	
1262	0	3396	4874	3402	6576	2390	0	32772	32501	32903	32708	32515	32669	32717	32804	
1263	0	3458	4868	3372	6548	2391	0	32844	32708	32727	32667	32607	32791	32679	32807	
1264	0	3413	4858	3412	6593	2392	0	32826	32647	32623	32699	32740	32839	32786	32775	
1265	0	3442	4832	3365	6627	2393	0	32759	32791	32607	32639	32698	32703	32703	32775	
1266	0	3439	4832	3376	6576	2394	0	32724	32687	32496	32495	32772	32770	32879	32863	
1267	0	3396	4864	3374	6650	2395	0	32707	32849	32444	32455	32783	32769	32820	32763	
1268	0	3408	4803	3363	6591	2396	0	32615	32707	32428	32661	32725	32785	32629	32682	
1269	0	3416	4865	3429	6600	2397	0	32605	32810	32487	32842	32723	32781	32695	32738	
1270	0	3423	4836	3412	6587	2398	0	32557	32931	32523	32943	32804	32735	32685	32773	
1271	0	3430	4881	3359	6640	2399	0	32614	32743	32615	32983	32739	32789	32780	32647	
1272	0	3401	4844	3384	6596	2400	0	32766	32795	32771	32943	32647	32824	32715	32721	
1273	0	3418	4831	3379	6619	2401	0	32897	32775	32815	32957	32632	32773	32671	32837	
1274	0	3454	4866	3371	6607	2402	0	32970	32741	32740	32879	32623	32835	32710	32661	
1275	0	3396	4811	3396	6616	2403	0	32932	32775	32761	32711	32540	32722	32684	32735	
1276	0	3456	4840	3420	6598	2404	0	32834	32755	32742	32731	32637	32858	32715	32818	
1277	0	3398	4812	3388	6633	2405	0	32763	32827	32887	32703	32631	32854	32663	32750	
1278	0	3407	4830	3310	6628	2406	0	32742	32637	32959	32730	32617	32804	32805	32809	
1279	0	3464	4841	3388	6604	2407	0	32713	32821	32903	32647	32661	32791	32715	32787	
1280	0	3414	4836	3391	6625	2408	0	32740	32643	32769	32835	32587	32751	32775	32786	
1281	0	3409	4805	3375	6624	2409	0	32678	32887	32747	32825	32579	32871	32631	32703	
1282	0	3384	4843	3400	6596	2410	0	32644	32647	32775	32755	32631	32743	32683	32759	
1283	0	3403	4832	3376	6578	2411	0	32711	32835	32663	32683	32629	32802	32583	32756	
1284	0	3458	4830	3352	6619	2412	0	32743	32791	32647	32631	32621	32667	32669	32797	
1285	0	3425	4836	3385	6620	2413	0	32696	32903	32607	32637	32694	32775	32577	32807	
1286	0	3397	4800	3424	6596	2414	0	32716	32629	32713	32623	32613	32850	32726	32775	
1287	0	3421	4865	3352	6617	2415	0	32826	32820	32755	32511	32573	32675	32754	32735	
1288	0	3414	4812	3392	6666	2416	0	32800	32647	32699	32610	32727	32801	32647	32763	
1289	0	3402	4796	3402	6603	2417	0	32804	32727	32690	32775	32839	32762	32691	32775	
1290	0	3421	4821	3370	6651	2418	0	32806	32631	32655	32951	32839	32695	32639	32695	
1291	0	3426	4805	3372	6608	2419	0	32773	32722	32631	33044	32804	32775	32775	32691	
1292	0	3421	4784	3375	6650	2420	0	32751	32836	32583	33103	32764	32834	32739	32793	
1293	0	3447	4804	3387	6628	2421	0	32742	32735	32575	33115	32692	32799	32719	32877	
1294	0	3386	4842	3384	6605	2422	0	32759	32695	32587	33046	32725	32797	32771	32764	
1295	0	3370	4808	3394	6653	2423	0	32848	32695	32594	33023	32754	32757	32691	32759	
1296	0	3420	4848	3378	6624	2424	0	32723	32647	32702	32935	32707	32847	32743	32825	
1297	0	3432	4786	3395	6629	2425	0	32818	32875	32703	32833	32631	32879	32635	32868	
1298	0	3440	4806	3390	6636	2426	0	32808	32807	32813	32713	32647	32757	32663	32785	
1299	0	3389	4820	3381	6669	2427	0	32801	32887	32743	32540	32695	32745	32647	32797	
1300	0	3419	4860	3339	6651	2428	0	32702	32854	32788	32500	32695	32775	32703	32775	
1301	0	3410	4802	3398	6611	2429	0	32797	32625	32834	32422	32751	32756	32748	32706	
1302	0	3412	4842	3410	6669	2430	0	32783	32839	32855	32467	32743	32819	32687	32719	
1303	0	3419	4787	3351	6621	2431	0	32786	32620	32775	32478	32748	32773	32767	32834	
1304	0	3403	4881	3409	6586	2432	0	32782	32807	32815	32470	32724	32835	32631	32791	
1305	0	3414	4792	3408	6650	2433	0	32791	32607	32980	32647	32647	32783	32731	32751	
1306	0	3401	4865	3400	6629	2434	0	32858	32845	32951	32718	32539	32726	32756	32735	
1307	0	3424	4785	3434	6621	2435	0	32951	32775	32827	32787	32571	32685	32677	32799	
1308	0	3403	4852	3378	6643	2436	0	32848	32795	32708	32786	32551	32759	32775	32667	
1309	0	3420	4810	3422	6681	2437	0	32694	32845	32790	32855	32575	32820	32797	32743	
1310	0	3458	4795	3398	6658	2438	0	32748	32789	32655	32787	32663	32725	32662	32807	
1311	0	3419	4848	3356	6655	2439	0	32762	32802	32557	32876	32646	32787	32747	32797	
1312	0	3386	4836	3434	6651	2440	0	32710	32748	32411	32863	32723	32797	32705	32807	
1313	0	3432	4827	3426	6640	2441	0	32784	32789	32391	32881	32819	32647	32700	32708	
1314	0	3388	4834	3416	6665	2442	0	32775	32621	32423	32807	32746	32702	32711	32691	
1315	0	3391	4770	3424	6652	2443	0	32811	32821	32559	32683	32719	32797	32628	32797	
1316	0	3390	4792	3398	6642	2444	0	32773	32887	32511	32687	32770	32699	32695	32775	
1317	0	3436	4835	3389	6691	2445	0	32758	32602	32639	32733	32771	32831	32725	32765	
1318	0	3384	4813	3469	6691	2446	0	32735	32837	32713	32681	32699	32835	32731	32709	
1319	0	3412	4807	3432	6614	2447	0	32785	32647	32738	32583	32685	32767	32733	32821	
1320	0	3403	4770	3402	6676	2448	0	32740	32811	32703	32775	32818	32807	32674	32831	
1321	0	3412	4787	3378	6648	2449	0	32675	32669	32631	32709	32785	32859	32607	32767	
1322	0	3413	4818	3422	6650	2450	0	32609	32794	32791	32696	32541	32822	32673	32727	
1323	0	3385	4833	3421	6670	2451	0	32684	32839	32855	32635	32599	32763	32726	32851	
1324	0	3395	4842	3427	6684	2452	0	32735	32631	32727	32667	32647	32801	32579	32759	
1325	0	3433	4788	3396	6636	2453	0	32710	32799	32607	32767	32671	32812	32711	32703	
1326	0	3428	4854	3381	6696	2454	0	32740	32639	32679	32743	32775	32730	32730	32735	
1327	0	3391	4837	3439	6664	2455	0	32761	32835	32797	32783	32685	32786	32717	32815	
1328	0	3383	4816	3393	6698	2456	0	32726	32647	32799	32915	32615	32831	32693	32863	
1329	0	3407	4790	3433	6678	2457	0	32711	32807	32811	32823	32646	32786	32659	32951	
1330	0	3400	4780	3435	6666	2458	0	32734	32583	32775	32855	32527	32791	32847	32903	
1331	0	3415	4785	3427	6672	2459	0	32775	32818	32726	32743	32567	32670	32807	32707	
1332	0	3392	4830	3401	6636	2460	0	32806	32621	32743	32766	32535	32743	32699	32767	
1333	0	3388	4804	3408	6684	2461	0	32785	32731	32775	32853	32543	32791	32716	32658	
1334	0	3406	4776	3406	6662	2462	0	32841	32767	32837	32775	32697	32687	32749	32755	
1335	0	3401	4811	3408	6668	2463	0	32812	32767	32812	32698	32537	32811	32743	32786	
1336	0	3384	4808	3406	6688	2464	0	32817	32637	32807	32654	32499	32812	32799	32647	
1337	0	3409	4777	3435	6716	2465	0	32814	32751	32902	32629	32545	32726	32804	32583	
1338	0	3408	4815	3421	6692	2466	0	32731	32800	32809	32631	32571	32803	32647	32685	
1339	0	3404	4781	3418	6683	2467	0	32748	32626	32773	32639	32751	32839	32727	32859	
1340	0	3384	4812	3449	6697	2468	0	32733	32799	32698	32643	32815	32788	32727	32935	
1341	0	3415	4811	3396	6681	2469	0	32775	32509	32716	32527	32786	32743	32764	32809	
1342	0	3388	4822	3409	6712	2470	0	32736	32743	32655	32460	32757	32749	32723	32759	
1343	0	3388	4780	3458	6704	2471	0	32742	32559	32559	32631	32727	32647	32623	32775	
1344	0	3370	4790	3399	6721	2472	0	32636	32791	32549	32717	32743	32815	32617	32899	
1345	0	3369	4777	3456	6688	2473	0	32655	32727	32561	32743	32733	32814	32771	32669	
1346	0	3379	4814	3420	6672	2474	0	32668	32759	32607	32715	32742	32743	32724	32691	
1347	0	3361	4790	3436	6726	2475	0	32719	32893	32691	32809	32709	32765	32791	32767	
1348	0	3381	4852	3385	6653	2476	0	32737	32719	32738	32879	32679	32811	32823	32691	
1349	0	3401	4770	3440	6682	2477	0	32719	32808	32646	32932	32703	32703	32711	32719	
1350	0	3387	4773	3396	6682	2478	0	32799	32788	32601	32903	32673	32767	32787	32773	
1351	0	3382	4764	3412	6685	2479	0	32811	32815	32694	32979	32761	32787	32714	32788	
1352	0	3350	4792	3460	6666	2480	0	32759	32775	32834	32933	32661	32715	32755	32727	
1353	0	3366	4763	3384	6706	2481	0	32769	32915	32831	32793	32711	32839	32621	32708	
1354	0	3422	4800	3426	6728	2482	0	32718	32775	32735	32807	32647	32877	32673	32711	
1355	0	3406	4816	3430	6679	2483	0	32774	32669	32743	32813	32543	32787	32603	32687	
1356	0	3373	4794	3414	6704	2484	0	32798	32799	32615	32795	32639	32775	32723	32755	
1357	0	3383	4836	3435	6673	2485	0	32833	32639	32601	32749	32556	32817	32628	32791	
1358	0	3390	4794	3434	6718	2486	0	32766	32739	32655	32677	32534	32721	32699	32742	
1359	0	3385	4816	3406	6697	2487	0	32767	32559	32821	32726	32507	32817	32671	32791	
1360	0	3396	4752	3459	6696	2488	0	32770	32773	32807	32782	32643	32719	32681	32773	
1361	0	3395	4826	3440	6690	2489	0	32790	32595	32767	32749	32693	32822	32676	32707	
1362	0	3392	4804	3492	6721	2490	0	32783	32818	32759	32647	32700	32733	32719	32743	
1363	0	3404	4802	3436	6700	2491	0	32796	32615	32799	32605	32775	32809	32703	32765	
1364	0	3354	4803	3501	6704	2492	0	32751	32799	32677	32562	32621	32804	32647	32743	
1365	0	3380	4832	3449	6696	2493	0	32775	32758	32788	32579	32612	32735	32719	32749	
1366	0	3368	4830	3411	6682	2494	0	32807	32827	32799	32621	32590	32845	32697	32801	
1367	0	3368	4802	3437	6708	2495	0	32826	32927	32870	32671	32563	32807	32815	32863	
1368	0	3380	4824	3460	6713	2496	0	32743	32646	32662	32607	32551	32822	32671	32799	
1369	0	3387	4781	3474	6744	2497	0	32804	32879	32677	32657	32493	32852	32645	32673	
1370	0	3356	4788	3419	6692	2498	0	32796	32629	32727	32679	32567	32756	32783	32669	
1371	0	3366	4793	3461	6719	2499	0	32810	32831	32799	32871	32591	32751	32703	32708	
1372	0	3294	4815	3424	6700	2500	0	32789	32541	32807	32807	32592	32662	32743	32734	
1373	0	3358	4772	3437	6722	2501	0	32710	32755	32603	32759	32596	32743	32791	32738	
1374	0	3375	4772	3460	6707	2502	0	32670	32661	32577	32759	32677	32775	32691	32775	
1375	0	3410	4779	3448	6724	2503	0	32687	32895	32645	32827	32752	32797	32786	32788	
1376	0	3428	4784	3435	6722	2504	0	32702	32814	32595	32815	32705	32796	32645	32771	
1377	0	3339	4776	3445	6728	2505	0	32692	32841	32681	32629	32740	32743	32727	32719	
1378	0	3363	4792	3435	6756	2506	0	32687	32806	32703	32763	32660	32755	32802	32804	
1379	0	3388	4794	3474	6696	2507	0	32793	32846	32647	32771	32715	32659	32719	32794	
1380	0	3353	4772	3452	6736	2508	0	32775	32807	32743	32860	32699	32773	32671	32743	
1381	0	3382	4772	3468	6773	2509	0	32816	32898	32609	32843	32753	32751	32813	32742	
1382	0	3349	4809	3395	6720	2510	0	32759	32628	32615	32775	32807	32815	32834	32703	
1383	0	3346	4789	3462	6712	2511	0	32786	32783	32692	32747	32742	32831	32698	32747	
1384	0	3410	4774	3391	6706	2512	0	32775	32493	32719	32719	32771	32739	32771	32679	
1385	0	3379	4794	3390	6730	2513	0	32762	32806	32754	32834	32695	32775	32671	32775	
1386	0	3366	4800	3446	6698	2514	0	32788	32783	32803	32815	32698	32699	32751	32886	
1387	0	3370	4771	3483	6719	2515	0	32810	32775	32775	32751	32678	32813	32669	32727	
1388	0	3337	4756	3395	6730	2516	0	32799	32804	32799	32687	32759	32762	32781	32813	
1389	0	3360	4761	3448	6699	2517	0	32828	32703	32759	32839	32727	32831	32715	32783	
1390	0	3397	4773	3457	6743	2518	0	32834	32825	32789	32895	32791	32738	32743	32692	
1391	0	3357	4820	3465	6731	2519	0	32835	32614	32823	32903	32791	32747	32687	32757	
1392	0	3336	4772	3482	6727	2520	0	32788	32757	32758	32879	32771	32687	32783	32735	
1393	0	3375	4802	3478	6740	2521	0	32780	32631	32839	32755	32727	32799	32645	32759	
1394	0	3322	4813	3485	6704	2522	0	32745	32717	32731	32565	32588	32787	32691	32863	
1395	0	3382	4768	3470	6722	2523	0	32761	32510	32751	32443	32577	32813	32627	32775	
1396	0	3382	4752	3432	6730	2524	0	32748	32743	32623	32503	32591	32793	32692	32850	
1397	0	3350	4771	3472	6727	2525	0	32780	32519	32589	32610	32758	32833	32622	32869	
1398	0	3376	4798	3461	6756	2526	0	32745	32797	32678	32615	32775	32807	32700	32791	
1399	0	3384	4734	3454	6732	2527	0	32823	32579	32795	32740	32735	32703	32617	32783	
1400	0	3328	4807	3434	6718	2528	0	32717	32887	32727	32855	32671	32791	32727	32799	
1401	0	3404	4762	3437	6732	2529	0	32732	32747	32733	32956	32732	32751	32639	32772	
1402	0	3350	4784	3478	6752	2530	0	32760	32837	32694	32860	32734	32809	32730	32701	
1403	0	3309	4772	3448	6724	2531	0	32727	32710	32709	32703	32775	32775	32575	32725	
1404	0	3323	4754	3411	6724	2532	0	32756	32796	32621	32677	32707	32916	32711	32703	
1405	0	3348	4793	3462	6734	2533	0	32700	32773	32706	32700	32771	32801	32727	32807	
1406	0	3345	4774	3468	6773	2534	0	32700	32903	32699	32796	32775	32788	32737	32860	
1407	0	3320	4787	3433	6768	2535	0	32732	32662	32711	32839	32755	32850	32743	32807	
1408	0	3346	4800	3434	6776	2536	0	32673	32863	32571	32898	32757	32754	32677	32839	
1409	0	3338	4744	3492	6730	2537	0	32633	32815	32559	32869	32775	32871	32827	32853	
1410	0	3301	4816	3446	6749	2538	0	32731	32812	32551	32687	32668	32767	32735	32791	
1411	0	3382	4750	3471	6735	2539	0	32751	32837	32631	32669	32767	32825	32677	32797	
1412	0	3314	4768	3486	6758	2540	0	32760	32903	32699	32663	32847	32810	32693	32711	
1413	0	3350	4767	3446	6746	2541	0	32756	32579	32775	32757	32751	32692	32823	32694	
1414	0	3378	4762	3464	6742	2542	0	32761	32772	32743	32749	32786	32775	32789	32754	
1415	0	3386	4764	3437	6721	2543	0	32738	32693	32647	32732	32716	32863	32647	32769	
1416	0	3356	4786	3478	6721	2544	0	32765	32743	32764	32623	32706	32749	32739	32727	
1417	0	3353	4738	3454	6755	2545	0	32769	32662	32850	32618	32743	32871	32723	32683	
1418	0	3316	4755	3457	6730	2546	0	32769	32868	32769	32806	32579	32690	32698	32710	
1419	0	3368	4766	3446	6752	2547	0	32802	32623	32807	32843	32571	32819	32693	32791	
1420	0	3376	4757	3419	6697	2548	0	32837	32775	32719	32797	32551	32711	32672	32758	
1421	0	3335	4762	3453	6744	2549	0	32815	32607	32687	32826	32594	32775	32627	32727	
1422	0	3332	4757	3420	6728	2550	0	32840	32834	32792	32717	32605	32749	32715	32751	
1423	0	3334	4791	3413	6760	2551	0	32762	32590	32807	32839	32583	32769	32679	32709	
1424	0	3314	4718	3484	6720	2552	0	32722	32935	32791	32775	32735	32749	32621	32751	
1425	0	3318	4797	3457	6762	2553	0	32742	32693	32788	32773	32666	32775	32663	32900	
1426	0	3308	4758	3476	6757	2554	0	32764	32879	32811	32715	32742	32873	32701	32799	
1427	0	3324	4724	3461	6728	2555	0	32796	32703	32723	32793	32681	32811	32666	32875	
1428	0	3350	4736	3467	6734	2556	0	32773	32815	32695	32753	32751	32850	32669	32863	
1429	0	3326	4749	3435	6721	2557	0	32745	32665	32628	32804	32807	32862	32751	32748	
1430	0	3351	4740	3448	6734	2558	0	32759	32819	32693	32769	32719	32740	32839	32660	
1431	0	3304	4790	3488	6752	2559	0	32732	32671	32627	32708	32729	32796	32855	32730	
1432	0	3329	4768	3430	6776	2560	0	32712	32817	32628	32743	32714	32711	32693	32711	
1433	0	3346	4757	3445	6747	2561	0	32782	32635	32679	32775	32727	32831	32681	32829	
1434	0	3314	4760	3447	6753	2562	0	32772	32815	32770	32853	32695	32721	32545	32903	
1435	0	3320	4780	3489	6752	2563	0	32758	32719	32753	32790	32745	32791	32599	32775	
1436	0	3278	4746	3468	6752	2564	0	32705	32815	32862	32715	32771	32747	32635	32747	
1437	0	3353	4790	3472	6760	2565	0	32743	32756	32726	32660	32755	32845	32711	32967	
1438	0	3355	4757	3474	6778	2566	0	32793	32751	32789	32701	32743	32769	32683	32809	
1439	0	3317	4742	3462	6746	2567	0	32843	32690	32836	32749	32686	32719	32698	32700	
1440	0	3287	4767	3453	6713	2568	0	32876	32749	32799	32733	32810	32799	32791	32671	
1441	0	3303	4741	3461	6768	2569	0	32759	32875	32813	32711	32749	32743	32734	32807	
