# OpenSignals Text File Format
# {"00:07:80:3B:46:38": {"sensor": ["CUSTOM/0.5/1.0/V", "CUSTOM/0.5/1.0/V", "CUSTOM/0.5/1.0/V", "CUSTOM/0.5/1.0/V", "CUSTOM/0.5/1.0/V", "CUSTOM/0.5/1.0/V", "CUSTOM/0.5/1.0/V", "CUSTOM/0.5/1.0/V"], "device name": "EMGs", "column": ["nSeq", "DI", "RA_L", "RA_R", "OE_L", "OE:R", "IL_L", "IL_R", "MF_L", "MF_R"], "sync interval": 2, "time": "18:6:14.477", "comments": "", "device connection": "BTH00:07:80:3B:46:38", "channels": [1, 2, 3, 4, 5, 6, 7, 8], "date": "2017-6-1", "mode": 0, "digital IO": [0, 1], "firmware version": 772, "device": "biosignalsplux", "position": 0, "sampling rate": 1000, "label": ["RA_L", "RA_R", "OE_L", "OE:R", "IL_L", "IL_R", "MF_L", "MF_R"], "resolution": [16, 16, 16, 16, 16, 16, 16, 16], "special": [{}, {}, {}, {}, {}, {}, {}, {}]}}
# EndOfHeader
0	0	32876	32749	32751	32543	32844	32711	32903	32615	
1	0	32812	32689	32612	32669	32838	32775	32811	32541	
2	0	32804	32743	32740	32697	32823	32711	32867	32607	
3	0	32845	32823	32685	32703	32855	32743	32804	32547	
4	0	32826	32812	32690	32535	32749	32749	32810	32703	
5	0	32842	32773	32583	32692	32804	32759	32807	32733	
6	0	32811	32721	32663	32655	32837	32723	32732	32695	
7	0	32743	32714	32605	32665	32828	32735	32645	32655	
8	0	32683	32879	32703	32579	32635	32775	32677	32623	
9	0	32732	32805	32719	32527	32598	32838	32723	32767	
10	0	32711	32764	32748	32702	32727	32754	32719	32747	
11	0	32739	32831	32703	32691	32647	32789	32607	32508	
12	0	32658	32802	32757	32647	32775	32775	32647	32673	
13	0	32676	32853	32787	32635	32663	32671	32671	32703	
14	0	32647	32772	32765	32739	32788	32739	32815	32609	
15	0	32678	32756	32775	32687	32757	32647	32813	32642	
16	0	32701	32748	32769	32722	32771	32775	32887	32647	
17	0	32704	32847	32734	32636	32801	32775	32827	32809	
18	0	32789	32796	32683	32732	32723	32704	32694	32661	
19	0	32821	32775	32727	32719	32807	32757	32722	32551	
20	0	32772	32868	32647	32799	32815	32663	32743	32647	
21	0	32839	32866	32766	32551	32757	32759	32783	32615	
22	0	32841	32835	32622	32794	32595	32703	32748	32775	
23	0	32806	32807	32708	32695	32827	32731	32727	32735	
24	0	32838	32831	32701	32719	32748	32697	32745	32617	
25	0	32815	32807	32735	32741	32833	32754	32828	32647	
26	0	32814	32771	32711	32615	32867	32716	32871	32532	
27	0	32808	32793	32671	32575	32807	32771	32806	32662	
28	0	32751	32838	32762	32700	32631	32719	32795	32615	
29	0	32860	32790	32809	32692	32847	32847	32775	32734	
30	0	32831	32839	32695	32711	32791	32747	32775	32719	
31	0	32823	32815	32775	32631	32783	32807	32801	32655	
32	0	32801	32739	32663	32500	32865	32759	32733	32727	
33	0	32820	32682	32799	32636	32790	32796	32742	32617	
34	0	32775	32791	32742	32741	32556	32839	32691	32723	
35	0	32743	32726	32726	32576	32738	32805	32727	32671	
36	0	32781	32747	32708	32687	32884	32783	32775	32751	
37	0	32758	32791	32675	32705	32775	32809	32639	32647	
38	0	32772	32879	32775	32534	32793	32799	32623	32567	
39	0	32759	32763	32742	32719	32679	32797	32623	32717	
40	0	32727	32831	32719	32663	32734	32775	32647	32659	
41	0	32735	32815	32775	32663	32773	32871	32623	32764	
42	0	32768	32751	32634	32671	32795	32739	32555	32667	
43	0	32784	32775	32711	32676	32731	32793	32643	32570	
44	0	32806	32743	32644	32533	32675	32775	32621	32742	
45	0	32732	32785	32743	32639	32647	32727	32607	32581	
46	0	32702	32715	32766	32673	32834	32673	32583	32743	
47	0	32726	32775	32647	32689	32855	32748	32646	32669	
48	0	32703	32735	32719	32615	32754	32587	32645	32647	
49	0	32668	32718	32727	32671	32743	32723	32627	32628	
50	0	32677	32797	32637	32661	32769	32687	32757	32711	
51	0	32764	32763	32679	32557	32763	32836	32634	32719	
52	0	32753	32743	32692	32647	32579	32700	32679	32625	
53	0	32807	32775	32772	32630	32847	32799	32701	32711	
54	0	32719	32853	32642	32713	32836	32655	32731	32487	
55	0	32740	32775	32775	32615	32757	32783	32852	32716	
56	0	32695	32785	32683	32707	32771	32719	32903	32658	
57	0	32788	32796	32757	32717	32719	32743	32887	32679	
58	0	32765	32807	32701	32822	32833	32821	32827	32769	
59	0	32793	32837	32767	32663	32742	32685	32771	32635	
60	0	32798	32747	32757	32605	32790	32775	32694	32570	
61	0	32705	32807	32703	32763	32775	32743	32727	32686	
62	0	32751	32868	32726	32743	32711	32823	32756	32711	
63	0	32795	32875	32663	32735	32839	32711	32806	32819	
64	0	32735	32847	32775	32603	32812	32863	32791	32727	
65	0	32702	32891	32735	32531	32751	32819	32731	32663	
66	0	32750	32807	32583	32609	32798	32834	32743	32743	
67	0	32675	32775	32631	32775	32835	32747	32679	32743	
68	0	32707	32869	32621	32661	32845	32789	32713	32811	
69	0	32771	32712	32735	32669	32642	32719	32734	32749	
70	0	32813	32743	32753	32722	32677	32807	32741	32831	
71	0	32751	32790	32662	32660	32775	32807	32799	32725	
72	0	32797	32721	32767	32583	32823	32845	32759	32597	
73	0	32849	32735	32577	32745	32806	32727	32607	32773	
74	0	32771	32767	32535	32708	32802	32775	32590	32620	
75	0	32838	32677	32591	32683	32829	32725	32646	32755	
76	0	32749	32719	32501	32694	32859	32737	32655	32712	
77	0	32752	32719	32559	32643	32757	32663	32647	32759	
78	0	32803	32695	32605	32754	32621	32732	32615	32669	
79	0	32748	32738	32535	32541	32687	32671	32591	32577	
80	0	32765	32775	32804	32591	32773	32781	32567	32607	
81	0	32740	32727	32829	32679	32861	32830	32687	32662	
82	0	32782	32799	32839	32751	32831	32690	32795	32607	
83	0	32739	32805	32772	32587	32715	32785	32837	32627	
84	0	32754	32775	32925	32539	32739	32647	32829	32607	
85	0	32864	32813	33004	32583	32742	32722	32793	32739	
86	0	32868	32838	32799	32767	32731	32727	32798	32709	
87	0	32844	32859	32763	32676	32759	32773	32787	32647	
88	0	32722	32748	32659	32751	32773	32730	32765	32623	
89	0	32755	32772	32721	32594	32684	32797	32831	32587	
90	0	32748	32775	32671	32591	32743	32789	32881	32821	
91	0	32692	32738	32557	32727	32831	32775	32903	32775	
92	0	32756	32758	32634	32812	32765	32788	32807	32629	
93	0	32707	32854	32564	32733	32751	32703	32821	32790	
94	0	32726	32830	32599	32543	32869	32759	32761	32741	
95	0	32742	32805	32455	32743	32732	32735	32763	32540	
96	0	32751	32733	32588	32647	32695	32759	32789	32742	
97	0	32643	32811	32425	32703	32782	32793	32775	32671	
98	0	32751	32877	32621	32701	32775	32732	32757	32751	
99	0	32756	32721	32839	32637	32749	32855	32801	32703	
100	0	32797	32807	32735	32467	32789	32851	32791	32743	
101	0	32769	32879	32847	32567	32787	32755	32755	32626	
102	0	32775	32763	32829	32709	32845	32676	32756	32557	
103	0	32820	32743	32751	32698	32710	32749	32756	32674	
104	0	32829	32695	32827	32669	32669	32747	32803	32553	
105	0	32849	32815	32647	32543	32786	32731	32783	32771	
106	0	32844	32767	32647	32743	32772	32762	32655	32638	
107	0	32722	32807	32522	32703	32710	32699	32637	32587	
108	0	32797	32839	32663	32773	32751	32743	32669	32749	
109	0	32846	32831	32535	32553	32717	32754	32790	32591	
110	0	32791	32807	32614	32639	32679	32903	32803	32673	
111	0	32679	32851	32437	32646	32773	32793	32883	32659	
112	0	32642	32811	32468	32503	32526	32873	32761	32695	
113	0	32804	32787	32487	32627	32694	32871	32711	32735	
114	0	32781	32823	32573	32637	32686	32683	32734	32615	
115	0	32775	32823	32925	32599	32868	32787	32749	32751	
116	0	32924	32573	32926	32487	32782	32833	32751	32732	
117	0	32845	32756	32701	32499	32676	32819	32773	32727	
118	0	32613	32893	32683	32525	32647	32821	32733	32775	
119	0	32428	32804	32781	32789	32802	32730	32703	32703	
120	0	32449	32803	32887	32775	32795	32773	32679	32671	
121	0	32721	32757	33047	32783	32810	32729	32477	32596	
122	0	32794	32839	33003	32613	32687	32791	32575	32763	
123	0	32924	32775	32955	32772	32883	32763	32679	32599	
124	0	32852	32671	33127	32803	32885	32684	32765	32590	
125	0	32852	32725	33213	32815	32903	32726	32751	32641	
126	0	32864	32771	32877	32951	32647	32711	32839	32565	
127	0	32833	32663	32863	32669	32834	32657	32909	32796	
128	0	32770	32609	32819	32765	32863	32749	32943	32631	
129	0	32847	32742	32775	32663	32954	32775	32890	32594	
130	0	32825	32871	32700	32647	32703	32647	32869	32749	
131	0	32836	32859	32631	32505	32851	32819	32855	32795	
132	0	32854	32786	32381	32838	32799	32832	32771	32823	
133	0	32751	32826	32301	32927	32799	32814	32775	32692	
134	0	32507	32788	32231	32843	32829	32837	32694	32613	
135	0	32421	32766	32391	32623	32717	32742	32659	32699	
136	0	32756	32751	32795	32583	32879	32799	32730	32711	
137	0	32828	32775	32893	32620	32935	32823	32701	32727	
138	0	32718	32767	32514	32628	32647	32758	32597	32751	
139	0	32527	32863	32594	32655	32770	32767	32659	32743	
140	0	32405	32895	32811	32401	32743	32791	32756	32581	
141	0	32824	32839	33119	32516	32675	32783	32783	32596	
142	0	33127	32803	33415	32705	32927	32717	32884	32535	
143	0	32955	32799	33151	32839	32841	32607	32863	32663	
144	0	32836	32791	33029	32723	32948	32690	32831	32503	
145	0	32897	32771	32599	32611	32842	32703	32807	32515	
146	0	32864	32790	32429	32765	32655	32701	32750	32609	
147	0	32858	32667	32303	32689	32766	32743	32791	32493	
148	0	32848	32727	32557	32754	32735	32785	32783	32647	
149	0	32897	32764	32541	32447	32706	32747	32743	32727	
150	0	32887	32765	32590	32571	32677	32661	32679	32845	
151	0	32860	32827	32603	32590	32758	32775	32703	32767	
152	0	32884	32839	32405	32556	32607	32711	32615	32621	
153	0	32827	32785	32511	32551	32790	32837	32631	32775	
154	0	32780	32775	32471	32463	32813	32885	32721	32659	
155	0	32636	32771	32461	32335	32733	32879	32751	32743	
156	0	32630	32767	32658	32583	32725	32889	32809	32604	
157	0	32634	32727	32687	32623	32633	32687	32797	32679	
158	0	32673	32765	32659	32823	32766	32719	32786	32711	
159	0	32716	32783	32795	32787	32823	32645	32819	32767	
160	0	32801	32797	33055	32679	32865	32767	32838	32611	
161	0	32847	32759	32863	32911	32845	32766	32789	32606	
162	0	32837	32811	32864	32903	32743	32687	32787	32607	
163	0	32775	32774	32900	32859	32738	32699	32733	32699	
164	0	32768	32871	32735	32854	32834	32747	32763	32797	
165	0	32830	32839	32727	32727	32807	32772	32786	32807	
166	0	32700	32797	32527	32579	32756	32839	32793	32935	
167	0	32688	32815	32549	32506	32721	32820	32742	32729	
168	0	32754	32795	32343	32599	32697	32747	32687	32447	
169	0	32768	32815	32263	32527	32563	32823	32693	32451	
170	0	32732	32763	32326	32527	32613	32755	32660	32413	
171	0	32706	32759	32471	32551	32671	32787	32588	32807	
172	0	32757	32859	32734	32487	32695	32807	32686	32845	
173	0	32679	32733	33127	32453	32802	32815	32679	32988	
174	0	32743	32765	33156	32635	32775	32759	32727	32891	
175	0	32922	32775	33283	32753	32769	32775	32815	32879	
176	0	32885	32711	33037	32754	32827	32830	32796	32738	
177	0	32901	32717	32959	32673	32743	32797	32847	32801	
178	0	32845	32641	32847	32877	32853	32851	32799	32748	
179	0	32752	32663	32863	32903	32929	32799	32783	32695	
180	0	32715	32749	32820	32743	32941	32853	32806	32669	
181	0	32764	32743	32738	32580	32857	32775	32804	32663	
182	0	32773	32747	32655	32735	32850	32831	32823	32765	
183	0	32725	32695	32553	32783	32804	32735	32783	32572	
184	0	32775	32731	32571	32946	32751	32775	32743	32631	
185	0	32803	32786	32647	32987	32799	32747	32738	32597	
186	0	32716	32807	32572	32895	32633	32797	32761	32607	
187	0	32703	32871	32367	32807	32662	32685	32732	32599	
188	0	32673	32911	32415	32655	32775	32743	32764	32639	
189	0	32655	32901	32639	32513	32723	32726	32583	32564	
190	0	32643	32851	32583	32647	32795	32709	32620	32723	
191	0	32709	32890	32791	32551	32811	32742	32623	32677	
192	0	32613	32815	32775	32530	32767	32747	32583	32686	
193	0	32589	32771	32647	32501	32669	32775	32614	32647	
194	0	32720	32847	32871	32423	32513	32749	32583	32751	
195	0	32807	32887	32775	32355	32639	32791	32658	32687	
196	0	32774	32826	32695	32418	32775	32719	32743	32759	
197	0	32842	32823	32711	32626	32773	32773	32795	32639	
198	0	32820	32691	32843	32587	32767	32713	32714	32767	
199	0	32780	32749	32857	32694	32839	32802	32699	32711	
200	0	32828	32839	32922	32767	32830	32711	32751	32797	
201	0	32786	32745	32883	32775	32829	32727	32786	32679	
202	0	32741	32711	32995	32547	32661	32663	32702	32629	
203	0	32707	32773	32835	32663	32685	32820	32633	32751	
204	0	32804	32749	32803	32729	32851	32847	32637	32735	
205	0	32779	32735	32595	32767	32743	32828	32567	32567	
206	0	32728	32775	32547	32717	32754	32854	32582	32597	
207	0	32683	32690	32592	32535	32895	32647	32669	32467	
208	0	32751	32678	32438	32563	32854	32845	32727	32607	
209	0	32756	32701	32497	32599	32663	32775	32662	32583	
210	0	32735	32737	32459	32655	32725	32836	32589	32658	
211	0	32749	32711	32595	32611	32784	32773	32531	32609	
212	0	32764	32759	32543	32607	32735	32815	32575	32675	
213	0	32696	32717	32743	32571	32785	32765	32642	32748	
214	0	32658	32763	32703	32756	32623	32783	32663	32703	
215	0	32518	32709	32629	32831	32731	32745	32644	32585	
216	0	32625	32806	32854	32791	32849	32687	32711	32596	
217	0	32738	32796	32808	32775	32734	32838	32775	32621	
218	0	32742	32695	32781	32609	32811	32647	32698	32687	
219	0	32785	32692	32635	32871	32883	32729	32863	32868	
220	0	32772	32703	32631	32899	32813	32828	32854	32762	
221	0	32768	32773	32571	32899	32885	32743	32789	32590	
222	0	32795	32815	32733	32690	32813	32809	32743	32756	
223	0	32841	32829	32685	32831	32677	32859	32807	32743	
224	0	32850	32801	32807	32717	32853	32675	32676	32559	
225	0	32788	32839	32797	32567	32854	32759	32647	32784	
226	0	32743	32792	32623	32703	32805	32763	32775	32659	
227	0	32745	32831	32732	32647	32621	32775	32861	32623	
228	0	32761	32887	32629	32660	32791	32707	32903	32767	
229	0	32780	32730	32690	32477	32716	32855	32871	32707	
230	0	32756	32735	32775	32455	32767	32756	32821	32807	
231	0	32762	32767	32668	32647	32749	32767	32863	32655	
232	0	32736	32719	32674	32623	32567	32747	32836	32770	
233	0	32787	32733	32621	32675	32749	32807	32854	32815	
234	0	32732	32711	32731	32583	32850	32731	32845	32885	
235	0	32810	32820	32620	32567	32741	32845	32863	32771	
236	0	32754	32755	32671	32703	32867	32825	32851	32627	
237	0	32807	32823	32554	32671	32699	32775	32790	32671	
238	0	32770	32861	32703	32660	32845	32867	32707	32594	
239	0	32762	32991	32677	32627	32663	32796	32796	32823	
240	0	32715	32879	32806	32731	32747	32859	32731	32683	
241	0	32752	32799	32695	32831	32815	32794	32711	32765	
242	0	32780	32919	32631	32797	32791	32775	32765	32685	
243	0	32756	32787	32692	32799	32647	32820	32751	32811	
244	0	32680	32813	32706	32742	32775	32743	32715	32698	
245	0	32711	32863	32741	32615	32821	32791	32690	32714	
246	0	32787	32708	32605	32454	32731	32764	32647	32605	
247	0	32695	32764	32799	32558	32799	32875	32666	32567	
248	0	32715	32823	32736	32594	32607	32679	32703	32699	
249	0	32703	32743	32647	32569	32627	32785	32643	32679	
250	0	32731	32831	32817	32567	32700	32709	32695	32701	
251	0	32711	32771	32748	32559	32735	32791	32623	32603	
252	0	32705	32681	32851	32597	32587	32722	32615	32665	
253	0	32653	32701	32927	32378	32703	32751	32647	32647	
254	0	32628	32678	32903	32534	32527	32791	32507	32805	
255	0	32568	32675	32965	32481	32615	32798	32599	32797	
256	0	32542	32637	32882	32511	32674	32819	32388	32751	
257	0	32549	32605	32919	32427	32599	32734	32351	32711	
258	0	32572	32613	32829	32420	32623	32769	32391	32694	
259	0	32540	32662	32902	32551	32479	32757	32367	32763	
260	0	32613	32635	32796	32538	32515	32655	32356	32839	
261	0	32661	32647	32863	32547	32740	32695	32431	32705	
262	0	32727	32612	32966	32597	32647	32643	32451	32573	
263	0	32716	32573	32743	32363	32726	32639	32411	32659	
264	0	32711	32676	32790	32356	32743	32585	32399	32551	
265	0	32793	32580	32775	32491	32797	32687	32431	32655	
266	0	32775	32623	32823	32583	32634	32623	32483	32535	
267	0	32791	32670	32767	32609	32663	32743	32587	32646	
268	0	32802	32711	32876	32631	32847	32799	32639	32604	
269	0	32799	32676	32967	32493	32801	32619	32775	32455	
270	0	32785	32703	32859	32603	32871	32684	32852	32500	
271	0	32852	32775	32851	32735	32939	32630	32884	32357	
272	0	32800	32791	32590	32749	32902	32711	32914	32551	
273	0	32828	32821	32577	32877	33006	32687	33001	32516	
274	0	32934	32895	32478	32863	32957	32711	33189	32588	
275	0	32895	32927	32636	32823	33081	32693	33205	32540	
276	0	32931	32927	32647	32983	32983	32791	33298	32543	
277	0	32804	33007	32359	32993	32839	32831	33204	32671	
278	0	32978	32895	32530	33055	32955	32815	33278	32519	
279	0	33044	32903	32348	33043	33143	32847	33355	32692	
280	0	33153	32847	32399	32989	33095	32661	33483	32519	
281	0	33212	32895	32429	32902	33241	32735	33547	32557	
282	0	33326	32795	32295	32951	33251	32583	33567	32445	
283	0	33260	32787	32415	32903	33027	32697	33428	32355	
284	0	33227	32759	32407	32843	33092	32703	33207	32605	
285	0	33230	32771	32468	32853	32961	32673	33062	32687	
286	0	33149	32757	32333	32796	32983	32722	33037	32690	
287	0	33236	32861	32447	32899	33021	32799	32999	32790	
288	0	33111	33019	32263	32947	32799	32727	32983	32749	
289	0	33010	32863	32367	32900	32963	32791	32895	32679	
290	0	32926	32761	32435	32787	32775	32829	32855	32807	
291	0	32831	32783	32597	32903	32839	32755	32576	32707	
292	0	32745	32745	32662	32873	32603	32819	32501	32686	
293	0	32700	32775	32825	32757	32519	32885	32429	32823	
294	0	32605	32723	32727	32679	32703	32785	32407	32786	
295	0	32471	32747	32830	32591	32631	32875	32404	32876	
296	0	32495	32751	32919	32447	32679	32915	32447	32749	
297	0	32444	32741	32761	32489	32594	32795	32423	32603	
298	0	32511	32747	32839	32457	32583	32811	32333	32767	
299	0	32473	32817	32754	32439	32429	32773	32402	32783	
300	0	32541	32831	32851	32454	32492	32866	32347	32843	
301	0	32592	32767	32975	32332	32573	32871	32364	32795	
302	0	32485	32751	32967	32402	32470	32743	32557	32626	
303	0	32488	32773	33018	32413	32540	32795	32517	32767	
304	0	32468	32797	32979	32455	32577	32769	32503	32679	
305	0	32468	32741	33007	32476	32495	32799	32558	32773	
306	0	32453	32733	32845	32391	32605	32762	32531	32669	
307	0	32523	32815	32895	32413	32621	32775	32505	32775	
308	0	32560	32743	32794	32615	32543	32813	32509	32698	
309	0	32559	32770	32743	32647	32581	32723	32479	32715	
310	0	32606	32863	32843	32579	32598	32775	32407	32829	
311	0	32620	32861	32763	32647	32535	32831	32483	32727	
312	0	32688	32871	32759	32717	32685	32679	32495	32687	
313	0	32694	32822	32770	32703	32683	32786	32414	32702	
314	0	32666	32799	32775	32631	32611	32791	32459	32775	
315	0	32725	32823	32612	32591	32771	32743	32527	32763	
316	0	32813	32807	32806	32643	32845	32846	32561	32679	
317	0	32830	32867	32647	32687	32775	32854	32647	32679	
318	0	32807	32807	32694	32495	32695	32687	32671	32695	
319	0	32795	32755	32646	32557	32839	32719	32683	32571	
320	0	32887	32827	32783	32711	32769	32743	32739	32675	
321	0	32911	32765	32749	32729	32831	32839	32831	32647	
322	0	32903	32819	32745	32531	32818	32738	32895	32529	
323	0	32898	32775	32615	32751	32894	32754	32925	32687	
324	0	32887	32773	32623	32759	32775	32822	32903	32647	
325	0	32841	32815	32647	32783	32883	32746	32887	32751	
326	0	32823	32831	32751	32757	32887	32841	32715	32641	
327	0	32775	32743	32701	32647	32823	32815	32655	32510	
328	0	32825	32735	32590	32555	32647	32679	32647	32639	
329	0	32756	32795	32658	32749	32827	32685	32643	32509	
330	0	32827	32740	32663	32747	32882	32605	32868	32681	
331	0	32791	32743	32775	32701	32863	32690	32873	32699	
332	0	32719	32821	32701	32631	32807	32658	32831	32626	
333	0	32687	32743	32695	32647	32791	32662	32834	32615	
334	0	32802	32805	32727	32589	32773	32757	32818	32613	
335	0	32848	32767	32583	32453	32815	32703	32879	32563	
336	0	32796	32810	32627	32750	32827	32761	32882	32742	
337	0	32748	32759	32511	32679	32870	32743	32797	32643	
338	0	32743	32771	32691	32723	32724	32799	32796	32553	
339	0	32725	32799	32903	32583	32879	32738	32797	32659	
340	0	32660	32855	32830	32527	32775	32691	32855	32667	
341	0	32612	32751	32799	32676	32669	32813	32802	32804	
342	0	32696	32775	32735	32647	32871	32867	32735	32707	
343	0	32753	32812	32885	32773	32871	32735	32847	32503	
344	0	32838	32839	32727	32807	32767	32831	32835	32593	
345	0	32826	32791	32639	32663	32738	32709	32865	32511	
346	0	32736	32829	32499	32557	32847	32796	32873	32636	
347	0	32783	32762	32383	32540	32783	32703	32871	32569	
348	0	32762	32767	32557	32607	32711	32791	32793	32783	
349	0	32695	32789	32551	32701	32748	32733	32773	32765	
350	0	32701	32773	32826	32615	32719	32827	32738	32647	
351	0	32731	32732	32671	32611	32766	32843	32751	32797	
352	0	32865	32765	32684	32379	32591	32647	32727	32775	
353	0	32850	32775	32867	32635	32734	32767	32736	32442	
354	0	32863	32695	32701	32646	32834	32843	32719	32690	
355	0	32824	32693	32646	32699	32811	32773	32669	32559	
356	0	32677	32705	32551	32762	32734	32703	32713	32681	
357	0	32591	32663	32579	32829	32735	32742	32717	32681	
358	0	32704	32799	32606	32827	32751	32754	32670	32719	
359	0	32787	32726	32894	32727	32802	32799	32763	32695	
360	0	32837	32788	33019	32611	32662	32708	32795	32758	
361	0	32809	32755	32831	32759	32741	32786	32623	32743	
362	0	32681	32809	32695	32694	32687	32822	32679	32551	
363	0	32632	32854	32791	32581	32724	32820	32826	32599	
364	0	32694	32859	32939	32698	32679	32815	32833	32691	
365	0	32796	32801	32948	32525	32687	32788	32765	32734	
366	0	32791	32767	32869	32623	32719	32775	32694	32711	
367	0	32767	32749	32902	32623	32703	32787	32703	32613	
368	0	32884	32787	32839	32550	32903	32711	32789	32647	
369	0	32902	32738	32803	32724	32879	32751	32641	32698	
370	0	32895	32731	32791	32623	32839	32738	32959	32617	
371	0	32860	32738	32733	32729	32647	32771	32663	32604	
372	0	32817	32751	32617	32703	32819	32739	32919	32647	
373	0	32789	32767	32621	32647	32835	32694	32771	32647	
374	0	32740	32769	32658	32852	32877	32847	32719	32770	
375	0	32723	32749	32583	32783	32867	32807	32727	32814	
376	0	32771	32733	32487	32799	32899	32785	32615	32766	
377	0	32745	32767	32479	32631	32871	32813	32822	32671	
378	0	32799	32825	32669	32531	32775	32807	32767	32726	
379	0	32773	32823	32698	32697	32695	32729	32830	32711	
380	0	32762	32855	32725	32691	32764	32757	32767	32671	
381	0	32747	32814	32719	32735	32724	32797	32617	32566	
382	0	32775	32775	32623	32726	32815	32741	32708	32552	
383	0	32843	32803	32583	32663	32788	32703	32623	32535	
384	0	32812	32859	32743	32711	32753	32687	32807	32511	
385	0	32780	32743	32747	32669	32775	32617	32669	32535	
386	0	32720	32743	32699	32505	32807	32679	32801	32575	
387	0	32756	32819	32815	32607	32669	32673	32742	32615	
388	0	32766	32847	32687	32457	32657	32745	32567	32586	
389	0	32719	32807	32695	32629	32715	32763	32797	32643	
390	0	32738	32739	32631	32635	32679	32758	32599	32589	
391	0	32694	32739	32636	32547	32755	32775	32857	32578	
392	0	32726	32791	32773	32727	32687	32820	32821	32509	
393	0	32717	32803	32699	32582	32671	32809	32615	32837	
394	0	32717	32839	32645	32629	32720	32759	32775	32751	
395	0	32743	32743	32719	32835	32638	32793	32855	32659	
396	0	32695	32732	32677	32850	32601	32710	32743	32775	
397	0	32673	32775	32756	32665	32681	32743	32708	32635	
398	0	32711	32734	32785	32658	32775	32735	32655	32710	
399	0	32714	32775	32625	32733	32885	32775	32703	32583	
400	0	32717	32807	32839	32658	32677	32739	32719	32635	
401	0	32800	32743	32690	32715	32789	32813	32807	32571	
402	0	32743	32790	32717	32679	32775	32813	32861	32663	
403	0	32727	32765	32647	32484	32643	32773	32879	32547	
404	0	32795	32739	32683	32503	32647	32810	32842	32623	
405	0	32785	32751	32743	32578	32669	32732	32943	32591	
406	0	32750	32823	32678	32647	32821	32767	32879	32691	
407	0	32772	32713	32751	32575	32775	32727	32861	32677	
408	0	32823	32775	32639	32607	32795	32743	32775	32711	
409	0	32775	32807	32810	32537	32866	32763	32748	32690	
410	0	32817	32687	32854	32509	32805	32769	32751	32679	
411	0	32742	32751	32647	32596	32740	32819	32731	32695	
412	0	32672	32757	32804	32607	32829	32773	32743	32727	
413	0	32749	32775	32831	32659	32669	32830	32683	32727	
414	0	32860	32797	32689	32621	32684	32823	32757	32647	
415	0	32832	32765	32734	32647	32623	32791	32751	32726	
416	0	32791	32819	32759	32679	32677	32751	32747	32615	
417	0	32773	32837	32723	32581	32831	32827	32827	32671	
418	0	32764	32767	32698	32711	32807	32771	32803	32595	
419	0	32751	32791	32583	32839	32715	32838	32810	32711	
420	0	32759	32863	32700	32847	32819	32739	32801	32588	
421	0	32742	32810	32574	32823	32783	32807	32807	32700	
422	0	32798	32807	32645	32673	32695	32739	32845	32623	
423	0	32775	32819	32607	32734	32703	32799	32885	32719	
424	0	32820	32759	32628	32738	32820	32775	32915	32612	
425	0	32823	32775	32713	32729	32839	32786	32861	32709	
426	0	32743	32749	32766	32594	32787	32790	32807	32610	
427	0	32804	32783	32587	32463	32850	32846	32901	32739	
428	0	32765	32869	32637	32539	32806	32763	32861	32599	
429	0	32773	32747	32575	32727	32666	32847	32863	32677	
430	0	32665	32724	32578	32715	32647	32717	32847	32540	
431	0	32685	32743	32761	32756	32647	32855	32717	32698	
432	0	32698	32737	32775	32727	32711	32685	32721	32589	
433	0	32750	32783	32797	32655	32787	32733	32662	32623	
434	0	32676	32775	32823	32713	32795	32711	32623	32551	
435	0	32732	32807	32879	32758	32743	32813	32611	32634	
436	0	32761	32765	32756	32609	32727	32698	32647	32621	
437	0	32808	32686	32717	32502	32813	32767	32671	32697	
438	0	32750	32755	32639	32661	32804	32775	32785	32685	
439	0	32690	32744	32703	32692	32647	32653	32871	32754	
440	0	32752	32839	32579	32809	32771	32767	32819	32743	
441	0	32692	32775	32647	32581	32829	32775	32748	32775	
442	0	32739	32751	32557	32534	32725	32769	32733	32655	
443	0	32701	32831	32687	32718	32775	32727	32765	32549	
444	0	32742	32871	32835	32726	32743	32749	32799	32647	
445	0	32841	32775	32725	32647	32803	32784	32711	32575	
446	0	32852	32807	32850	32699	32812	32763	32759	32790	
447	0	32854	32844	32671	32719	32805	32775	32815	32767	
448	0	32793	32745	32689	32567	32635	32663	32837	32578	
449	0	32719	32747	32599	32614	32751	32794	32833	32659	
450	0	32815	32847	32775	32743	32879	32765	32807	32637	
451	0	32889	32831	32862	32711	32825	32790	32745	32725	
452	0	32798	32805	32715	32658	32747	32775	32743	32713	
453	0	32743	32775	32733	32663	32820	32791	32772	32519	
454	0	32718	32797	32764	32629	32806	32854	32788	32671	
455	0	32674	32690	32764	32559	32690	32797	32775	32539	
456	0	32707	32813	32759	32579	32655	32829	32789	32716	
457	0	32742	32805	32670	32647	32713	32782	32612	32695	
458	0	32766	32757	32684	32685	32763	32811	32591	32820	
459	0	32708	32683	32674	32610	32775	32847	32757	32695	
460	0	32761	32693	32727	32511	32775	32647	32783	32767	
461	0	32812	32727	32823	32727	32773	32703	32895	32787	
462	0	32810	32621	32647	32853	32796	32739	32879	32694	
463	0	32751	32797	32769	32775	32695	32771	32871	32763	
464	0	32703	32799	32743	32734	32735	32707	32851	32669	
465	0	32766	32775	32646	32759	32851	32823	32858	32773	
466	0	32742	32763	32708	32583	32687	32795	32820	32695	
467	0	32715	32839	32583	32666	32749	32743	32764	32587	
468	0	32725	32830	32717	32686	32629	32795	32723	32764	
469	0	32751	32737	32847	32699	32725	32724	32767	32607	
470	0	32765	32775	32683	32595	32775	32804	32775	32615	
471	0	32749	32811	32575	32495	32731	32797	32758	32719	
472	0	32829	32813	32684	32587	32735	32753	32562	32711	
473	0	32848	32797	32767	32719	32853	32775	32647	32678	
474	0	32764	32820	32852	32647	32870	32743	32661	32743	
475	0	32837	32847	32739	32645	32831	32775	32679	32674	
476	0	32805	32813	32553	32727	32675	32715	32715	32559	
477	0	32793	32837	32678	32762	32711	32751	32711	32635	
478	0	32813	32725	32687	32590	32828	32695	32740	32527	
479	0	32793	32807	32647	32580	32903	32813	32674	32676	
480	0	32747	32781	32815	32573	32893	32800	32671	32507	
481	0	32744	32683	32807	32691	32761	32807	32724	32647	
482	0	32768	32735	32603	32692	32823	32723	32667	32515	
483	0	32727	32740	32749	32663	32831	32711	32692	32660	
484	0	32746	32699	32759	32663	32791	32703	32647	32519	
485	0	32724	32839	32703	32715	32703	32629	32721	32602	
486	0	32757	32756	32703	32783	32663	32767	32599	32559	
487	0	32812	32771	32623	32611	32839	32830	32877	32718	
488	0	32782	32767	32707	32667	32731	32787	32667	32591	
489	0	32783	32775	32807	32679	32827	32757	32734	32621	
490	0	32749	32793	32735	32531	32809	32758	32740	32735	
491	0	32759	32766	32705	32621	32799	32743	32687	32740	
492	0	32759	32799	32735	32703	32699	32751	32767	32692	
493	0	32726	32869	32759	32555	32789	32775	32601	32662	
494	0	32759	32787	32767	32660	32765	32863	32775	32625	
495	0	32770	32759	32599	32665	32755	32833	32663	32645	
496	0	32647	32713	32658	32709	32911	32765	32887	32659	
497	0	32658	32827	32719	32694	32798	32729	32781	32767	
498	0	32747	32853	32847	32589	32767	32763	32853	32732	
499	0	32725	32869	32949	32741	32675	32791	32668	32743	
500	0	32826	32813	32903	32725	32727	32863	32813	32743	
501	0	32881	32830	32860	32659	32823	32757	32711	32677	
502	0	32831	32788	32783	32687	32826	32724	32821	32735	
503	0	32748	32767	32738	32790	32795	32801	32892	32789	
504	0	32742	32703	32647	32775	32707	32697	32975	32699	
505	0	32663	32695	32583	32687	32711	32815	32937	32695	
506	0	32693	32735	32633	32655	32719	32703	32867	32567	
507	0	32724	32759	32484	32607	32775	32759	32909	32611	
508	0	32761	32805	32511	32775	32759	32754	32839	32635	
509	0	32721	32806	32669	32759	32836	32815	32834	32773	
510	0	32743	32765	32695	32677	32935	32791	32853	32547	
511	0	32760	32743	32711	32645	32839	32739	32892	32693	
512	0	32727	32807	32803	32684	32694	32822	32894	32575	
513	0	32690	32747	32621	32516	32791	32763	32899	32719	
514	0	32677	32719	32655	32388	32835	32759	32855	32607	
515	0	32743	32743	32551	32629	32710	32775	32775	32671	
516	0	32781	32759	32647	32643	32749	32807	32711	32457	
517	0	32760	32737	32515	32647	32740	32919	32743	32647	
518	0	32738	32799	32553	32755	32642	32725	32757	32621	
519	0	32723	32811	32734	32594	32831	32751	32761	32722	
520	0	32709	32883	32635	32787	32725	32795	32679	32687	
521	0	32722	32803	32775	32843	32707	32765	32763	32639	
522	0	32713	32833	32807	32762	32727	32679	32767	32527	
523	0	32793	32749	32739	32643	32819	32775	32754	32658	
524	0	32775	32695	32815	32575	32879	32710	32804	32548	
525	0	32738	32775	32751	32591	32847	32799	32775	32617	
526	0	32751	32809	32615	32391	32641	32799	32794	32633	
527	0	32742	32743	32599	32382	32751	32815	32786	32705	
528	0	32711	32801	32567	32571	32783	32839	32722	32514	
529	0	32698	32847	32703	32604	32749	32710	32741	32588	
530	0	32766	32795	32773	32621	32771	32797	32735	32574	
531	0	32818	32775	32879	32669	32615	32711	32722	32660	
532	0	32801	32791	32848	32629	32669	32807	32737	32588	
533	0	32771	32750	32647	32627	32751	32775	32759	32693	
534	0	32772	32767	32660	32719	32698	32733	32743	32629	
535	0	32923	32814	32661	32790	32739	32828	32793	32701	
536	0	32921	32765	32663	32831	32769	32715	32802	32647	
537	0	32882	32687	32663	32821	32647	32749	32749	32772	
538	0	32807	32769	32642	32699	32726	32730	32757	32671	
539	0	32824	32727	32676	32533	32843	32713	32775	32765	
540	0	32727	32738	32754	32531	32717	32749	32751	32757	
541	0	32783	32821	32775	32699	32775	32763	32549	32755	
542	0	32743	32885	32821	32681	32610	32755	32565	32817	
543	0	32797	32775	32775	32715	32634	32742	32591	32714	
544	0	32726	32791	32836	32601	32838	32755	32567	32567	
545	0	32757	32775	32619	32599	32743	32747	32607	32707	
546	0	32775	32799	32687	32790	32807	32771	32679	32579	
547	0	32769	32683	32735	32754	32853	32667	32705	32635	
548	0	32743	32807	32613	32725	32811	32790	32692	32500	
549	0	32786	32850	32743	32751	32699	32756	32658	32655	
550	0	32767	32759	32630	32559	32769	32711	32742	32543	
551	0	32812	32821	32612	32592	32839	32879	32711	32647	
552	0	32759	32743	32717	32539	32799	32789	32571	32755	
553	0	32699	32844	32667	32607	32775	32751	32705	32566	
554	0	32759	32735	32663	32579	32859	32847	32710	32687	
555	0	32753	32789	32755	32562	32767	32716	32708	32645	
556	0	32732	32748	32679	32707	32835	32775	32551	32698	
557	0	32699	32790	32630	32742	32879	32726	32731	32685	
558	0	32765	32757	32694	32675	32879	32790	32790	32679	
559	0	32788	32795	32688	32671	32826	32807	32743	32669	
560	0	32747	32769	32591	32635	32679	32775	32762	32583	
561	0	32742	32721	32794	32674	32637	32813	32767	32719	
562	0	32764	32727	32795	32698	32775	32811	32757	32559	
563	0	32647	32790	32647	32479	32807	32775	32607	32623	
564	0	32713	32764	32699	32635	32749	32799	32631	32519	
565	0	32846	32763	32711	32684	32859	32847	32815	32663	
566	0	32821	32828	32735	32673	32788	32771	32644	32599	
567	0	32846	32834	32519	32727	32602	32763	32623	32683	
568	0	32830	32865	32515	32751	32693	32751	32751	32624	
569	0	32764	32844	32459	32605	32791	32799	32743	32659	
570	0	32708	32855	32697	32613	32775	32831	32614	32612	
571	0	32647	32775	33055	32775	32799	32723	32581	32691	
572	0	32805	32783	32855	32747	32863	32793	32684	32524	
573	0	32903	32827	32841	32723	32839	32695	32852	32637	
574	0	32864	32789	32781	32836	32775	32727	32775	32727	
575	0	32743	32767	32615	32711	32786	32767	32775	32669	
576	0	32713	32683	32615	32687	32682	32742	32787	32749	
577	0	32775	32696	32725	32585	32727	32745	32797	32743	
578	0	32804	32825	32719	32597	32740	32791	32807	32847	
579	0	32719	32813	32717	32674	32807	32773	32726	32734	
580	0	32700	32759	32671	32597	32687	32839	32628	32738	
581	0	32759	32807	32756	32605	32795	32739	32699	32634	
582	0	32767	32845	32655	32623	32702	32743	32775	32540	
583	0	32774	32798	32698	32829	32749	32775	32885	32679	
584	0	32738	32791	32607	32789	32757	32775	32875	32581	
585	0	32717	32735	32735	32775	32839	32713	32863	32593	
586	0	32738	32815	32722	32699	32623	32809	32871	32539	
587	0	32727	32803	32811	32631	32758	32687	32836	32635	
588	0	32727	32708	32791	32593	32789	32763	32895	32639	
589	0	32707	32799	32647	32679	32775	32703	32915	32662	
590	0	32757	32795	32707	32719	32829	32723	32887	32598	
591	0	32762	32683	32589	32691	32819	32739	32935	32621	
592	0	32802	32673	32710	32723	32743	32831	32845	32581	
593	0	32751	32786	32703	32503	32617	32703	32765	32743	
594	0	32709	32751	32647	32559	32796	32743	32847	32601	
595	0	32718	32748	32727	32678	32919	32717	32875	32687	
596	0	32729	32783	32647	32670	32819	32735	32791	32583	
597	0	32680	32820	32719	32725	32863	32719	32775	32683	
598	0	32726	32739	32623	32621	32903	32775	32725	32598	
599	0	32701	32687	32749	32556	32803	32775	32767	32743	
600	0	32718	32743	32643	32732	32627	32751	32767	32775	
601	0	32753	32807	32670	32727	32787	32819	32692	32645	
602	0	32839	32801	32815	32669	32802	32842	32595	32566	
603	0	32858	32805	32863	32551	32839	32894	32605	32575	
604	0	32826	32805	32874	32655	32823	32673	32735	32551	
605	0	32764	32756	32807	32669	32655	32749	32786	32725	
606	0	32804	32838	32801	32751	32745	32804	32815	32645	
607	0	32867	32763	32703	32678	32766	32759	32703	32755	
608	0	32852	32725	32718	32567	32807	32789	32805	32669	
609	0	32886	32711	32604	32727	32820	32671	32796	32787	
610	0	32815	32765	32669	32679	32607	32771	32807	32641	
611	0	32757	32714	32628	32495	32743	32801	32639	32620	
612	0	32732	32754	32775	32551	32675	32677	32687	32734	
613	0	32710	32732	32759	32623	32835	32767	32660	32773	
614	0	32795	32749	32884	32607	32771	32743	32703	32756	
615	0	32761	32789	32803	32690	32815	32751	32759	32703	
616	0	32744	32770	32839	32647	32818	32670	32676	32791	
617	0	32771	32794	32823	32495	32671	32769	32647	32575	
618	0	32775	32879	32595	32459	32665	32711	32742	32627	
619	0	32745	32775	32701	32617	32763	32823	32492	32639	
620	0	32665	32845	32629	32671	32822	32759	32551	32684	
621	0	32722	32855	32827	32675	32717	32799	32619	32634	
622	0	32788	32807	32837	32735	32823	32775	32617	32799	
623	0	32775	32703	32828	32789	32845	32815	32586	32706	
624	0	32764	32821	32775	32642	32687	32797	32647	32703	
625	0	32726	32807	32678	32627	32845	32699	32804	32741	
626	0	32759	32807	32740	32783	32887	32743	32791	32679	
627	0	32703	32821	32617	32687	32863	32663	32643	32599	
628	0	32735	32837	32646	32719	32799	32771	32812	32767	
629	0	32727	32833	32591	32596	32787	32761	32833	32738	
630	0	32713	32735	32694	32503	32775	32817	32807	32749	
631	0	32692	32743	32674	32594	32775	32710	32790	32699	
632	0	32720	32831	32573	32775	32623	32717	32771	32667	
633	0	32694	32747	32714	32719	32751	32734	32875	32638	
634	0	32716	32695	32615	32671	32787	32666	32918	32801	
635	0	32708	32775	32639	32565	32647	32758	32783	32831	
636	0	32709	32775	32495	32727	32749	32735	32798	32804	
637	0	32725	32815	32693	32523	32783	32805	32803	32733	
638	0	32717	32819	32727	32534	32759	32820	32775	32807	
639	0	32815	32834	32735	32679	32612	32704	32775	32783	
640	0	32789	32851	32771	32535	32797	32775	32775	32679	
641	0	32735	32846	32927	32662	32831	32775	32647	32646	
642	0	32756	32735	32735	32699	32836	32743	32541	32535	
643	0	32723	32715	32773	32743	32663	32751	32599	32671	
644	0	32743	32775	32723	32647	32798	32739	32596	32615	
645	0	32757	32775	32679	32611	32794	32727	32711	32685	
646	0	32738	32707	32839	32807	32738	32765	32708	32751	
647	0	32798	32723	32711	32761	32838	32791	32727	32660	
648	0	32799	32719	32845	32810	32759	32719	32713	32717	
649	0	32815	32687	32684	32719	32703	32827	32719	32671	
650	0	32844	32735	32819	32703	32887	32711	32757	32707	
651	0	32799	32819	32733	32836	32775	32826	32756	32700	
652	0	32729	32797	32615	32735	32847	32839	32751	32811	
653	0	32825	32791	32823	32775	32775	32725	32567	32663	
654	0	32762	32767	32756	32555	32637	32711	32541	32551	
655	0	32812	32795	32770	32566	32799	32719	32631	32610	
656	0	32791	32755	32503	32663	32807	32751	32591	32549	
657	0	32765	32671	32647	32607	32681	32813	32615	32643	
658	0	32785	32722	32685	32633	32773	32809	32610	32541	
659	0	32757	32775	32679	32655	32785	32854	32621	32679	
660	0	32791	32759	32673	32549	32589	32743	32607	32581	
661	0	32766	32767	32615	32549	32677	32857	32605	32629	
662	0	32783	32819	32834	32583	32765	32810	32771	32572	
663	0	32781	32807	32727	32679	32831	32807	32767	32703	
664	0	32797	32785	32607	32629	32703	32775	32741	32622	
665	0	32738	32839	32711	32637	32845	32757	32703	32671	
666	0	32721	32743	32677	32731	32827	32783	32731	32548	
667	0	32729	32805	32723	32587	32709	32719	32724	32683	
668	0	32773	32791	32647	32668	32747	32663	32751	32518	
669	0	32823	32831	32719	32639	32819	32703	32790	32743	
670	0	32772	32771	32631	32663	32805	32574	32790	32583	
671	0	32761	32823	32727	32605	32903	32687	32578	32772	
672	0	32764	32863	32818	32516	32719	32647	32591	32655	
673	0	32677	32739	32631	32718	32691	32647	32643	32687	
674	0	32716	32676	32785	32639	32839	32695	32727	32711	
675	0	32766	32687	32743	32796	32805	32717	32902	32783	
676	0	32761	32708	32748	32645	32671	32687	32919	32766	
677	0	32694	32743	32655	32785	32832	32743	32812	32813	
678	0	32785	32755	32755	32735	32705	32766	32729	32646	
679	0	32720	32807	32733	32695	32775	32713	32805	32559	
680	0	32690	32745	32747	32587	32817	32775	32788	32715	
681	0	32743	32719	32775	32591	32621	32773	32775	32645	
682	0	32836	32767	32943	32735	32815	32845	32647	32751	
683	0	32799	32873	32794	32703	32727	32775	32661	32727	
684	0	32818	32787	32759	32775	32763	32775	32607	32775	
685	0	32790	32809	32647	32509	32827	32804	32638	32683	
686	0	32776	32839	32703	32673	32583	32860	32623	32701	
687	0	32789	32767	32858	32687	32645	32851	32605	32575	
688	0	32751	32745	32677	32645	32775	32834	32537	32635	
689	0	32817	32839	32599	32647	32749	32867	32647	32538	
690	0	32821	32749	32655	32706	32773	32859	32647	32628	
691	0	32841	32721	32579	32549	32807	32805	32639	32602	
692	0	32830	32775	32655	32621	32759	32839	32573	32738	
693	0	32775	32793	32615	32605	32719	32823	32647	32807	
694	0	32795	32763	32627	32662	32775	32735	32612	32775	
695	0	32807	32807	32655	32669	32839	32799	32669	32743	
696	0	32807	32775	32527	32566	32702	32647	32695	32709	
697	0	32807	32756	32573	32463	32735	32751	32673	32799	
698	0	32743	32796	32689	32610	32871	32738	32647	32647	
699	0	32731	32775	32791	32749	32807	32799	32679	32727	
700	0	32765	32695	32819	32755	32706	32871	32827	32615	
701	0	32732	32767	32771	32803	32615	32811	32758	32643	
702	0	32719	32903	32735	32919	32726	32853	32815	32602	
703	0	32752	32815	32629	32743	32747	32738	32765	32661	
704	0	32775	32823	32759	32687	32719	32860	32724	32588	
705	0	32782	32829	32855	32621	32803	32835	32771	32726	
706	0	32799	32759	32783	32787	32887	32877	32703	32612	
707	0	32744	32863	32794	32831	32802	32743	32684	32689	
708	0	32725	32767	32736	32719	32603	32700	32679	32506	
709	0	32742	32733	32663	32733	32757	32737	32687	32663	
710	0	32743	32847	32855	32567	32711	32811	32775	32601	
711	0	32701	32788	32644	32503	32785	32683	32879	32749	
712	0	32726	32740	32711	32643	32691	32735	32863	32647	
713	0	32772	32723	32679	32708	32743	32775	32831	32590	
714	0	32791	32751	32807	32566	32803	32689	32796	32775	
715	0	32775	32803	32555	32658	32809	32825	32759	32735	
716	0	32770	32799	32701	32543	32719	32667	32773	32743	
717	0	32789	32751	32646	32613	32874	32793	32690	32754	
718	0	32718	32717	32739	32401	32823	32815	32711	32573	
719	0	32742	32763	32711	32695	32807	32689	32743	32662	
720	0	32729	32825	32730	32671	32796	32811	32759	32749	
721	0	32719	32783	32689	32858	32753	32809	32749	32805	
722	0	32692	32785	32719	32839	32771	32687	32725	32647	
723	0	32817	32763	32669	32801	32727	32735	32730	32619	
724	0	32764	32711	32749	32869	32756	32701	32743	32743	
725	0	32773	32847	32577	32895	32839	32775	32720	32707	
726	0	32700	32743	32639	32658	32767	32735	32753	32773	
727	0	32705	32711	32534	32734	32819	32708	32639	32761	
728	0	32799	32751	32739	32605	32819	32739	32610	32711	
729	0	32773	32793	32739	32668	32660	32677	32647	32695	
730	0	32773	32757	32625	32591	32815	32775	32617	32647	
731	0	32757	32719	32722	32451	32759	32637	32679	32639	
732	0	32706	32702	32647	32634	32764	32763	32736	32549	
733	0	32699	32759	32682	32583	32775	32775	32795	32756	
734	0	32772	32717	32607	32631	32765	32861	32903	32623	
735	0	32797	32787	32711	32683	32815	32815	32879	32700	
736	0	32786	32809	32765	32479	32647	32887	32855	32590	
737	0	32727	32790	32711	32684	32775	32827	32799	32701	
738	0	32675	32819	32701	32687	32855	32786	32724	32581	
739	0	32730	32849	32759	32743	32900	32879	32710	32759	
740	0	32856	32699	32865	32635	32806	32847	32783	32847	
741	0	32839	32763	32660	32647	32815	32842	32773	32724	
742	0	32751	32775	32719	32655	32878	32621	32799	32551	
743	0	32823	32822	32695	32610	32687	32759	32775	32716	
744	0	32799	32823	32727	32719	32855	32723	32599	32699	
745	0	32743	32715	32643	32612	32708	32679	32623	32759	
746	0	32779	32787	32663	32459	32738	32793	32647	32683	
747	0	32793	32751	32798	32623	32822	32753	32637	32674	
748	0	32860	32668	32727	32660	32911	32813	32681	32589	
749	0	32781	32749	32711	32630	32869	32726	32662	32775	
750	0	32759	32795	32639	32711	32668	32796	32647	32764	
751	0	32887	32756	32815	32647	32763	32669	32691	32775	
752	0	32791	32791	32765	32677	32837	32733	32643	32663	
753	0	32719	32837	32719	32775	32799	32699	32659	32687	
754	0	32783	32739	32647	32794	32706	32773	32581	32561	
755	0	32743	32783	32583	32735	32647	32732	32571	32669	
756	0	32756	32799	32764	32702	32756	32855	32573	32591	
757	0	32722	32859	32711	32677	32789	32767	32743	32745	
758	0	32774	32903	32675	32703	32871	32775	32738	32756	
759	0	32742	32735	32839	32625	32811	32647	32767	32643	
760	0	32802	32754	32799	32667	32871	32743	32739	32723	
761	0	32708	32799	32692	32517	32829	32630	32775	32538	
762	0	32724	32794	32717	32495	32641	32759	32746	32703	
763	0	32735	32807	32734	32644	32647	32703	32764	32537	
764	0	32842	32807	32605	32637	32647	32843	32815	32619	
765	0	32775	32743	32675	32749	32591	32703	32709	32514	
766	0	32751	32871	32692	32739	32655	32775	32775	32684	
767	0	32745	32723	32735	32759	32807	32655	32787	32519	
768	0	32756	32631	32791	32647	32807	32815	32751	32658	
769	0	32701	32743	32700	32557	32704	32735	32821	32762	
770	0	32708	32641	32741	32695	32687	32749	32767	32695	
771	0	32714	32775	32681	32749	32723	32698	32775	32656	
772	0	32743	32759	32551	32692	32815	32801	32775	32693	
773	0	32756	32755	32775	32691	32790	32740	32749	32720	
774	0	32720	32810	32775	32739	32775	32695	32811	32711	
775	0	32757	32860	32753	32583	32690	32781	32765	32719	
776	0	32765	32821	32811	32570	32700	32668	32721	32595	
777	0	32855	32841	32703	32751	32775	32799	32759	32701	
778	0	32847	32751	32773	32775	32879	32663	32743	32645	
779	0	32808	32751	32797	32731	32729	32767	32771	32767	
780	0	32794	32831	32607	32743	32739	32679	32772	32587	
781	0	32782	32775	32647	32597	32795	32724	32797	32686	
782	0	32784	32806	32607	32501	32804	32646	32747	32598	
783	0	32738	32819	32683	32591	32620	32783	32726	32722	
784	0	32708	32829	32775	32679	32719	32797	32771	32639	
785	0	32733	32796	32687	32637	32807	32811	32723	32667	
786	0	32725	32843	32743	32694	32812	32785	32759	32495	
787	0	32687	32823	32663	32503	32854	32803	32751	32644	
788	0	32687	32759	32743	32510	32879	32815	32619	32543	
789	0	32749	32758	32679	32594	32855	32783	32623	32647	
790	0	32749	32853	32631	32615	32769	32799	32775	32763	
791	0	32768	32727	32641	32629	32711	32775	32759	32705	
792	0	32825	32775	32647	32711	32675	32725	32772	32681	
793	0	32728	32695	32555	32775	32773	32839	32703	32615	
794	0	32681	32695	32697	32743	32589	32739	32742	32727	
795	0	32743	32700	32695	32791	32701	32839	32859	32767	
796	0	32773	32719	32632	32767	32855	32681	32718	32765	
797	0	32815	32833	32831	32747	32847	32735	32775	32759	
798	0	32742	32789	32799	32731	32775	32775	32797	32571	
799	0	32719	32773	32643	32548	32727	32807	32751	32667	
800	0	32749	32811	32763	32703	32647	32743	32811	32695	
801	0	32763	32749	32761	32601	32704	32824	32862	32745	
802	0	32775	32843	32743	32747	32669	32834	32743	32731	
803	0	32745	32844	32799	32695	32724	32851	32685	32591	
804	0	32780	32764	32725	32739	32669	32789	32892	32517	
805	0	32724	32771	32718	32657	32663	32789	32749	32623	
806	0	32679	32743	32835	32555	32631	32847	32787	32857	
807	0	32793	32791	32877	32711	32812	32851	32807	32766	
808	0	32810	32747	32751	32698	32733	32767	32647	32643	
809	0	32743	32775	32789	32715	32769	32803	32893	32591	
810	0	32749	32740	32784	32681	32730	32805	32790	32647	
811	0	32759	32742	32703	32599	32814	32775	32842	32659	
812	0	32714	32895	32655	32743	32850	32759	32767	32722	
813	0	32756	32839	32730	32711	32831	32803	32689	32742	
814	0	32820	32847	32663	32558	32829	32711	32759	32673	
815	0	32784	32742	32631	32687	32799	32687	32579	32536	
816	0	32785	32692	32638	32583	32789	32775	32804	32623	
817	0	32762	32815	32537	32644	32799	32775	32735	32759	
818	0	32831	32887	32503	32599	32694	32775	32647	32775	
819	0	32797	32803	32599	32745	32671	32835	32775	32815	
820	0	32846	32783	32621	32669	32807	32793	32695	32797	
821	0	32743	32783	32591	32722	32775	32647	32773	32786	
822	0	32764	32775	32718	32485	32759	32713	32595	32785	
823	0	32723	32739	32689	32631	32625	32813	32748	32775	
824	0	32749	32711	32775	32645	32799	32732	32605	32647	
825	0	32751	32695	32818	32516	32847	32751	32767	32797	
826	0	32772	32831	32787	32679	32729	32796	32655	32802	
827	0	32780	32723	32797	32679	32868	32743	32767	32755	
828	0	32765	32725	32791	32694	32747	32687	32743	32694	
829	0	32757	32825	32695	32605	32679	32743	32751	32727	
830	0	32757	32823	32700	32663	32911	32698	32625	32691	
831	0	32710	32727	32742	32661	32837	32783	32607	32653	
832	0	32775	32747	32679	32643	32709	32663	32615	32575	
833	0	32772	32813	32735	32575	32661	32811	32703	32471	
834	0	32730	32829	32703	32740	32799	32817	32823	32687	
835	0	32743	32725	32775	32659	32735	32703	32855	32711	
836	0	32775	32843	32669	32725	32847	32839	32775	32769	
837	0	32771	32863	32815	32791	32787	32739	32822	32588	
838	0	32759	32743	32745	32581	32687	32867	32849	32671	
839	0	32761	32806	32641	32711	32775	32753	32823	32714	
840	0	32771	32819	32719	32724	32799	32775	32775	32757	
841	0	32783	32772	32623	32743	32839	32771	32759	32639	
842	0	32708	32783	32692	32519	32676	32785	32615	32643	
843	0	32726	32739	32673	32691	32876	32804	32699	32767	
844	0	32729	32772	32747	32612	32741	32775	32749	32717	
845	0	32733	32820	32635	32690	32791	32867	32815	32591	
846	0	32781	32807	32685	32518	32703	32671	32893	32615	
847	0	32782	32775	32669	32646	32675	32773	32838	32610	
848	0	32781	32775	32769	32751	32801	32735	32769	32759	
849	0	32743	32734	32733	32703	32772	32815	32775	32734	
850	0	32716	32774	32647	32775	32745	32667	32767	32736	
851	0	32738	32755	32709	32627	32742	32742	32679	32839	
852	0	32729	32831	32703	32583	32613	32766	32591	32598	
853	0	32783	32791	32743	32665	32687	32738	32617	32567	
854	0	32805	32743	32543	32774	32820	32771	32677	32715	
855	0	32813	32740	32727	32519	32815	32755	32831	32709	
856	0	32828	32855	32615	32555	32645	32831	32679	32759	
857	0	32771	32765	32694	32717	32727	32773	32679	32667	
858	0	32767	32731	32759	32647	32743	32826	32775	32775	
859	0	32802	32799	32685	32719	32803	32703	32858	32719	
860	0	32830	32763	32847	32503	32847	32754	32823	32717	
861	0	32764	32743	32703	32482	32853	32718	32731	32541	
862	0	32732	32811	32740	32559	32879	32767	32677	32619	
863	0	32799	32735	32759	32759	32763	32663	32711	32604	
864	0	32791	32687	32708	32735	32797	32815	32703	32687	
865	0	32797	32823	32819	32713	32831	32739	32605	32679	
866	0	32783	32775	32715	32722	32861	32799	32671	32555	
867	0	32790	32773	32603	32782	32767	32749	32647	32639	
868	0	32759	32855	32807	32558	32851	32783	32683	32539	
869	0	32796	32711	32583	32610	32807	32700	32622	32621	
870	0	32792	32831	32660	32755	32611	32797	32647	32583	
871	0	32690	32791	32629	32791	32763	32710	32659	32647	
872	0	32743	32786	32717	32847	32831	32849	32699	32519	
873	0	32713	32823	32733	32646	32759	32742	32703	32715	
874	0	32773	32861	32586	32511	32823	32775	32740	32833	
875	0	32738	32764	32663	32679	32887	32731	32687	32721	
876	0	32705	32743	32700	32711	32705	32745	32775	32695	
877	0	32761	32803	32695	32706	32691	32847	32831	32643	
878	0	32704	32839	32698	32711	32807	32749	32783	32795	
879	0	32707	32751	32610	32470	32775	32869	32765	32799	
880	0	32745	32789	32758	32542	32706	32822	32823	32847	
881	0	32793	32820	32655	32699	32820	32781	32797	32719	
882	0	32765	32775	32733	32674	32631	32663	32807	32623	
883	0	32775	32765	32662	32754	32711	32715	32711	32620	
884	0	32785	32711	32698	32554	32807	32719	32791	32615	
885	0	32775	32751	32675	32538	32823	32707	32819	32700	
886	0	32724	32726	32734	32663	32647	32695	32884	32604	
887	0	32742	32818	32764	32679	32721	32811	32807	32715	
888	0	32720	32789	32583	32655	32707	32786	32807	32727	
889	0	32749	32735	32724	32758	32631	32807	32807	32695	
890	0	32740	32735	32790	32524	32775	32827	32799	32756	
891	0	32690	32804	32823	32715	32723	32770	32851	32738	
892	0	32635	32821	32751	32699	32756	32757	32773	32621	
893	0	32701	32721	32642	32663	32809	32679	32733	32700	
894	0	32790	32723	32831	32477	32679	32823	32727	32555	
895	0	32775	32734	32693	32702	32863	32699	32716	32647	
896	0	32782	32815	32751	32698	32787	32769	32591	32655	
897	0	32793	32749	32634	32679	32836	32827	32607	32695	
898	0	32855	32738	32759	32477	32850	32790	32719	32745	
899	0	32873	32807	32673	32695	32685	32804	32801	32786	
900	0	32874	32829	32741	32738	32739	32679	32813	32733	
901	0	32831	32713	32755	32741	32843	32756	32852	32647	
902	0	32868	32789	32677	32825	32751	32690	32886	32612	
903	0	32774	32775	32719	32831	32843	32739	32890	32666	
904	0	32785	32767	32679	32551	32739	32707	32823	32555	
905	0	32703	32796	32811	32565	32663	32787	32839	32638	
906	0	32773	32807	32804	32652	32795	32711	32831	32751	
907	0	32735	32733	32690	32663	32759	32786	32806	32692	
908	0	32758	32647	32590	32687	32846	32799	32770	32615	
909	0	32745	32727	32721	32543	32725	32690	32642	32668	
910	0	32741	32732	32751	32580	32692	32831	32602	32615	
911	0	32766	32743	32645	32757	32757	32669	32621	32655	
912	0	32758	32705	32647	32647	32812	32734	32631	32812	
913	0	32820	32807	32647	32729	32763	32659	32743	32717	
914	0	32813	32823	32755	32555	32805	32759	32843	32682	
915	0	32709	32772	32663	32621	32642	32719	32759	32659	
916	0	32789	32751	32721	32647	32771	32756	32727	32570	
917	0	32729	32809	32615	32684	32726	32693	32743	32591	
918	0	32636	32827	32703	32587	32757	32684	32786	32562	
919	0	32696	32775	32671	32482	32741	32801	32671	32675	
920	0	32753	32751	32833	32727	32599	32823	32615	32583	
921	0	32647	32797	32870	32754	32799	32883	32637	32717	
922	0	32702	32847	32815	32575	32731	32754	32660	32739	
923	0	32728	32796	32783	32615	32798	32783	32815	32632	
924	0	32771	32735	32719	32711	32775	32727	32844	32691	
925	0	32791	32829	32690	32667	32647	32803	32767	32813	
926	0	32701	32793	32605	32705	32729	32691	32759	32703	
927	0	32762	32757	32692	32623	32869	32783	32807	32590	
928	0	32742	32767	32551	32679	32709	32687	32823	32631	
929	0	32711	32823	32711	32739	32723	32767	32765	32541	
930	0	32734	32765	32605	32699	32759	32726	32805	32690	
931	0	32685	32724	32710	32709	32678	32757	32809	32627	
932	0	32766	32819	32815	32646	32775	32608	32813	32674	
933	0	32794	32827	32692	32535	32837	32743	32839	32775	
934	0	32719	32742	32783	32690	32759	32713	32749	32679	
935	0	32873	32711	32687	32671	32831	32809	32807	32745	
936	0	32860	32789	32647	32718	32783	32775	32847	32583	
937	0	32771	32774	32693	32763	32841	32823	32801	32683	
938	0	32813	32775	32591	32655	32787	32711	32759	32620	
939	0	32691	32831	32799	32557	32647	32843	32826	32661	
940	0	32724	32727	32799	32499	32701	32819	32870	32639	
941	0	32798	32831	32711	32738	32859	32774	32847	32711	
942	0	32736	32823	32786	32719	32759	32806	32903	32647	
943	0	32761	32775	32647	32753	32819	32783	32842	32687	
944	0	32686	32727	32790	32498	32635	32711	32847	32719	
945	0	32745	32773	32717	32690	32895	32797	32843	32783	
946	0	32804	32791	32771	32695	32828	32722	32797	32731	
947	0	32812	32823	32615	32751	32829	32769	32773	32791	
948	0	32735	32795	32734	32591	32742	32747	32647	32610	
949	0	32749	32721	32748	32735	32742	32783	32663	32583	
950	0	32803	32665	32668	32671	32807	32718	32661	32631	
951	0	32886	32844	32739	32603	32772	32775	32635	32717	
952	0	32790	32771	32660	32525	32799	32787	32727	32615	
953	0	32756	32743	32735	32495	32679	32751	32719	32743	
954	0	32767	32773	32647	32723	32660	32807	32798	32715	
955	0	32708	32811	32683	32677	32873	32670	32789	32630	
956	0	32759	32774	32647	32575	32837	32711	32763	32731	
957	0	32751	32727	32516	32723	32741	32804	32621	32711	
958	0	32751	32732	32436	32681	32601	32743	32751	32743	
959	0	32724	32734	32503	32565	32759	32738	32583	32727	
960	0	32751	32923	32715	32679	32647	32775	32867	32676	
961	0	32802	32815	32791	32588	32742	32775	32710	32641	
962	0	32835	32815	32879	32751	32663	32817	32645	32703	
963	0	32788	32715	32647	32753	32791	32845	32725	32703	
964	0	32728	32745	32726	32575	32791	32788	32564	32609	
965	0	32790	32766	32713	32773	32831	32804	32773	32505	
966	0	32812	32764	32749	32668	32863	32834	32767	32596	
967	0	32799	32709	32703	32614	32903	32727	32759	32607	
968	0	32767	32858	32724	32637	32725	32687	32726	32548	
969	0	32772	32815	32690	32631	32659	32673	32727	32610	
970	0	32796	32749	32725	32628	32735	32751	32737	32637	
971	0	32800	32723	32804	32647	32804	32807	32607	32511	
972	0	32819	32835	32813	32605	32783	32775	32775	32509	
973	0	32710	32747	32731	32700	32731	32731	32543	32807	
974	0	32687	32734	32628	32749	32647	32799	32863	32769	
975	0	32675	32691	32743	32643	32775	32820	32813	32699	
976	0	32719	32767	32775	32653	32703	32819	32805	32719	
977	0	32711	32827	32725	32737	32849	32805	32796	32631	
978	0	32743	32775	32631	32645	32831	32837	32767	32647	
979	0	32683	32743	32765	32647	32829	32802	32791	32615	
980	0	32754	32751	32748	32694	32717	32821	32656	32583	
981	0	32803	32757	32711	32687	32583	32758	32799	32573	
982	0	32828	32751	32679	32732	32823	32678	32611	32519	
983	0	32812	32673	32671	32517	32745	32709	32899	32743	
984	0	32852	32749	32735	32655	32787	32666	32827	32671	
985	0	32797	32756	32727	32602	32695	32676	32692	32703	
986	0	32831	32847	32723	32645	32820	32667	32815	32579	
987	0	32836	32764	32621	32629	32727	32647	32658	32564	
988	0	32802	32759	32551	32538	32815	32715	32816	32514	
989	0	32807	32775	32572	32717	32739	32819	32593	32535	
990	0	32736	32743	32612	32659	32734	32751	32845	32574	
991	0	32743	32797	32589	32655	32815	32775	32679	32555	
992	0	32807	32702	32615	32738	32773	32756	32751	32791	
993	0	32850	32845	32755	32756	32678	32839	32598	32835	
994	0	32679	32788	32755	32703	32692	32813	32787	32817	
995	0	32744	32804	32719	32804	32671	32692	32633	32717	
996	0	32769	32751	32719	32819	32773	32685	32863	32679	
997	0	32762	32846	32798	32683	32811	32699	32591	32637	
998	0	32724	32775	32791	32794	32799	32607	32879	32775	
999	0	32725	32771	32757	32807	32837	32647	32753	32742	
1000	0	32740	32713	32759	32537	32775	32767	32859	32731	
1001	0	32786	32826	32783	32684	32751	32871	32767	32673	
1002	0	32745	32822	32829	32661	32775	32803	32705	32506	
1003	0	32791	32783	32775	32670	32685	32788	32767	32691	
1004	0	32781	32829	32663	32655	32807	32839	32839	32758	
1005	0	32775	32854	32643	32695	32833	32751	32853	32711	
1006	0	32808	32747	32719	32642	32694	32811	32823	32804	
1007	0	32771	32815	32590	32479	32743	32710	32809	32703	
1008	0	32747	32805	32723	32691	32773	32775	32843	32791	
1009	0	32763	32821	32583	32655	32623	32735	32743	32725	
1010	0	32758	32787	32715	32719	32603	32815	32695	32762	
1011	0	32743	32771	32751	32764	32771	32827	32677	32637	
1012	0	32775	32804	32703	32581	32813	32695	32719	32765	
1013	0	32758	32783	32739	32756	32693	32797	32739	32661	
1014	0	32788	32785	32637	32669	32775	32772	32719	32759	
1015	0	32759	32842	32775	32655	32799	32797	32761	32597	
1016	0	32727	32673	32767	32687	32769	32786	32727	32679	
1017	0	32745	32767	32717	32511	32655	32708	32765	32546	
1018	0	32723	32831	32715	32487	32827	32803	32567	32663	
1019	0	32718	32738	32695	32607	32759	32775	32507	32551	
1020	0	32735	32759	32723	32677	32791	32834	32579	32722	
1021	0	32732	32763	32723	32655	32726	32782	32563	32807	
1022	0	32752	32775	32719	32647	32809	32834	32541	32719	
1023	0	32728	32775	32775	32727	32847	32721	32575	32786	
1024	0	32663	32788	32723	32775	32854	32775	32551	32747	
1025	0	32807	32775	32629	32595	32630	32715	32647	32775	
1026	0	32731	32838	32727	32599	32710	32775	32599	32710	
1027	0	32795	32770	32647	32683	32855	32767	32662	32675	
1028	0	32796	32775	32685	32733	32815	32785	32677	32490	
1029	0	32750	32869	32711	32715	32737	32711	32711	32621	
1030	0	32751	32735	32712	32687	32763	32799	32791	32547	
1031	0	32710	32647	32647	32611	32775	32775	32797	32727	
1032	0	32706	32819	32571	32596	32623	32681	32751	32551	
1033	0	32766	32775	32767	32594	32738	32747	32817	32631	
1034	0	32700	32677	32803	32711	32891	32647	32807	32567	
1035	0	32751	32785	32847	32710	32855	32765	32812	32701	
1036	0	32813	32753	32685	32731	32804	32758	32643	32635	
1037	0	32806	32807	32723	32570	32631	32703	32647	32711	
1038	0	32804	32751	32588	32621	32879	32709	32679	32717	
1039	0	32811	32759	32663	32724	32787	32819	32631	32791	
1040	0	32871	32806	32743	32639	32839	32692	32647	32687	
1041	0	32766	32753	32669	32709	32831	32799	32674	32775	
1042	0	32781	32742	32786	32529	32791	32655	32733	32643	
1043	0	32797	32740	32671	32595	32755	32722	32859	32673	
1044	0	32692	32830	32703	32596	32847	32775	32903	32594	
1045	0	32692	32719	32645	32671	32711	32710	32943	32751	
1046	0	32759	32687	32791	32557	32822	32783	32895	32639	
1047	0	32764	32711	32668	32541	32655	32729	32847	32546	
1048	0	32745	32793	32639	32727	32695	32725	32795	32607	
1049	0	32762	32711	32731	32711	32799	32743	32733	32475	
1050	0	32778	32807	32727	32742	32687	32741	32767	32647	
1051	0	32695	32775	32782	32583	32786	32729	32749	32695	
1052	0	32783	32775	32675	32719	32644	32775	32773	32733	
1053	0	32804	32685	32845	32679	32850	32820	32759	32647	
1054	0	32809	32771	32607	32691	32803	32887	32591	32691	
1055	0	32851	32773	32692	32582	32775	32727	32677	32675	
1056	0	32873	32813	32735	32503	32855	32759	32626	32807	
1057	0	32864	32721	32703	32597	32935	32767	32788	32718	
1058	0	32774	32922	32706	32683	32821	32799	32847	32785	
1059	0	32759	32785	32621	32742	32659	32825	32759	32685	
1060	0	32766	32775	32815	32787	32659	32887	32759	32751	
1061	0	32753	32903	32839	32858	32678	32739	32786	32502	
1062	0	32798	32739	32739	32711	32697	32756	32727	32675	
1063	0	32743	32759	32791	32599	32804	32749	32647	32642	
1064	0	32691	32818	32738	32775	32751	32731	32622	32751	
1065	0	32723	32790	32743	32703	32703	32807	32665	32669	
1066	0	32727	32727	32731	32786	32738	32679	32581	32699	
1067	0	32793	32735	32703	32628	32701	32785	32607	32775	
1068	0	32743	32763	32668	32551	32775	32773	32635	32772	
1069	0	32742	32749	32555	32758	32746	32763	32660	32591	
1070	0	32742	32727	32607	32655	32796	32703	32671	32535	
1071	0	32790	32839	32602	32719	32775	32695	32671	32743	
1072	0	32815	32815	32647	32583	32851	32735	32659	32566	
1073	0	32735	32745	32660	32503	32699	32735	32582	32605	
1074	0	32818	32733	32610	32751	32775	32765	32634	32561	
1075	0	32780	32766	32788	32739	32791	32844	32662	32697	
1076	0	32775	32795	32663	32607	32727	32719	32831	32541	
1077	0	32771	32789	32925	32643	32845	32819	32903	32701	
1078	0	32858	32767	32706	32677	32679	32839	32823	32636	
1079	0	32833	32743	32698	32559	32731	32715	32783	32727	
1080	0	32745	32813	32709	32687	32819	32834	32797	32719	
1081	0	32771	32823	32819	32532	32703	32823	32789	32815	
1082	0	32775	32834	32775	32700	32799	32703	32809	32765	
1083	0	32688	32799	32787	32742	32652	32773	32831	32679	
1084	0	32649	32831	32641	32563	32973	32775	32811	32655	
1085	0	32781	32801	32811	32691	32817	32667	32823	32646	
1086	0	32808	32739	32838	32687	32861	32807	32743	32679	
1087	0	32731	32827	32756	32791	32763	32783	32761	32564	
1088	0	32772	32869	32737	32854	32727	32691	32743	32623	
1089	0	32846	32775	32607	32615	32791	32791	32735	32598	
1090	0	32829	32718	32643	32775	32842	32759	32798	32705	
1091	0	32796	32743	32524	32759	32871	32669	32594	32583	
1092	0	32773	32775	32594	32573	32639	32751	32639	32661	
1093	0	32859	32743	32589	32546	32687	32815	32593	32505	
1094	0	32814	32713	32671	32667	32764	32722	32719	32671	
1095	0	32802	32687	32771	32617	32659	32801	32719	32503	
1096	0	32736	32731	32558	32691	32681	32775	32615	32692	
1097	0	32720	32762	32709	32507	32692	32823	32695	32761	
1098	0	32779	32709	32599	32661	32719	32835	32773	32775	
1099	0	32732	32769	32707	32703	32775	32707	32880	32718	
1100	0	32660	32786	32638	32747	32715	32783	32804	32733	
1101	0	32695	32775	32775	32719	32818	32795	32831	32695	
1102	0	32775	32797	32655	32575	32759	32629	32787	32647	
1103	0	32713	32811	32671	32647	32642	32743	32804	32690	
1104	0	32710	32775	32647	32707	32643	32587	32869	32823	
1105	0	32717	32798	32591	32646	32629	32694	32927	32706	
1106	0	32690	32799	32847	32719	32833	32783	32799	32701	
1107	0	32812	32795	32829	32559	32775	32715	32786	32691	
1108	0	32713	32763	32806	32613	32827	32727	32765	32731	
1109	0	32726	32766	32813	32635	32708	32789	32733	32732	
1110	0	32735	32807	32685	32743	32681	32843	32722	32745	
1111	0	32718	32742	32727	32741	32839	32901	32751	32655	
1112	0	32781	32807	32685	32455	32775	32727	32759	32750	
1113	0	32736	32891	32725	32564	32807	32767	32767	32763	
1114	0	32758	32791	32655	32665	32801	32847	32765	32807	
1115	0	32765	32831	32655	32635	32791	32710	32631	32647	
1116	0	32742	32863	32695	32647	32711	32812	32822	32759	
1117	0	32764	32805	32607	32743	32699	32661	32793	32551	
1118	0	32791	32695	32743	32621	32847	32731	32786	32700	
1119	0	32839	32855	32647	32488	32833	32646	32555	32547	
1120	0	32799	32732	32671	32764	32831	32761	32557	32759	
1121	0	32780	32725	32747	32806	32759	32847	32549	32621	
1122	0	32787	32789	32749	32739	32831	32821	32742	32610	
1123	0	32764	32738	32773	32671	32711	32829	32727	32663	
1124	0	32719	32709	32721	32735	32597	32839	32743	32519	
1125	0	32742	32691	32678	32711	32711	32863	32783	32609	
1126	0	32759	32710	32799	32607	32797	32715	32575	32639	
1127	0	32822	32669	32839	32759	32831	32791	32631	32623	
1128	0	32751	32785	32804	32834	32871	32755	32602	32676	
1129	0	32743	32847	32716	32767	32667	32815	32631	32757	
1130	0	32804	32839	32535	32711	32607	32739	32671	32709	
1131	0	32769	32807	32587	32551	32815	32809	32723	32754	
1132	0	32805	32813	32529	32499	32743	32708	32823	32674	
1133	0	32796	32821	32727	32623	32797	32673	32837	32589	
1134	0	32810	32808	32703	32647	32639	32697	32756	32689	
1135	0	32783	32775	32871	32676	32655	32775	32826	32623	
1136	0	32790	32825	32841	32743	32639	32663	32799	32646	
1137	0	32757	32689	32881	32559	32751	32810	32787	32615	
1138	0	32736	32733	32775	32573	32756	32757	32783	32693	
1139	0	32781	32828	32615	32722	32876	32791	32843	32689	
1140	0	32738	32770	32679	32725	32772	32771	32759	32677	
1141	0	32794	32799	32603	32719	32751	32709	32818	32759	
1142	0	32727	32807	32603	32701	32823	32837	32775	32709	
1143	0	32763	32839	32663	32459	32813	32699	32759	32783	
1144	0	32767	32739	32687	32576	32883	32823	32847	32735	
1145	0	32847	32703	32804	32673	32671	32813	32767	32817	
1146	0	32762	32771	32691	32601	32859	32831	32569	32690	
1147	0	32753	32755	32709	32695	32807	32822	32692	32575	
1148	0	32766	32815	32599	32500	32851	32711	32765	32719	
1149	0	32774	32751	32657	32613	32679	32773	32887	32638	
1150	0	32748	32799	32579	32647	32747	32757	32835	32775	
1151	0	32724	32795	32674	32686	32847	32711	32775	32663	
1152	0	32734	32827	32730	32579	32761	32772	32735	32793	
1153	0	32710	32723	32684	32564	32835	32839	32771	32775	
1154	0	32660	32823	32677	32743	32787	32769	32563	32758	
1155	0	32665	32839	32549	32671	32630	32763	32592	32621	
1156	0	32763	32849	32655	32711	32642	32701	32597	32735	
1157	0	32754	32735	32599	32751	32790	32803	32658	32717	
1158	0	32700	32799	32663	32663	32753	32791	32658	32599	
1159	0	32767	32807	32647	32546	32631	32795	32604	32681	
1160	0	32860	32803	32765	32735	32764	32671	32647	32773	
1161	0	32764	32823	32727	32743	32647	32759	32719	32717	
1162	0	32788	32845	32684	32815	32619	32850	32623	32823	
1163	0	32732	32915	32833	32659	32839	32761	32735	32783	
1164	0	32871	32799	32625	32583	32743	32751	32743	32875	
1165	0	32870	32845	32647	32727	32671	32730	32709	32815	
1166	0	32829	32839	32683	32751	32830	32851	32695	32860	
1167	0	32775	32795	32621	32751	32855	32833	32775	32807	
1168	0	32730	32797	32679	32724	32709	32885	32743	32891	
1169	0	32570	32839	32735	32795	32557	32783	32719	32757	
1170	0	32732	32755	32759	32617	32639	32743	32799	32822	
1171	0	32857	32785	32960	32719	32732	32738	32785	32727	
1172	0	32786	32820	33003	32833	32679	32735	32787	32621	
1173	0	32740	32759	32919	32727	32820	32715	32763	32686	
1174	0	32704	32735	32594	32715	32676	32695	32711	32607	
1175	0	32626	32799	32671	32646	32541	32748	32679	32684	
1176	0	32667	32815	32582	32391	32587	32815	32645	32621	
1177	0	32637	32695	32871	32403	32796	32663	32699	32643	
1178	0	32640	32743	32920	32479	32797	32855	32706	32527	
1179	0	32614	32739	32755	32420	32615	32699	32647	32711	
1180	0	32601	32797	32933	32439	32700	32743	32613	32643	
1181	0	32593	32659	32775	32372	32694	32811	32533	32711	
1182	0	32551	32645	32809	32309	32623	32762	32347	32635	
1183	0	32543	32643	32909	32531	32492	32843	32367	32660	
1184	0	32573	32645	32857	32458	32679	32662	32479	32691	
1185	0	32605	32615	32711	32519	32684	32723	32587	32743	
1186	0	32665	32531	32815	32387	32639	32715	32627	32617	
1187	0	32706	32547	32839	32449	32743	32687	32562	32647	
1188	0	32712	32630	33011	32579	32811	32667	32579	32662	
1189	0	32694	32495	32957	32517	32675	32516	32669	32679	
1190	0	32703	32571	32639	32570	32847	32675	32647	32719	
1191	0	32681	32644	32879	32490	32717	32706	32575	32613	
1192	0	32740	32591	32691	32374	32763	32727	32629	32507	
1193	0	32811	32647	32895	32596	32781	32765	32605	32463	
1194	0	32742	32679	32719	32613	32637	32711	32635	32571	
1195	0	32775	32747	32621	32761	32868	32767	32775	32742	
1196	0	32751	32743	32538	32533	32829	32761	33086	32694	
1197	0	32832	32831	32695	32788	32895	32767	33042	32727	
1198	0	32873	32885	32641	32783	32807	32759	32954	32637	
1199	0	33010	32870	32647	32724	32811	32669	32959	32623	
1200	0	33011	32902	32562	32615	32922	32739	33118	32803	
1201	0	32963	32887	32454	32730	32879	32831	33027	32775	
1202	0	32985	32871	32439	32972	32903	32885	33043	32756	
1203	0	33016	32919	32370	33031	32999	32799	33005	32318	
1204	0	33095	32903	32373	33119	32927	32727	33089	32423	
1205	0	33172	32877	32322	32937	32959	32743	33135	32603	
1206	0	33177	32877	32426	32875	33215	32727	33335	32485	
1207	0	33320	32837	32381	33151	33439	32637	33447	32486	
1208	0	33349	32822	32276	33189	33431	32630	33527	32349	
1209	0	33262	32767	32391	33127	33287	32595	33467	32485	
1210	0	33197	32829	32420	32979	33239	32639	33427	32579	
1211	0	33257	32735	32400	33042	33220	32658	33367	32494	
1212	0	33222	32749	32350	33051	33281	32646	33471	32435	
1213	0	33167	32919	32347	33122	33299	32623	33501	32306	
1214	0	32999	32839	32391	32967	33142	32775	33327	32607	
1215	0	32867	32935	32503	32763	33046	32739	33054	32828	
1216	0	32676	32870	32594	32743	32895	32812	32867	32686	
1217	0	32609	32775	32671	32735	32635	32866	32726	32683	
1218	0	32543	32918	32863	32711	32578	32843	32603	32805	
1219	0	32451	32922	32876	32863	32629	32855	32380	32595	
1220	0	32427	32841	32990	32579	32487	32885	32271	32841	
1221	0	32491	32757	32957	32743	32453	32889	32239	32775	
1222	0	32493	32855	33050	32620	32439	32929	32199	32943	
1223	0	32460	32921	32870	32486	32361	32815	32263	32971	
1224	0	32444	32769	33007	32391	32474	32871	32333	32879	
1225	0	32476	32786	32957	32191	32383	32839	32315	33055	
1226	0	32427	32721	33052	32391	32390	32806	32163	32963	
1227	0	32396	32799	32869	32375	32429	32915	32201	32923	
1228	0	32391	32787	32891	32535	32335	32731	32199	32855	
1229	0	32475	32757	32967	32433	32415	32871	32276	32773	
1230	0	32583	32807	32966	32429	32487	32817	32325	32763	
1231	0	32562	32854	32895	32455	32559	32877	32335	32847	
1232	0	32543	32819	32871	32614	32567	32727	32251	32871	
1233	0	32581	32939	32805	32619	32487	32813	32415	32863	
1234	0	32611	32847	32775	32605	32540	32817	32491	32743	
1235	0	32567	32818	32637	32731	32615	32885	32483	32829	
1236	0	32694	32772	32727	32603	32691	32815	32534	32667	
1237	0	32730	32747	32638	32490	32564	32829	32575	32831	
1238	0	32698	32765	32749	32639	32621	32829	32567	32681	
1239	0	32687	32812	32775	32705	32735	32815	32631	32735	
1240	0	32828	32726	32647	32711	32807	32775	32735	32532	
1241	0	32809	32733	32727	32633	32855	32775	32827	32628	
1242	0	32845	32807	32567	32695	32756	32819	32885	32562	
1243	0	32817	32743	32643	32599	32903	32687	32919	32628	
1244	0	32853	32675	32633	32550	32807	32731	32822	32519	
1245	0	32815	32709	32635	32714	32735	32679	32831	32679	
1246	0	32775	32763	32721	32690	32941	32727	32639	32521	
1247	0	32836	32641	32707	32727	32881	32703	32677	32642	
1248	0	32836	32682	32775	32764	32762	32782	32722	32702	
1249	0	32797	32767	32692	32495	32893	32783	32695	32647	
1250	0	32823	32639	32637	32596	32909	32816	32751	32679	
1251	0	32833	32725	32735	32665	32887	32775	32775	32575	
1252	0	32799	32754	32609	32687	32745	32806	32795	32645	
1253	0	32790	32751	32717	32647	32689	32815	32747	32532	
1254	0	32841	32719	32735	32663	32857	32791	32743	32615	
1255	0	32790	32799	32631	32643	32828	32719	32647	32757	
1256	0	32743	32695	32714	32594	32803	32647	32679	32647	
1257	0	32809	32775	32743	32466	32773	32743	32701	32663	
1258	0	32795	32745	32607	32455	32775	32646	32684	32603	
1259	0	32698	32741	32667	32646	32839	32775	32703	32684	
1260	0	32743	32756	32631	32751	32831	32679	32647	32575	
1261	0	32775	32839	32809	32751	32647	32763	32519	32647	
1262	0	32787	32755	32715	32783	32687	32655	32634	32543	
1263	0	32837	32742	32871	32775	32863	32775	32669	32681	
1264	0	32843	32799	32927	32627	32775	32775	32671	32583	
1265	0	32881	32727	32823	32593	32690	32775	32643	32719	
1266	0	32854	32740	32791	32633	32645	32695	32647	32557	
1267	0	32808	32828	32773	32691	32805	32815	32579	32663	
1268	0	32850	32775	32559	32701	32815	32699	32759	32717	
1269	0	32869	32807	32671	32743	32767	32831	32834	32636	
1270	0	32865	32749	32670	32733	32773	32683	32855	32647	
1271	0	32767	32827	32607	32746	32801	32767	32757	32543	
1272	0	32684	32847	32525	32846	32759	32703	32743	32631	
1273	0	32642	32847	32891	32819	32713	32773	32775	32606	
1274	0	32668	32850	33082	32735	32627	32761	32807	32751	
1275	0	32647	32839	32951	32677	32675	32839	32797	32710	
1276	0	32658	32724	32919	32775	32791	32771	32775	32771	
1277	0	32756	32775	32741	32737	32885	32802	32798	32692	
1278	0	32758	32725	32644	32638	32831	32759	32847	32556	
1279	0	32741	32807	32715	32637	32863	32723	32799	32685	
1280	0	32727	32789	32703	32654	32861	32748	32791	32751	
1281	0	32737	32793	32583	32711	32909	32707	32669	32531	
1282	0	32727	32831	32701	32795	32753	32787	32687	32680	
1283	0	32772	32711	32631	32527	32751	32733	32739	32746	
1284	0	32775	32839	32583	32679	32850	32763	32723	32647	
1285	0	32804	32785	32715	32663	32839	32676	32677	32500	
1286	0	32739	32723	32735	32559	32732	32695	32847	32571	
1287	0	32802	32729	32727	32543	32711	32730	32660	32737	
1288	0	32775	32738	32701	32495	32823	32753	32815	32679	
1289	0	32762	32791	32587	32615	32647	32795	32723	32685	
1290	0	32815	32765	32679	32683	32767	32741	32860	32747	
1291	0	32748	32775	32711	32559	32703	32749	32735	32807	
1292	0	32765	32719	32786	32641	32853	32735	32812	32749	
1293	0	32743	32827	32670	32667	32863	32671	32759	32645	
1294	0	32728	32817	32654	32598	32831	32743	32735	32551	
1295	0	32773	32775	32775	32697	32787	32765	32775	32571	
1296	0	32677	32754	32739	32559	32646	32684	32671	32573	
1297	0	32703	32791	32609	32739	32780	32737	32807	32619	
1298	0	32760	32799	32575	32695	32767	32719	32567	32733	
1299	0	32791	32807	32726	32732	32670	32719	32726	32666	
1300	0	32802	32859	32615	32507	32749	32771	32821	32567	
1301	0	32788	32771	32694	32599	32769	32715	32839	32677	
1302	0	32780	32831	32647	32647	32647	32795	32807	32535	
1303	0	32754	32801	32746	32663	32858	32700	32871	32627	
1304	0	32647	32795	32741	32662	32803	32741	32775	32551	
1305	0	32711	32807	32673	32436	32845	32702	32877	32615	
1306	0	32740	32815	32677	32647	32757	32775	32679	32626	
1307	0	32789	32799	32567	32551	32660	32775	32633	32679	
1308	0	32772	32743	32667	32703	32835	32695	32567	32512	
1309	0	32762	32749	32620	32559	32733	32813	32647	32691	
1310	0	32800	32644	32755	32716	32804	32802	32709	32711	
1311	0	32804	32775	32590	32820	32735	32775	32775	32773	
1312	0	32817	32831	32623	32845	32639	32802	32876	32739	
1313	0	32775	32745	32671	32877	32835	32711	32867	32771	
1314	0	32797	32731	32615	32823	32866	32850	32933	32588	
1315	0	32742	32743	32803	32903	32791	32807	32773	32516	
1316	0	32743	32775	32775	32721	32694	32772	32847	32613	
1317	0	32742	32871	32866	32821	32735	32791	32762	32533	
1318	0	32786	32804	32911	32791	32786	32727	32809	32663	
1319	0	32782	32775	32845	32553	32851	32795	32761	32863	
1320	0	32824	32757	32748	32655	32671	32833	32706	32763	
1321	0	32775	32851	32647	32597	32771	32795	32775	32719	
1322	0	32813	32749	32567	32671	32771	32794	32617	32692	
1323	0	32794	32707	32658	32643	32743	32756	32823	32694	
1324	0	32725	32733	32687	32451	32787	32756	32636	32621	
1325	0	32779	32709	32743	32637	32647	32732	32853	32658	
1326	0	32755	32767	32751	32595	32719	32775	32766	32619	
1327	0	32676	32723	32599	32663	32775	32787	32645	32590	
1328	0	32742	32742	32541	32676	32867	32754	32810	32625	
1329	0	32724	32739	32557	32543	32827	32714	32581	32617	
1330	0	32673	32749	32636	32723	32671	32738	32836	32638	
1331	0	32722	32693	32743	32759	32785	32771	32595	32717	
1332	0	32742	32766	32771	32578	32765	32735	32749	32691	
1333	0	32774	32818	32719	32751	32636	32709	32647	32722	
1334	0	32742	32749	32759	32679	32839	32709	32723	32767	
1335	0	32775	32771	32743	32559	32847	32725	32527	32658	
1336	0	32700	32839	32773	32721	32666	32719	32785	32661	
1337	0	32748	32879	32756	32763	32847	32727	32662	32655	
1338	0	32742	32871	32745	32589	32829	32711	32711	32721	
1339	0	32809	32695	32655	32701	32823	32749	32718	32639	
1340	0	32711	32847	32635	32687	32773	32878	32667	32687	
1341	0	32839	32798	32591	32571	32751	32797	32735	32756	
1342	0	32756	32742	32677	32751	32823	32797	32578	32717	
1343	0	32809	32732	32727	32727	32740	32743	32912	32683	
1344	0	32751	32781	32755	32550	32615	32741	32743	32673	
1345	0	32832	32748	32812	32684	32692	32867	32679	32579	
1346	0	32796	32749	32711	32655	32681	32845	32804	32595	
1347	0	32732	32677	32615	32628	32871	32823	32693	32587	
1348	0	32765	32719	32647	32623	32871	32803	32938	32551	
1349	0	32708	32751	32751	32467	32783	32775	32775	32535	
1350	0	32751	32815	32787	32685	32825	32812	32630	32747	
1351	0	32725	32775	32757	32671	32663	32769	32703	32775	
1352	0	32750	32749	32751	32601	32765	32759	32596	32823	
1353	0	32724	32709	32643	32681	32537	32763	32813	32703	
1354	0	32748	32789	32671	32540	32699	32774	32790	32738	
1355	0	32721	32795	32839	32673	32787	32775	32767	32737	
1356	0	32705	32806	32748	32663	32772	32751	32767	32631	
1357	0	32732	32773	32797	32543	32850	32738	32607	32697	
1358	0	32793	32839	32767	32639	32831	32717	32845	32677	
1359	0	32797	32759	32679	32575	32823	32791	32773	32540	
1360	0	32757	32786	32668	32713	32821	32837	32631	32771	
1361	0	32791	32901	32679	32725	32742	32799	32791	32716	
1362	0	32757	32838	32811	32572	32683	32798	32630	32542	
1363	0	32827	32773	32820	32719	32813	32727	32869	32647	
1364	0	32839	32703	32703	32694	32703	32719	32747	32519	
1365	0	32838	32684	32811	32790	32787	32719	32647	32711	
1366	0	32777	32775	32684	32745	32765	32647	32719	32679	
1367	0	32721	32821	32629	32591	32861	32695	32643	32715	
1368	0	32802	32755	32631	32631	32847	32793	32831	32749	
1369	0	32759	32749	32628	32683	32748	32786	32737	32727	
1370	0	32808	32721	32647	32540	32771	32671	32716	32684	
1371	0	32788	32743	32613	32615	32686	32694	32799	32731	
1372	0	32748	32827	32733	32559	32739	32686	32645	32665	
1373	0	32677	32839	32742	32709	32645	32711	32845	32555	
1374	0	32753	32807	32695	32706	32801	32711	32795	32595	
1375	0	32797	32823	32663	32703	32634	32619	32611	32758	
1376	0	32767	32791	32676	32715	32787	32659	32836	32663	
1377	0	32735	32763	32695	32607	32833	32687	32599	32574	
1378	0	32679	32791	32743	32773	32743	32765	32851	32601	
1379	0	32679	32753	32735	32759	32740	32791	32703	32623	
1380	0	32724	32753	32743	32609	32647	32789	32643	32723	
1381	0	32780	32751	32767	32663	32711	32775	32743	32643	
1382	0	32765	32767	32768	32663	32747	32891	32612	32580	
1383	0	32839	32775	32620	32775	32783	32785	32861	32817	
1384	0	32749	32763	32548	32647	32677	32842	32647	32647	
1385	0	32750	32735	32615	32671	32641	32815	32882	32823	
1386	0	32791	32783	32686	32578	32829	32722	32839	32787	
1387	0	32786	32815	32916	32637	32763	32711	32911	32798	
1388	0	32816	32735	32823	32589	32697	32722	32769	32711	
1389	0	32750	32725	32730	32747	32775	32711	32623	32708	
1390	0	32790	32836	32683	32807	32787	32663	32810	32681	
1391	0	32783	32887	32715	32578	32791	32607	32807	32667	
1392	0	32785	32775	32646	32631	32803	32627	32873	32647	
1393	0	32815	32796	32743	32727	32793	32751	32847	32711	
1394	0	32730	32841	32628	32643	32791	32759	32745	32743	
1395	0	32811	32799	32743	32662	32839	32803	32565	32562	
1396	0	32822	32756	32553	32711	32671	32687	32567	32646	
1397	0	32804	32811	32691	32519	32789	32759	32571	32647	
1398	0	32772	32820	32687	32705	32667	32699	32675	32740	
1399	0	32681	32742	32773	32583	32814	32775	32667	32652	
1400	0	32700	32793	32717	32687	32725	32775	32754	32642	
1401	0	32764	32859	32701	32647	32799	32699	32839	32671	
1402	0	32751	32787	32709	32555	32821	32767	32821	32755	
1403	0	32743	32735	32662	32639	32719	32763	32833	32617	
1404	0	32763	32751	32799	32743	32822	32790	32855	32711	
1405	0	32819	32699	32821	32645	32629	32701	32830	32685	
1406	0	32749	32786	32642	32639	32694	32811	32791	32705	
1407	0	32736	32775	32747	32811	32735	32659	32791	32540	
1408	0	32786	32759	32679	32655	32679	32772	32773	32679	
1409	0	32760	32749	32656	32555	32807	32783	32847	32529	
1410	0	32733	32775	32775	32631	32804	32847	32802	32642	
1411	0	32748	32775	32698	32698	32647	32787	32775	32538	
1412	0	32711	32789	32699	32607	32723	32775	32847	32671	
1413	0	32711	32835	32708	32679	32852	32799	32815	32775	
1414	0	32697	32690	32567	32658	32822	32767	32875	32709	
1415	0	32692	32767	32668	32711	32807	32863	32862	32743	
1416	0	32681	32719	32726	32709	32795	32694	32823	32541	
1417	0	32681	32782	32647	32564	32841	32759	32829	32647	
1418	0	32700	32738	32743	32573	32878	32741	32716	32771	
1419	0	32734	32823	32711	32623	32787	32809	32692	32724	
1420	0	32763	32799	32661	32719	32679	32725	32655	32775	
1421	0	32775	32775	32739	32629	32711	32791	32679	32637	
1422	0	32783	32807	32738	32705	32727	32706	32723	32635	
1423	0	32755	32727	32642	32715	32845	32803	32771	32615	
1424	0	32785	32753	32707	32713	32811	32805	32655	32703	
1425	0	32786	32735	32787	32743	32785	32903	32855	32615	
1426	0	32813	32743	32615	32715	32805	32853	32796	32758	
1427	0	32820	32821	32647	32563	32837	32775	32637	32601	
1428	0	32767	32773	32687	32691	32615	32771	32775	32562	
1429	0	32760	32729	32764	32711	32695	32755	32586	32583	
1430	0	32727	32759	32729	32551	32711	32807	32919	32615	
1431	0	32717	32819	32759	32729	32797	32707	32637	32626	
1432	0	32742	32783	32719	32767	32735	32775	32871	32693	
1433	0	32745	32791	32748	32489	32795	32689	32571	32735	
1434	0	32762	32823	32756	32773	32761	32693	32855	32783	
1435	0	32741	32867	32630	32745	32818	32759	32767	32747	
1436	0	32785	32831	32587	32498	32715	32759	32868	32743	
1437	0	32786	32687	32647	32738	32743	32813	32743	32676	
1438	0	32715	32691	32773	32702	32819	32853	32647	32685	
1439	0	32762	32737	32701	32769	32863	32775	32757	32669	
1440	0	32767	32807	32679	32731	32724	32799	32599	32661	
1441	0	32738	32805	32745	32623	32659	32743	32759	32748	
1442	0	32783	32711	32647	32725	32823	32743	32583	32735	
1443	0	32775	32681	32614	32711	32788	32773	32885	32647	
1444	0	32775	32718	32734	32551	32643	32786	32739	32559	
1445	0	32794	32839	32751	32695	32775	32775	32701	32603	
1446	0	32750	32799	32791	32647	32830	32748	32763	32756	
1447	0	32765	32775	32775	32699	32820	32767	32587	32702	
1448	0	32773	32711	32739	32647	32756	32708	32839	32671	
1449	0	32854	32703	32639	32445	32773	32663	32811	32739	
1450	0	32841	32771	32755	32671	32845	32671	32757	32726	
1451	0	32742	32831	32727	32699	32827	32713	32775	32617	
1452	0	32782	32803	32751	32633	32627	32733	32596	32620	
1453	0	32775	32844	32746	32683	32797	32718	32767	32858	
1454	0	32713	32815	32749	32635	32783	32709	32719	32766	
1455	0	32736	32788	32703	32749	32807	32658	32615	32647	
1456	0	32731	32801	32757	32541	32658	32810	32831	32735	
1457	0	32715	32671	32823	32731	32775	32834	32759	32639	
1458	0	32719	32775	32733	32575	32831	32839	32669	32553	
1459	0	32773	32831	32787	32695	32887	32753	32822	32799	
1460	0	32773	32759	32763	32627	32854	32695	32611	32767	
1461	0	32792	32751	32799	32548	32663	32705	32887	32727	
1462	0	32764	32709	32742	32647	32807	32715	32765	32775	
1463	0	32797	32839	32681	32702	32827	32795	32835	32847	
1464	0	32825	32799	32564	32527	32647	32807	32711	32676	
1465	0	32789	32847	32628	32735	32847	32835	32647	32775	
1466	0	32769	32807	32755	32758	32879	32764	32775	32775	
1467	0	32845	32765	32709	32690	32787	32760	32645	32727	
1468	0	32784	32819	32620	32703	32788	32813	32850	32711	
1469	0	32783	32831	32774	32543	32615	32782	32716	32745	
1470	0	32799	32763	32707	32711	32751	32727	32711	32657	
1471	0	32810	32742	32743	32659	32770	32773	32751	32687	
1472	0	32790	32788	32727	32551	32551	32775	32599	32655	
1473	0	32730	32791	32735	32730	32799	32743	32836	32711	
1474	0	32796	32739	32595	32671	32739	32738	32775	32732	
1475	0	32842	32775	32630	32807	32783	32815	32783	32468	
1476	0	32841	32773	32659	32715	32869	32719	32738	32479	
1477	0	32765	32727	32735	32586	32795	32798	32685	32586	
1478	0	32772	32850	32748	32726	32751	32729	32799	32671	
1479	0	32775	32869	32695	32743	32799	32719	32819	32773	
1480	0	32764	32798	32700	32647	32854	32770	32845	32742	
1481	0	32745	32756	32687	32671	32693	32836	32773	32703	
1482	0	32719	32775	32583	32605	32647	32783	32871	32717	
1483	0	32715	32867	32657	32759	32834	32691	32825	32711	
1484	0	32722	32821	32671	32733	32756	32708	32663	32581	
1485	0	32712	32742	32710	32630	32799	32809	32799	32759	
1486	0	32727	32741	32695	32677	32839	32797	32765	32749	
1487	0	32789	32751	32687	32559	32803	32773	32753	32655	
1488	0	32735	32821	32543	32719	32690	32819	32748	32593	
1489	0	32725	32855	32641	32693	32655	32765	32623	32563	
1490	0	32773	32775	32749	32583	32830	32807	32786	32581	
1491	0	32753	32737	32757	32706	32821	32847	32605	32595	
1492	0	32741	32765	32668	32711	32691	32775	32830	32519	
1493	0	32719	32791	32679	32677	32703	32771	32717	32605	
1494	0	32723	32787	32821	32763	32629	32733	32847	32564	
1495	0	32775	32748	32597	32599	32781	32733	32807	32575	
1496	0	32799	32815	32593	32775	32799	32717	32673	32527	
1497	0	32743	32839	32583	32681	32630	32775	32791	32581	
1498	0	32740	32903	32694	32551	32706	32817	32679	32742	
1499	0	32687	32815	32629	32674	32655	32803	32927	32730	
1500	0	32721	32845	32695	32607	32799	32839	32919	32705	
1501	0	32730	32795	32837	32694	32703	32758	32727	32717	
1502	0	32763	32807	32867	32507	32839	32647	32791	32749	
1503	0	32772	32775	32890	32695	32749	32709	32749	32551	
1504	0	32762	32763	32719	32687	32765	32647	32614	32639	
1505	0	32769	32767	32759	32667	32771	32771	32803	32791	
1506	0	32798	32775	32717	32684	32695	32823	32690	32742	
1507	0	32745	32743	32683	32763	32808	32741	32843	32739	
1508	0	32793	32811	32641	32666	32791	32735	32583	32717	
1509	0	32806	32751	32643	32636	32735	32784	32832	32681	
1510	0	32871	32703	32642	32532	32846	32749	32711	32631	
1511	0	32858	32679	32775	32738	32827	32759	32779	32607	
1512	0	32784	32743	32747	32756	32631	32772	32807	32807	
1513	0	32785	32727	32687	32593	32775	32743	32709	32723	
1514	0	32773	32658	32719	32694	32685	32695	32786	32615	
1515	0	32743	32767	32615	32725	32841	32685	32630	32647	
1516	0	32782	32687	32655	32642	32749	32717	32805	32583	
1517	0	32784	32811	32591	32732	32635	32767	32641	32540	
1518	0	32821	32852	32695	32647	32775	32765	32883	32643	
1519	0	32732	32759	32765	32635	32819	32743	32834	32686	
1520	0	32684	32851	32743	32789	32731	32725	32805	32703	
1521	0	32756	32863	32726	32711	32759	32799	32850	32564	
1522	0	32718	32769	32647	32647	32877	32747	32782	32671	
1523	0	32713	32805	32751	32615	32783	32834	32690	32687	
1524	0	32741	32837	32791	32663	32791	32807	32799	32717	
1525	0	32725	32740	32747	32581	32903	32716	32895	32647	
1526	0	32761	32871	32775	32613	32874	32683	32989	32669	
1527	0	32793	32767	32751	32663	32817	32751	32916	32663	
1528	0	32732	32796	32644	32647	32635	32639	32785	32667	
1529	0	32734	32707	32775	32669	32798	32743	32755	32738	
1530	0	32684	32719	32849	32663	32837	32740	32849	32525	
1531	0	32790	32751	32642	32687	32765	32791	32879	32636	
1532	0	32823	32701	32751	32639	32767	32663	32780	32559	
1533	0	32770	32735	32658	32669	32775	32765	32785	32700	
1534	0	32807	32845	32627	32551	32759	32799	32727	32763	
1535	0	32765	32758	32623	32681	32775	32799	32609	32655	
1536	0	32733	32811	32647	32685	32738	32765	32810	32540	
1537	0	32687	32795	32685	32459	32756	32843	32591	32587	
1538	0	32743	32795	32707	32647	32839	32855	32839	32551	
1539	0	32781	32847	32695	32513	32775	32823	32679	32747	
1540	0	32715	32823	32691	32634	32783	32735	32710	32687	
1541	0	32743	32801	32620	32669	32743	32738	32763	32643	
1542	0	32736	32829	32599	32583	32613	32757	32631	32676	
1543	0	32812	32751	32791	32671	32775	32709	32775	32669	
1544	0	32784	32751	32783	32621	32711	32723	32603	32665	
1545	0	32775	32782	32799	32642	32626	32797	32727	32699	
1546	0	32797	32775	32799	32685	32703	32878	32603	32662	
1547	0	32787	32743	32823	32589	32615	32838	32797	32623	
1548	0	32807	32745	32749	32707	32807	32791	32735	32562	
1549	0	32803	32789	32707	32743	32803	32723	32783	32751	
1550	0	32749	32739	32681	32572	32783	32740	32775	32731	
1551	0	32797	32713	32731	32535	32731	32803	32675	32743	
1552	0	32772	32703	32686	32621	32843	32839	32807	32815	
1553	0	32737	32731	32713	32665	32841	32791	32583	32726	
1554	0	32783	32795	32789	32635	32765	32711	32763	32759	
1555	0	32775	32762	32671	32575	32631	32707	32535	32775	
1556	0	32793	32791	32685	32795	32775	32687	32879	32711	
1557	0	32820	32739	32576	32819	32749	32699	32795	32565	
1558	0	32810	32803	32663	32615	32850	32694	32811	32571	
1559	0	32834	32839	32733	32673	32785	32759	32773	32775	
1560	0	32791	32813	32703	32807	32667	32791	32831	32773	
1561	0	32868	32786	32719	32567	32787	32763	32775	32671	
1562	0	32816	32804	32645	32685	32743	32727	32692	32647	
1563	0	32837	32775	32615	32615	32775	32763	32795	32660	
1564	0	32642	32789	32583	32723	32711	32775	32655	32655	
1565	0	32644	32801	32621	32607	32639	32764	32767	32723	
1566	0	32706	32705	32799	32525	32755	32772	32585	32694	
1567	0	32758	32785	32871	32727	32863	32755	32822	32731	
1568	0	32721	32743	32887	32763	32818	32713	32610	32687	
1569	0	32775	32723	32791	32551	32815	32692	32911	32644	
1570	0	32802	32747	32697	32715	32683	32687	32773	32527	
1571	0	32729	32741	32604	32743	32799	32685	32769	32515	
1572	0	32807	32831	32725	32839	32817	32759	32834	32571	
1573	0	32756	32785	32677	32743	32775	32781	32647	32818	
1574	0	32763	32735	32647	32629	32695	32809	32767	32701	
1575	0	32799	32759	32705	32711	32645	32735	32625	32641	
1576	0	32705	32853	32701	32661	32775	32765	32850	32675	
1577	0	32674	32795	32775	32471	32765	32724	32539	32617	
1578	0	32742	32757	32809	32641	32726	32775	32839	32609	
1579	0	32767	32775	32746	32679	32645	32807	32767	32727	
1580	0	32763	32810	32558	32707	32663	32788	32709	32755	
1581	0	32764	32850	32687	32613	32775	32775	32671	32714	
1582	0	32782	32813	32759	32479	32719	32694	32679	32573	
1583	0	32732	32787	32685	32642	32819	32685	32797	32583	
1584	0	32767	32745	32679	32760	32822	32695	32709	32599	
1585	0	32793	32815	32687	32570	32683	32802	32733	32503	
1586	0	32847	32795	32663	32759	32858	32785	32791	32806	
1587	0	32790	32767	32609	32729	32679	32797	32790	32671	
1588	0	32719	32726	32642	32775	32731	32803	32623	32698	
1589	0	32767	32791	32775	32719	32767	32802	32738	32703	
1590	0	32692	32771	32690	32711	32615	32839	32747	32739	
1591	0	32738	32739	32567	32485	32839	32719	32749	32733	
1592	0	32787	32759	32543	32775	32903	32687	32871	32711	
1593	0	32741	32859	32735	32683	32806	32703	32775	32677	
1594	0	32775	32815	32765	32553	32798	32821	32791	32687	
1595	0	32679	32759	32879	32679	32775	32850	32585	32724	
1596	0	32751	32711	32811	32511	32868	32855	32679	32722	
1597	0	32791	32751	32647	32703	32615	32785	32775	32543	
1598	0	32731	32815	32579	32647	32818	32843	32725	32573	
1599	0	32773	32823	32701	32674	32789	32806	32863	32565	
1600	0	32759	32783	32861	32719	32741	32743	32748	32572	
1601	0	32803	32791	32823	32631	32695	32740	32847	32551	
1602	0	32788	32743	32695	32735	32686	32727	32823	32599	
1603	0	32713	32803	32661	32755	32827	32820	32647	32791	
1604	0	32712	32837	32693	32775	32789	32822	32794	32711	
1605	0	32832	32807	32743	32747	32825	32714	32766	32659	
1606	0	32780	32789	32831	32546	32877	32751	32865	32775	
1607	0	32751	32717	32720	32596	32796	32721	32783	32743	
1608	0	32753	32686	32617	32476	32843	32783	32597	32589	
1609	0	32699	32719	32743	32604	32745	32838	32799	32541	
1610	0	32727	32724	32647	32629	32765	32785	32631	32614	
1611	0	32743	32741	32759	32671	32639	32845	32895	32643	
1612	0	32807	32730	32725	32623	32751	32788	32813	32684	
1613	0	32703	32734	32676	32737	32627	32775	32615	32637	
1614	0	32745	32767	32567	32695	32727	32839	32775	32719	
1615	0	32745	32755	32589	32495	32647	32775	32731	32601	
1616	0	32756	32925	32755	32646	32814	32787	32851	32692	
1617	0	32796	32762	32663	32669	32757	32807	32748	32695	
1618	0	32807	32679	32583	32571	32775	32844	32791	32748	
1619	0	32711	32719	32609	32659	32751	32803	32757	32695	
1620	0	32750	32861	32671	32513	32630	32801	32671	32676	
1621	0	32767	32916	32709	32702	32727	32829	32719	32621	
1622	0	32764	32815	32775	32622	32663	32814	32589	32508	
1623	0	32704	32843	32647	32617	32743	32806	32843	32775	
1624	0	32771	32821	32687	32500	32671	32769	32799	32769	
1625	0	32724	32799	32647	32727	32711	32767	32747	32598	
1626	0	32759	32735	32687	32655	32702	32835	32759	32631	
1627	0	32724	32791	32861	32643	32769	32839	32603	32686	
1628	0	32817	32812	32917	32671	32749	32883	32810	32667	
1629	0	32885	32795	32939	32739	32691	32751	32639	32607	
1630	0	32795	32859	32865	32775	32821	32775	32884	32515	
1631	0	32715	32833	32639	32799	32799	32687	32807	32598	
1632	0	32734	32736	32711	32671	32861	32679	32759	32539	
1633	0	32831	32823	32631	32820	32847	32706	32799	32735	
1634	0	32765	32815	32707	32746	32647	32757	32685	32690	
1635	0	32852	32711	32735	32711	32783	32729	32823	32733	
1636	0	32837	32759	32714	32727	32775	32819	32573	32695	
1637	0	32839	32743	32677	32595	32769	32735	32829	32773	
1638	0	32815	32812	32758	32775	32743	32723	32679	32749	
1639	0	32772	32755	32725	32731	32775	32732	32903	32647	
1640	0	32831	32795	32836	32547	32730	32830	32637	32677	
1641	0	32817	32771	32729	32667	32735	32819	32847	32758	
1642	0	32727	32751	32647	32732	32743	32847	32795	32763	
1643	0	32795	32797	32763	32675	32685	32883	32647	32639	
1644	0	32834	32679	32605	32533	32765	32733	32701	32705	
1645	0	32732	32671	32639	32605	32642	32749	32807	32609	
1646	0	32728	32791	32751	32621	32757	32805	32695	32678	
1647	0	32703	32727	32621	32749	32583	32887	32655	32660	
1648	0	32720	32757	32686	32653	32811	32790	32747	32799	
1649	0	32766	32821	32579	32734	32806	32811	32817	32789	
1650	0	32729	32769	32695	32617	32791	32789	32846	32731	
1651	0	32665	32838	32678	32523	32809	32799	32911	32846	
1652	0	32708	32775	32675	32541	32800	32675	32887	32734	
1653	0	32647	32871	32643	32619	32771	32687	32836	32637	
1654	0	32748	32842	32693	32641	32669	32710	32815	32519	
1655	0	32751	32787	32775	32626	32813	32716	32795	32676	
1656	0	32679	32816	32791	32676	32799	32749	32731	32574	
1657	0	32690	32751	32903	32691	32711	32761	32786	32687	
1658	0	32745	32753	32679	32503	32787	32801	32878	32788	
1659	0	32815	32749	32663	32534	32853	32791	32855	32503	
1660	0	32797	32764	32759	32615	32879	32687	32773	32663	
1661	0	32720	32802	32815	32687	32863	32797	32701	32679	
1662	0	32700	32813	32662	32719	32871	32685	32647	32543	
1663	0	32756	32742	32687	32710	32824	32767	32813	32601	
1664	0	32849	32727	32790	32804	32683	32759	32823	32644	
1665	0	32835	32711	32603	32753	32838	32815	32695	32667	
1666	0	32850	32772	32560	32747	32788	32726	32799	32598	
1667	0	32775	32756	32659	32615	32791	32815	32759	32711	
1668	0	32775	32829	32543	32437	32751	32787	32761	32711	
1669	0	32767	32775	32578	32529	32799	32823	32775	32631	
1670	0	32700	32866	32511	32580	32769	32766	32755	32676	
1671	0	32740	32709	32691	32735	32669	32863	32720	32578	
1672	0	32767	32740	32995	32647	32758	32835	32706	32687	
1673	0	32690	32775	32935	32623	32733	32738	32705	32535	
1674	0	32786	32784	32854	32687	32797	32803	32759	32647	
1675	0	32773	32903	32823	32621	32846	32701	32801	32623	
1676	0	32789	32733	32766	32535	32807	32738	32867	32633	
1677	0	32836	32749	32647	32570	32685	32741	32915	32762	
1678	0	32775	32726	32810	32663	32764	32735	32795	32580	
1679	0	32757	32713	32673	32761	32859	32711	32767	32699	
1680	0	32725	32821	32559	32694	32730	32747	32785	32660	
1681	0	32717	32717	32663	32667	32759	32687	32630	32638	
1682	0	32728	32799	32611	32662	32820	32707	32607	32615	
1683	0	32745	32687	32687	32759	32795	32775	32719	32711	
1684	0	32713	32804	32589	32754	32751	32655	32725	32717	
1685	0	32771	32775	32730	32623	32765	32773	32759	32701	
1686	0	32855	32788	32751	32599	32639	32647	32802	32703	
1687	0	32759	32799	32633	32535	32623	32884	32763	32775	
1688	0	32783	32762	32701	32429	32702	32841	32831	32743	
1689	0	32732	32831	32675	32473	32869	32807	32863	32756	
1690	0	32773	32759	32683	32646	32683	32740	32915	32573	
1691	0	32748	32799	32695	32647	32823	32877	32823	32774	
1692	0	32788	32807	32716	32655	32811	32885	32871	32579	
1693	0	32839	32721	32662	32751	32647	32855	32917	32671	
1694	0	32807	32706	32813	32622	32707	32763	32815	32723	
1695	0	32735	32727	32767	32583	32747	32835	32775	32723	
1696	0	32662	32715	32668	32555	32861	32751	32745	32722	
1697	0	32658	32843	32751	32603	32819	32705	32641	32647	
1698	0	32716	32791	32667	32615	32757	32771	32562	32647	
1699	0	32762	32833	32605	32647	32715	32735	32735	32514	
1700	0	32751	32833	32669	32763	32795	32767	32725	32621	
1701	0	32742	32767	32751	32711	32756	32775	32755	32483	
1702	0	32740	32783	32679	32717	32695	32700	32775	32647	
1703	0	32791	32716	32769	32623	32655	32775	32794	32679	
1704	0	32749	32694	32686	32571	32748	32727	32743	32711	
1705	0	32783	32805	32565	32601	32788	32806	32763	32540	
1706	0	32786	32749	32707	32637	32694	32751	32803	32714	
1707	0	32811	32804	32765	32671	32739	32799	32751	32695	
1708	0	32740	32767	32739	32733	32833	32693	32807	32611	
1709	0	32737	32721	32775	32719	32871	32775	32879	32679	
1710	0	32741	32753	32772	32718	32798	32696	32879	32647	
1711	0	32722	32723	32704	32711	32791	32732	32859	32553	
1712	0	32775	32815	32623	32749	32668	32705	32725	32688	
1713	0	32745	32745	32699	32767	32603	32775	32724	32830	
1714	0	32729	32743	32663	32645	32822	32815	32743	32690	
1715	0	32769	32871	32646	32483	32796	32766	32724	32719	
1716	0	32795	32757	32703	32620	32695	32797	32732	32647	
1717	0	32754	32835	32617	32661	32759	32709	32762	32693	
1718	0	32737	32839	32767	32631	32679	32834	32771	32717	
1719	0	32716	32810	32629	32655	32693	32733	32659	32805	
1720	0	32791	32767	32682	32514	32877	32729	32927	32773	
1721	0	32854	32791	32722	32479	32743	32847	32821	32797	
1722	0	32832	32799	32615	32598	32719	32775	32775	32786	
1723	0	32858	32735	32614	32634	32791	32873	32807	32763	
1724	0	32826	32834	32453	32687	32782	32807	32809	32775	
1725	0	32789	32749	32495	32701	32785	32783	32750	32676	
1726	0	32669	32759	32663	32615	32599	32787	32717	32565	
1727	0	32698	32805	32613	32599	32825	32773	32775	32743	
1728	0	32807	32735	32757	32673	32819	32763	32628	32559	
1729	0	32785	32743	32839	32742	32807	32745	32593	32695	
1730	0	32773	32804	32796	32830	32775	32729	32583	32679	
1731	0	32889	32799	33125	32801	32835	32711	32681	32647	
1732	0	32885	32862	33013	32829	32850	32763	32807	32549	
1733	0	32807	32775	32815	32579	32751	32694	32804	32628	
1734	0	32786	32711	32775	32613	32775	32679	32891	32607	
1735	0	32792	32789	32658	32615	32655	32791	32867	32775	
1736	0	32805	32854	32743	32530	32771	32679	32787	32853	
1737	0	32745	32775	32735	32495	32775	32679	32786	32799	
1738	0	32756	32743	32843	32671	32783	32756	32831	32609	
1739	0	32843	32735	32751	32729	32865	32647	32799	32638	
1740	0	32795	32767	32820	32799	32859	32742	32743	32633	
1741	0	32783	32685	32711	32903	32714	32807	32788	32775	
1742	0	32826	32803	32613	32879	32759	32773	32759	32803	
1743	0	32765	32827	32620	32699	32805	32735	32637	32787	
1744	0	32732	32773	32559	32771	32787	32711	32623	32631	
1745	0	32753	32839	32700	32719	32839	32801	32621	32767	
1746	0	32801	32811	32607	32646	32807	32799	32709	32763	
1747	0	32749	32793	32617	32675	32631	32826	32725	32775	
1748	0	32676	32751	32783	32463	32815	32851	32732	32729	
1749	0	32703	32839	32711	32421	32842	32773	32647	32647	
1750	0	32689	32845	32726	32610	32759	32829	32646	32717	
1751	0	32691	32751	32707	32628	32806	32748	32695	32730	
1752	0	32734	32775	32623	32717	32667	32757	32802	32671	
1753	0	32738	32807	32671	32501	32837	32763	32889	32719	
1754	0	32667	32812	32631	32742	32775	32695	32790	32686	
1755	0	32772	32723	32665	32647	32825	32817	32863	32615	
1756	0	32756	32827	32645	32671	32903	32719	32719	32601	
1757	0	32804	32754	32767	32631	32711	32807	32791	32567	
1758	0	32775	32767	32647	32575	32700	32879	32841	32615	
1759	0	32764	32769	32629	32646	32727	32743	32773	32562	
1760	0	32741	32875	32737	32711	32834	32818	32775	32645	
1761	0	32735	32791	32663	32601	32698	32723	32727	32597	
1762	0	32810	32743	32747	32715	32766	32780	32674	32742	
1763	0	32811	32739	32719	32530	32831	32887	32763	32613	
1764	0	32807	32783	32743	32677	32628	32757	32743	32681	
1765	0	32820	32707	32858	32711	32733	32755	32740	32577	
1766	0	32805	32727	32695	32615	32738	32733	32727	32678	
1767	0	32759	32811	32695	32611	32674	32775	32709	32663	
1768	0	32737	32790	32599	32671	32725	32869	32749	32670	
1769	0	32736	32795	32619	32614	32751	32751	32811	32665	
1770	0	32702	32871	32647	32598	32615	32802	32583	32671	
1771	0	32720	32791	32679	32774	32647	32711	32626	32610	
1772	0	32653	32805	32821	32843	32759	32807	32707	32724	
1773	0	32622	32767	32722	32767	32871	32699	32699	32757	
1774	0	32671	32692	32647	32713	32759	32772	32683	32663	
1775	0	32740	32771	32879	32692	32759	32775	32775	32751	
1776	0	32714	32714	32508	32485	32788	32837	32837	32660	
1777	0	32669	32711	32757	32621	32615	32811	32879	32711	
1778	0	32700	32775	32647	32623	32815	32703	32807	32628	
1779	0	32676	32835	32660	32719	32823	32799	32786	32535	
1780	0	32655	32695	32769	32618	32827	32647	32735	32607	
1781	0	32756	32725	32781	32501	32861	32727	32799	32587	
1782	0	32789	32870	32739	32466	32847	32749	32877	32722	
1783	0	32886	32798	32694	32617	32743	32739	32809	32679	
1784	0	32832	32715	32711	32643	32863	32659	32835	32733	
1785	0	32773	32807	32591	32667	32902	32761	32767	32839	
1786	0	32740	32751	32598	32669	32807	32676	32752	32709	
1787	0	32832	32735	32863	32489	32851	32799	32558	32663	
1788	0	32795	32799	32710	32647	32839	32679	32582	32698	
1789	0	32801	32815	32729	32719	32605	32818	32775	32635	
1790	0	32810	32711	32673	32813	32827	32871	32785	32743	
1791	0	32721	32747	32807	32741	32827	32746	32884	32647	
1792	0	32729	32861	32719	32591	32747	32827	32863	32679	
1793	0	32710	32839	32639	32644	32803	32711	32819	32575	
1794	0	32748	32878	32723	32711	32850	32809	32819	32719	
1795	0	32771	32774	32701	32767	32808	32796	32883	32783	
1796	0	32815	32828	32581	32724	32804	32692	32825	32709	
1797	0	32775	32769	32527	32577	32639	32750	32839	32735	
1798	0	32767	32751	32653	32747	32582	32751	32900	32734	
1799	0	32721	32741	32627	32589	32733	32877	32695	32787	
1800	0	32796	32743	32715	32507	32741	32818	32765	32671	
1801	0	32782	32732	32735	32727	32715	32775	32767	32628	
1802	0	32749	32784	32796	32719	32815	32821	32825	32633	
1803	0	32823	32715	32847	32799	32813	32676	32759	32530	
1804	0	32771	32739	32769	32898	32620	32731	32791	32613	
1805	0	32806	32743	32741	32687	32604	32671	32767	32546	
1806	0	32751	32775	32758	32733	32837	32742	32719	32647	
1807	0	32666	32725	32574	32703	32871	32644	32693	32501	
1808	0	32689	32791	32701	32758	32799	32847	32734	32615	
1809	0	32734	32757	32775	32663	32847	32727	32743	32537	
1810	0	32729	32802	32751	32639	32823	32788	32629	32671	
1811	0	32758	32855	32801	32539	32827	32762	32637	32659	
1812	0	32701	32794	32773	32519	32606	32853	32669	32653	
1813	0	32708	32759	32659	32553	32817	32903	32751	32538	
1814	0	32761	32810	32691	32535	32869	32791	32707	32670	
1815	0	32742	32727	32647	32647	32723	32827	32743	32580	
1816	0	32775	32748	32647	32487	32791	32711	32791	32673	
1817	0	32818	32773	32716	32535	32820	32724	32871	32607	
1818	0	32856	32775	32593	32692	32687	32647	32942	32674	
1819	0	32716	32775	32773	32647	32679	32754	32871	32612	
1820	0	32730	32703	32775	32796	32810	32758	32879	32663	
1821	0	32782	32763	32755	32527	32759	32709	32843	32551	
1822	0	32845	32845	32870	32669	32803	32738	32767	32751	
1823	0	32885	32775	32667	32667	32775	32753	32758	32547	
1824	0	32747	32739	32691	32695	32765	32735	32775	32711	
1825	0	32823	32813	32682	32591	32838	32759	32695	32642	
1826	0	32741	32833	32699	32589	32843	32791	32710	32759	
1827	0	32753	32724	32647	32715	32715	32711	32596	32729	
1828	0	32725	32679	32566	32693	32807	32706	32623	32645	
1829	0	32749	32759	32671	32703	32833	32753	32590	32711	
1830	0	32655	32815	32615	32557	32631	32655	32666	32662	
1831	0	32727	32751	32751	32605	32819	32775	32755	32739	
1832	0	32759	32797	32755	32687	32834	32843	32843	32737	
1833	0	32743	32822	32791	32717	32701	32819	32843	32655	
1834	0	32782	32815	32739	32500	32749	32821	32803	32531	
1835	0	32706	32827	32642	32593	32759	32775	32835	32664	
1836	0	32775	32783	32691	32701	32831	32837	32823	32557	
1837	0	32861	32811	32747	32723	32691	32767	32773	32667	
1838	0	32809	32855	32663	32694	32679	32812	32751	32690	
1839	0	32823	32791	32742	32685	32669	32797	32839	32705	
1840	0	32751	32767	32679	32747	32743	32845	32758	32769	
1841	0	32777	32820	32719	32545	32831	32679	32827	32606	
1842	0	32794	32757	32755	32587	32676	32739	32787	32727	
1843	0	32728	32747	32733	32715	32861	32827	32812	32703	
1844	0	32784	32803	32732	32679	32765	32827	32819	32711	
1845	0	32796	32749	32639	32790	32796	32829	32743	32615	
1846	0	32827	32703	32733	32655	32884	32757	32677	32605	
1847	0	32770	32775	32767	32789	32775	32757	32879	32711	
1848	0	32784	32855	32543	32623	32731	32742	32735	32669	
1849	0	32786	32823	32594	32673	32759	32833	32773	32677	
1850	0	32784	32853	32703	32694	32615	32797	32738	32605	
1851	0	32773	32743	32655	32527	32754	32863	32605	32638	
1852	0	32748	32740	32735	32733	32751	32815	32764	32685	
1853	0	32727	32775	32730	32645	32710	32697	32559	32687	
1854	0	32764	32749	32623	32531	32735	32799	32821	32732	
1855	0	32753	32733	32703	32647	32791	32787	32605	32749	
1856	0	32692	32709	32775	32548	32775	32743	32879	32531	
1857	0	32733	32692	32635	32690	32673	32751	32731	32626	
1858	0	32751	32666	32759	32709	32775	32765	32763	32758	
1859	0	32743	32773	32716	32549	32711	32775	32763	32685	
1860	0	32798	32806	32817	32659	32795	32743	32671	32661	
1861	0	32768	32815	32762	32633	32695	32827	32815	32645	
1862	0	32789	32702	32751	32525	32802	32763	32617	32559	
1863	0	32791	32701	32733	32679	32857	32731	32871	32839	
1864	0	32824	32659	32643	32627	32839	32756	32799	32787	
1865	0	32736	32775	32562	32661	32885	32698	32769	32533	
1866	0	32740	32819	32775	32709	32858	32716	32773	32759	
1867	0	32706	32751	32660	32775	32763	32799	32756	32671	
1868	0	32645	32846	32549	32765	32807	32743	32819	32743	
1869	0	32628	32799	32555	32623	32911	32765	32804	32668	
1870	0	32683	32819	32829	32668	32892	32775	32643	32567	
1871	0	32742	32862	32979	32553	32791	32801	32855	32726	
1872	0	32756	32794	32975	32671	32815	32759	32748	32630	
1873	0	32764	32787	32853	32589	32799	32771	32662	32567	
1874	0	32728	32783	32647	32775	32740	32727	32722	32738	
1875	0	32639	32805	32647	32775	32727	32751	32543	32671	
1876	0	32811	32852	32647	32634	32647	32759	32893	32626	
1877	0	32788	32810	32647	32687	32735	32743	32735	32558	
1878	0	32775	32775	32615	32643	32799	32657	32851	32524	
1879	0	32745	32871	32663	32807	32749	32679	32717	32497	
1880	0	32706	32845	32598	32807	32710	32677	32655	32706	
1881	0	32697	32839	32763	32647	32829	32686	32903	32727	
1882	0	32749	32822	32811	32733	32877	32671	32775	32679	
1883	0	32781	32747	32786	32647	32803	32719	32839	32683	
1884	0	32719	32755	32683	32758	32804	32735	32860	32743	
1885	0	32723	32718	32567	32701	32839	32748	32635	32612	
1886	0	32804	32719	32587	32828	32847	32710	32868	32543	
1887	0	32793	32659	32713	32711	32823	32695	32775	32763	
1888	0	32821	32769	32647	32634	32795	32687	32600	32789	
1889	0	32855	32775	32630	32759	32791	32695	32829	32647	
1890	0	32825	32758	32935	32609	32797	32773	32732	32674	
1891	0	32722	32749	32958	32740	32788	32786	32559	32643	
1892	0	32759	32823	33111	32658	32886	32775	32861	32543	
1893	0	32791	32805	32847	32707	32934	32757	32791	32741	
1894	0	32786	32749	32743	32574	32867	32766	32601	32729	
1895	0	32815	32764	32775	32671	32799	32748	32879	32727	
1896	0	32772	32751	32726	32535	32921	32815	32861	32695	
1897	0	32795	32792	32631	32463	32827	32854	32738	32797	
1898	0	32748	32715	32655	32607	32837	32839	32623	32715	
1899	0	32780	32759	32607	32564	32807	32815	32731	32706	
1900	0	32797	32775	32724	32694	32775	32796	32699	32654	
1901	0	32775	32797	32559	32701	32775	32815	32751	32555	
1902	0	32702	32807	32612	32647	32767	32887	32773	32623	
1903	0	32737	32707	32755	32695	32799	32871	32639	32743	
1904	0	32768	32692	32735	32531	32717	32851	32804	32739	
1905	0	32794	32718	32711	32740	32679	32783	32765	32628	
1906	0	32853	32766	32843	32687	32788	32797	32687	32667	
1907	0	32775	32730	32716	32775	32767	32775	32767	32739	
1908	0	32719	32755	32679	32719	32811	32807	32750	32606	
1909	0	32787	32827	32763	32747	32775	32815	32903	32502	
1910	0	32738	32790	32716	32681	32766	32793	32831	32471	
1911	0	32694	32838	32711	32575	32813	32858	32703	32687	
1912	0	32730	32830	32695	32694	32807	32775	32847	32695	
1913	0	32689	32795	32547	32563	32839	32733	32606	32623	
1914	0	32771	32869	32647	32631	32745	32794	32749	32675	
1915	0	32748	32849	32614	32715	32738	32827	32673	32871	
1916	0	32703	32766	32625	32463	32703	32825	32647	32705	
1917	0	32701	32843	32557	32604	32775	32742	32855	32829	
1918	0	32716	32723	32531	32485	32759	32749	32844	32667	
1919	0	32742	32805	32726	32549	32767	32850	32693	32751	
1920	0	32773	32893	32925	32514	32761	32883	32721	32687	
1921	0	32837	32743	32959	32609	32621	32835	32820	32701	
1922	0	32772	32679	32770	32445	32806	32845	32735	32723	
1923	0	32707	32766	32646	32687	32611	32885	32765	32635	
1924	0	32775	32775	32742	32625	32822	32773	32815	32759	
1925	0	32813	32687	32839	32813	32893	32734	32729	32737	
1926	0	32804	32715	32671	32631	32775	32623	32591	32671	
1927	0	32839	32799	32678	32811	32759	32575	32871	32503	
1928	0	32787	32751	32685	32695	32631	32590	32738	32579	
1929	0	32806	32749	32629	32679	32687	32703	32671	32646	
1930	0	32719	32839	32572	32602	32647	32731	32895	32615	
1931	0	32660	32772	32843	32747	32703	32767	32661	32759	
1932	0	32807	32739	32903	32747	32647	32789	32647	32735	
1933	0	32831	32731	32743	32839	32663	32749	32689	32591	
1934	0	32775	32759	32591	32695	32639	32759	32791	32699	
1935	0	32703	32799	32638	32719	32818	32703	32727	32791	
1936	0	32719	32721	32679	32615	32769	32727	32817	32709	
1937	0	32711	32763	32667	32603	32789	32703	32724	32783	
1938	0	32695	32786	32693	32613	32877	32703	32879	32735	
1939	0	32775	32775	32591	32453	32859	32738	32791	32629	
1940	0	32812	32743	32607	32709	32789	32789	32615	32743	
1941	0	32676	32807	32647	32503	32767	32694	32863	32798	
1942	0	32700	32747	32711	32684	32767	32689	32697	32747	
1943	0	32683	32717	32885	32695	32775	32738	32701	32739	
1944	0	32751	32763	32699	32637	32771	32677	32773	32591	
1945	0	32820	32775	32598	32647	32850	32667	32655	32551	
1946	0	32831	32806	32711	32579	32815	32647	32775	32771	
1947	0	32703	32763	32742	32723	32764	32807	32742	32719	
1948	0	32730	32742	32861	32706	32709	32875	32658	32758	
1949	0	32688	32775	32747	32791	32733	32828	32753	32775	
1950	0	32679	32787	32725	32647	32711	32871	32565	32739	
1951	0	32750	32796	32773	32687	32853	32756	32891	32669	
1952	0	32825	32735	32663	32701	32775	32775	32821	32647	
1953	0	32769	32797	32647	32743	32802	32783	32663	32647	
1954	0	32795	32820	32634	32823	32615	32825	32885	32671	
1955	0	32789	32791	32647	32762	32791	32759	32783	32609	
1956	0	32679	32831	32629	32754	32790	32759	32742	32686	
1957	0	32699	32934	32695	32813	32759	32712	32772	32719	
1958	0	32711	32807	32771	32775	32863	32729	32623	32790	
1959	0	32764	32742	32775	32667	32831	32733	32751	32677	
1960	0	32812	32772	32681	32582	32767	32741	32773	32663	
1961	0	32743	32763	32641	32551	32823	32804	32707	32581	
1962	0	32766	32775	32607	32615	32625	32761	32749	32487	
1963	0	32842	32775	32611	32516	32812	32837	32805	32775	
1964	0	32782	32769	32721	32691	32806	32847	32815	32722	
1965	0	32789	32718	32703	32607	32713	32811	32829	32581	
1966	0	32796	32775	32727	32775	32827	32787	32750	32685	
1967	0	32743	32759	32715	32573	32636	32819	32802	32677	
1968	0	32727	32773	32749	32404	32725	32738	32615	32639	
1969	0	32829	32759	32611	32607	32647	32723	32855	32599	
1970	0	32754	32703	32763	32591	32818	32742	32785	32541	
1971	0	32768	32647	32807	32631	32882	32738	32654	32468	
1972	0	32793	32757	32774	32708	32733	32679	32839	32511	
1973	0	32817	32727	32647	32613	32771	32791	32647	32535	
1974	0	32727	32799	32599	32647	32710	32713	32831	32586	
1975	0	32716	32711	32729	32553	32846	32827	32767	32754	
1976	0	32759	32783	32757	32601	32867	32817	32675	32775	
1977	0	32775	32783	32739	32503	32799	32799	32787	32727	
1978	0	32734	32699	32614	32627	32775	32775	32799	32707	
1979	0	32711	32741	32727	32483	32743	32767	32679	32551	
1980	0	32695	32771	32751	32621	32802	32766	32771	32623	
1981	0	32765	32764	32805	32423	32735	32821	32566	32820	
1982	0	32789	32809	32683	32598	32751	32827	32780	32743	
1983	0	32790	32775	32615	32583	32855	32860	32751	32734	
1984	0	32706	32715	32685	32711	32835	32852	32813	32743	
1985	0	32812	32726	32662	32703	32811	32839	32809	32765	
1986	0	32731	32743	32629	32691	32715	32836	32565	32647	
1987	0	32677	32823	32591	32767	32717	32834	32741	32639	
1988	0	32766	32743	32549	32903	32601	32773	32580	32605	
1989	0	32786	32738	32775	32775	32701	32771	32751	32711	
1990	0	32855	32733	32887	32775	32748	32734	32733	32770	
1991	0	32810	32815	32829	32847	32775	32847	32745	32692	
1992	0	32799	32775	32679	32805	32797	32732	32703	32677	
1993	0	32743	32683	32715	32903	32767	32647	32767	32647	
1994	0	32729	32751	32871	32887	32799	32679	32787	32583	
1995	0	32767	32819	32949	32647	32783	32733	32687	32609	
1996	0	32808	32811	32903	32707	32805	32647	32903	32535	
1997	0	32815	32799	32839	32771	32935	32669	32713	32611	
1998	0	32799	32827	32692	32477	32871	32694	32903	32633	
1999	0	32745	32833	32533	32578	32743	32711	32689	32652	
2000	0	32732	32765	32454	32683	32855	32775	32875	32673	
2001	0	32719	32731	32465	32509	32790	32831	32641	32709	
2002	0	32747	32771	32711	32567	32831	32843	32787	32757	
2003	0	32770	32769	32749	32555	32829	32751	32931	32598	
2004	0	32748	32771	32601	32661	32871	32769	32797	32811	
2005	0	32820	32870	32467	32519	32763	32793	32741	32795	
2006	0	32847	32818	32729	32663	32751	32735	32788	32751	
2007	0	32817	32812	32683	32647	32679	32762	32692	32694	
2008	0	32726	32789	32827	32757	32748	32773	32787	32731	
2009	0	32747	32743	32839	32679	32669	32850	32617	32721	
2010	0	32725	32839	32723	32615	32791	32807	32799	32743	
2011	0	32861	32833	32661	32763	32757	32762	32579	32738	
2012	0	32831	32771	32615	32579	32715	32819	32809	32727	
2013	0	32748	32799	32613	32519	32683	32749	32603	32647	
2014	0	32676	32845	32647	32711	32823	32815	32807	32543	
2015	0	32729	32799	32757	32707	32818	32833	32610	32461	
2016	0	32706	32726	32737	32655	32739	32902	32735	32555	
2017	0	32737	32783	32645	32550	32679	32967	32820	32637	
2018	0	32730	32725	32655	32759	32640	32847	32681	32713	
2019	0	32712	32671	32823	32772	32739	32842	32850	32711	
2020	0	32749	32703	32637	32599	32647	32887	32694	32599	
2021	0	32751	32819	32666	32675	32671	32859	32825	32647	
2022	0	32780	32783	32685	32581	32647	32759	32727	32755	
2023	0	32719	32763	32691	32645	32775	32687	32819	32675	
2024	0	32791	32730	32642	32683	32852	32685	32775	32751	
2025	0	32690	32911	32623	32615	32657	32795	32825	32756	
2026	0	32766	32796	32895	32694	32745	32758	32791	32663	
2027	0	32787	32724	32836	32661	32767	32711	32883	32655	
2028	0	32740	32743	32709	32525	32785	32717	32798	32721	
2029	0	32781	32823	32687	32767	32827	32683	32745	32751	
2030	0	32745	32839	32626	32727	32613	32614	32724	32666	
2031	0	32802	32769	32621	32533	32676	32719	32673	32507	
2032	0	32766	32832	32700	32627	32663	32681	32767	32551	
2033	0	32722	32753	32647	32607	32807	32647	32507	32767	
2034	0	32751	32711	32583	32653	32666	32629	32791	32662	
2035	0	32812	32726	32479	32590	32692	32663	32772	32719	
2036	0	32759	32743	32487	32623	32617	32769	32611	32747	
2037	0	32780	32740	32586	32623	32786	32711	32791	32796	
2038	0	32899	32807	32875	32607	32823	32711	32667	32735	
2039	0	32818	32823	32959	32738	32787	32721	32839	32635	
2040	0	32700	32927	32932	32563	32804	32802	32775	32667	
2041	0	32708	32882	33003	32485	32773	32788	32831	32605	
2042	0	32765	32807	32899	32730	32710	32853	32783	32815	
2043	0	32817	32757	32753	32731	32723	32804	32609	32713	
2044	0	32910	32715	32804	32759	32794	32745	32875	32621	
2045	0	32855	32695	32714	32847	32703	32773	32724	32647	
2046	0	32799	32695	32723	32943	32795	32831	32863	32723	
2047	0	32742	32731	32775	32893	32773	32751	32739	32749	
2048	0	32701	32703	32711	32935	32669	32725	32727	32693	
2049	0	32672	32771	32711	32807	32823	32773	32809	32629	
2050	0	32681	32751	32619	32815	32692	32775	32621	32579	
2051	0	32679	32775	32670	32796	32765	32809	32835	32733	
2052	0	32751	32823	32551	32588	32821	32766	32599	32775	
2053	0	32721	32863	32683	32597	32751	32791	32809	32685	
2054	0	32767	32817	32694	32553	32765	32771	32711	32591	
2055	0	32739	32824	32699	32398	32607	32838	32791	32627	
2056	0	32801	32731	32748	32567	32770	32749	32567	32643	
2057	0	32767	32697	32725	32607	32791	32699	32845	32507	
2058	0	32791	32701	32740	32471	32823	32747	32743	32540	
2059	0	32804	32789	32691	32677	32898	32735	32885	32559	
2060	0	32739	32837	32581	32715	32877	32751	32745	32871	
2061	0	32831	32805	32579	32637	32850	32759	32767	32790	
2062	0	32783	32757	32577	32614	32695	32749	32788	32735	
2063	0	32779	32708	32615	32641	32742	32693	32711	32715	
2064	0	32729	32807	32629	32497	32791	32727	32797	32757	
2065	0	32749	32835	32747	32543	32804	32769	32703	32681	
2066	0	32716	32759	32709	32613	32738	32813	32788	32724	
2067	0	32724	32749	32747	32505	32668	32791	32623	32568	
2068	0	32793	32735	32939	32615	32751	32734	32734	32631	
2069	0	32813	32789	32837	32671	32775	32767	32603	32687	
2070	0	32797	32783	32738	32590	32818	32759	32835	32660	
2071	0	32810	32719	32773	32783	32820	32839	32647	32717	
2072	0	32760	32811	32647	32830	32684	32823	32831	32647	
2073	0	32756	32838	32607	32640	32791	32807	32757	32679	
2074	0	32748	32821	32607	32671	32807	32751	32832	32611	
2075	0	32684	32754	32623	32715	32787	32751	32751	32623	
2076	0	32756	32711	32530	32647	32693	32727	32807	32575	
2077	0	32804	32803	32599	32678	32658	32745	32763	32551	
2078	0	32740	32811	32927	32551	32814	32749	32703	32535	
2079	0	32667	32817	32847	32694	32807	32743	32766	32591	
2080	0	32600	32829	32795	32615	32687	32711	32729	32563	
2081	0	32721	32855	32894	32689	32847	32765	32775	32533	
2082	0	32783	32883	32887	32583	32863	32847	32843	32574	
2083	0	32882	32732	32829	32759	32721	32775	32775	32538	
2084	0	32866	32799	32767	32751	32847	32733	32883	32537	
2085	0	32849	32839	32623	32661	32803	32823	32751	32551	
2086	0	32783	32831	32535	32937	32775	32809	32804	32606	
2087	0	32818	32790	32578	32802	32711	32775	32775	32559	
2088	0	32794	32871	32575	32627	32639	32822	32837	32701	
2089	0	32852	32823	32647	32609	32749	32770	32711	32691	
2090	0	32831	32734	32687	32626	32658	32786	32623	32629	
2091	0	32831	32797	32599	32583	32735	32847	32356	32708	
2092	0	32795	32822	32735	32727	32747	32835	32583	32751	
2093	0	32678	32831	32711	32647	32687	32836	32447	32863	
2094	0	32647	32829	32658	32599	32748	32820	32596	32903	
2095	0	32663	32737	32679	32639	32711	32831	32615	32758	
2096	0	32625	32813	32749	32622	32685	32818	32647	32647	
2097	0	32607	32797	32735	32799	32660	32844	32695	32694	
2098	0	32664	32831	32839	32839	32743	32804	32571	32694	
2099	0	32652	32801	32743	32623	32743	32725	32717	32579	
2100	0	32676	32723	32741	32689	32708	32727	32500	32541	
2101	0	32786	32710	32783	32662	32665	32775	32827	32764	
2102	0	32722	32823	32733	32706	32623	32741	32711	32743	
2103	0	32660	32799	32683	32581	32603	32762	32614	32725	
2104	0	32577	32725	32738	32491	32671	32745	32631	32623	
2105	0	32590	32751	32741	32454	32606	32715	32429	32662	
2106	0	32522	32738	32755	32450	32503	32767	32615	32687	
2107	0	32588	32687	32986	32499	32623	32699	32570	32694	
2108	0	32633	32677	33041	32367	32611	32758	32644	32723	
2109	0	32665	32718	32870	32479	32570	32663	32564	32678	
2110	0	32614	32687	32895	32407	32743	32705	32559	32695	
2111	0	32590	32583	32983	32300	32691	32676	32519	32641	
2112	0	32635	32609	32957	32351	32543	32660	32321	32530	
2113	0	32707	32614	32677	32274	32619	32679	32717	32557	
2114	0	32701	32667	32687	32453	32613	32703	32677	32716	
2115	0	32741	32602	32799	32495	32775	32749	32789	32669	
2116	0	32719	32603	32829	32591	32647	32627	32829	32567	
2117	0	32736	32607	32775	32584	32727	32613	32773	32583	
2118	0	32709	32615	32844	32679	32849	32639	32740	32663	
2119	0	32788	32633	32919	32719	32770	32661	32815	32567	
2120	0	32865	32694	32804	32727	32823	32679	32667	32499	
2121	0	32839	32763	32679	32815	32699	32726	32998	32559	
2122	0	32843	32735	32641	32915	32903	32743	32903	32735	
2123	0	32868	32853	32567	32919	32903	32711	32829	32741	
2124	0	32911	32807	32475	32861	32947	32823	32966	32805	
2125	0	32936	32919	32415	32820	32799	32863	32902	32799	
2126	0	32902	32863	32438	32815	32871	32852	33047	32647	
2127	0	32980	32967	32573	32935	32999	32807	32999	32701	
2128	0	33063	32933	32615	32967	33086	32720	33087	32517	
2129	0	33041	32903	32612	32861	33035	32761	33195	32555	
2130	0	33057	32890	32459	32847	33183	32759	33355	32450	
2131	0	33183	32889	32473	33075	33079	32638	33388	32475	
2132	0	33247	32831	32389	33229	33223	32559	33525	32413	
2133	0	33274	32767	32347	33206	33351	32620	33531	32381	
2134	0	33268	32863	32462	33135	33107	32693	33495	32569	
2135	0	33207	32789	32363	33119	33051	32647	33319	32548	
2136	0	33143	32747	32407	32883	33147	32788	33271	32619	
2137	0	33165	32843	32391	32983	33213	32543	33401	32503	
2138	0	33155	32791	32211	33063	33239	32675	33495	32551	
2139	0	33045	32775	32391	33053	33043	32647	33483	32539	
2140	0	32898	32812	32419	32775	33071	32756	33235	32677	
2141	0	32824	32879	32591	32511	32775	32876	32991	32763	
2142	0	32791	32759	32591	32683	32870	32851	32887	32643	
2143	0	32617	32733	32709	32621	32669	32795	32751	32775	
2144	0	32596	32767	32548	32611	32721	32871	32571	32725	
2145	0	32541	32847	32757	32461	32605	32847	32510	32813	
2146	0	32356	32823	32815	32303	32499	32891	32433	32861	
2147	0	32359	32845	32911	32338	32628	32915	32477	32741	
