# OpenSignals Text File Format
# {"00:07:80:3B:46:38": {"sensor": ["CUSTOM/0.5/1.0/V", "CUSTOM/0.5/1.0/V", "CUSTOM/0.5/1.0/V", "CUSTOM/0.5/1.0/V", "CUSTOM/0.5/1.0/V", "CUSTOM/0.5/1.0/V", "CUSTOM/0.5/1.0/V", "CUSTOM/0.5/1.0/V"], "device name": "EMGs", "column": ["nSeq", "DI", "RA_L", "RA_R", "OE_L", "OE:R", "IL_L", "IL_R", "MF_L", "MF_R"], "sync interval": 2, "time": "17:1:28.824", "comments": "", "device connection": "BTH00:07:80:3B:46:38", "channels": [1, 2, 3, 4, 5, 6, 7, 8], "date": "2017-6-1", "mode": 0, "digital IO": [0, 1], "firmware version": 772, "device": "biosignalsplux", "position": 0, "sampling rate": 1000, "label": ["RA_L", "RA_R", "OE_L", "OE:R", "IL_L", "IL_R", "MF_L", "MF_R"], "resolution": [16, 16, 16, 16, 16, 16, 16, 16], "special": [{}, {}, {}, {}, {}, {}, {}, {}]}}
# EndOfHeader
0	0	32781	32615	32759	32659	32868	32645	32545	32489	
1	0	32740	32659	32702	32611	32877	32671	32647	32581	
2	0	32732	32609	32775	32682	32867	32834	32743	32751	
3	0	32748	32717	32758	32681	32887	32838	32749	32719	
4	0	32808	32771	32754	32642	32787	32731	32647	32726	
5	0	32774	32621	32751	32647	32797	32722	32739	32695	
6	0	32742	32687	32731	32655	32773	32796	32689	32658	
7	0	32767	32515	32751	32655	32713	32783	32607	32719	
8	0	32762	32669	32734	32684	32782	32679	32679	32661	
9	0	32740	32582	32807	32479	32775	32647	32703	32683	
10	0	32805	32702	32763	32634	32759	32703	32738	32734	
11	0	32749	32647	32707	32765	32738	32868	32615	32637	
12	0	32781	32789	32767	32695	32740	32721	32751	32587	
13	0	32772	32701	32810	32763	32765	32787	32804	32595	
14	0	32797	32695	32767	32763	32767	32750	32613	32621	
15	0	32769	32686	32699	32827	32770	32775	32609	32831	
16	0	32788	32535	32819	32767	32807	32637	32612	32814	
17	0	32791	32665	32804	32645	32743	32669	32681	32731	
18	0	32725	32631	32795	32759	32756	32611	32642	32726	
19	0	32743	32827	32821	32692	32742	32748	32681	32679	
20	0	32747	32795	32730	32775	32775	32748	32679	32679	
21	0	32729	32764	32815	32771	32773	32749	32730	32662	
22	0	32775	32724	32775	32647	32775	32743	32727	32671	
23	0	32822	32685	32799	32671	32763	32743	32791	32636	
24	0	32797	32721	32716	32677	32795	32823	32871	32669	
25	0	32743	32599	32750	32663	32759	32802	32832	32591	
26	0	32716	32695	32791	32829	32733	32668	32870	32703	
27	0	32750	32606	32729	32772	32755	32599	32879	32711	
28	0	32717	32767	32771	32802	32765	32659	32748	32647	
29	0	32793	32821	32699	32765	32786	32687	32639	32565	
30	0	32738	32583	32695	32655	32789	32759	32694	32561	
31	0	32728	32710	32751	32727	32751	32823	32742	32594	
32	0	32756	32615	32717	32647	32767	32791	32815	32798	
33	0	32766	32783	32803	32732	32820	32775	32772	32695	
34	0	32780	32717	32799	32679	32763	32707	32798	32700	
35	0	32850	32611	32729	32666	32751	32773	32751	32699	
36	0	32839	32747	32811	32745	32771	32796	32647	32665	
37	0	32812	32607	32694	32693	32709	32819	32602	32663	
38	0	32782	32791	32692	32724	32698	32831	32647	32679	
39	0	32751	32770	32759	32791	32788	32663	32647	32703	
40	0	32792	32743	32661	32695	32759	32679	32627	32677	
41	0	32787	32707	32793	32738	32787	32757	32643	32729	
42	0	32720	32532	32759	32647	32788	32722	32747	32748	
43	0	32771	32647	32757	32743	32767	32823	32726	32707	
44	0	32700	32573	32751	32655	32735	32879	32781	32567	
45	0	32732	32701	32743	32783	32759	32805	32636	32571	
46	0	32692	32738	32826	32739	32771	32751	32771	32599	
47	0	32730	32615	32711	32671	32863	32762	32764	32667	
48	0	32735	32751	32858	32791	32791	32775	32703	32587	
49	0	32710	32567	32833	32642	32890	32775	32684	32735	
50	0	32730	32676	32731	32727	32816	32640	32719	32756	
51	0	32705	32589	32740	32703	32821	32711	32733	32644	
52	0	32694	32767	32709	32647	32863	32805	32733	32677	
53	0	32706	32687	32743	32725	32895	32850	32709	32647	
54	0	32762	32598	32803	32615	32859	32858	32743	32735	
55	0	32743	32763	32706	32735	32845	32751	32723	32703	
56	0	32690	32791	32775	32716	32871	32764	32667	32623	
57	0	32738	32636	32711	32775	32883	32771	32726	32483	
58	0	32774	32687	32771	32775	32894	32639	32725	32566	
59	0	32775	32533	32731	32645	32814	32717	32675	32631	
60	0	32734	32658	32803	32797	32789	32733	32761	32551	
61	0	32738	32614	32742	32715	32771	32695	32775	32715	
62	0	32743	32804	32708	32767	32815	32743	32757	32751	
63	0	32778	32762	32788	32756	32867	32775	32706	32705	
64	0	32768	32562	32759	32626	32813	32775	32574	32727	
65	0	32775	32663	32724	32751	32765	32733	32687	32707	
66	0	32770	32599	32789	32725	32815	32647	32679	32731	
67	0	32798	32731	32671	32643	32871	32727	32639	32775	
68	0	32794	32676	32775	32731	32839	32835	32727	32723	
69	0	32806	32711	32715	32710	32879	32708	32804	32715	
70	0	32775	32703	32839	32695	32861	32727	32758	32647	
71	0	32757	32831	32767	32815	32850	32814	32763	32666	
72	0	32790	32823	32807	32707	32822	32767	32835	32623	
73	0	32720	32562	32709	32727	32715	32807	32797	32613	
74	0	32738	32717	32671	32662	32719	32713	32751	32589	
75	0	32742	32495	32730	32701	32692	32738	32669	32743	
76	0	32758	32574	32685	32695	32727	32820	32699	32804	
77	0	32814	32577	32797	32615	32688	32771	32685	32733	
78	0	32813	32727	32804	32669	32629	32775	32692	32677	
79	0	32801	32743	32756	32527	32615	32811	32638	32637	
80	0	32801	32711	32789	32679	32655	32851	32693	32679	
81	0	32797	32727	32803	32699	32695	32699	32691	32691	
82	0	32775	32742	32739	32631	32708	32747	32679	32694	
83	0	32791	32733	32773	32639	32671	32735	32751	32631	
84	0	32819	32677	32747	32735	32775	32807	32743	32679	
85	0	32777	32749	32751	32617	32727	32803	32671	32591	
86	0	32713	32631	32767	32756	32735	32699	32743	32635	
87	0	32750	32739	32754	32751	32751	32758	32727	32685	
88	0	32761	32647	32735	32692	32851	32843	32647	32679	
89	0	32685	32661	32775	32751	32925	32730	32767	32615	
90	0	32709	32619	32764	32714	32852	32735	32839	32613	
91	0	32722	32667	32719	32835	32847	32819	32819	32647	
92	0	32770	32509	32767	32822	32858	32660	32756	32645	
93	0	32788	32748	32687	32694	32803	32690	32717	32643	
94	0	32719	32595	32802	32811	32839	32802	32725	32726	
95	0	32749	32801	32763	32797	32807	32819	32660	32727	
96	0	32789	32771	32783	32689	32821	32767	32703	32639	
97	0	32806	32567	32759	32727	32858	32687	32749	32626	
98	0	32782	32703	32751	32617	32775	32805	32722	32739	
99	0	32761	32532	32818	32703	32810	32831	32687	32719	
100	0	32759	32695	32747	32655	32738	32646	32646	32635	
101	0	32801	32761	32755	32807	32705	32638	32739	32669	
102	0	32686	32589	32787	32634	32635	32622	32767	32698	
103	0	32718	32699	32762	32791	32615	32762	32759	32733	
104	0	32708	32509	32797	32827	32612	32755	32695	32585	
105	0	32811	32677	32765	32646	32623	32679	32747	32559	
106	0	32797	32743	32802	32694	32595	32717	32730	32794	
107	0	32755	32629	32809	32677	32607	32828	32679	32677	
108	0	32791	32687	32747	32738	32811	32826	32667	32623	
109	0	32734	32535	32807	32671	32821	32831	32647	32647	
110	0	32732	32719	32703	32639	32605	32707	32677	32674	
111	0	32739	32557	32749	32726	32631	32806	32727	32631	
112	0	32764	32631	32703	32703	32722	32789	32687	32635	
113	0	32759	32599	32791	32656	32719	32829	32717	32655	
114	0	32746	32748	32658	32628	32773	32838	32735	32676	
115	0	32743	32551	32707	32769	32757	32662	32637	32663	
116	0	32774	32667	32727	32592	32763	32711	32775	32679	
117	0	32751	32638	32762	32636	32865	32775	32747	32706	
118	0	32742	32807	32687	32673	32823	32742	32787	32743	
119	0	32781	32773	32694	32781	32727	32701	32683	32585	
120	0	32775	32622	32743	32734	32627	32759	32727	32519	
121	0	32769	32719	32743	32687	32700	32722	32687	32600	
122	0	32868	32723	32756	32751	32851	32783	32685	32607	
123	0	32805	32773	32727	32761	32867	32661	32751	32527	
124	0	32753	32784	32739	32647	32887	32809	32730	32571	
125	0	32775	32871	32669	32820	32859	32797	32711	32531	
126	0	32804	32834	32749	32783	32756	32719	32773	32575	
127	0	32745	32765	32700	32799	32847	32763	32857	32495	
128	0	32775	32741	32739	32860	32742	32759	32839	32583	
129	0	32826	32775	32647	32831	32761	32611	32766	32551	
130	0	32780	32701	32708	32667	32756	32628	32761	32607	
131	0	32793	32669	32691	32711	32747	32783	32759	32770	
132	0	32826	32563	32850	32639	32722	32775	32703	32669	
133	0	32847	32716	32806	32771	32699	32666	32791	32614	
134	0	32828	32623	32745	32679	32711	32669	32743	32643	
135	0	32850	32775	32866	32623	32701	32735	32763	32621	
136	0	32832	32661	32783	32671	32727	32735	32627	32571	
137	0	32843	32730	32939	32677	32783	32603	32770	32566	
138	0	32829	32579	32879	32590	32703	32719	32852	32571	
139	0	32817	32647	32897	32677	32747	32727	32719	32611	
140	0	32839	32549	32819	32729	32775	32631	32758	32557	
141	0	32820	32647	32863	32583	32535	32663	32820	32543	
142	0	32843	32613	32809	32643	32727	32767	32759	32591	
143	0	32839	32679	32839	32535	32734	32759	32807	32551	
144	0	32799	32659	32823	32655	32743	32662	32758	32575	
145	0	32780	32519	32785	32556	32743	32725	32767	32596	
146	0	32815	32742	32903	32647	32735	32598	32803	32519	
147	0	32862	32535	32831	32613	32751	32694	32711	32619	
148	0	32940	32703	32915	32573	32751	32707	32734	32599	
149	0	32840	32583	32850	32663	32847	32761	32687	32583	
150	0	32873	32637	32927	32671	32838	32671	32549	32681	
151	0	32858	32607	32839	32547	32844	32793	32574	32665	
152	0	32824	32647	32901	32644	32834	32749	32631	32599	
153	0	32831	32631	32807	32660	32811	32647	32586	32487	
154	0	32791	32621	32851	32593	32775	32719	32711	32573	
155	0	32753	32631	32839	32637	32821	32775	32614	32769	
156	0	32716	32478	32813	32593	32815	32719	32572	32729	
157	0	32710	32591	32891	32707	32855	32747	32569	32791	
158	0	32684	32451	32753	32677	32903	32815	32599	32873	
159	0	32613	32519	32737	32591	32692	32879	32611	32894	
160	0	32492	32454	32695	32725	32665	32833	32549	32890	
161	0	32557	32595	32719	32710	32675	32706	32603	32882	
162	0	32590	32468	32647	32598	32599	32795	32627	32925	
163	0	32535	32671	32722	32696	32609	32863	32582	32876	
164	0	32541	32659	32557	32694	32831	32893	32588	32859	
165	0	32509	32621	32557	32711	32613	32913	32615	32955	
166	0	32456	32671	32431	32855	32615	32861	32593	32956	
167	0	32444	32577	32435	32791	32671	33022	32589	33067	
168	0	32399	32788	32378	32943	32646	32967	32635	32999	
169	0	32391	32887	32335	32943	32807	32998	32635	33086	
170	0	32313	32845	32359	32957	32895	33023	32679	33207	
171	0	32295	32913	32219	33099	32855	33110	32578	33231	
172	0	32262	32817	32171	33113	32740	33092	32515	33332	
173	0	32173	32898	32135	33323	32927	33148	32516	33329	
174	0	32254	32867	32132	33180	32890	33083	32543	33531	
175	0	32412	32924	32376	33182	32839	33030	32647	33382	
176	0	32612	32799	32509	33011	32871	32930	32611	33151	
177	0	32677	32629	32537	32918	32857	32863	32599	32865	
178	0	32762	32743	32695	32699	32947	32745	32665	32831	
179	0	32875	32658	32775	32727	32711	32702	32753	32647	
180	0	32896	32567	32829	32604	32679	32566	32741	32501	
181	0	33033	32699	32938	32667	32655	32535	32820	32631	
182	0	33040	32703	32919	32609	32639	32659	32702	32481	
183	0	33024	32527	32943	32579	32647	32687	32799	32424	
184	0	33083	32658	32973	32620	32723	32559	32875	32349	
185	0	33063	32503	32962	32514	32694	32615	32865	32374	
186	0	33071	32635	33021	32631	32706	32596	32787	32423	
187	0	33078	32445	32956	32627	32755	32555	32827	32399	
188	0	33046	32679	33071	32515	32775	32579	32839	32367	
189	0	32999	32605	32955	32658	32727	32615	32703	32390	
190	0	33016	32705	32943	32585	32687	32596	32791	32423	
191	0	32967	32613	32943	32596	32679	32660	32870	32495	
192	0	32960	32725	32965	32676	32679	32586	32851	32489	
193	0	32933	32693	32859	32683	32802	32527	32889	32508	
194	0	32932	32767	32911	32621	32747	32701	32927	32457	
195	0	32927	32730	32886	32687	32717	32701	32982	32470	
196	0	32911	32839	32885	32583	32755	32599	32847	32498	
197	0	32941	32825	32855	32735	32663	32731	33047	32433	
198	0	32891	32783	32775	32715	32575	32722	32951	32423	
199	0	32922	32815	32839	32734	32495	32735	33039	32349	
200	0	32941	32844	32855	32666	32519	32690	32971	32366	
201	0	32900	32729	32807	32613	32743	32660	32893	32553	
202	0	32919	32765	32883	32739	32684	32581	32763	32506	
203	0	32887	32703	32903	32629	32709	32570	32788	32542	
204	0	32855	32751	32819	32663	32753	32586	32775	32503	
205	0	32836	32727	32878	32507	32819	32673	32717	32543	
206	0	32869	32727	32819	32663	32743	32619	32711	32581	
207	0	32827	32742	32871	32726	32773	32739	32655	32658	
208	0	32784	32527	32767	32662	32775	32743	32687	32677	
209	0	32775	32685	32705	32695	32863	32703	32610	32613	
210	0	32775	32804	32758	32639	32802	32801	32596	32583	
211	0	32803	32599	32790	32727	32643	32794	32671	32740	
212	0	32773	32765	32689	32694	32581	32694	32738	32737	
213	0	32768	32793	32751	32759	32763	32647	32699	32685	
214	0	32765	32485	32735	32718	32775	32647	32646	32711	
215	0	32732	32667	32727	32717	32804	32679	32535	32559	
216	0	32725	32775	32763	32638	32796	32791	32625	32789	
217	0	32714	32679	32685	32727	32771	32827	32671	32833	
218	0	32703	32647	32799	32695	32815	32734	32742	32829	
219	0	32738	32579	32753	32677	32828	32722	32740	32745	
220	0	32740	32723	32699	32620	32876	32722	32647	32703	
221	0	32732	32692	32773	32734	32882	32759	32718	32725	
222	0	32743	32599	32731	32723	32949	32851	32749	32713	
223	0	32716	32711	32707	32615	32871	32833	32850	32743	
224	0	32703	32771	32788	32815	32613	32843	32866	32711	
225	0	32709	32679	32771	32667	32573	32817	32775	32628	
226	0	32713	32679	32723	32790	32757	32870	32647	32609	
227	0	32729	32599	32765	32751	32703	32791	32703	32679	
228	0	32775	32655	32775	32829	32701	32775	32715	32763	
229	0	32752	32647	32799	32836	32837	32795	32711	32723	
230	0	32694	32637	32683	32771	32924	32839	32743	32641	
231	0	32732	32703	32743	32723	32919	32831	32623	32711	
232	0	32760	32647	32671	32785	32853	32724	32751	32702	
233	0	32729	32471	32697	32684	32831	32695	32731	32735	
234	0	32690	32734	32679	32766	32647	32683	32685	32615	
235	0	32771	32687	32647	32683	32598	32694	32775	32541	
236	0	32756	32529	32687	32759	32639	32764	32639	32839	
237	0	32804	32799	32717	32676	32813	32673	32623	32730	
238	0	32718	32663	32693	32731	32734	32711	32709	32739	
239	0	32751	32549	32703	32709	32765	32690	32759	32673	
240	0	32729	32796	32759	32723	32762	32795	32646	32775	
241	0	32698	32691	32786	32619	32799	32788	32671	32775	
242	0	32695	32619	32767	32738	32873	32743	32607	32751	
243	0	32775	32735	32803	32671	32859	32707	32739	32543	
244	0	32782	32599	32715	32691	32899	32722	32700	32595	
245	0	32784	32732	32827	32626	32791	32770	32773	32727	
246	0	32736	32807	32711	32703	32712	32751	32631	32647	
247	0	32738	32671	32711	32623	32567	32839	32695	32716	
248	0	32776	32709	32809	32739	32682	32670	32743	32647	
249	0	32723	32599	32767	32769	32675	32679	32795	32711	
250	0	32764	32683	32839	32599	32562	32786	32647	32763	
251	0	32796	32541	32775	32735	32596	32719	32734	32775	
252	0	32766	32663	32775	32717	32559	32751	32671	32759	
253	0	32697	32554	32711	32679	32575	32818	32676	32735	
254	0	32759	32669	32819	32726	32613	32694	32711	32741	
255	0	32764	32587	32772	32666	32567	32685	32647	32731	
256	0	32738	32751	32813	32703	32575	32709	32729	32724	
257	0	32749	32707	32679	32703	32598	32836	32711	32669	
258	0	32743	32551	32809	32687	32742	32807	32698	32487	
259	0	32750	32727	32758	32679	32799	32773	32788	32636	
260	0	32733	32789	32697	32670	32818	32731	32751	32703	
261	0	32738	32595	32711	32761	32763	32685	32735	32671	
262	0	32775	32679	32758	32655	32827	32827	32703	32690	
263	0	32730	32621	32643	32742	32857	32817	32647	32733	
264	0	32730	32771	32717	32666	32898	32826	32757	32621	
265	0	32784	32721	32731	32775	32821	32817	32774	32594	
266	0	32743	32583	32675	32671	32807	32759	32827	32596	
267	0	32743	32671	32699	32801	32735	32647	32703	32559	
268	0	32731	32725	32735	32767	32629	32663	32631	32743	
269	0	32811	32699	32667	32791	32597	32679	32679	32795	
270	0	32719	32757	32667	32805	32594	32835	32719	32756	
271	0	32805	32727	32677	32695	32567	32766	32643	32683	
272	0	32775	32727	32756	32771	32583	32735	32605	32667	
273	0	32732	32519	32725	32745	32587	32631	32663	32647	
274	0	32823	32675	32813	32873	32602	32806	32701	32615	
275	0	32767	32661	32722	32775	32783	32757	32758	32685	
276	0	32836	32735	32715	32671	32719	32734	32687	32685	
277	0	32774	32692	32804	32742	32703	32827	32639	32706	
278	0	32662	32551	32719	32643	32775	32799	32711	32546	
279	0	32758	32725	32748	32727	32797	32663	32685	32615	
280	0	32761	32538	32715	32679	32751	32861	32627	32647	
281	0	32805	32775	32748	32803	32775	32791	32717	32519	
282	0	32754	32807	32808	32667	32866	32821	32724	32543	
283	0	32800	32646	32756	32743	32733	32799	32763	32803	
284	0	32775	32703	32791	32692	32751	32759	32713	32771	
285	0	32775	32647	32789	32644	32663	32749	32797	32711	
286	0	32815	32749	32747	32717	32609	32807	32647	32699	
287	0	32804	32725	32827	32591	32631	32775	32751	32692	
288	0	32803	32495	32749	32645	32630	32783	32767	32667	
289	0	32766	32655	32759	32573	32607	32834	32903	32727	
290	0	32766	32511	32751	32567	32663	32819	32773	32681	
291	0	32823	32701	32757	32653	32609	32695	32787	32741	
292	0	32748	32593	32797	32594	32615	32631	32745	32702	
293	0	32797	32697	32667	32687	32607	32617	32694	32749	
294	0	32687	32526	32795	32767	32758	32771	32671	32759	
295	0	32796	32743	32789	32647	32799	32757	32711	32614	
296	0	32807	32607	32791	32765	32843	32763	32783	32665	
297	0	32708	32735	32847	32746	32797	32588	32647	32698	
298	0	32735	32551	32754	32658	32797	32647	32831	32731	
299	0	32765	32694	32827	32751	32799	32647	32708	32631	
300	0	32745	32483	32807	32770	32823	32829	32663	32639	
301	0	32730	32671	32790	32759	32735	32807	32583	32683	
302	0	32695	32591	32751	32797	32799	32711	32709	32670	
303	0	32719	32667	32735	32703	32765	32775	32717	32607	
304	0	32735	32535	32743	32807	32743	32839	32690	32667	
305	0	32704	32665	32812	32869	32756	32694	32766	32707	
306	0	32739	32799	32723	32765	32807	32677	32679	32644	
307	0	32765	32757	32735	32791	32735	32799	32682	32647	
308	0	32788	32759	32775	32771	32546	32799	32642	32683	
309	0	32719	32757	32772	32621	32535	32743	32684	32619	
310	0	32723	32707	32727	32735	32775	32739	32743	32701	
311	0	32793	32626	32712	32599	32756	32720	32703	32701	
312	0	32780	32684	32746	32695	32575	32801	32711	32692	
313	0	32846	32631	32674	32615	32595	32684	32647	32639	
314	0	32780	32715	32845	32535	32623	32759	32670	32677	
315	0	32749	32487	32754	32754	32605	32791	32679	32708	
316	0	32808	32643	32791	32807	32647	32734	32754	32669	
317	0	32815	32512	32662	32675	32719	32791	32831	32679	
318	0	32802	32663	32719	32791	32823	32735	32843	32742	
319	0	32735	32519	32715	32741	32757	32775	32891	32771	
320	0	32751	32738	32797	32727	32695	32701	32901	32674	
321	0	32709	32558	32775	32727	32837	32742	32810	32705	
322	0	32775	32671	32762	32749	32807	32855	32831	32719	
323	0	32761	32539	32703	32629	32766	32743	32710	32723	
324	0	32702	32669	32707	32719	32738	32775	32607	32733	
325	0	32773	32643	32751	32671	32791	32751	32647	32711	
326	0	32756	32763	32795	32745	32863	32663	32658	32727	
327	0	32666	32621	32796	32703	32793	32669	32763	32668	
328	0	32775	32739	32807	32572	32799	32813	32631	32731	
329	0	32765	32766	32766	32679	32807	32775	32738	32743	
330	0	32801	32771	32719	32747	32843	32695	32763	32703	
331	0	32748	32754	32794	32626	32775	32745	32699	32691	
332	0	32699	32583	32793	32695	32700	32817	32647	32579	
333	0	32742	32647	32775	32647	32803	32758	32751	32754	
334	0	32809	32531	32706	32719	32799	32819	32738	32751	
335	0	32766	32731	32773	32731	32791	32631	32679	32698	
336	0	32733	32671	32861	32749	32826	32685	32591	32635	
337	0	32839	32807	32747	32735	32775	32775	32723	32698	
338	0	32767	32623	32775	32663	32807	32825	32701	32687	
339	0	32718	32690	32735	32639	32747	32681	32627	32703	
340	0	32772	32635	32797	32827	32781	32789	32711	32711	
341	0	32780	32731	32719	32763	32793	32804	32708	32807	
342	0	32792	32775	32775	32735	32756	32791	32775	32674	
343	0	32791	32767	32695	32799	32765	32643	32641	32727	
344	0	32813	32723	32771	32739	32749	32613	32766	32724	
345	0	32714	32609	32733	32703	32891	32599	32775	32647	
346	0	32786	32743	32775	32671	32821	32703	32751	32644	
347	0	32756	32741	32770	32735	32673	32646	32793	32669	
348	0	32803	32721	32742	32699	32615	32684	32717	32719	
349	0	32775	32718	32643	32791	32591	32791	32615	32705	
350	0	32743	32615	32846	32735	32631	32871	32771	32595	
351	0	32729	32767	32775	32647	32843	32843	32681	32534	
352	0	32717	32727	32647	32738	32762	32771	32767	32522	
353	0	32712	32535	32749	32657	32747	32799	32796	32733	
354	0	32750	32747	32767	32695	32799	32703	32805	32679	
355	0	32754	32691	32730	32655	32863	32719	32773	32604	
356	0	32802	32629	32775	32695	32751	32679	32751	32645	
357	0	32829	32614	32807	32662	32586	32799	32731	32599	
358	0	32787	32645	32703	32745	32787	32795	32734	32631	
359	0	32775	32793	32764	32711	32771	32771	32745	32743	
360	0	32791	32647	32867	32695	32787	32797	32738	32695	
361	0	32746	32749	32759	32695	32815	32807	32647	32613	
362	0	32757	32732	32850	32763	32783	32766	32559	32647	
363	0	32795	32738	32754	32675	32775	32791	32687	32807	
364	0	32775	32615	32695	32737	32815	32791	32679	32766	
365	0	32739	32679	32839	32740	32797	32759	32610	32687	
366	0	32745	32671	32753	32631	32807	32655	32687	32663	
367	0	32763	32579	32726	32691	32877	32679	32679	32725	
368	0	32810	32775	32805	32686	32855	32799	32671	32671	
369	0	32763	32583	32715	32772	32895	32795	32645	32557	
370	0	32719	32735	32795	32739	32876	32723	32707	32631	
371	0	32711	32708	32730	32591	32855	32811	32611	32639	
372	0	32721	32583	32687	32734	32722	32767	32646	32711	
373	0	32707	32647	32749	32646	32665	32767	32675	32723	
374	0	32758	32596	32731	32730	32615	32772	32791	32617	
375	0	32738	32759	32809	32751	32601	32627	32803	32679	
376	0	32724	32775	32742	32875	32766	32663	32839	32623	
377	0	32714	32683	32763	32769	32749	32701	32855	32711	
378	0	32688	32739	32797	32719	32751	32756	32765	32713	
379	0	32703	32740	32754	32806	32722	32787	32805	32663	
380	0	32759	32719	32746	32854	32695	32820	32837	32543	
381	0	32807	32699	32765	32932	32775	32751	32988	32571	
382	0	32749	32577	32743	32902	32839	32754	32817	32561	
383	0	32789	32707	32831	32749	32840	32786	32747	32543	
384	0	32782	32581	32702	32739	32868	32663	32692	32551	
385	0	32729	32723	32747	32670	32808	32703	32643	32551	
386	0	32719	32738	32734	32717	32690	32747	32711	32794	
387	0	32786	32518	32660	32633	32731	32804	32747	32725	
388	0	32730	32722	32759	32643	32623	32845	32718	32711	
389	0	32758	32739	32727	32647	32581	32836	32925	32663	
390	0	32733	32685	32607	32627	32596	32795	32847	32674	
391	0	32839	32734	32751	32647	32775	32735	32834	32718	
392	0	32810	32559	32727	32599	32759	32863	32654	32695	
393	0	32749	32745	32703	32667	32811	32855	32559	32709	
394	0	32749	32727	32791	32615	32754	32791	32594	32541	
395	0	32734	32519	32663	32698	32834	32799	32669	32621	
396	0	32711	32658	32711	32615	32815	32775	32703	32711	
397	0	32724	32600	32759	32685	32855	32833	32566	32775	
398	0	32751	32703	32679	32683	32854	32809	32533	32772	
399	0	32740	32783	32731	32647	32819	32735	32722	32665	
400	0	32736	32563	32793	32745	32717	32689	32647	32733	
401	0	32723	32727	32714	32647	32670	32711	32695	32681	
402	0	32757	32750	32766	32695	32641	32626	32663	32661	
403	0	32736	32612	32749	32739	32598	32685	32635	32588	
404	0	32734	32655	32790	32743	32775	32635	32583	32619	
405	0	32743	32579	32799	32717	32589	32846	32727	32610	
406	0	32722	32711	32718	32759	32621	32803	32756	32754	
407	0	32756	32767	32767	32759	32567	32789	32679	32641	
408	0	32725	32717	32669	32691	32799	32721	32707	32797	
409	0	32738	32751	32811	32739	32603	32809	32775	32671	
410	0	32799	32716	32763	32718	32811	32689	32727	32619	
411	0	32775	32673	32734	32757	32770	32679	32659	32683	
412	0	32764	32643	32700	32743	32775	32639	32628	32666	
413	0	32759	32711	32730	32647	32711	32671	32735	32694	
414	0	32754	32700	32765	32690	32766	32711	32729	32763	
415	0	32759	32550	32725	32615	32817	32759	32724	32723	
416	0	32727	32727	32692	32734	32879	32763	32625	32667	
417	0	32792	32741	32739	32678	32786	32863	32663	32551	
418	0	32775	32572	32697	32743	32699	32827	32775	32679	
419	0	32766	32671	32705	32647	32647	32791	32751	32823	
420	0	32731	32609	32743	32749	32699	32805	32759	32727	
421	0	32687	32741	32722	32736	32607	32834	32647	32717	
422	0	32735	32795	32759	32683	32646	32822	32723	32687	
423	0	32766	32695	32763	32727	32588	32643	32702	32718	
424	0	32778	32677	32788	32757	32613	32645	32823	32735	
425	0	32704	32539	32803	32831	32839	32668	32707	32638	
426	0	32729	32747	32775	32675	32764	32731	32703	32526	
427	0	32791	32807	32807	32775	32749	32723	32767	32574	
428	0	32799	32663	32757	32759	32743	32773	32727	32721	
429	0	32767	32701	32751	32837	32763	32852	32751	32736	
430	0	32731	32551	32819	32827	32751	32761	32668	32739	
431	0	32739	32662	32731	32677	32788	32788	32748	32685	
432	0	32721	32603	32767	32773	32774	32769	32762	32715	
433	0	32756	32711	32685	32749	32775	32679	32643	32791	
434	0	32753	32826	32775	32639	32767	32747	32647	32711	
435	0	32820	32698	32775	32743	32786	32799	32679	32633	
436	0	32819	32671	32719	32722	32819	32793	32693	32698	
437	0	32799	32702	32819	32734	32854	32757	32749	32695	
438	0	32751	32767	32755	32647	32914	32719	32757	32702	
439	0	32738	32706	32816	32765	32870	32762	32679	32725	
440	0	32767	32743	32747	32733	32749	32797	32814	32621	
441	0	32772	32764	32743	32775	32735	32759	32775	32555	
442	0	32759	32542	32751	32796	32679	32703	32710	32629	
443	0	32736	32716	32767	32668	32647	32724	32663	32773	
444	0	32701	32586	32754	32789	32717	32763	32730	32711	
445	0	32718	32691	32703	32755	32695	32818	32679	32734	
446	0	32708	32751	32791	32671	32643	32823	32750	32739	
447	0	32642	32727	32743	32747	32703	32833	32630	32711	
448	0	32626	32639	32709	32725	32722	32797	32708	32655	
449	0	32758	32687	32726	32668	32855	32665	32757	32682	
450	0	32748	32761	32695	32677	32758	32687	32671	32670	
451	0	32743	32647	32757	32567	32743	32775	32703	32647	
452	0	32752	32677	32677	32562	32655	32807	32769	32663	
453	0	32813	32615	32757	32567	32659	32799	32822	32733	
454	0	32761	32699	32716	32695	32647	32775	32763	32674	
455	0	32773	32655	32711	32662	32605	32811	32558	32727	
456	0	32759	32695	32749	32674	32579	32835	32636	32668	
457	0	32767	32708	32647	32679	32631	32775	32694	32605	
458	0	32792	32558	32839	32638	32775	32821	32719	32531	
459	0	32809	32743	32786	32714	32775	32827	32732	32763	
460	0	32782	32629	32694	32605	32805	32645	32607	32771	
461	0	32798	32755	32813	32685	32759	32611	32727	32663	
462	0	32770	32726	32771	32703	32743	32687	32867	32719	
463	0	32815	32549	32771	32895	32785	32675	32755	32639	
464	0	32826	32775	32833	32747	32841	32756	32856	32647	
465	0	32748	32743	32775	32831	32845	32743	32903	32724	
466	0	32747	32701	32767	32711	32842	32807	32775	32667	
467	0	32775	32683	32775	32811	32743	32783	32838	32615	
468	0	32780	32557	32767	32811	32683	32827	32723	32527	
469	0	32782	32700	32767	32671	32647	32690	32677	32550	
470	0	32767	32591	32781	32795	32773	32767	32619	32759	
471	0	32717	32791	32759	32647	32711	32755	32647	32724	
472	0	32769	32801	32759	32794	32700	32647	32679	32711	
473	0	32799	32717	32807	32739	32809	32663	32685	32724	
474	0	32723	32762	32771	32681	32799	32775	32575	32694	
475	0	32769	32626	32799	32885	32775	32775	32681	32747	
476	0	32828	32727	32761	32693	32743	32775	32693	32679	
477	0	32788	32645	32767	32847	32615	32751	32834	32639	
478	0	32775	32724	32759	32854	32614	32743	32703	32633	
479	0	32807	32663	32711	32567	32724	32807	32667	32637	
480	0	32713	32775	32743	32711	32764	32799	32759	32644	
481	0	32716	32733	32767	32646	32693	32671	32766	32621	
482	0	32716	32620	32725	32593	32615	32687	32719	32679	
483	0	32806	32677	32820	32517	32579	32749	32713	32718	
484	0	32719	32565	32775	32647	32607	32823	32791	32723	
485	0	32796	32703	32775	32623	32671	32748	32719	32724	
486	0	32747	32602	32767	32499	32621	32775	32689	32699	
487	0	32726	32727	32767	32626	32623	32810	32671	32583	
488	0	32681	32663	32789	32543	32621	32754	32775	32555	
489	0	32756	32611	32679	32697	32629	32765	32730	32541	
490	0	32669	32647	32687	32543	32807	32821	32745	32637	
491	0	32775	32619	32679	32751	32754	32683	32659	32647	
492	0	32775	32725	32703	32793	32775	32599	32622	32763	
493	0	32684	32702	32727	32647	32727	32646	32737	32747	
494	0	32769	32615	32690	32743	32794	32745	32687	32769	
495	0	32767	32699	32775	32810	32795	32743	32734	32743	
496	0	32772	32590	32743	32586	32765	32703	32709	32687	
497	0	32780	32724	32771	32707	32742	32715	32759	32601	
498	0	32773	32629	32725	32903	32709	32722	32733	32645	
499	0	32767	32739	32739	32955	32751	32726	32775	32635	
500	0	32743	32775	32811	32803	32739	32655	32749	32647	
501	0	32809	32621	32803	32770	32754	32658	32738	32701	
502	0	32757	32685	32723	32791	32827	32647	32763	32687	
503	0	32805	32674	32769	32786	32847	32655	32724	32564	
504	0	32798	32767	32695	32630	32855	32739	32695	32566	
505	0	32773	32717	32835	32703	32871	32846	32647	32583	
506	0	32794	32611	32775	32699	32765	32831	32644	32541	
507	0	32784	32772	32694	32555	32775	32721	32695	32681	
508	0	32756	32534	32804	32561	32747	32775	32687	32661	
509	0	32749	32661	32855	32532	32751	32838	32803	32647	
510	0	32775	32607	32734	32754	32722	32783	32722	32797	
511	0	32775	32741	32599	32647	32844	32670	32731	32820	
512	0	32729	32745	32747	32547	32807	32775	32694	32695	
513	0	32789	32551	32743	32803	32710	32767	32761	32705	
514	0	32723	32679	32711	32674	32727	32839	32717	32642	
515	0	32740	32541	32727	32743	32667	32725	32668	32719	
516	0	32799	32678	32850	32641	32559	32723	32751	32629	
517	0	32845	32679	32711	32763	32647	32830	32711	32549	
518	0	32850	32631	32703	32743	32611	32775	32743	32553	
519	0	32831	32703	32764	32677	32554	32877	32621	32759	
520	0	32818	32667	32678	32797	32771	32837	32689	32731	
521	0	32745	32701	32674	32687	32846	32654	32743	32673	
522	0	32801	32692	32761	32684	32763	32647	32679	32647	
523	0	32705	32623	32690	32658	32900	32635	32711	32787	
524	0	32749	32620	32713	32757	32863	32700	32660	32677	
525	0	32810	32646	32821	32647	32795	32791	32639	32556	
526	0	32729	32574	32775	32765	32854	32807	32791	32615	
527	0	32699	32687	32837	32710	32771	32757	32756	32575	
528	0	32723	32743	32799	32775	32660	32767	32719	32708	
529	0	32677	32708	32791	32743	32615	32762	32831	32647	
530	0	32736	32707	32791	32677	32582	32775	32695	32647	
531	0	32684	32811	32829	32751	32703	32775	32698	32606	
532	0	32768	32831	32751	32734	32784	32803	32775	32635	
533	0	32854	32804	32823	32698	32719	32665	32723	32660	
534	0	32813	32703	32739	32756	32760	32775	32739	32615	
535	0	32818	32765	32674	32823	32843	32807	32698	32707	
536	0	32773	32885	32724	32583	32833	32763	32751	32647	
537	0	32700	32789	32667	32679	32898	32765	32775	32577	
538	0	32631	32696	32639	32551	32763	32783	32762	32671	
539	0	32572	32647	32765	32668	32719	32732	32737	32802	
540	0	32607	32749	32751	32661	32663	32813	32767	32804	
541	0	32655	32687	32813	32751	32679	32819	32727	32702	
542	0	32662	32711	32769	32725	32733	32771	32665	32710	
543	0	32773	32610	32742	32701	32818	32629	32741	32674	
544	0	32711	32495	32743	32759	32858	32827	32607	32710	
545	0	32662	32529	32631	32775	32829	32845	32701	32719	
546	0	32667	32540	32717	32783	32839	32729	32795	32647	
547	0	32621	32445	32734	32815	32727	32742	32755	32719	
548	0	32679	32263	32755	32485	32711	32685	32674	32639	
549	0	32594	32475	32823	32669	32692	32795	32765	32579	
550	0	32512	32467	32772	32620	32685	32797	32769	32492	
551	0	32548	32749	32811	32612	32795	32692	32747	32471	
552	0	32597	32958	32722	32647	32735	32647	32597	32543	
553	0	32723	32807	32711	32538	32631	32659	32571	32791	
554	0	32708	33101	32743	32789	32599	32738	32682	32742	
555	0	32787	33063	32719	32762	32617	32823	32679	32775	
556	0	32929	32871	32739	32749	32821	32849	32674	32668	
557	0	32929	33047	32791	32733	32807	32791	32702	32677	
558	0	32924	32935	32718	32879	32762	32715	32676	32561	
559	0	33104	32804	32700	32751	32775	32692	32751	32821	
560	0	33130	32799	32767	32854	32839	32775	32756	32734	
561	0	33026	32609	32751	32686	32859	32740	32767	32720	
562	0	32974	32812	32759	32655	32903	32847	32775	32735	
563	0	32962	32698	32790	32738	32807	32775	32655	32647	
564	0	33067	32611	32647	32605	32862	32643	32715	32638	
565	0	32997	32751	32783	32731	32871	32639	32711	32581	
566	0	32775	32647	32685	32765	32838	32745	32801	32671	
567	0	32756	32771	32719	32573	32695	32783	32718	32679	
568	0	32716	32743	32775	32711	32719	32791	32775	32712	
569	0	32684	32721	32743	32679	32684	32759	32775	32684	
570	0	32705	32704	32787	32810	32673	32767	32796	32663	
571	0	32683	32507	32723	32927	32637	32757	32691	32487	
572	0	32638	32671	32711	32893	32711	32750	32835	32561	
573	0	32679	32433	32730	32819	32717	32595	32799	32631	
574	0	32774	32638	32743	32767	32755	32603	32773	32634	
575	0	32799	32766	32843	32693	32703	32719	32647	32711	
576	0	32834	32853	32775	32807	32764	32827	32685	32647	
577	0	32877	32869	32743	32677	32695	32769	32685	32647	
578	0	32815	32739	32827	32722	32702	32717	32734	32663	
579	0	32746	32877	32743	32597	32601	32671	32761	32687	
580	0	32623	32823	32783	32602	32581	32718	32690	32711	
581	0	32593	32719	32741	32455	32613	32797	32703	32703	
582	0	32580	32574	32735	32555	32765	32762	32775	32551	
583	0	32580	32511	32699	32571	32773	32823	32732	32591	
584	0	32579	32703	32763	32666	32815	32799	32706	32603	
585	0	32647	32607	32762	32757	32803	32660	32646	32611	
586	0	32720	32319	32718	32815	32727	32607	32658	32698	
587	0	32742	32543	32827	32818	32775	32587	32699	32717	
588	0	32747	32492	32725	32889	32854	32643	32742	32683	
589	0	32775	32323	32715	32754	32741	32741	32784	32786	
590	0	32861	32431	32764	32771	32643	32743	32743	32626	
591	0	32701	32401	32748	32785	32559	32785	32738	32599	
592	0	32719	32355	32647	32829	32612	32795	32856	32615	
593	0	32719	32519	32785	32839	32623	32745	32738	32503	
594	0	32712	32284	32799	32724	32706	32761	32743	32738	
595	0	32726	32519	32756	32671	32807	32775	32749	32679	
596	0	32756	32517	32773	32604	32719	32783	32791	32647	
597	0	32726	32475	32799	32690	32775	32787	32751	32638	
598	0	32719	32671	32699	32640	32811	32659	32729	32711	
599	0	32755	32690	32823	32716	32873	32701	32687	32629	
600	0	32732	32903	32747	32763	32863	32667	32631	32517	
601	0	32769	32799	32791	32722	32702	32751	32623	32762	
602	0	32844	32662	32805	32667	32615	32823	32765	32759	
603	0	32775	32857	32827	32742	32558	32756	32771	32715	
604	0	32751	32903	32815	32694	32587	32727	32780	32719	
605	0	32775	32863	32800	32549	32637	32787	32845	32683	
606	0	32772	32879	32743	32711	32570	32775	32663	32647	
607	0	32814	32739	32839	32682	32580	32615	32743	32739	
608	0	32764	32791	32683	32802	32571	32739	32741	32711	
609	0	32804	32679	32718	32795	32631	32751	32731	32599	
610	0	32810	32707	32751	32676	32589	32733	32663	32591	
611	0	32807	32855	32719	32702	32586	32710	32663	32527	
612	0	32822	32807	32754	32831	32559	32819	32737	32639	
613	0	32839	32831	32709	32756	32562	32836	32754	32629	
614	0	32780	32755	32821	32663	32579	32683	32641	32503	
615	0	32838	32775	32763	32583	32541	32678	32543	32759	
616	0	32751	32861	32738	32747	32747	32628	32523	32683	
617	0	32771	32639	32775	32671	32772	32575	32587	32687	
618	0	32793	32751	32757	32690	32811	32623	32645	32735	
619	0	32756	32749	32742	32659	32789	32688	32643	32627	
620	0	32738	32558	32685	32820	32855	32775	32730	32583	
621	0	32814	32807	32759	32727	32839	32730	32837	32711	
622	0	32805	32805	32787	32785	32699	32747	32747	32727	
623	0	32828	32529	32673	32661	32629	32947	32727	32655	
624	0	32826	32775	32750	32759	32557	32759	32919	32667	
625	0	32830	32775	32703	32687	32802	32695	33035	32559	
626	0	32835	32735	32719	32831	32775	32727	32991	32633	
627	0	32796	32759	32743	32775	32775	32755	32903	32639	
628	0	32843	32647	32727	32871	32719	32761	32783	32671	
629	0	32841	32759	32773	32763	32775	32748	32631	32506	
630	0	32811	32743	32799	32797	32915	32775	32687	32701	
631	0	32798	32589	32726	32666	32890	32653	32655	32695	
632	0	32789	32775	32725	32679	32709	32660	32684	32658	
633	0	32769	32733	32799	32679	32631	32647	32665	32703	
634	0	32815	32587	32755	32635	32597	32714	32602	32711	
635	0	32818	32703	32787	32715	32559	32775	32643	32695	
636	0	32711	32663	32767	32543	32771	32845	32751	32583	
637	0	32755	32575	32765	32636	32751	32814	32743	32727	
638	0	32737	32669	32839	32495	32757	32807	32788	32735	
639	0	32775	32578	32749	32663	32759	32729	32636	32775	
640	0	32717	32633	32811	32594	32775	32852	32658	32702	
641	0	32737	32605	32727	32787	32775	32771	32637	32659	
642	0	32810	32743	32795	32757	32725	32806	32731	32717	
643	0	32822	32719	32801	32647	32693	32788	32711	32715	
644	0	32773	32641	32735	32749	32730	32687	32871	32743	
645	0	32775	32613	32807	32520	32743	32621	32795	32763	
646	0	32756	32645	32727	32720	32818	32683	32818	32662	
647	0	32700	32615	32669	32759	32861	32759	32587	32567	
648	0	32708	32639	32775	32751	32895	32815	32615	32790	
649	0	32745	32551	32770	32627	32877	32734	32571	32809	
650	0	32717	32699	32719	32671	32850	32836	32564	32757	
651	0	32722	32567	32677	32814	32843	32821	32605	32741	
652	0	32732	32735	32662	32663	32799	32807	32709	32716	
653	0	32764	32742	32647	32783	32745	32659	32676	32679	
654	0	32756	32647	32577	32703	32807	32767	32631	32719	
655	0	32755	32691	32753	32662	32771	32785	32726	32689	
656	0	32772	32545	32773	32869	32711	32703	32775	32717	
657	0	32772	32675	32867	32679	32807	32786	32717	32617	
658	0	32786	32620	32767	32743	32727	32775	32671	32716	
659	0	32729	32687	32849	32719	32733	32625	32714	32679	
660	0	32751	32567	32804	32707	32727	32786	32727	32726	
661	0	32796	32749	32831	32847	32767	32808	32647	32711	
662	0	32804	32647	32727	32839	32745	32717	32609	32745	
663	0	32740	32735	32775	32667	32815	32807	32577	32627	
664	0	32834	32671	32773	32711	32832	32718	32663	32563	
665	0	32791	32570	32661	32623	32787	32759	32853	32727	
666	0	32731	32671	32775	32759	32873	32745	32713	32739	
667	0	32709	32637	32707	32743	32810	32647	32836	32701	
668	0	32716	32514	32733	32737	32647	32629	32729	32679	
669	0	32688	32635	32791	32717	32583	32677	32817	32709	
670	0	32671	32581	32735	32611	32679	32815	32612	32705	
671	0	32663	32725	32819	32665	32635	32671	32699	32615	
672	0	32637	32763	32686	32635	32655	32674	32765	32583	
673	0	32687	32543	32694	32755	32679	32711	32789	32754	
674	0	32694	32694	32791	32684	32795	32700	32843	32685	
675	0	32726	32767	32718	32707	32757	32786	32741	32732	
676	0	32757	32661	32763	32671	32795	32775	32623	32621	
677	0	32761	32719	32791	32763	32759	32756	32679	32615	
678	0	32753	32623	32740	32771	32707	32617	32751	32671	
679	0	32784	32710	32860	32829	32743	32635	32647	32766	
680	0	32808	32786	32751	32835	32751	32751	32638	32715	
681	0	32807	32559	32715	32677	32847	32655	32695	32647	
682	0	32855	32767	32815	32767	32702	32740	32725	32716	
683	0	32769	32745	32746	32645	32673	32807	32685	32692	
684	0	32754	32634	32711	32803	32603	32775	32663	32641	
685	0	32771	32707	32739	32605	32713	32775	32546	32614	
686	0	32748	32567	32715	32745	32667	32679	32725	32573	
687	0	32740	32757	32759	32668	32621	32745	32748	32629	
688	0	32701	32679	32765	32775	32795	32735	32701	32665	
689	0	32750	32735	32763	32690	32735	32765	32755	32708	
690	0	32670	32567	32699	32679	32875	32730	32691	32679	
691	0	32689	32700	32700	32797	32871	32757	32707	32549	
692	0	32745	32734	32837	32655	32787	32811	32561	32679	
693	0	32726	32577	32797	32655	32767	32845	32633	32775	
694	0	32765	32687	32719	32644	32690	32839	32686	32749	
695	0	32828	32753	32836	32663	32681	32839	32748	32701	
696	0	32679	32569	32807	32596	32629	32809	32775	32644	
697	0	32741	32622	32771	32542	32615	32826	32647	32711	
698	0	32850	32629	32821	32719	32575	32703	32634	32743	
699	0	32801	32711	32775	32635	32605	32723	32699	32743	
700	0	32774	32733	32883	32805	32647	32790	32748	32669	
701	0	32807	32743	32743	32804	32622	32871	32695	32583	
702	0	32694	32738	32773	32795	32571	32719	32775	32567	
703	0	32740	32725	32661	32820	32641	32831	32868	32598	
704	0	32815	32762	32711	32756	32589	32773	32871	32605	
705	0	32812	32713	32741	32743	32609	32599	32855	32617	
706	0	32732	32707	32686	32787	32585	32695	32841	32587	
707	0	32767	32567	32781	32727	32623	32817	32829	32631	
708	0	32745	32699	32775	32727	32549	32758	32668	32774	
709	0	32729	32647	32847	32749	32551	32741	32743	32663	
710	0	32706	32804	32741	32974	32566	32693	32739	32644	
711	0	32730	32754	32709	32934	32587	32788	32759	32647	
712	0	32764	32527	32699	32887	32735	32757	32571	32715	
713	0	32742	32663	32671	32759	32751	32841	32671	32677	
714	0	32731	32557	32790	32535	32718	32790	32669	32693	
715	0	32760	32731	32724	32775	32834	32749	32666	32555	
716	0	32742	32751	32703	32567	32775	32799	32687	32573	
717	0	32751	32666	32815	32679	32756	32727	32647	32647	
718	0	32758	32749	32766	32679	32775	32583	32615	32823	
719	0	32775	32453	32807	32598	32767	32647	32615	32783	
720	0	32775	32726	32767	32703	32911	32689	32612	32743	
721	0	32764	32689	32662	32638	32829	32710	32619	32790	
722	0	32743	32559	32732	32735	32739	32679	32599	32691	
723	0	32794	32726	32846	32637	32627	32689	32659	32623	
724	0	32774	32711	32783	32719	32601	32663	32720	32589	
725	0	32796	32583	32811	32715	32582	32717	32756	32667	
726	0	32749	32709	32797	32749	32567	32671	32703	32723	
727	0	32797	32607	32767	32787	32559	32764	32687	32691	
728	0	32745	32767	32833	32695	32549	32759	32801	32675	
729	0	32724	32754	32759	32755	32571	32803	32742	32695	
730	0	32717	32561	32742	32681	32796	32839	32711	32703	
731	0	32769	32751	32839	32701	32743	32813	32757	32745	
732	0	32739	32591	32769	32655	32775	32735	32727	32691	
733	0	32773	32721	32764	32693	32771	32775	32722	32623	
734	0	32741	32695	32813	32614	32759	32742	32715	32543	
735	0	32774	32518	32725	32693	32719	32748	32759	32551	
736	0	32781	32695	32751	32711	32759	32789	32701	32515	
737	0	32808	32655	32701	32671	32762	32831	32818	32575	
738	0	32702	32797	32743	32703	32799	32757	32757	32727	
739	0	32725	32711	32807	32625	32895	32724	32751	32670	
740	0	32734	32523	32716	32775	32879	32683	32685	32615	
741	0	32723	32735	32735	32578	32739	32655	32631	32673	
742	0	32713	32707	32767	32703	32743	32679	32705	32586	
743	0	32768	32542	32703	32683	32647	32823	32703	32535	
744	0	32762	32663	32787	32783	32695	32751	32767	32541	
745	0	32690	32578	32732	32759	32667	32739	32735	32701	
746	0	32719	32756	32639	32679	32595	32754	32705	32711	
747	0	32765	32743	32754	32775	32567	32799	32807	32663	
748	0	32694	32583	32668	32686	32655	32743	32695	32599	
749	0	32753	32669	32754	32823	32621	32637	32767	32646	
750	0	32783	32519	32755	32679	32583	32615	32710	32719	
751	0	32770	32642	32743	32681	32647	32743	32839	32684	
752	0	32725	32549	32834	32775	32675	32700	32807	32691	
753	0	32732	32586	32756	32654	32705	32711	32675	32687	
754	0	32727	32452	32758	32709	32727	32797	32753	32695	
755	0	32789	32670	32735	32689	32785	32698	32669	32610	
756	0	32775	32621	32743	32639	32738	32708	32773	32565	
757	0	32758	32711	32698	32708	32805	32799	32634	32631	
758	0	32784	32623	32823	32693	32845	32773	32693	32599	
759	0	32761	32674	32775	32591	32867	32775	32721	32571	
760	0	32770	32573	32740	32703	32895	32797	32684	32583	
761	0	32775	32741	32637	32711	32885	32699	32775	32581	
762	0	32773	32766	32793	32687	32839	32622	32771	32542	
763	0	32786	32699	32781	32707	32911	32807	32722	32588	
764	0	32801	32787	32722	32677	32851	32735	32751	32759	
765	0	32764	32589	32820	32850	32799	32743	32751	32711	
766	0	32735	32715	32803	32765	32709	32847	32705	32657	
767	0	32726	32809	32759	32745	32683	32858	32707	32727	
768	0	32730	32749	32729	32759	32753	32684	32594	32662	
769	0	32730	32769	32639	32638	32739	32679	32698	32737	
770	0	32751	32748	32741	32679	32700	32749	32727	32658	
771	0	32769	32671	32663	32678	32766	32806	32748	32583	
772	0	32678	32623	32727	32660	32805	32703	32690	32638	
773	0	32775	32703	32698	32718	32791	32789	32694	32743	
774	0	32745	32587	32701	32679	32775	32773	32799	32749	
775	0	32775	32769	32751	32756	32867	32764	32771	32646	
776	0	32823	32559	32724	32765	32873	32647	32679	32697	
777	0	32741	32631	32754	32647	32811	32805	32739	32639	
778	0	32781	32609	32791	32739	32689	32756	32735	32679	
779	0	32757	32739	32867	32751	32738	32695	32774	32679	
780	0	32723	32734	32845	32682	32791	32749	32739	32613	
781	0	32741	32737	32711	32690	32773	32751	32662	32567	
782	0	32711	32835	32782	32603	32754	32834	32658	32531	
783	0	32763	32679	32769	32903	32735	32813	32765	32549	
784	0	32724	32759	32831	32735	32751	32727	32671	32831	
785	0	32735	32523	32775	32532	32722	32723	32695	32711	
786	0	32791	32661	32783	32635	32549	32741	32732	32702	
787	0	32716	32517	32711	32644	32615	32711	32633	32639	
788	0	32712	32621	32781	32623	32719	32734	32685	32635	
789	0	32748	32670	32701	32759	32677	32834	32686	32670	
790	0	32797	32751	32749	32727	32685	32809	32763	32804	
791	0	32749	32743	32787	32749	32647	32679	32707	32711	
792	0	32697	32583	32743	32647	32763	32658	32687	32791	
793	0	32742	32687	32738	32639	32795	32799	32681	32717	
794	0	32793	32551	32775	32741	32859	32711	32749	32741	
795	0	32739	32766	32800	32647	32857	32769	32681	32743	
796	0	32737	32535	32775	32727	32879	32859	32738	32613	
797	0	32823	32745	32766	32727	32903	32811	32731	32557	
798	0	32775	32655	32805	32671	32815	32701	32647	32593	
799	0	32780	32737	32713	32737	32738	32794	32693	32674	
800	0	32767	32590	32790	32807	32769	32723	32756	32671	
801	0	32786	32703	32684	32655	32759	32798	32807	32687	
802	0	32762	32695	32765	32771	32789	32799	32739	32799	
803	0	32791	32743	32711	32647	32701	32825	32809	32775	
804	0	32767	32731	32797	32786	32564	32703	32751	32695	
805	0	32759	32758	32733	32671	32586	32775	32699	32595	
806	0	32740	32767	32775	32703	32687	32786	32701	32631	
807	0	32748	32685	32713	32807	32700	32795	32749	32639	
808	0	32704	32858	32727	32823	32807	32845	32867	32647	
809	0	32729	32758	32699	32717	32721	32757	32708	32628	
810	0	32708	32767	32715	32822	32835	32553	32811	32683	
811	0	32708	32647	32733	32839	32802	32634	32775	32695	
812	0	32758	32763	32703	32747	32835	32789	32758	32679	
813	0	32709	32631	32727	32855	32791	32767	32823	32671	
814	0	32727	32791	32691	32765	32749	32838	32749	32630	
815	0	32748	32742	32743	32663	32735	32867	32630	32731	
816	0	32754	32743	32767	32791	32758	32698	32723	32612	
817	0	32855	32543	32802	32578	32727	32578	32799	32449	
818	0	32877	32655	32773	32705	32748	32667	32751	32383	
819	0	32886	32551	32815	32685	32765	32749	32775	32486	
820	0	32900	32775	32796	32627	32677	32621	32727	32445	
821	0	32827	32818	32746	32789	32660	32599	32767	32642	
822	0	32921	32587	32844	32642	32759	32694	32876	32559	
823	0	32898	32756	32771	32679	32804	32676	32863	32575	
824	0	32873	32687	32887	32647	32742	32557	32742	32551	
825	0	32856	32729	32811	32600	32725	32743	32814	32559	
826	0	32878	32703	32871	32599	32549	32699	32723	32547	
827	0	32815	32749	32791	32487	32611	32711	32660	32527	
828	0	32893	32559	32869	32623	32551	32711	32659	32631	
829	0	32864	32639	33015	32527	32735	32729	32655	32586	
830	0	32869	32698	32925	32647	32739	32733	32675	32516	
831	0	32903	32559	32903	32643	32765	32703	32702	32463	
832	0	32876	32601	32946	32647	32756	32589	32647	32515	
833	0	32893	32503	32869	32533	32789	32589	32593	32679	
834	0	32806	32583	32950	32623	32819	32647	32527	32683	
835	0	32786	32581	32867	32711	32829	32773	32575	32695	
836	0	32739	32637	32877	32607	32821	32682	32583	32679	
837	0	32781	32621	32902	32623	32769	32719	32631	32643	
838	0	32798	32543	32855	32527	32785	32775	32559	32729	
839	0	32759	32637	32903	32647	32647	32647	32623	32715	
840	0	32666	32391	32823	32596	32829	32733	32615	32763	
841	0	32644	32531	32799	32725	32843	32719	32695	32876	
842	0	32548	32564	32839	32691	32851	32767	32623	32739	
843	0	32570	32579	32647	32774	32839	32819	32543	32646	
844	0	32550	32655	32647	32691	32844	32903	32629	32636	
845	0	32561	32551	32579	32739	32895	32858	32590	32695	
846	0	32526	32535	32513	32679	32835	32866	32643	32925	
847	0	32496	32493	32493	32599	32837	32775	32491	32981	
848	0	32479	32657	32460	32805	32864	32935	32641	33023	
849	0	32461	32639	32415	32747	32795	32951	32689	32951	
850	0	32396	32655	32375	33023	32938	33045	32617	33039	
851	0	32387	32717	32285	32997	32963	33057	32663	33041	
852	0	32409	32655	32210	33074	32941	33055	32609	33063	
853	0	32326	32791	32197	33023	32915	32980	32535	33111	
854	0	32276	32671	32087	33179	32893	33115	32571	33229	
855	0	32195	32877	32118	33247	32919	33243	32466	33399	
856	0	32165	32791	32071	33195	32979	33124	32399	33372	
857	0	32332	33026	32227	33223	32974	33179	32551	33191	
858	0	32500	32915	32399	33007	32875	33052	32598	33037	
859	0	32617	32677	32622	32927	32855	32961	32735	33006	
860	0	32701	32791	32767	32707	32899	32869	32775	32975	
861	0	32767	32578	32862	32727	32817	32671	32681	32775	
862	0	32883	32709	32965	32635	32866	32559	32807	32692	
863	0	32919	32623	32972	32551	32829	32659	32829	32551	
864	0	32977	32550	32935	32431	32714	32509	32861	32519	
865	0	32970	32647	32989	32503	32555	32511	32899	32418	
866	0	32972	32647	32927	32447	32559	32455	32848	32355	
867	0	32981	32687	32903	32519	32493	32647	32855	32313	
868	0	33045	32700	33006	32449	32543	32639	32847	32378	
869	0	33019	32619	32903	32551	32567	32606	32863	32527	
870	0	32999	32671	32966	32609	32515	32647	32723	32390	
871	0	32993	32597	32923	32581	32518	32663	32833	32381	
872	0	32935	32671	32991	32647	32495	32525	32791	32343	
873	0	32956	32575	32933	32631	32503	32575	32762	32349	
874	0	32958	32743	32891	32631	32566	32679	32719	32431	
875	0	32916	32639	32839	32775	32519	32627	32695	32546	
876	0	32873	32847	32894	32639	32515	32641	32775	32503	
877	0	32970	32815	32918	32751	32455	32690	32739	32452	
878	0	32903	32759	32859	32646	32548	32555	32869	32407	
879	0	32923	32822	32933	32751	32583	32564	32891	32415	
880	0	32921	32735	32924	32711	32668	32667	32955	32466	
881	0	32943	32775	32866	32845	32711	32673	32935	32479	
882	0	32860	32580	32829	32775	32764	32675	32903	32430	
883	0	32866	32766	32783	32721	32793	32759	32887	32463	
884	0	32895	32645	32811	32835	32820	32702	32791	32500	
885	0	32923	32707	32863	32739	32767	32711	32697	32365	
886	0	32843	32743	32863	32758	32823	32601	32795	32391	
887	0	32849	32681	32881	32609	32743	32607	32867	32631	
888	0	32825	32687	32813	32722	32702	32604	32853	32534	
889	0	32852	32717	32822	32660	32646	32612	32855	32615	
890	0	32871	32811	32837	32577	32551	32576	32903	32501	
891	0	32846	32646	32825	32647	32630	32644	32701	32489	
892	0	32854	32727	32751	32631	32591	32757	32787	32506	
893	0	32893	32605	32746	32530	32717	32659	32822	32521	
894	0	32850	32703	32747	32655	32806	32791	32807	32681	
895	0	32798	32692	32883	32560	32827	32775	32699	32671	
896	0	32729	32710	32823	32621	32717	32785	32711	32615	
897	0	32769	32663	32823	32559	32717	32775	32623	32729	
898	0	32793	32709	32807	32671	32717	32843	32631	32714	
899	0	32721	32655	32783	32646	32751	32763	32628	32689	
900	0	32783	32703	32767	32694	32698	32831	32647	32623	
901	0	32736	32775	32804	32775	32615	32810	32615	32813	
902	0	32711	32579	32787	32677	32795	32863	32623	32657	
903	0	32708	32644	32644	32719	32799	32671	32678	32639	
904	0	32725	32707	32733	32613	32786	32799	32631	32759	
905	0	32684	32483	32785	32727	32810	32695	32685	32716	
906	0	32780	32686	32759	32804	32751	32716	32599	32626	
907	0	32760	32539	32734	32775	32823	32791	32685	32613	
908	0	32711	32660	32695	32839	32767	32715	32703	32621	
909	0	32763	32749	32679	32691	32795	32807	32695	32582	
910	0	32742	32627	32687	32767	32761	32762	32620	32591	
911	0	32759	32739	32663	32671	32775	32659	32758	32579	
912	0	32739	32583	32710	32775	32837	32827	32749	32583	
913	0	32735	32703	32647	32811	32767	32699	32707	32523	
914	0	32751	32549	32756	32751	32794	32811	32711	32743	
915	0	32665	32691	32726	32830	32786	32841	32797	32775	
916	0	32709	32803	32723	32667	32796	32735	32716	32646	
917	0	32745	32641	32771	32832	32810	32695	32677	32669	
918	0	32708	32699	32647	32663	32787	32690	32609	32694	
919	0	32709	32799	32663	32722	32815	32797	32679	32565	
920	0	32719	32807	32767	32671	32845	32796	32767	32575	
921	0	32753	32767	32647	32783	32763	32802	32791	32595	
922	0	32775	32799	32791	32715	32715	32855	32647	32613	
923	0	32748	32723	32790	32757	32871	32797	32731	32763	
924	0	32759	32562	32747	32702	32751	32717	32721	32740	
925	0	32752	32719	32833	32855	32831	32751	32646	32671	
926	0	32727	32594	32759	32683	32775	32839	32676	32703	
927	0	32759	32775	32711	32751	32677	32827	32634	32757	
928	0	32740	32771	32785	32647	32639	32748	32647	32660	
929	0	32820	32607	32731	32719	32630	32830	32711	32571	
930	0	32758	32708	32756	32607	32607	32668	32745	32557	
931	0	32740	32586	32831	32790	32829	32629	32767	32751	
932	0	32745	32733	32735	32647	32839	32671	32722	32772	
933	0	32748	32754	32756	32647	32759	32762	32734	32647	
934	0	32751	32532	32772	32633	32799	32821	32699	32663	
935	0	32754	32743	32695	32754	32775	32831	32754	32731	
936	0	32724	32759	32706	32675	32783	32719	32647	32607	
937	0	32675	32462	32811	32685	32817	32748	32675	32574	
938	0	32799	32679	32821	32755	32916	32767	32623	32815	
939	0	32731	32702	32719	32687	32871	32839	32766	32759	
940	0	32770	32583	32775	32775	32858	32794	32735	32711	
941	0	32786	32731	32743	32683	32839	32646	32775	32679	
942	0	32788	32604	32793	32743	32885	32812	32731	32615	
943	0	32808	32775	32690	32818	32903	32742	32758	32647	
944	0	32760	32739	32629	32734	32807	32723	32832	32735	
945	0	32740	32537	32713	32791	32671	32729	32775	32527	
946	0	32751	32727	32684	32661	32679	32762	32751	32599	
947	0	32758	32726	32671	32757	32670	32787	32789	32715	
948	0	32796	32564	32660	32743	32601	32815	32711	32644	
949	0	32778	32701	32775	32671	32747	32802	32679	32669	
950	0	32789	32703	32763	32766	32719	32850	32721	32555	
951	0	32738	32567	32699	32637	32743	32746	32767	32497	
952	0	32726	32731	32775	32711	32786	32663	32748	32540	
953	0	32781	32783	32668	32625	32721	32697	32634	32615	
954	0	32783	32677	32767	32745	32733	32836	32681	32722	
955	0	32743	32633	32787	32647	32799	32862	32690	32637	
956	0	32807	32551	32775	32671	32815	32740	32719	32679	
957	0	32745	32741	32810	32643	32781	32694	32775	32599	
958	0	32715	32727	32841	32594	32703	32815	32639	32629	
959	0	32740	32643	32751	32767	32773	32815	32689	32754	
960	0	32791	32587	32751	32607	32859	32703	32679	32695	
961	0	32815	32637	32775	32775	32862	32807	32629	32711	
962	0	32783	32726	32722	32703	32827	32711	32759	32719	
963	0	32806	32697	32804	32761	32799	32627	32647	32719	
964	0	32825	32555	32773	32687	32783	32655	32641	32586	
965	0	32811	32763	32727	32767	32823	32709	32685	32615	
966	0	32810	32775	32809	32623	32870	32869	32681	32815	
967	0	32775	32599	32853	32683	32775	32821	32687	32757	
968	0	32792	32660	32726	32592	32827	32789	32685	32703	
969	0	32729	32662	32820	32823	32879	32753	32745	32641	
970	0	32741	32751	32711	32703	32853	32813	32811	32665	
971	0	32703	32799	32811	32764	32850	32742	32811	32647	
972	0	32809	32679	32727	32743	32828	32615	32717	32681	
973	0	32730	32687	32708	32739	32815	32796	32791	32659	
974	0	32789	32518	32815	32807	32868	32767	32793	32686	
975	0	32719	32675	32733	32655	32874	32815	32771	32570	
976	0	32791	32805	32691	32751	32810	32741	32859	32583	
977	0	32704	32723	32767	32619	32791	32773	32715	32769	
978	0	32712	32705	32751	32679	32771	32802	32809	32711	
979	0	32775	32594	32783	32607	32799	32823	32807	32715	
980	0	32766	32745	32807	32775	32883	32847	32823	32698	
981	0	32756	32789	32677	32703	32879	32694	32655	32673	
982	0	32742	32658	32783	32843	32887	32665	32735	32683	
983	0	32782	32747	32759	32705	32725	32807	32663	32751	
984	0	32783	32751	32738	32775	32679	32789	32629	32582	
985	0	32745	32575	32807	32603	32614	32772	32614	32735	
986	0	32804	32669	32798	32693	32609	32821	32443	32746	
987	0	32759	32626	32791	32628	32615	32737	32471	32683	
988	0	32737	32807	32803	32749	32588	32733	32559	32699	
989	0	32756	32711	32679	32655	32771	32799	32642	32689	
990	0	32756	32525	32751	32748	32773	32775	32575	32607	
991	0	32722	32719	32829	32699	32843	32831	32583	32801	
992	0	32759	32768	32759	32755	32839	32775	32727	32756	
993	0	32692	32639	32703	32713	32815	32646	32623	32695	
994	0	32711	32647	32807	32811	32877	32646	32711	32684	
995	0	32687	32698	32767	32687	32843	32719	32755	32578	
996	0	32731	32655	32718	32783	32646	32810	32796	32734	
997	0	32751	32694	32692	32631	32593	32671	32843	32633	
998	0	32791	32679	32803	32683	32791	32747	33039	32691	
999	0	32748	32645	32738	32605	32719	32813	32971	32503	
1000	0	32746	32711	32798	32734	32751	32790	32821	32741	
1001	0	32703	32675	32811	32715	32839	32829	32789	32709	
1002	0	32745	32543	32755	32615	32814	32791	32575	32669	
1003	0	32794	32663	32732	32582	32757	32766	32553	32719	
1004	0	32754	32658	32809	32763	32646	32827	32658	32596	
1005	0	32772	32631	32700	32647	32551	32767	32646	32783	
1006	0	32742	32711	32724	32751	32599	32820	32738	32709	
1007	0	32778	32707	32754	32743	32771	32811	32679	32662	
1008	0	32775	32487	32751	32703	32791	32759	32671	32671	
1009	0	32816	32751	32739	32835	32799	32750	32759	32543	
1010	0	32771	32771	32751	32701	32795	32695	32749	32711	
1011	0	32859	32667	32727	32783	32774	32655	32774	32671	
1012	0	32823	32743	32703	32749	32855	32813	32679	32642	
1013	0	32768	32567	32839	32783	32815	32715	32795	32647	
1014	0	32789	32745	32757	32821	32895	32783	32822	32639	
1015	0	32788	32698	32823	32698	32868	32754	32729	32411	
1016	0	32783	32767	32749	32791	32815	32738	32782	32565	
1017	0	32735	32668	32729	32630	32729	32632	32853	32679	
1018	0	32770	32722	32731	32797	32753	32786	32799	32634	
1019	0	32757	32763	32743	32735	32767	32769	32803	32623	
1020	0	32764	32629	32815	32713	32799	32775	32679	32745	
1021	0	32785	32727	32786	32767	32751	32681	32639	32707	
1022	0	32859	32635	32851	32727	32809	32725	32548	32604	
1023	0	32830	32731	32789	32715	32833	32867	32652	32725	
1024	0	32805	32695	32751	32751	32809	32871	32615	32621	
1025	0	32796	32543	32749	32700	32771	32767	32581	32725	
1026	0	32807	32775	32811	32757	32775	32743	32636	32589	
1027	0	32839	32743	32773	32647	32854	32775	32551	32599	
1028	0	32773	32559	32711	32775	32931	32689	32647	32722	
1029	0	32790	32674	32775	32743	32783	32685	32771	32703	
1030	0	32711	32551	32723	32597	32719	32804	32793	32687	
1031	0	32788	32660	32831	32723	32743	32751	32767	32634	
1032	0	32892	32543	32711	32707	32807	32803	32706	32617	
1033	0	32846	32717	32807	32571	32739	32746	32583	32678	
1034	0	32783	32557	32733	32674	32591	32687	32644	32695	
1035	0	32695	32700	32717	32685	32663	32807	32639	32719	
1036	0	32711	32537	32731	32609	32683	32670	32679	32743	
1037	0	32751	32674	32804	32738	32765	32751	32609	32767	
1038	0	32761	32603	32735	32701	32732	32783	32698	32607	
1039	0	32738	32719	32775	32742	32819	32769	32592	32700	
1040	0	32754	32595	32775	32659	32865	32655	32709	32827	
1041	0	32754	32687	32769	32854	32855	32715	32783	32726	
1042	0	32713	32679	32735	32754	32831	32854	32842	32685	
1043	0	32749	32748	32703	32704	32813	32755	33052	32711	
1044	0	32791	32727	32764	32723	32855	32719	33002	32733	
1045	0	32807	32511	32769	32607	32837	32705	32933	32587	
1046	0	32833	32607	32807	32787	32791	32799	32895	32583	
1047	0	32802	32533	32715	32731	32725	32772	32959	32623	
1048	0	32785	32679	32745	32816	32735	32647	32893	32764	
1049	0	32726	32637	32765	32740	32718	32604	32863	32691	
1050	0	32775	32709	32742	32706	32863	32667	32844	32713	
1051	0	32791	32727	32783	32646	32903	32831	32663	32637	
1052	0	32823	32514	32799	32766	32803	32698	32637	32587	
1053	0	32812	32679	32826	32719	32869	32719	32535	32580	
1054	0	32701	32619	32819	32631	32869	32813	32583	32645	
1055	0	32740	32791	32711	32677	32791	32834	32583	32787	
1056	0	32759	32731	32829	32607	32853	32820	32519	32703	
1057	0	32740	32501	32741	32638	32865	32813	32660	32647	
1058	0	32770	32736	32749	32570	32807	32834	32643	32527	
1059	0	32783	32702	32767	32773	32679	32855	32647	32811	
1060	0	32718	32647	32795	32669	32644	32810	32701	32703	
1061	0	32725	32719	32711	32800	32603	32831	32647	32708	
1062	0	32731	32727	32679	32698	32611	32847	32631	32590	
1063	0	32743	32530	32671	32786	32613	32787	32667	32561	
1064	0	32767	32719	32692	32661	32639	32801	32642	32706	
1065	0	32749	32693	32687	32719	32823	32831	32615	32604	
1066	0	32716	32539	32709	32603	32765	32719	32719	32715	
1067	0	32764	32671	32713	32712	32795	32711	32726	32703	
1068	0	32786	32671	32695	32607	32775	32775	32717	32538	
1069	0	32726	32669	32771	32731	32775	32767	32647	32557	
1070	0	32685	32723	32731	32681	32783	32839	32703	32699	
1071	0	32729	32605	32739	32755	32740	32858	32726	32647	
1072	0	32761	32775	32760	32671	32721	32791	32813	32713	
1073	0	32775	32733	32751	32799	32767	32751	32807	32662	
1074	0	32754	32662	32703	32666	32727	32660	32833	32644	
1075	0	32737	32695	32797	32756	32741	32673	32775	32551	
1076	0	32788	32709	32726	32663	32814	32758	32823	32699	
1077	0	32807	32739	32695	32719	32843	32723	32694	32713	
1078	0	32748	32727	32722	32634	32831	32836	32636	32689	
1079	0	32765	32693	32691	32753	32853	32823	32663	32677	
1080	0	32743	32721	32742	32743	32828	32786	32767	32705	
1081	0	32712	32643	32710	32748	32791	32717	32703	32583	
1082	0	32764	32721	32738	32631	32685	32708	32611	32757	
1083	0	32718	32706	32803	32759	32823	32828	32703	32701	
1084	0	32748	32557	32703	32698	32820	32775	32757	32638	
1085	0	32720	32647	32701	32868	32870	32836	32593	32751	
1086	0	32670	32737	32743	32711	32807	32833	32573	32615	
1087	0	32743	32658	32706	32753	32711	32850	32703	32841	
1088	0	32767	32711	32743	32699	32764	32767	32775	32829	
1089	0	32823	32543	32735	32805	32734	32702	32734	32735	
1090	0	32814	32677	32695	32690	32647	32639	32895	32647	
1091	0	32783	32731	32773	32751	32580	32559	32869	32637	
1092	0	32843	32687	32783	32835	32598	32623	32810	32647	
1093	0	32734	32723	32743	32833	32551	32701	32665	32527	
1094	0	32748	32533	32823	32758	32764	32758	32591	32495	
1095	0	32724	32612	32719	32683	32775	32790	32665	32627	
1096	0	32762	32609	32795	32769	32692	32775	32708	32743	
1097	0	32750	32695	32809	32655	32717	32707	32754	32681	
1098	0	32709	32758	32743	32703	32765	32751	32748	32655	
1099	0	32716	32609	32729	32691	32791	32851	32719	32767	
1100	0	32740	32695	32715	32694	32762	32764	32646	32689	
1101	0	32727	32591	32707	32659	32723	32799	32679	32679	
1102	0	32755	32743	32775	32773	32843	32870	32662	32775	
1103	0	32766	32775	32771	32647	32861	32711	32711	32729	
1104	0	32800	32549	32748	32698	32827	32638	32663	32681	
1105	0	32794	32695	32783	32575	32790	32583	32703	32725	
1106	0	32800	32599	32795	32727	32823	32708	32750	32669	
1107	0	32773	32711	32817	32681	32821	32831	32738	32694	
1108	0	32759	32557	32698	32691	32755	32793	32775	32666	
1109	0	32693	32749	32750	32868	32805	32747	32879	32694	
1110	0	32686	32834	32783	32749	32658	32743	32758	32566	
1111	0	32686	32635	32775	32749	32631	32687	32769	32765	
1112	0	32690	32678	32754	32658	32548	32719	32934	32684	
1113	0	32739	32771	32807	32804	32731	32707	33010	32662	
1114	0	32793	32770	32759	32711	32754	32783	32975	32672	
1115	0	32771	32773	32833	32788	32661	32775	32803	32679	
1116	0	32751	32592	32735	32756	32765	32759	32709	32519	
1117	0	32759	32788	32706	32766	32773	32739	32645	32675	
1118	0	32772	32743	32786	32676	32794	32806	32554	32639	
1119	0	32786	32548	32731	32727	32815	32841	32559	32687	
1120	0	32797	32612	32797	32682	32749	32829	32492	32747	
1121	0	32743	32575	32758	32717	32860	32717	32485	32611	
1122	0	32715	32630	32751	32647	32815	32807	32613	32591	
1123	0	32756	32699	32684	32700	32740	32802	32637	32796	
1124	0	32695	32621	32788	32663	32679	32859	32719	32739	
1125	0	32698	32591	32710	32734	32597	32859	32769	32713	
1126	0	32720	32731	32757	32671	32852	32807	32655	32711	
1127	0	32747	32684	32775	32711	32821	32783	32771	32699	
1128	0	32745	32695	32739	32595	32770	32629	32711	32746	
1129	0	32699	32694	32631	32716	32770	32593	32759	32703	
1130	0	32640	32543	32716	32683	32775	32682	32701	32731	
1131	0	32660	32663	32766	32738	32775	32813	32723	32588	
1132	0	32775	32534	32767	32647	32762	32811	32695	32587	
1133	0	32751	32687	32785	32715	32836	32747	32742	32583	
1134	0	32806	32684	32674	32655	32798	32647	32629	32738	
1135	0	32794	32711	32751	32642	32811	32903	32673	32797	
1136	0	32775	32695	32775	32733	32791	32815	32666	32663	
1137	0	32816	32583	32709	32628	32805	32843	32677	32703	
1138	0	32755	32647	32775	32730	32759	32842	32732	32724	
1139	0	32785	32527	32815	32635	32743	32691	32765	32711	
1140	0	32818	32677	32852	32711	32743	32695	32769	32673	
1141	0	32815	32813	32811	32617	32735	32772	32711	32698	
1142	0	32818	32519	32733	32703	32862	32741	32634	32555	
1143	0	32792	32831	32740	32631	32843	32707	32757	32715	
1144	0	32810	32679	32831	32693	32698	32679	32751	32707	
1145	0	32690	32527	32791	32690	32602	32715	32739	32667	
1146	0	32687	32723	32751	32681	32586	32735	32673	32647	
1147	0	32696	32751	32731	32796	32751	32731	32727	32685	
1148	0	32660	32534	32749	32703	32722	32707	32639	32591	
1149	0	32647	32677	32694	32767	32743	32831	32727	32647	
1150	0	32681	32743	32689	32711	32794	32825	32754	32527	
1151	0	32703	32621	32811	32755	32783	32797	32685	32630	
1152	0	32744	32647	32775	32671	32797	32823	32759	32711	
1153	0	32760	32685	32722	32759	32826	32793	32636	32687	
1154	0	32804	32709	32738	32775	32794	32801	32715	32693	
1155	0	32811	32751	32751	32835	32862	32743	32739	32738	
1156	0	32762	32578	32813	32769	32847	32789	32803	32696	
1157	0	32680	32671	32717	32804	32783	32727	32721	32654	
1158	0	32713	32644	32749	32772	32841	32663	32775	32597	
1159	0	32758	32719	32819	32723	32866	32647	32735	32717	
1160	0	32751	32669	32740	32690	32935	32684	32743	32714	
1161	0	32748	32471	32668	32662	32871	32834	32647	32727	
1162	0	32725	32647	32687	32735	32839	32839	32633	32660	
1163	0	32740	32557	32699	32655	32791	32787	32749	32583	
1164	0	32790	32775	32786	32806	32743	32859	32771	32495	
1165	0	32775	32717	32759	32631	32633	32789	32727	32581	
1166	0	32831	32543	32732	32661	32612	32823	32637	32700	
1167	0	32788	32685	32797	32629	32673	32729	32735	32709	
1168	0	32788	32580	32799	32628	32673	32621	32635	32620	
1169	0	32783	32673	32839	32583	32595	32606	32695	32655	
1170	0	32793	32739	32845	32654	32549	32615	32647	32675	
1171	0	32737	32671	32820	32662	32620	32693	32751	32696	
1172	0	32743	32717	32775	32580	32559	32796	32815	32711	
1173	0	32797	32667	32799	32773	32582	32677	32686	32690	
1174	0	32772	32731	32743	32734	32567	32709	32775	32679	
1175	0	32807	32598	32838	32772	32727	32715	32827	32594	
1176	0	32833	32804	32743	32829	32711	32775	32807	32647	
1177	0	32738	32807	32749	32727	32738	32813	32747	32587	
1178	0	32704	32685	32877	32811	32751	32765	32746	32567	
1179	0	32767	32657	32727	32697	32756	32807	32791	32719	
1180	0	32726	32639	32663	32675	32817	32805	32775	32612	
1181	0	32759	32621	32711	32676	32885	32869	32719	32747	
1182	0	32676	32690	32693	32663	32903	32775	32715	32701	
1183	0	32807	32494	32660	32525	32839	32647	32611	32719	
1184	0	32740	32647	32717	32743	32823	32647	32728	32695	
1185	0	32717	32727	32669	32709	32695	32607	32724	32587	
1186	0	32738	32767	32790	32876	32687	32773	32695	32562	
1187	0	32735	32775	32709	32745	32727	32839	32588	32587	
1188	0	32713	32743	32647	32831	32687	32719	32755	32511	
1189	0	32759	32734	32759	32796	32643	32710	32773	32609	
1190	0	32719	32564	32738	32839	32602	32719	32790	32703	
1191	0	32734	32747	32748	32716	32623	32711	32691	32603	
1192	0	32774	32764	32820	32724	32597	32726	32699	32739	
1193	0	32797	32759	32775	32711	32589	32803	32829	32679	
1194	0	32809	32711	32807	32685	32601	32791	32799	32667	
1195	0	32724	32598	32835	32762	32581	32755	32751	32527	
1196	0	32765	32771	32739	32671	32791	32786	32714	32567	
1197	0	32769	32727	32751	32751	32729	32795	32695	32733	
1198	0	32805	32615	32781	32713	32748	32681	32723	32677	
1199	0	32826	32671	32735	32747	32775	32637	32775	32711	
1200	0	32812	32771	32751	32903	32775	32629	32775	32661	
1201	0	32763	32647	32764	32791	32829	32669	32619	32621	
1202	0	32760	32684	32655	32794	32850	32668	32710	32719	
1203	0	32756	32478	32759	32751	32855	32748	32719	32791	
1204	0	32807	32767	32715	32739	32814	32751	32706	32604	
1205	0	32782	32679	32663	32690	32717	32751	32759	32597	
1206	0	32746	32597	32783	32791	32647	32740	32663	32653	
1207	0	32724	32791	32820	32658	32663	32710	32695	32825	
1208	0	32801	32751	32694	32703	32607	32740	32759	32739	
1209	0	32790	32607	32742	32583	32772	32647	32745	32740	
1210	0	32741	32769	32732	32630	32765	32614	32775	32659	
1211	0	32726	32754	32795	32619	32751	32638	32797	32525	
1212	0	32774	32541	32764	32711	32775	32691	32687	32679	
1213	0	32774	32765	32831	32635	32767	32673	32717	32683	
1214	0	32743	32767	32731	32787	32791	32661	32866	32631	
1215	0	32771	32559	32689	32751	32843	32631	32692	32629	
1216	0	32764	32509	32750	32667	32745	32839	32683	32533	
1217	0	32793	32721	32742	32731	32751	32799	32660	32641	
1218	0	32766	32772	32769	32718	32768	32803	32745	32679	
1219	0	32796	32738	32703	32829	32775	32775	32635	32663	
1220	0	32818	32699	32843	32775	32775	32786	32610	32609	
1221	0	32769	32495	32755	32831	32806	32834	32722	32685	
1222	0	32762	32621	32807	32795	32807	32775	32751	32790	
1223	0	32789	32767	32799	32796	32813	32790	32783	32725	
1224	0	32758	32705	32771	32738	32716	32775	32663	32615	
1225	0	32756	32692	32773	32759	32796	32795	32631	32791	
1226	0	32738	32559	32839	32735	32859	32669	32739	32711	
1227	0	32730	32743	32755	32775	32821	32647	32739	32667	
1228	0	32733	32718	32826	32735	32809	32647	32715	32719	
1229	0	32749	32555	32804	32725	32783	32623	32804	32579	
1230	0	32729	32762	32723	32605	32627	32703	32823	32677	
1231	0	32748	32715	32741	32695	32586	32692	32687	32719	
1232	0	32760	32591	32823	32615	32769	32615	32725	32708	
1233	0	32818	32754	32727	32698	32711	32663	32719	32681	
1234	0	32799	32759	32695	32742	32739	32673	32694	32775	
1235	0	32745	32687	32643	32738	32791	32643	32684	32621	
1236	0	32742	32771	32727	32615	32755	32669	32683	32660	
1237	0	32774	32743	32721	32757	32903	32724	32611	32757	
1238	0	32802	32587	32697	32647	32843	32677	32598	32643	
1239	0	32788	32735	32807	32791	32682	32731	32581	32740	
1240	0	32745	32719	32841	32711	32607	32772	32679	32594	
1241	0	32823	32799	32765	32667	32771	32765	32711	32734	
1242	0	32775	32587	32743	32772	32749	32767	32807	32684	
1243	0	32759	32751	32725	32623	32721	32807	32761	32655	
1244	0	32759	32772	32711	32775	32843	32773	32787	32647	
1245	0	32772	32610	32702	32718	32811	32679	32770	32564	
1246	0	32754	32743	32680	32738	32839	32695	32679	32579	
1247	0	32753	32815	32834	32733	32837	32679	32755	32623	
1248	0	32757	32599	32835	32724	32783	32627	32711	32757	
1249	0	32745	32595	32735	32539	32655	32635	32641	32679	
1250	0	32706	32719	32855	32665	32723	32703	32713	32671	
1251	0	32688	32694	32695	32771	32716	32818	32647	32631	
1252	0	32708	32647	32687	32903	32711	32739	32726	32672	
1253	0	32738	32559	32718	32631	32791	32660	32709	32723	
1254	0	32795	32687	32589	32607	32791	32775	32653	32727	
1255	0	32762	32719	32590	32675	32873	32799	32687	32747	
1256	0	32558	32810	32535	32754	32887	32599	32743	32685	
1257	0	32567	32739	32759	32789	32887	32631	32775	32715	
1258	0	32490	32647	32803	32775	32893	32747	32685	32679	
1259	0	32364	32647	32725	32751	32859	32871	32775	32719	
1260	0	32438	32543	32775	32630	32813	32766	32739	32679	
1261	0	32564	32661	32815	32727	32925	32759	32787	32628	
1262	0	32687	32455	32924	32583	32835	32767	32735	32587	
1263	0	32841	32643	32890	32623	32890	32767	32762	32511	
1264	0	32903	32723	32903	32751	32855	32780	32807	32512	
1265	0	33036	32669	32851	32701	32761	32732	32773	32562	
1266	0	33229	32759	32826	32639	32787	32759	32757	32629	
1267	0	33151	32620	32934	32751	32751	32747	32641	32641	
1268	0	33087	32738	32820	32694	32647	32767	32714	32707	
1269	0	33069	32673	32575	32735	32646	32807	32755	32691	
1270	0	32925	32559	32647	32671	32603	32789	32739	32701	
1271	0	32633	32609	32555	32551	32566	32775	32775	32703	
1272	0	32311	32503	32417	32695	32769	32722	32670	32559	
1273	0	32103	32304	32471	32767	32743	32775	32647	32598	
1274	0	32109	32549	32434	32831	32743	32699	32762	32609	
1275	0	32350	32617	32593	32719	32734	32692	32719	32655	
1276	0	32536	32797	32831	32855	32793	32735	32647	32662	
1277	0	32892	32903	32941	32671	32791	32715	32615	32738	
1278	0	33238	32943	32957	32822	32819	32679	32621	32743	
1279	0	33693	32837	33127	32861	32847	32687	32685	32790	
1280	0	33867	32935	33155	32763	32804	32695	32711	32615	
1281	0	33604	32914	33231	32805	32711	32719	32692	32493	
1282	0	33637	32751	33015	32673	32607	32692	32754	32591	
1283	0	33530	32986	32884	32717	32591	32735	32689	32767	
1284	0	33132	33079	32795	32718	32576	32783	32621	32735	
1285	0	32701	32859	32756	32719	32605	32803	32703	32741	
1286	0	32603	32659	32850	32674	32755	32815	32743	32701	
1287	0	32524	32583	32725	32869	32735	32890	32681	32711	
1288	0	32550	32385	32731	32774	32783	32868	32731	32710	
1289	0	32519	32613	32677	32629	32864	32743	32738	32591	
1290	0	32428	32578	32719	32679	32795	32807	32767	32719	
1291	0	32348	32461	32639	32551	32685	32767	32671	32647	
1292	0	32363	32598	32623	32639	32635	32783	32738	32647	
1293	0	32470	32575	32706	32599	32517	32719	32863	32639	
1294	0	32528	32475	32749	32647	32755	32743	32662	32739	
1295	0	32500	32629	32663	32646	32788	32671	32701	32743	
1296	0	32566	32669	32703	32751	32751	32759	32655	32735	
1297	0	32567	32599	32634	32629	32797	32731	32647	32600	
1298	0	32602	32615	32675	32698	32810	32775	32773	32517	
1299	0	32679	32667	32773	32723	32788	32791	32855	32762	
1300	0	32605	32509	32726	32815	32893	32786	32802	32743	
1301	0	32623	32678	32709	32811	32895	32742	32839	32725	
1302	0	32696	32707	32717	32759	32852	32754	32887	32657	
1303	0	32679	32571	32775	32767	32756	32730	32739	32715	
1304	0	32668	32675	32716	32629	32587	32782	32639	32575	
1305	0	32686	32699	32711	32679	32799	32791	32599	32583	
1306	0	32767	32759	32687	32666	32795	32767	32568	32697	
1307	0	32716	32591	32751	32843	32821	32815	32663	32671	
1308	0	32745	32726	32805	32826	32859	32735	32715	32585	
1309	0	32761	32734	32759	32701	32822	32807	32799	32517	
1310	0	32796	32593	32715	32693	32807	32735	32817	32581	
1311	0	32803	32809	32752	32629	32725	32775	32674	32715	
1312	0	32764	32713	32647	32690	32625	32795	32586	32610	
1313	0	32793	32738	32738	32647	32573	32773	32678	32694	
1314	0	32849	32613	32751	32740	32720	32806	32785	32647	
1315	0	32786	32735	32740	32703	32783	32809	32819	32717	
1316	0	32805	32690	32771	32599	32859	32759	32757	32687	
1317	0	32783	32550	32763	32599	32929	32734	32685	32790	
1318	0	32773	32722	32799	32634	32884	32751	32599	32604	
1319	0	32831	32683	32815	32725	32667	32738	32739	32755	
1320	0	32821	32623	32705	32621	32595	32757	32679	32662	
1321	0	32838	32635	32733	32742	32599	32699	32795	32708	
1322	0	32836	32703	32823	32799	32767	32715	32823	32645	
1323	0	32834	32639	32764	32871	32733	32671	32829	32621	
1324	0	32804	32711	32790	32815	32799	32634	32714	32647	
1325	0	32760	32676	32858	32830	32799	32670	32716	32708	
1326	0	32764	32743	32773	32751	32887	32663	32791	32654	
1327	0	32729	32487	32751	32637	32695	32701	32775	32642	
1328	0	32714	32703	32767	32775	32674	32755	32671	32725	
1329	0	32701	32713	32710	32709	32611	32754	32703	32583	
1330	0	32804	32577	32695	32694	32583	32808	32743	32530	
1331	0	32672	32735	32719	32583	32791	32786	32759	32685	
1332	0	32775	32706	32807	32743	32823	32753	32731	32658	
1333	0	32736	32571	32763	32591	32871	32707	32765	32703	
1334	0	32743	32687	32711	32765	32859	32691	32824	32567	
1335	0	32783	32681	32711	32743	32741	32727	32852	32564	
1336	0	32766	32655	32791	32827	32690	32791	32701	32751	
1337	0	32764	32633	32807	32689	32558	32773	32707	32591	
1338	0	32765	32759	32727	32669	32772	32723	32654	32627	
1339	0	32826	32743	32790	32637	32790	32786	32702	32575	
1340	0	32801	32566	32843	32674	32737	32751	32711	32575	
1341	0	32807	32748	32733	32743	32839	32743	32769	32703	
1342	0	32754	32756	32687	32687	32834	32775	32727	32663	
1343	0	32698	32579	32757	32751	32838	32797	32722	32669	
1344	0	32773	32686	32826	32674	32731	32748	32703	32694	
1345	0	32742	32621	32734	32751	32725	32747	32610	32668	
1346	0	32720	32730	32799	32647	32767	32863	32671	32637	
1347	0	32754	32724	32754	32775	32655	32839	32726	32615	
1348	0	32759	32531	32775	32615	32602	32743	32711	32807	
1349	0	32739	32703	32783	32707	32540	32799	32750	32751	
1350	0	32775	32603	32747	32675	32605	32683	32679	32742	
1351	0	32756	32703	32721	32723	32727	32671	32610	32703	
1352	0	32742	32775	32755	32692	32740	32796	32642	32711	
1353	0	32775	32643	32791	32715	32732	32847	32711	32727	
1354	0	32807	32723	32831	32617	32711	32799	32715	32541	
1355	0	32747	32571	32679	32769	32741	32759	32701	32467	
1356	0	32771	32707	32799	32731	32823	32811	32685	32507	
1357	0	32822	32749	32711	32669	32782	32817	32759	32468	
1358	0	32798	32663	32695	32663	32755	32623	32751	32495	
1359	0	32825	32676	32805	32631	32789	32638	32769	32733	
1360	0	32791	32551	32715	32724	32763	32741	32789	32791	
1361	0	32775	32717	32791	32643	32735	32775	32755	32743	
1362	0	32806	32751	32705	32663	32711	32722	32735	32709	
1363	0	32775	32733	32727	32662	32775	32853	32754	32726	
1364	0	32828	32727	32803	32759	32807	32855	32659	32703	
1365	0	32690	32623	32708	32699	32879	32767	32655	32707	
1366	0	32690	32775	32751	32775	32784	32807	32634	32673	
1367	0	32764	32685	32738	32662	32732	32631	32647	32725	
1368	0	32753	32531	32643	32775	32751	32647	32713	32743	
1369	0	32781	32663	32773	32719	32773	32815	32738	32767	
1370	0	32819	32491	32795	32695	32741	32739	32623	32735	
1371	0	32813	32677	32773	32812	32790	32775	32687	32773	
1372	0	32772	32771	32763	32732	32671	32829	32743	32707	
1373	0	32764	32775	32759	32839	32727	32765	32775	32626	
1374	0	32724	32695	32791	32759	32589	32807	32699	32803	
1375	0	32754	32663	32679	32743	32591	32687	32663	32799	
1376	0	32759	32643	32741	32583	32591	32655	32771	32727	
1377	0	32781	32679	32775	32723	32605	32734	32727	32634	
1378	0	32730	32531	32715	32674	32745	32751	32771	32662	
1379	0	32687	32741	32799	32746	32764	32765	32663	32605	
1380	0	32692	32738	32759	32641	32737	32749	32671	32479	
1381	0	32719	32570	32799	32659	32727	32669	32791	32535	
1382	0	32716	32668	32787	32551	32790	32735	32706	32606	
1383	0	32727	32639	32696	32579	32749	32771	32771	32716	
1384	0	32745	32740	32810	32535	32811	32847	32711	32647	
1385	0	32812	32765	32743	32723	32851	32791	32633	32603	
1386	0	32804	32797	32793	32613	32812	32818	32701	32707	
1387	0	32734	32631	32824	32711	32663	32823	32797	32641	
1388	0	32698	32751	32731	32615	32713	32683	32749	32615	
1389	0	32737	32570	32679	32711	32641	32677	32739	32580	
1390	0	32737	32699	32751	32714	32551	32693	32607	32640	
1391	0	32680	32733	32701	32773	32809	32719	32547	32669	
1392	0	32701	32621	32711	32879	32753	32699	32549	32639	
1393	0	32721	32695	32791	32783	32775	32791	32685	32701	
1394	0	32710	32675	32807	32919	32791	32764	32719	32743	
1395	0	32707	32647	32647	32815	32780	32749	32757	32819	
1396	0	32716	32710	32735	32691	32813	32817	32628	32711	
1397	0	32717	32511	32795	32839	32773	32835	32641	32711	
1398	0	32776	32679	32804	32743	32809	32791	32685	32591	
1399	0	32773	32711	32817	32711	32883	32708	32645	32677	
1400	0	32808	32599	32691	32813	32735	32755	32711	32755	
1401	0	32767	32703	32660	32747	32763	32612	32873	32709	
1402	0	32750	32605	32635	32698	32829	32818	32679	32671	
1403	0	32722	32773	32623	32663	32818	32820	32903	32679	
1404	0	32773	32823	32658	32587	32869	32711	32869	32715	
1405	0	32783	32759	32634	32671	32833	32825	32799	32695	
1406	0	32711	32747	32735	32599	32687	32795	32741	32663	
1407	0	32716	32535	32788	32639	32585	32854	32727	32695	
1408	0	32738	32735	32731	32617	32775	32793	32791	32634	
1409	0	32733	32765	32775	32802	32775	32823	32791	32541	
1410	0	32743	32583	32719	32739	32745	32671	32687	32615	
1411	0	32790	32699	32726	32757	32763	32612	32758	32775	
1412	0	32790	32687	32843	32667	32831	32635	32767	32679	
1413	0	32745	32759	32808	32727	32863	32599	32675	32679	
1414	0	32719	32725	32791	32767	32854	32647	32605	32646	
1415	0	32734	32535	32751	32770	32875	32799	32695	32623	
1416	0	32738	32707	32743	32685	32791	32821	32771	32566	
1417	0	32786	32739	32735	32701	32709	32855	32714	32642	
1418	0	32784	32670	32775	32836	32661	32775	32775	32695	
1419	0	32793	32727	32763	32739	32603	32783	32719	32765	
1420	0	32790	32619	32764	32775	32591	32819	32669	32692	
1421	0	32794	32733	32775	32726	32823	32841	32794	32647	
1422	0	32799	32694	32739	32775	32761	32795	32739	32605	
1423	0	32784	32735	32705	32767	32711	32812	32709	32631	
1424	0	32733	32751	32834	32712	32731	32691	32580	32659	
1425	0	32738	32607	32742	32775	32597	32723	32646	32681	
1426	0	32748	32714	32858	32612	32644	32732	32638	32667	
1427	0	32743	32585	32775	32733	32562	32709	32645	32668	
1428	0	32767	32786	32847	32647	32559	32751	32647	32658	
1429	0	32740	32517	32775	32815	32633	32783	32687	32750	
1430	0	32815	32662	32735	32662	32567	32771	32662	32715	
1431	0	32783	32532	32751	32791	32572	32679	32667	32635	
1432	0	32765	32693	32655	32647	32663	32647	32775	32557	
1433	0	32746	32567	32711	32635	32679	32845	32839	32579	
1434	0	32799	32719	32671	32764	32731	32771	32843	32647	
1435	0	32807	32631	32773	32559	32717	32750	32815	32639	
1436	0	32796	32692	32775	32572	32775	32807	32719	32733	
1437	0	32788	32647	32811	32546	32775	32755	32711	32737	
1438	0	32775	32843	32727	32719	32703	32595	32743	32695	
1439	0	32760	32764	32679	32620	32618	32599	32684	32631	
1440	0	32692	32607	32687	32591	32663	32684	32559	32677	
1441	0	32766	32724	32607	32559	32615	32815	32685	32667	
1442	0	32734	32647	32614	32751	32658	32695	32719	32703	
1443	0	32720	32717	32775	32766	32615	32837	32684	32668	
1444	0	32693	32503	32795	32689	32711	32711	32743	32673	
1445	0	32734	32675	32751	32679	32847	32759	32790	32757	
1446	0	32725	32567	32633	32727	32863	32710	32831	32715	
1447	0	32772	32703	32775	32829	32844	32715	32631	32676	
1448	0	32722	32541	32775	32853	32861	32802	32775	32677	
1449	0	32669	32673	32805	32767	32861	32762	32706	32670	
1450	0	32684	32525	32713	32847	32879	32687	32747	32675	
1451	0	32743	32671	32895	32749	32854	32831	32583	32639	
1452	0	32878	32532	32915	32859	32833	32715	32758	32626	
1453	0	32863	32639	32911	32805	32822	32774	32683	32581	
1454	0	32782	32614	32838	32771	32733	32783	32718	32655	
1455	0	32764	32693	32757	32711	32677	32703	32743	32695	
1456	0	32681	32727	32885	32703	32634	32683	32615	32592	
1457	0	32785	32645	32759	32723	32689	32817	32715	32681	
1458	0	32763	32646	32935	32633	32756	32767	32686	32720	
1459	0	32752	32699	32870	32727	32771	32809	32655	32743	
1460	0	32775	32743	32813	32647	32671	32671	32676	32698	
1461	0	32784	32707	32805	32631	32698	32859	32747	32660	
1462	0	32823	32687	32867	32671	32743	32731	32816	32647	
1463	0	32810	32703	32647	32580	32775	32818	32721	32692	
1464	0	32859	32775	32715	32701	32839	32703	32764	32655	
1465	0	32811	32735	32605	32757	32869	32775	32759	32625	
1466	0	32768	32720	32743	32540	32892	32795	32589	32678	
1467	0	32813	32634	32605	32855	32807	32799	32775	32662	
1468	0	32735	32718	32630	32660	32793	32827	32715	32671	
1469	0	32700	32703	32587	32727	32795	32607	32611	32703	
1470	0	32734	32695	32748	32725	32791	32827	32570	32671	
1471	0	32724	32586	32677	32599	32758	32751	32694	32759	
1472	0	32771	32717	32831	32685	32771	32767	32818	32755	
1473	0	32681	32658	32829	32746	32819	32743	32657	32795	
1474	0	32709	32682	32919	32815	32788	32719	32684	32628	
1475	0	32775	32516	32887	32583	32850	32687	32726	32557	
1476	0	32876	32750	32807	32703	32819	32679	32733	32759	
1477	0	32804	32591	32795	32647	32710	32707	32831	32641	
1478	0	32687	32743	32806	32676	32759	32837	32655	32575	
1479	0	32714	32595	32699	32739	32733	32663	32743	32543	
1480	0	32775	32775	32679	32690	32783	32775	32793	32559	
1481	0	32759	32619	32790	32839	32815	32743	32673	32771	
1482	0	32799	32775	32721	32799	32791	32770	32763	32769	
1483	0	32796	32642	32756	32621	32773	32753	32789	32662	
1484	0	32763	32743	32691	32659	32709	32668	32891	32609	
1485	0	32822	32739	32821	32629	32683	32613	32711	32577	
1486	0	32790	32775	32785	32715	32711	32783	32769	32571	
1487	0	32851	32730	32880	32655	32671	32679	32789	32613	
1488	0	32887	32743	32822	32790	32680	32732	32795	32583	
1489	0	32817	32771	32727	32730	32706	32687	32775	32533	
1490	0	32846	32659	32710	32839	32659	32668	32828	32567	
1491	0	32861	32669	32583	32841	32735	32519	32841	32605	
1492	0	32831	32570	32647	32647	32679	32711	32871	32527	
1493	0	32811	32579	32589	32660	32771	32695	32711	32551	
1494	0	32759	32678	32599	32547	32711	32677	32811	32508	
1495	0	32722	32775	32691	32608	32607	32719	32749	32535	
1496	0	32769	32759	32835	32639	32573	32590	32647	32563	
1497	0	32726	32775	32863	32715	32765	32599	32571	32543	
1498	0	32759	32531	32887	32633	32695	32635	32717	32557	
1499	0	32725	32633	33029	32479	32565	32717	32629	32559	
1500	0	32742	32485	33065	32621	32773	32679	32543	32621	
1501	0	32717	32699	33059	32575	32678	32694	32543	32678	
1502	0	32793	32513	33031	32735	32644	32727	32581	32629	
1503	0	32751	32587	33100	32661	32685	32603	32593	32671	
1504	0	32916	32391	33101	32547	32725	32671	32597	32659	
1505	0	33099	32676	33078	32642	32724	32742	32786	32621	
1506	0	33025	32621	32855	32519	32829	32717	32767	32620	
1507	0	32993	32803	32851	32582	32689	32879	32765	32747	
1508	0	32942	32684	32849	32590	32674	32823	32635	32812	
1509	0	32812	32727	32894	32495	32775	32723	32623	32759	
1510	0	32700	32545	32847	32742	32799	32838	32642	32742	
1511	0	32647	32611	32695	32637	32871	32935	32623	32822	
1512	0	32603	32573	32695	32663	32851	32828	32495	32843	
1513	0	32488	32631	32607	32671	32903	32867	32619	32766	
1514	0	32474	32566	32605	32781	32821	32813	32590	32820	
1515	0	32427	32365	32534	32683	32817	32887	32643	32822	
1516	0	32423	32527	32439	32749	32812	32791	32578	32941	
1517	0	32388	32631	32497	32662	32754	32745	32518	32827	
1518	0	32365	32549	32410	32807	32644	32789	32623	32839	
1519	0	32327	32694	32218	32743	32634	32854	32627	33119	
1520	0	32284	32687	32311	32895	32659	33025	32615	33085	
1521	0	32254	32816	32255	33012	32694	33075	32493	33191	
1522	0	32215	32815	32191	33159	32855	33056	32415	33309	
1523	0	32217	32660	32199	33221	32903	33085	32389	33331	
1524	0	32212	32805	32039	33407	32899	33223	32391	33414	
1525	0	32227	32975	32085	33347	32866	33279	32477	33455	
1526	0	32357	32915	32271	33239	32943	33151	32551	33367	
1527	0	32559	32801	32361	33076	32900	32979	32662	33141	
1528	0	32647	32647	32531	32956	32883	32935	32695	32811	
1529	0	32742	32785	32721	32887	32878	32719	32733	32903	
1530	0	32808	32746	32775	32775	32773	32623	32903	32854	
1531	0	32871	32529	32945	32775	32683	32663	32869	32671	
1532	0	32940	32679	32963	32641	32699	32738	32903	32573	
1533	0	32998	32551	32978	32671	32611	32677	32823	32455	
1534	0	32992	32703	33023	32475	32647	32623	32811	32445	
1535	0	33001	32727	32998	32735	32569	32643	32967	32429	
1536	0	33026	32607	32883	32511	32475	32665	33075	32485	
1537	0	33029	32734	33015	32547	32691	32590	33013	32279	
1538	0	33049	32596	33093	32419	32639	32595	32897	32263	
1539	0	33045	32765	32983	32548	32617	32484	32845	32309	
1540	0	33037	32694	33035	32487	32709	32487	32834	32446	
1541	0	32980	32587	32887	32719	32711	32543	32935	32491	
1542	0	32914	32758	32858	32663	32702	32629	33071	32423	
1543	0	32921	32681	32949	32610	32679	32695	33068	32361	
1544	0	32949	32742	32855	32601	32756	32655	33005	32420	
1545	0	32954	32853	32892	32751	32807	32588	32981	32481	
1546	0	32949	32677	32961	32631	32775	32662	32804	32475	
1547	0	32911	32775	32925	32740	32791	32687	32854	32487	
1548	0	32945	32759	32885	32572	32783	32735	32823	32391	
1549	0	32970	32791	32823	32732	32847	32511	32791	32534	
1550	0	32954	32775	32775	32765	32839	32691	32709	32477	
1551	0	32898	32811	32819	32578	32743	32735	32740	32465	
1552	0	32940	32815	32758	32733	32703	32663	32827	32390	
1553	0	32870	32743	32797	32555	32773	32719	32775	32455	
1554	0	32917	32749	32763	32642	32767	32775	32730	32429	
1555	0	32940	32583	32865	32647	32843	32619	32701	32405	
1556	0	32837	32767	32723	32605	32773	32741	32757	32485	
1557	0	32827	32735	32837	32715	32759	32625	32691	32525	
1558	0	32858	32607	32783	32743	32773	32735	32687	32558	
1559	0	32834	32676	32933	32623	32732	32557	32671	32599	
1560	0	32865	32655	32854	32663	32685	32671	32767	32655	
1561	0	32876	32747	32877	32599	32759	32807	32660	32657	
1562	0	32828	32735	32892	32775	32807	32668	32725	32647	
1563	0	32767	32796	32903	32606	32771	32679	32638	32663	
1564	0	32751	32734	32962	32637	32718	32775	32679	32579	
1565	0	32780	32551	32715	32589	32789	32827	32582	32574	
1566	0	32679	32718	32743	32581	32801	32637	32662	32647	
1567	0	32759	32727	32764	32623	32763	32799	32709	32627	
1568	0	32759	32809	32814	32599	32727	32857	32655	32553	
1569	0	32783	32775	32731	32745	32759	32839	32647	32549	
1570	0	32759	32775	32623	32775	32741	32903	32665	32583	
1571	0	32749	32638	32559	32791	32739	32807	32719	32567	
1572	0	32751	32749	32575	32673	32575	32701	32660	32519	
1573	0	32805	32713	32677	32583	32597	32815	32715	32533	
1574	0	32809	32751	32615	32695	32591	32767	32663	32567	
1575	0	32781	32727	32679	32717	32631	32852	32663	32606	
1576	0	32762	32671	32795	32607	32678	32799	32749	32748	
1577	0	32715	32711	32819	32647	32789	32663	32727	32762	
1578	0	32736	32603	32787	32845	32743	32786	32687	32781	
1579	0	32727	32733	32823	32835	32823	32827	32583	32735	
1580	0	32576	32799	32775	32887	32852	32687	32687	32742	
1581	0	32489	32737	32765	32835	32803	32758	32727	32695	
1582	0	32525	32727	32742	32654	32775	32791	32667	32669	
1583	0	32639	32671	32759	32681	32751	32642	32677	32715	
1584	0	32730	32757	32644	32837	32751	32631	32735	32734	
1585	0	32636	32655	32823	32775	32775	32831	32647	32679	
1586	0	32636	32745	32694	32545	32813	32741	32767	32583	
1587	0	32668	32599	32474	32468	32823	32831	32783	32671	
1588	0	32731	32647	32487	32343	32775	32789	32719	32701	
1589	0	32780	32485	32567	32775	32799	32799	32829	32807	
1590	0	32918	32451	32619	32707	32775	32642	32643	32748	
1591	0	32930	32243	32538	32619	32785	32738	32739	32749	
1592	0	32734	32343	32868	32703	32775	32938	32797	32753	
1593	0	32630	32422	32847	32591	32602	32759	32783	32750	
1594	0	32670	32539	32868	32637	32679	32836	32644	32743	
1595	0	32797	32599	32935	32797	32687	32821	32735	32671	
1596	0	32891	32992	33055	32769	32805	32699	32775	32603	
1597	0	32746	32759	32913	32948	32919	32791	32679	32663	
1598	0	32727	32844	32795	32903	32815	32735	32727	32727	
1599	0	32933	32791	32665	32748	32786	32869	32615	32647	
1600	0	32911	33111	32692	32887	32786	32723	32701	32607	
1601	0	32936	32951	32795	32893	32793	32705	32719	32621	
1602	0	32884	33025	32792	32903	32764	32847	32685	32613	
1603	0	32885	32822	32869	32875	32775	32756	32687	32621	
1604	0	32844	32871	32759	32811	32799	32770	32731	32621	
1605	0	32852	32581	32669	32805	32567	32789	32711	32533	
1606	0	32727	32579	32742	32734	32605	32694	32620	32575	
1607	0	32655	32407	32671	32679	32647	32684	32647	32743	
1608	0	32622	32460	32661	32727	32799	32822	32647	32741	
1609	0	32671	32391	32731	32681	32835	32739	32759	32677	
1610	0	32718	32607	32663	32747	32847	32738	32690	32753	
1611	0	32736	32609	32753	32850	32847	32827	32669	32765	
1612	0	32647	32679	32749	32539	32869	32787	32594	32760	
1613	0	32687	32647	32769	32526	32841	32643	32743	32671	
1614	0	32617	32647	32703	32466	32791	32815	32717	32607	
1615	0	32637	32493	32838	32571	32757	32723	32775	32615	
1616	0	32673	32685	32749	32730	32719	32786	32681	32647	
1617	0	32748	32615	32751	32615	32583	32605	32527	32761	
1618	0	32812	32695	32642	32518	32615	32663	32709	32677	
1619	0	32828	32647	32711	32687	32655	32754	32823	32743	
1620	0	32753	32675	32647	32691	32659	32767	32853	32742	
1621	0	32749	32455	32751	32549	32621	32758	32822	32731	
1622	0	32775	32647	32663	32642	32623	32852	32729	32647	
1623	0	32786	32647	32689	32635	32617	32775	32745	32641	
1624	0	32861	32843	32753	32767	32671	32623	32762	32621	
1625	0	32851	32709	32742	32691	32671	32725	32809	32674	
1626	0	32759	32807	32692	32741	32717	32806	32861	32644	
1627	0	32847	32647	32807	32742	32799	32717	32834	32623	
1628	0	32775	32823	32724	32743	32839	32775	32948	32695	
1629	0	32701	32475	32763	32679	32847	32587	32959	32759	
1630	0	32646	32697	32727	32719	32838	32791	32859	32715	
1631	0	32617	32583	32774	32739	32804	32733	32933	32813	
1632	0	32572	32645	32683	32711	32765	32742	32903	32749	
1633	0	32537	32477	32735	32729	32787	32804	32639	32743	
1634	0	32582	32578	32735	32631	32799	32791	32623	32715	
1635	0	32680	32559	32759	32847	32773	32799	32509	32815	
1636	0	32772	32659	32726	32684	32734	32647	32343	32758	
1637	0	32718	32599	32775	32804	32769	32667	32407	32819	
1638	0	32690	32628	32847	32767	32738	32663	32453	32706	
1639	0	32815	32635	32878	32679	32765	32687	32661	32767	
1640	0	32871	32463	32901	32687	32831	32775	32837	32815	
1641	0	32882	32623	32775	32645	32791	32751	32839	32703	
1642	0	32794	32575	32791	32735	32885	32812	32759	32612	
1643	0	32647	32703	32764	32615	32891	32785	32655	32667	
1644	0	32676	32775	32720	32726	32932	32821	32735	32733	
1645	0	32714	32871	32735	32677	32940	32797	32756	32694	
1646	0	32885	33027	32623	32807	32813	32621	32661	32765	
1647	0	32940	33031	32710	32823	32809	32903	32637	32815	
1648	0	33097	32754	32794	32644	32823	32703	32610	32694	
1649	0	33055	32773	32825	32787	32802	32756	32635	32527	
1650	0	33026	32625	32825	32823	32791	32795	32671	32615	
1651	0	33057	32764	32839	32798	32787	32679	32671	32487	
1652	0	32791	32567	32759	32764	32743	32823	32743	32501	
1653	0	32709	32615	32710	32607	32711	32799	32875	32537	
1654	0	32673	32527	32870	32765	32791	32807	32828	32501	
1655	0	32756	32570	32890	32665	32799	32729	32795	32813	
1656	0	32834	32659	32703	32891	32823	32751	32633	32658	
1657	0	32935	32918	32775	32983	32799	32803	32739	32724	
1658	0	32866	32877	32679	32943	32793	32830	32726	32731	
1659	0	32837	32773	32715	32815	32717	32710	32687	32749	
1660	0	32751	32767	32700	32767	32775	32772	32677	32721	
1661	0	32445	32709	32687	32734	32749	32831	32759	32751	
1662	0	32410	32789	32493	32614	32773	32815	32669	32722	
1663	0	32444	32703	32693	32479	32793	32727	32903	32751	
1664	0	32319	32823	32797	32587	32687	32807	32956	32759	
1665	0	32284	32454	32735	32358	32533	32790	32943	32815	
1666	0	32165	32479	32798	32438	32567	32687	32753	32810	
1667	0	32346	32487	32839	32510	32558	32671	32660	32826	
1668	0	32455	32551	32949	32493	32655	32853	32679	32773	
1669	0	32665	32431	32943	32659	32687	32741	32751	32735	
1670	0	32551	32487	32885	32754	32711	32871	32814	32743	
1671	0	32511	32263	32843	32523	32759	32871	32647	32803	
1672	0	32375	32163	32843	32455	32821	32681	32759	32707	
1673	0	32361	31655	32555	32431	32812	32647	32662	32675	
1674	0	32164	31547	32629	32559	32823	32645	32677	32623	
1675	0	31958	31556	32727	32613	32823	32823	32647	32655	
1676	0	32092	32019	32829	32810	32852	32790	32613	32587	
1677	0	32334	32243	32703	32703	32852	32789	32746	32555	
1678	0	32935	32585	32684	32781	32795	32759	32738	32555	
1679	0	33197	33325	32887	32825	32795	32671	32871	32599	
1680	0	33407	33629	32805	33029	32879	32757	32661	32553	
1681	0	34324	33927	32787	33039	32807	32675	32599	32647	
1682	0	34940	33975	32685	33031	32915	32795	32701	32694	
1683	0	35111	34111	32660	32962	32888	32879	32763	32727	
1684	0	35103	33777	32655	32815	32831	32707	32763	32599	
1685	0	34521	33558	32754	32879	32903	32583	32647	32550	
1686	0	33836	33251	32868	32659	32885	32743	32683	32599	
1687	0	33172	33013	32722	32753	32832	32831	32615	32587	
1688	0	32653	32831	32854	32720	33108	32671	32678	32735	
1689	0	32157	32563	32767	32685	33045	32718	32639	32701	
1690	0	31856	32263	32719	32535	32871	32692	32611	32673	
1691	0	31831	32188	32727	32613	32653	32679	32575	32663	
1692	0	31923	32383	32866	32599	32621	32867	32721	32703	
1693	0	32015	32503	32775	32583	32702	32845	32756	32775	
1694	0	32054	32527	32727	32484	32742	32749	32879	32823	
1695	0	32072	32499	32716	32607	32727	32693	32765	32741	
1696	0	32278	32391	32791	32554	32588	32785	32770	32655	
1697	0	32487	32611	32775	32661	32615	32803	32939	32592	
1698	0	32398	32573	32662	32789	32587	32837	32863	32527	
1699	0	32258	32835	32799	32767	32534	32771	32882	32643	
1700	0	32221	32903	32695	32927	32597	32767	32799	32759	
1701	0	32405	32809	32711	32799	32661	32867	32787	32731	
1702	0	32674	32799	32743	32857	32619	32847	32628	32694	
1703	0	32945	32617	32756	32738	32615	32775	32479	32671	
1704	0	33146	32583	32834	32846	32589	32677	32263	32541	
1705	0	33317	32574	32723	32836	32539	32775	32271	32687	
1706	0	33276	32573	32783	32735	32644	32739	32439	32705	
1707	0	33021	32603	32647	32738	32673	32793	32679	32755	
1708	0	32941	32661	32810	32663	32711	32789	32735	32709	
1709	0	32806	32775	32711	32582	32688	32731	32799	32722	
1710	0	32709	32759	32775	32604	32702	32623	32811	32675	
1711	0	32637	32687	32759	32775	32583	32623	32743	32607	
1712	0	32607	32743	32703	32900	32690	32743	32627	32627	
1713	0	32679	32607	32765	32615	32747	32717	32647	32727	
1714	0	32725	32727	32743	32675	32754	32757	32589	32727	
1715	0	32763	32541	32767	32903	32667	32751	32885	32745	
1716	0	32775	32695	32729	33060	32732	32746	32918	32745	
1717	0	32728	32615	32743	32927	32839	32647	33063	32758	
1718	0	32751	32756	32759	32667	32763	32626	33085	32847	
1719	0	32765	32526	32831	32551	32759	32871	32873	32739	
1720	0	32726	32701	32731	32413	32583	32695	32951	32793	
1721	0	32721	32551	32791	32578	32415	32807	32854	32573	
1722	0	32609	32617	32738	32612	32655	32773	32755	32525	
1723	0	32564	32317	32786	32483	32797	32629	32609	32577	
1724	0	32482	32295	32662	32523	32941	32690	32547	32519	
1725	0	32343	32357	32617	32489	32902	32783	32474	32735	
1726	0	32322	32153	32823	32611	33012	32759	32357	32669	
1727	0	32380	32183	32751	32489	33247	32789	32483	32675	
1728	0	32582	32211	32727	32661	33005	32877	32477	32759	
1729	0	32721	32437	32791	32613	32877	32811	32661	32759	
1730	0	32831	32333	32795	32834	32863	32755	32807	32715	
1731	0	32786	32463	32788	32883	33063	32807	32801	32703	
1732	0	32946	32567	32799	32935	32963	32751	32580	32734	
1733	0	33084	32404	32759	32916	32724	32804	32647	32605	
1734	0	33210	32679	32743	32642	32647	32771	32725	32495	
1735	0	33018	32548	32849	32711	32547	32583	32855	32561	
1736	0	32871	32851	32823	32791	32509	32589	32675	32702	
1737	0	32799	32855	32799	32884	32647	32645	32553	32733	
1738	0	32698	32926	32643	32647	32663	32833	32631	32756	
1739	0	32695	32879	32749	32663	32551	32797	32786	32695	
1740	0	32699	32879	32749	32615	32590	32695	32769	32703	
1741	0	32735	32767	32743	32800	32554	32849	32715	32751	
1742	0	32775	32738	32831	32687	32557	32763	32953	32673	
1743	0	32715	32807	32687	32687	32546	32626	33051	32705	
1744	0	32770	33125	32787	32719	32548	32628	33133	32621	
1745	0	32763	32989	32663	32611	32567	32689	32941	32471	
1746	0	32768	32977	32695	32773	32621	32807	32793	32611	
1747	0	32743	32863	32775	32799	32751	32807	32727	32747	
1748	0	32707	32783	32637	32669	32795	32903	32679	32735	
1749	0	32814	32917	32701	32735	32731	32786	32678	32635	
1750	0	32876	32687	32690	32731	32638	32679	32647	32507	
1751	0	32821	32775	32706	32751	32718	32714	32814	32623	
1752	0	32825	32671	32759	32772	32791	32787	32623	32726	
1753	0	32847	32797	32723	32702	32798	32767	32591	32687	
1754	0	32829	32669	32775	32559	32803	32833	32645	32731	
1755	0	32790	32602	32775	32578	32766	32694	32743	32677	
1756	0	32566	32740	32796	32803	32828	32732	32726	32637	
1757	0	32573	32797	32831	32839	32791	32775	32677	32567	
1758	0	32661	32854	32751	32787	32775	32759	32623	32605	
1759	0	32726	32671	32903	33039	32739	32755	32633	32783	
1760	0	32823	32770	32842	32967	32721	32775	32711	32695	
1761	0	32839	32615	32804	32556	32775	32734	32641	32729	
1762	0	32593	32605	32802	32647	32775	32767	32686	32646	
1763	0	32598	32564	32829	32641	32765	32811	32707	32623	
1764	0	32641	32915	32830	32739	32718	32669	32726	32625	
1765	0	32689	32967	32684	32867	32803	32695	32721	32727	
1766	0	32815	33053	32628	32617	32758	32903	32597	32701	
1767	0	32658	32819	32623	32631	32787	32727	32666	32620	
1768	0	32485	32828	32671	32607	32807	32821	32703	32703	
1769	0	32289	32859	32555	32551	32627	32629	32755	32719	
1770	0	32389	32758	32583	32655	32694	32738	32731	32701	
1771	0	32559	32603	32727	32838	32890	32743	32635	32796	
1772	0	32773	32557	32699	32819	32949	32799	32727	32717	
1773	0	32744	32623	32845	32758	32836	32775	32737	32698	
1774	0	33143	32687	32763	32615	32863	32679	32706	32617	
1775	0	33495	32706	32823	32804	32790	32803	32671	32609	
1776	0	33799	32765	32870	32635	32820	32819	32739	32615	
1777	0	34199	32977	32859	32466	32775	32941	32763	32671	
1778	0	34122	33006	33001	32493	32754	32838	32613	32636	
1779	0	33634	32959	32963	32814	32566	32797	32755	32586	
1780	0	33159	32903	32871	33063	32535	32771	32818	32793	
1781	0	32809	32759	32639	32911	32567	32683	32738	32790	
1782	0	32608	32751	32667	32715	32617	32871	32795	32700	
1783	0	32244	32578	32663	32925	32715	32801	32858	32663	
1784	0	32017	32444	32740	32487	32726	32679	32713	32631	
1785	0	31445	32434	32659	32662	32769	32759	32715	32629	
1786	0	30740	32503	32570	32925	32773	32799	32811	32467	
1787	0	30343	32100	32579	32903	32749	32839	32772	32603	
1788	0	30287	31866	32738	32684	32738	32647	32583	32771	
1789	0	30953	31667	32716	32667	32753	32655	32705	32759	
1790	0	31727	31837	32823	32647	32775	32787	32677	32735	
1791	0	32503	32107	33013	32532	32837	32743	32679	32702	
1792	0	33317	32484	32946	32511	32615	32775	32749	32628	
1793	0	34552	32803	32868	32475	32658	32759	32710	32615	
1794	0	35703	33030	32775	32479	32775	32653	32663	32715	
1795	0	36317	33414	32847	32551	32775	32748	32585	32791	
1796	0	35823	34003	32748	32487	32775	32751	32733	32633	
1797	0	35279	34546	32677	32623	32889	32719	32739	32633	
1798	0	34790	33877	32627	32683	32871	32823	32614	32639	
1799	0	33991	33309	32626	32635	32815	32815	32683	32557	
1800	0	33036	32992	32573	32831	32791	32700	32687	32614	
1801	0	32571	32771	32615	32764	32784	32851	32694	32636	
1802	0	32052	32175	32647	32727	32563	32842	32734	32668	
1803	0	31596	31911	32698	32769	32612	32867	32679	32609	
1804	0	31438	31807	32647	32962	32711	32681	32843	32620	
1805	0	31257	32033	32735	32903	32869	32844	32867	32775	
1806	0	31414	32241	32845	32682	32746	32749	32722	32655	
1807	0	31441	32151	32687	32971	32749	32829	32738	32802	
1808	0	31762	32358	32735	32921	32695	32621	32683	32703	
1809	0	31991	32325	32711	32681	32571	32743	32729	32635	
1810	0	32284	32582	32751	32858	32599	32749	32775	32599	
1811	0	32431	32535	32690	32730	32698	32773	32762	32541	
1812	0	32668	32745	32751	32631	32839	32769	32854	32583	
1813	0	33061	32669	32757	32503	32903	32773	32715	32493	
1814	0	33216	32705	32965	32620	32887	32663	32611	32581	
1815	0	33087	32663	32883	32735	32775	32791	32627	32773	
1816	0	32722	32893	32915	32758	32722	32727	32719	32743	
1817	0	32657	32855	32806	32699	32721	32843	32745	32757	
1818	0	32735	33036	32883	32845	32571	32687	32742	32760	
1819	0	32676	32967	32893	32993	32595	32758	32709	32771	
1820	0	32573	32908	32903	32811	32577	32843	32662	32635	
1821	0	32485	32939	32731	32751	32755	32693	32890	32743	
1822	0	32423	32951	32745	32762	32794	32790	32812	32706	
1823	0	32526	32839	32679	32681	32885	32802	32685	32681	
1824	0	32714	32967	32775	32759	32881	32603	32428	32679	
1825	0	32749	32683	32731	32509	32807	32655	32631	32515	
1826	0	32852	32897	32622	32519	32811	32839	32711	32525	
1827	0	32940	32903	32621	32571	32734	32691	32735	32550	
1828	0	32959	32963	32662	32407	32804	32811	32717	32610	
1829	0	32921	32932	32681	32597	32693	32676	32510	32647	
1830	0	32909	32796	32748	32741	32705	32725	32421	32802	
1831	0	32886	32589	32709	32541	32815	32871	32591	32775	
1832	0	32826	32261	32816	32770	32893	32806	32701	32602	
1833	0	32738	32351	32718	32807	32901	32846	32839	32633	
1834	0	32581	32135	32871	32647	32935	32687	32775	32677	
1835	0	32446	32199	32773	32783	32803	32690	32772	32663	
1836	0	32455	32206	32831	32502	32766	32788	32719	32694	
1837	0	32412	32220	32786	32575	32759	32731	32994	32742	
1838	0	32674	32311	32726	32786	32663	32791	32869	32703	
1839	0	32850	32431	32708	32719	32743	32605	32894	32710	
1840	0	32847	32799	32671	32719	32597	32708	32571	32711	
1841	0	32708	32749	32735	33011	32543	32756	32428	32663	
1842	0	32910	32954	32759	32867	32549	32746	32501	32667	
1843	0	33181	33105	32702	32637	32494	32858	32431	32659	
1844	0	33111	33189	32767	32723	32567	32586	32455	32677	
1845	0	32990	32947	32867	32676	32747	32703	32663	32647	
1846	0	32927	32735	32867	32575	32636	32811	32836	32532	
1847	0	32878	32511	32787	32847	32683	32885	32806	32559	
1848	0	33047	32487	32854	32910	32669	32811	32988	32766	
1849	0	33110	32278	32765	32989	32711	32807	33009	32735	
1850	0	32937	32455	32812	32783	32718	32831	33005	32663	
1851	0	32677	32431	32655	32795	32763	32676	32959	32703	
1852	0	32641	32587	32750	32775	32783	32683	32917	32758	
1853	0	32480	32287	32734	32675	32809	32775	32883	32621	
1854	0	32130	32367	32711	33063	32819	32823	32735	32637	
1855	0	32295	32423	32735	32599	32815	32900	32612	32751	
1856	0	32383	32645	32715	32695	32873	32789	32695	32743	
1857	0	32458	32798	32835	32711	32819	32807	32671	32775	
1858	0	32713	33061	32863	32597	32861	32812	32637	32647	
1859	0	33072	33063	32831	32786	32843	32775	32617	32703	
1860	0	33203	33080	32821	32749	32850	32621	32695	32685	
1861	0	33210	32855	32759	32902	32863	32619	32669	32561	
1862	0	33600	32831	32743	32815	32903	32629	32663	32775	
1863	0	33606	33013	32763	32863	32866	32759	32495	32767	
1864	0	33229	32742	32705	32722	32865	32719	32631	32725	
1865	0	32862	32775	32743	32711	32783	32767	32671	32711	
1866	0	32732	32603	32749	32758	32711	32759	32558	32719	
1867	0	32503	32679	32687	32841	32727	32669	32675	32762	
1868	0	32429	32739	32707	32671	32687	32638	32671	32601	
1869	0	32497	32626	32739	32707	32605	32705	32733	32564	
1870	0	32461	32423	32783	32449	32621	32775	32775	32726	
1871	0	32350	32245	32815	32215	32711	32791	32631	32742	
1872	0	32468	32333	32804	32351	32830	32847	32645	32775	
1873	0	32523	32455	32786	32415	32836	32828	32788	32737	
1874	0	32570	32270	32795	32356	33026	32767	32727	32719	
1875	0	32516	32391	32829	32429	33023	32831	32762	32591	
1876	0	32447	32239	32718	32527	32807	32843	32775	32578	
1877	0	32632	32638	32815	32580	32815	32804	32682	32709	
1878	0	32749	32669	32703	32743	32581	32658	32605	32628	
1879	0	32857	32823	32818	33106	32613	32667	32679	32631	
1880	0	33029	32743	32708	33093	32727	32754	32823	32662	
1881	0	33014	32853	32863	32797	32703	32669	32807	32733	
1882	0	32791	32742	32775	32775	32807	32806	32822	32647	
1883	0	32427	32675	32679	32669	32771	32771	32775	32527	
1884	0	32413	32703	32775	32679	32751	32735	32786	32691	
1885	0	32324	32501	32719	32627	32719	32717	32773	32594	
1886	0	32331	32679	32719	32551	32663	32708	32860	32694	
1887	0	32300	32721	32663	32359	32735	32613	32718	32551	
1888	0	32100	32551	32539	32441	32678	32669	32722	32603	
1889	0	32103	32793	32628	32535	32699	32751	32766	32742	
1890	0	32354	32749	32799	32775	32722	32772	32707	32699	
1891	0	33239	32903	32815	32721	32668	32731	32775	32695	
1892	0	33561	32869	32999	32813	32679	32644	32647	32711	
1893	0	33263	32643	32807	32699	32726	32807	32678	32533	
1894	0	33223	32738	32703	32691	32773	32807	32711	32681	
1895	0	33498	32595	32755	32689	32767	32855	32750	32823	
1896	0	33773	32773	32677	32690	32809	32799	32625	32709	
1897	0	33960	32725	32815	32806	32871	32839	32672	32623	
1898	0	33909	32743	32709	32743	32875	32759	32701	32610	
1899	0	33327	32663	32807	32820	32877	32754	32678	32645	
1900	0	32775	32775	32699	32647	32927	32783	32658	32570	
1901	0	32543	32711	32709	32724	32871	32765	32717	32671	
1902	0	32605	32495	32762	32942	32826	32743	32749	32799	
1903	0	32976	32566	32787	32698	32822	32795	32731	32701	
1904	0	33045	32646	32791	32727	32827	32707	32762	32727	
1905	0	32899	32860	32781	32961	32775	32727	32711	32709	
1906	0	32718	32790	32727	33099	32863	32773	32741	32575	
1907	0	32691	32735	32734	32855	32875	32814	32694	32503	
1908	0	32623	32683	32635	32818	32805	32727	32770	32555	
1909	0	32276	32583	32733	32703	32775	32827	32622	32567	
1910	0	32164	32519	32515	32636	32797	32791	32783	32567	
1911	0	32151	32462	32647	32727	32829	32698	32709	32638	
1912	0	32183	32799	32687	32564	32679	32646	32613	32757	
1913	0	32093	33097	32791	32620	32813	32700	32658	32647	
1914	0	32052	33239	32711	32647	32807	32755	32730	32703	
1915	0	32053	33186	32901	32679	32775	32771	32787	32785	
1916	0	31895	33277	32963	32751	32775	32703	32699	32709	
1917	0	31874	32999	32967	32659	32810	32700	32756	32579	
1918	0	32004	33115	32971	32791	32775	32859	32814	32647	
1919	0	32423	32865	32791	32767	32764	32845	32815	32773	
1920	0	32862	32582	32759	32859	32767	32789	32787	32727	
1921	0	33352	32669	32839	32524	32724	32638	32700	32637	
1922	0	33825	32647	32743	32871	32695	32671	32803	32647	
1923	0	33970	32571	32705	32934	32786	32743	32709	32679	
1924	0	33936	32333	32647	32771	32807	32823	32749	32577	
1925	0	33799	32401	32647	32734	32751	32775	32709	32567	
1926	0	33447	32256	32638	32767	32561	32773	32821	32514	
1927	0	32940	32213	32575	32671	32575	32647	32782	32466	
1928	0	32455	31927	32631	32687	32599	32871	32696	32503	
1929	0	32492	32045	32740	32606	32658	32669	32679	32508	
1930	0	32588	32063	32789	32607	32717	32756	32751	32539	
1931	0	32813	32415	32753	32634	32755	32635	32751	32563	
1932	0	33021	32546	32807	32617	32823	32636	32755	32538	
1933	0	32911	32663	32735	32686	32769	32767	32711	32749	
1934	0	32640	32351	32811	32583	32955	32735	32608	32721	
1935	0	32479	32583	32770	32401	32967	32815	32641	32719	
1936	0	32475	32513	32856	32775	32915	32847	32717	32669	
1937	0	32399	32691	32713	32775	32818	32635	32620	32687	
1938	0	32423	32610	32735	32871	32775	32727	32738	32647	
1939	0	32532	32839	32723	33129	32742	32749	32763	32671	
1940	0	32601	32775	32790	32973	32773	32725	32663	32693	
1941	0	32599	32809	32679	33022	32775	32799	32773	32711	
1942	0	32503	32590	32697	32687	32569	32663	32727	32749	
1943	0	32535	32631	32775	32567	32605	32732	32702	32701	
1944	0	32622	32431	32667	32855	32707	32806	32723	32679	
1945	0	32640	32596	32677	32725	32669	32773	32719	32705	
1946	0	32628	32524	32783	32373	32829	32769	32573	32619	
1947	0	32564	32701	32763	32694	32879	32739	32711	32683	
1948	0	32567	32601	32903	32569	32881	32623	32642	32631	
1949	0	32628	32719	32863	32658	32891	32631	32759	32631	
1950	0	32767	32571	32863	32551	32875	32786	32735	32647	
1951	0	32815	32839	32823	32443	32775	32827	32796	32612	
1952	0	32864	32759	32866	32401	32844	32743	32803	32587	
1953	0	32922	32981	32749	32293	32810	32836	32639	32800	
1954	0	32951	32963	32785	32559	32727	32821	32767	32713	
1955	0	32996	32911	32663	32647	32789	32647	32775	32775	
1956	0	32740	32727	32735	32627	32789	32807	32679	32718	
1957	0	32638	32827	32702	32807	32815	32727	32764	32671	
1958	0	32595	32807	32742	32775	32799	32735	32711	32730	
1959	0	32717	32612	32863	32759	32771	32757	32783	32684	
1960	0	32669	32715	32723	32763	32803	32738	32692	32519	
1961	0	32748	32676	32833	32887	32839	32689	32607	32659	
1962	0	32988	32751	32719	32677	32807	32703	32745	32771	
1963	0	33156	32775	32770	32867	32854	32751	32815	32727	
1964	0	33159	32799	32764	32871	32798	32791	32639	32685	
1965	0	33102	32659	32754	32809	32797	32802	32694	32673	
1966	0	32900	32679	32817	32891	32773	32668	32723	32647	
1967	0	32614	32749	32685	32674	32758	32833	32827	32717	
1968	0	32532	32615	32854	32734	32740	32722	32741	32705	
1969	0	32495	32747	32631	32892	32719	32795	32791	32685	
1970	0	32677	32583	32735	32695	32671	32775	32845	32671	
1971	0	32647	32733	32711	32966	32571	32635	32663	32667	
1972	0	32694	32727	32703	32900	32623	32727	32701	32682	
1973	0	32871	32594	32833	32770	32692	32628	32583	32717	
1974	0	33165	32525	32723	32793	32663	32723	32583	32527	
1975	0	33028	32471	32707	32685	32701	32807	32589	32596	
1976	0	32918	32469	32795	32687	32631	32827	32705	32795	
1977	0	32836	32535	32771	32612	32663	32638	32647	32720	
1978	0	32887	32629	32743	32612	32724	32769	32797	32839	
1979	0	32879	32927	32647	32729	32895	32855	32759	32801	
1980	0	32902	32980	32692	32583	32865	32779	32807	32743	
1981	0	32920	33069	32715	32772	32855	32733	32911	32719	
1982	0	32915	32999	32794	32877	32791	32829	32899	32719	
1983	0	32804	33083	32739	32737	32742	32715	32799	32695	
1984	0	32585	32739	32799	32698	32743	32647	32771	32715	
1985	0	32594	32787	32807	32674	32694	32807	32646	32719	
1986	0	32653	32662	32733	32615	32567	32722	32529	32766	
1987	0	32623	32494	32799	32669	32602	32771	32599	32746	
1988	0	32710	32127	32846	32667	32849	32835	32676	32658	
1989	0	32769	32443	32805	32668	32871	32859	32751	32583	
1990	0	32876	32514	32772	32595	32773	32775	32743	32607	
1991	0	32783	32381	32823	32599	32761	32767	32614	32790	
1992	0	32571	32541	32747	32751	32749	32719	32732	32823	
1993	0	32552	32467	32758	32706	32788	32711	32647	32757	
1994	0	32621	32599	32675	33155	32566	32686	32847	32722	
1995	0	32662	32500	32725	32999	32471	32783	32711	32677	
1996	0	32710	32671	32643	32769	32659	32803	32839	32722	
1997	0	32703	32547	32738	32582	32551	32839	32775	32647	
1998	0	32620	32539	32711	32617	32663	32795	32670	32631	
1999	0	32583	32461	32751	32701	32743	32775	32783	32615	
2000	0	32544	32607	32647	32805	32799	32771	32847	32631	
2001	0	32461	32426	32766	32742	32933	32623	32523	32662	
2002	0	32420	32663	32767	32903	32955	32705	32498	32759	
2003	0	32426	32567	32887	32583	32851	32805	32615	32763	
2004	0	32611	32723	32799	32633	32822	32815	32587	32749	
2005	0	32759	33031	32827	32549	32807	32823	32585	32761	
2006	0	33047	33343	32804	32453	32807	32669	32535	32748	
2007	0	33151	33391	32821	32527	32562	32765	32559	32715	
2008	0	33294	33449	32723	32607	32601	32821	32594	32679	
2009	0	33246	33455	32591	32716	32639	32733	32743	32679	
2010	0	33319	33308	32719	32659	32687	32775	32757	32615	
2011	0	33149	33139	32765	32601	32811	32762	32931	32703	
2012	0	32902	32866	32803	32639	32791	32707	33089	32625	
2013	0	32811	32629	32709	32701	32786	32797	33067	32547	
2014	0	32720	32619	32735	32640	32727	32762	32823	32473	
2015	0	32585	32506	32662	32769	32717	32743	32593	32533	
2016	0	32365	32287	32760	32749	32673	32761	32555	32586	
2017	0	32415	32403	32691	32813	32709	32701	32677	32663	
2018	0	32470	32307	32787	32812	32743	32805	32820	32687	
2019	0	32586	32303	32829	32790	32582	32671	32822	32647	
2020	0	32615	32406	32775	32699	32595	32839	32861	32615	
2021	0	32622	32215	32815	32991	32847	32647	33007	32571	
2022	0	32660	32423	32711	33202	32810	32758	32950	32727	
2023	0	32769	32557	32762	32663	32833	32854	32843	32687	
2024	0	32882	32767	32757	32783	32788	32721	32967	32845	
2025	0	32862	32743	32655	32921	32855	32833	33015	32759	
2026	0	32814	32743	32733	32607	32854	32830	32871	32771	
2027	0	32704	32715	32671	33063	32783	32669	32982	32703	
2028	0	32563	32939	32793	33255	32659	32855	33103	32687	
2029	0	32637	32866	32743	32809	32679	32727	32861	32639	
2030	0	32806	32845	32791	32829	32631	32743	32724	32565	
2031	0	32918	32688	32695	32470	32587	32825	32351	32647	
2032	0	32844	32749	32758	32066	32597	32747	32105	32647	
2033	0	32711	32509	32719	32291	32589	32781	32015	32503	
2034	0	32596	32419	32757	32455	32582	32607	31981	32455	
2035	0	32726	32308	32699	32343	32621	32767	31706	32559	
2036	0	33063	32327	32743	32162	32679	32757	31750	32799	
2037	0	33065	32217	32762	32373	32605	32716	32468	32711	
2038	0	32843	32292	32765	32420	32687	32731	32983	32647	
2039	0	32823	32403	32717	32413	32695	32775	33250	32679	
2040	0	32770	32795	32837	32709	32690	32743	33179	32679	
2041	0	32908	33187	32807	32875	32751	32757	32818	32675	
2042	0	32811	33365	32839	32759	32775	32695	32743	32703	
2043	0	32709	33503	32711	32951	32775	32799	32711	32729	
2044	0	32701	33421	32809	33017	32827	32775	32758	32759	
2045	0	32742	33359	32771	32863	32669	32703	32751	32822	
2046	0	32845	32919	32799	32759	32685	32807	32799	32727	
2047	0	33047	32897	32810	32627	32564	32839	32887	32639	
2048	0	33061	32717	32671	32695	32647	32715	32829	32699	
2049	0	32837	32647	32692	32847	32612	32831	32870	32743	
2050	0	32772	32435	32735	32775	32590	32795	32805	32765	
2051	0	32977	32519	32669	32717	32617	32615	32725	32767	
2052	0	33060	32561	32794	32821	32635	32673	32711	32754	
2053	0	32756	32503	32655	32853	32551	32721	32823	32743	
2054	0	32647	32575	32749	32883	32598	32771	32815	32729	
2055	0	32556	32583	32695	32803	32583	32756	32695	32733	
2056	0	32598	32631	32825	32927	32615	32811	32743	32741	
2057	0	32566	32511	32775	32797	32646	32830	32691	32647	
2058	0	32551	32567	32735	32903	32597	32787	32742	32747	
2059	0	32605	32450	32823	32775	32590	32681	32743	32647	
2060	0	32675	32615	32759	32903	32630	32751	32769	32662	
2061	0	32628	32551	32783	32815	32715	32775	32715	32647	
2062	0	32730	32679	32798	32663	32623	32615	32748	32583	
2063	0	32716	32510	32756	32759	32647	32709	32659	32605	
2064	0	32677	32668	32805	32687	32711	32723	32719	32606	
2065	0	32695	32590	32881	32767	32879	32572	32749	32592	
2066	0	32690	32727	32819	32692	32927	32763	32658	32603	
2067	0	32701	32743	32655	32663	32882	32655	32772	32578	
2068	0	32748	32807	32713	32775	32807	32825	32718	32487	
2069	0	32713	32695	32647	32751	32755	32807	32703	32555	
2070	0	32676	32775	32687	32617	32738	32621	32773	32611	
2071	0	32625	32677	32734	32823	32807	32775	32745	32590	
2072	0	32699	32525	32780	32687	32611	32695	32671	32593	
2073	0	32708	32731	32815	32407	32540	32767	32679	32572	
2074	0	32676	32542	32791	32555	32609	32797	32717	32507	
2075	0	32724	32599	32813	32579	32661	32607	32703	32505	
2076	0	32820	32501	32775	32487	32679	32756	32749	32575	
2077	0	32860	32647	32742	32514	32732	32823	32655	32775	
2078	0	32895	32599	32711	32530	32743	32724	32705	32685	
2079	0	32903	32711	32775	32598	32823	32787	32751	32760	
2080	0	32910	32639	32695	32797	32869	32783	32695	32747	
2081	0	32908	32851	32823	32775	32807	32725	32711	32739	
2082	0	32878	32647	32671	32859	32794	32697	32676	32681	
2083	0	32891	32759	32679	32759	32852	32820	32719	32708	
2084	0	32838	32692	32677	32735	32751	32705	32749	32721	
2085	0	32764	32759	32727	32711	32767	32765	32757	32788	
2086	0	32745	32733	32761	32772	32751	32659	32667	32741	
2087	0	32666	32599	32785	32691	32767	32663	32702	32799	
2088	0	32644	32607	32806	32580	32573	32743	32719	32717	
2089	0	32699	32503	32775	32623	32537	32743	32699	32639	
2090	0	32761	32694	32711	32764	32665	32797	32741	32571	
2091	0	32690	32591	32839	32743	32847	32623	32715	32749	
2092	0	32730	32749	32757	32859	32893	32807	32668	32643	
2093	0	32732	32743	32772	32947	32775	32799	32720	32653	
2094	0	32798	32725	32720	32711	32775	32647	32850	32675	
2095	0	32738	32767	32710	32662	32793	32755	32741	32703	
2096	0	32733	32669	32719	32733	32799	32623	32728	32731	
2097	0	32722	32859	32738	32523	32809	32635	32763	32735	
2098	0	32864	32767	32815	32575	32823	32738	32647	32703	
2099	0	32823	32811	32756	32663	32613	32775	32718	32708	
2100	0	32796	32709	32775	32690	32785	32690	32555	32797	
2101	0	32815	32775	32699	32557	32876	32702	32691	32635	
2102	0	32822	32735	32751	32671	32847	32807	32611	32627	
2103	0	32807	32839	32795	32647	32815	32802	32708	32661	
2104	0	32761	32511	32731	32577	32871	32783	32631	32647	
2105	0	32788	32273	32773	32831	32775	32662	32493	32693	
2106	0	32758	32459	32684	32878	32769	32677	32727	32615	
2107	0	32692	32487	32722	32813	32759	32815	32747	32611	
2108	0	32669	32583	32701	32863	32607	32767	32739	32646	
2109	0	32711	32470	32716	32874	32646	32875	32839	32719	
2110	0	32724	32657	32671	32743	32717	32775	32915	32661	
2111	0	32735	32447	32627	32855	32751	32647	32821	32671	
2112	0	32647	32627	32701	32823	32871	32773	32823	32726	
2113	0	32667	32591	32671	32551	32837	32707	32809	32679	
2114	0	32671	32772	32731	32463	32793	32819	32831	32663	
2115	0	32759	32754	32727	32582	32775	32711	32767	32695	
2116	0	32816	32695	32756	32599	32795	32804	32487	32711	
2117	0	32758	32838	32823	32519	32647	32711	32483	32797	
2118	0	32775	32784	32787	32782	32711	32831	32399	32722	
2119	0	32792	32927	32815	32876	32903	32630	32541	32710	
2120	0	32773	32883	32879	32735	32813	32799	32647	32599	
2121	0	32769	32684	32754	32695	32718	32775	32843	32583	
2122	0	32815	32706	32775	32723	32711	32815	32751	32749	
2123	0	32797	32587	32781	32740	32739	32647	32551	32759	
2124	0	32806	32629	32883	32727	32603	32675	32719	32783	
2125	0	32773	32609	32758	32775	32599	32763	32663	32755	
2126	0	32758	32677	32827	32669	32673	32799	32599	32759	
2127	0	32647	32519	32717	32729	32747	32739	32647	32803	
2128	0	32759	32625	32797	32747	32679	32805	32623	32801	
2129	0	32784	32583	32741	32729	32797	32735	32666	32671	
2130	0	32788	32687	32706	32767	32863	32685	32815	32663	
2131	0	32828	32579	32693	32855	32835	32723	32977	32699	
2132	0	32822	32825	32757	32803	32885	32799	32839	32759	
2133	0	32679	32711	32766	32598	32891	32703	32807	32679	
2134	0	32769	32763	32766	32588	32775	32765	32919	32699	
2135	0	32673	32612	32749	32771	32809	32775	32875	32586	
2136	0	32677	32687	32803	32628	32835	32699	32782	32543	
2137	0	32707	32641	32818	32599	32807	32708	32787	32591	
2138	0	32736	32667	32775	32631	32801	32795	32719	32660	
2139	0	32748	32613	32805	32807	32751	32643	32748	32703	
2140	0	32774	32759	32679	32775	32747	32737	32732	32706	
2141	0	32924	32853	32669	32869	32771	32854	32759	32685	
2142	0	32890	32676	32671	32911	32727	32797	32791	32731	
2143	0	32843	32829	32621	33055	32738	32823	32789	32761	
2144	0	32801	32943	32765	32747	32775	32803	32783	32801	
2145	0	32754	32959	32749	32829	32735	32647	32647	32706	
2146	0	32748	32706	32791	32903	32711	32823	32567	32692	
2147	0	32782	32785	32791	32703	32735	32903	32669	32579	
