# OpenSignals Text File Format
# {"00:07:80:3B:46:38": {"sensor": ["CUSTOM/0.5/1.0/V", "CUSTOM/0.5/1.0/V", "CUSTOM/0.5/1.0/V", "CUSTOM/0.5/1.0/V", "CUSTOM/0.5/1.0/V", "CUSTOM/0.5/1.0/V", "CUSTOM/0.5/1.0/V", "CUSTOM/0.5/1.0/V"], "device name": "EMGs", "column": ["nSeq", "DI", "RA_L", "RA_R", "OE_L", "OE:R", "IL_L", "IL_R", "MF_L", "MF_R"], "sync interval": 2, "time": "11:11:30.261", "comments": "", "device connection": "BTH00:07:80:3B:46:38", "channels": [1, 2, 3, 4, 5, 6, 7, 8], "date": "2017-6-5", "mode": 0, "digital IO": [0, 1], "firmware version": 772, "device": "biosignalsplux", "position": 0, "sampling rate": 1000, "label": ["RA_L", "RA_R", "OE_L", "OE:R", "IL_L", "IL_R", "MF_L", "MF_R"], "resolution": [16, 16, 16, 16, 16, 16, 16, 16], "special": [{}, {}, {}, {}, {}, {}, {}, {}]}}
# EndOfHeader
0	0	32925	32599	32839	32679	32704	32723	32830	32711	
1	0	32969	32763	32891	32742	32663	32799	32827	32793	
2	0	32969	32763	32831	32734	32758	32775	32820	32731	
3	0	32860	32590	32631	32775	32701	32839	32807	32815	
4	0	32801	32827	32701	32711	32735	32713	32861	32786	
5	0	32775	32775	32463	32827	32639	32725	32838	32818	
6	0	32683	32799	32671	32831	32647	32892	32789	32854	
7	0	32735	32791	32742	32743	32593	32854	32747	32635	
8	0	32831	32879	32783	32815	32663	32683	32726	32679	
9	0	32677	32803	32754	32755	32685	32858	32743	32675	
10	0	32695	32687	32871	32759	32742	32788	32775	32765	
11	0	32690	32935	32955	32767	32675	32731	32817	32799	
12	0	32718	32847	33068	32641	32707	32861	32741	32659	
13	0	32839	32591	33031	32683	32687	32839	32759	32889	
14	0	32974	32815	33177	32593	32743	32683	32735	32737	
15	0	32962	32734	32965	32668	32663	32710	32775	32930	
16	0	32991	32641	33103	32614	32758	32775	32767	32811	
17	0	33042	32562	32902	32739	32747	32787	32867	32855	
18	0	33066	32677	32803	32733	32751	32635	32799	32817	
19	0	32982	32639	32669	32807	32659	32773	32713	32613	
20	0	32815	32487	32578	32870	32767	32738	32765	32839	
21	0	32811	32767	32625	32727	32686	32635	32809	32759	
22	0	32783	32665	32647	32794	32835	32751	32831	32749	
23	0	32786	32477	32470	32718	32719	32719	32765	32671	
24	0	32697	32819	32591	32615	32871	32663	32713	32827	
25	0	32676	32713	32447	32691	32738	32698	32719	32612	
26	0	32682	32647	32568	32690	32739	32609	32683	32731	
27	0	32676	32775	32431	32551	32759	32684	32775	32621	
28	0	32620	32615	32670	32577	32670	32543	32765	32710	
29	0	32643	32959	32519	32647	32687	32668	32791	32679	
30	0	32647	32871	32354	32694	32679	32578	32814	32708	
31	0	32691	32845	32343	32590	32599	32617	32775	32767	
32	0	32702	32970	32255	32671	32641	32655	32799	32700	
33	0	32647	32757	32343	32690	32679	32581	32775	32727	
34	0	32684	33030	32403	32690	32675	32679	32806	32681	
35	0	32714	33039	32379	32662	32708	32643	32799	32887	
36	0	32832	33007	32535	32759	32678	32675	32799	32886	
37	0	32794	32839	32625	32663	32795	32669	32775	32685	
38	0	32745	33159	32530	32733	32703	32567	32754	32823	
39	0	32669	33015	32535	32806	32713	32571	32754	32715	
40	0	32620	32767	32486	32799	32635	32749	32711	32903	
41	0	32605	33111	32405	32871	32681	32710	32759	32839	
42	0	32626	32999	32568	32911	32713	32682	32799	32911	
43	0	32735	32887	32562	32703	32647	32726	32765	32757	
44	0	32771	32947	32767	32635	32655	32675	32701	32827	
45	0	32781	32685	32775	32582	32607	32750	32677	32669	
46	0	32819	33015	32823	32428	32684	32645	32728	32773	
47	0	32791	32890	32791	32431	32732	32708	32685	32703	
48	0	32827	32722	32743	32391	32839	32669	32708	32741	
49	0	32884	32823	33058	32335	32789	32548	32708	32642	
50	0	32946	32695	33043	32503	32719	32685	32711	32807	
51	0	32934	32903	33071	32380	32743	32629	32727	32695	
52	0	32999	32869	32815	32295	32743	32687	32815	32731	
53	0	33037	32775	32767	32411	32751	32739	32794	32626	
54	0	32949	32861	32539	32445	32767	32702	32795	32796	
55	0	32781	32734	32447	32339	32751	32807	32813	32730	
56	0	32769	32943	32335	32499	32823	32791	32807	32811	
57	0	32761	32877	32418	32727	32635	32599	32821	32721	
58	0	32711	32711	32283	32599	32734	32759	32823	32847	
59	0	32662	32986	32375	32831	32687	32887	32799	32719	
60	0	32662	32883	32455	32863	32783	32795	32805	32775	
61	0	32590	32721	32607	32661	32762	32809	32799	32647	
62	0	32593	32947	32555	32887	32850	32748	32770	32741	
63	0	32629	32941	32511	33059	32725	32799	32754	32751	
64	0	32652	32934	32716	33071	32755	32699	32747	32775	
65	0	32708	32997	32772	33319	32754	32594	32787	32730	
66	0	32654	32991	32879	33254	32749	32662	32699	32751	
67	0	32672	32775	32831	33091	32715	32622	32685	32707	
68	0	32713	33015	33031	33127	32723	32625	32745	32628	
69	0	32790	32862	32967	32903	32752	32623	32783	32682	
70	0	32784	32749	33062	32757	32745	32681	32814	32607	
71	0	32841	32813	32935	32717	32752	32558	32870	32698	
72	0	32887	32657	32855	32761	32711	32655	32967	32737	
73	0	32925	32895	32903	32635	32930	32615	33021	32659	
74	0	32927	32799	33057	32636	32791	32647	32935	32751	
75	0	32935	32647	33212	32703	32847	32701	32967	32759	
76	0	32924	32963	33175	32671	32791	32593	32877	32850	
77	0	32884	32933	32619	32815	32586	32639	32631	32754	
78	0	32793	32839	32477	32769	32455	32767	32468	32821	
79	0	32764	33047	32260	32647	32578	32817	32310	32807	
80	0	32692	32948	32163	32731	32583	32705	32477	32683	
81	0	32690	32775	31875	32727	32620	32795	32629	32731	
82	0	32647	33087	32039	32678	32707	32681	32695	32711	
83	0	32620	32903	32147	32635	32637	32766	32727	32725	
84	0	32669	33107	32007	32699	32674	32679	32727	32775	
85	0	32664	32918	32151	32551	32638	32751	32727	32677	
86	0	32729	32869	32221	32689	32601	32775	32799	32775	
87	0	32716	32895	32515	32658	32615	32671	32821	32686	
88	0	32731	32731	32517	32487	32577	32639	32771	32679	
89	0	32682	33086	32487	32503	32626	32647	32647	32639	
90	0	32711	32903	32578	32591	32825	32647	32669	32703	
91	0	32645	32887	32436	32699	32940	32813	32682	32801	
92	0	32753	32876	32431	32570	32975	32790	32763	32747	
93	0	32647	32687	32205	32694	32807	32743	32755	32839	
94	0	32672	32899	32295	32731	32785	32538	32805	32679	
95	0	32671	32741	32309	32623	32802	32559	32759	32727	
96	0	32559	32615	32351	32715	32775	32607	32815	32731	
97	0	32639	32631	32297	32687	32883	32643	32851	32735	
98	0	32692	32627	32447	32711	32771	32713	32823	32669	
99	0	32769	32391	32435	32739	32639	32679	32751	32599	
100	0	32775	32598	32455	32809	32819	32602	32771	32719	
101	0	32843	32524	32461	32891	32729	32711	32749	32775	
102	0	32841	32387	32655	32763	32786	32725	32871	32713	
103	0	32793	32599	32639	32530	32746	32679	32822	32754	
104	0	32862	32570	32927	32427	32706	32561	32757	32683	
105	0	32839	32575	32903	32471	32831	32847	32759	32690	
106	0	32858	32535	33005	32621	32711	32708	32786	32807	
107	0	32838	32647	32946	32621	32755	32743	32799	32655	
108	0	32895	32723	33110	32775	32641	32764	32785	32711	
109	0	32839	32666	33031	32866	32813	32821	32739	32775	
110	0	32837	32962	33086	33065	32742	32566	32762	32723	
111	0	32911	32919	32967	33101	32607	32684	32591	32771	
112	0	32917	32767	33089	33207	32569	32725	32540	32823	
113	0	32970	33183	32885	33327	32609	32679	32644	32740	
114	0	32989	33125	32975	33167	32679	32698	32813	32743	
115	0	32999	33046	33140	33220	32711	32583	32834	32722	
116	0	33025	33122	33301	33061	32827	32996	32903	32775	
117	0	33046	33045	33107	32698	32469	32759	32903	32690	
118	0	32954	32983	32891	32581	32407	32662	32930	32819	
119	0	33017	32933	32879	32599	32527	32749	32983	32796	
120	0	32949	32813	32646	32557	32518	32493	32847	32775	
121	0	32887	32945	32679	32615	33057	32839	32706	32725	
122	0	32791	32887	32589	32503	32938	32773	32609	32903	
123	0	32713	32679	32638	32603	32725	32658	32391	32702	
124	0	32684	32941	32503	32630	32745	32759	32263	32916	
125	0	32662	32886	32722	32639	32765	32742	32293	32775	
126	0	32601	32719	32783	32571	32935	32507	32495	32845	
127	0	32643	32735	32607	32573	32785	32439	32609	32545	
128	0	32661	32692	32855	32595	32717	32556	32823	32583	
129	0	32722	32775	32647	32695	32751	32621	32790	32569	
130	0	32694	32658	32467	32783	33245	32468	32759	32551	
131	0	32623	32711	32600	32725	33239	32839	32694	32751	
132	0	32621	32495	32613	32583	32895	32547	32629	32514	
133	0	32591	32819	32749	32745	32877	32683	32551	32263	
134	0	32703	32807	32701	32813	32827	33093	32658	32383	
135	0	32695	32719	32797	32695	32535	32609	32849	32783	
136	0	32642	32869	32735	32639	32247	32087	32913	33019	
137	0	32612	32821	32684	32587	32135	32063	32827	33068	
138	0	32570	32846	32743	32511	32177	32464	32885	33049	
139	0	32590	32669	32535	32541	32428	33078	32827	32823	
140	0	32574	32476	32775	32603	32683	32493	32919	32359	
141	0	32638	32628	32715	32769	33011	32679	33131	32679	
142	0	32754	32496	33018	32667	32926	33343	33300	33357	
143	0	32759	32559	32775	32755	32599	33074	33095	33630	
144	0	32642	32665	32820	32755	32935	32321	32998	33063	
145	0	32660	32571	32813	32689	33202	31890	32925	32431	
146	0	32652	32685	32709	32665	32903	31456	32871	33154	
147	0	32676	32450	32611	32850	32713	31639	32495	32959	
148	0	32642	32707	32405	32891	32342	31869	32263	32719	
149	0	32750	32575	32319	32887	32677	32399	32551	32239	
150	0	32759	32445	32070	32891	32567	32581	32759	32315	
151	0	32735	32567	32078	32646	32423	33706	32703	32817	
152	0	32789	32561	32171	32425	32683	34692	32847	33287	
153	0	32941	32535	32623	32089	32831	35131	33215	34177	
154	0	32967	32527	32597	32047	33015	33949	33287	33703	
155	0	32867	32422	32637	32227	33113	33383	32987	32935	
156	0	32775	32621	32316	32407	32831	33341	32727	32035	
157	0	32692	32661	32726	32895	32947	33027	32647	31803	
158	0	32732	32671	32795	33201	32903	32295	32431	31654	
159	0	32731	32795	32869	33335	32979	32372	32215	31701	
160	0	32703	32667	32593	33515	33055	32334	32147	31932	
161	0	32800	32836	32659	33447	32716	32022	32486	32125	
162	0	32852	32691	32329	33407	32717	31353	32567	32255	
163	0	32878	32715	32259	33411	32636	31423	32693	31915	
164	0	33020	32697	31983	33110	32327	32743	32807	31798	
165	0	32979	32471	31965	33012	32313	34235	32995	31725	
166	0	32965	32762	32063	32731	32440	34489	33431	32495	
167	0	32976	32647	32070	32479	32820	32675	33445	33007	
168	0	32919	32559	32063	32429	33172	31866	33223	33129	
169	0	32799	32771	31947	32271	32575	32828	32884	32963	
170	0	32885	32759	32253	32461	31591	31847	32487	33471	
171	0	33002	32711	32577	32315	31487	31180	32247	33901	
172	0	33010	32615	32692	32482	32351	31962	32523	34023	
173	0	32953	32583	32679	32574	33095	34271	32546	34282	
174	0	32871	32787	32487	32567	33023	34337	32573	34511	
175	0	32861	32771	32535	32684	33085	33647	32850	33799	
176	0	32832	32762	32543	32551	32804	33457	32854	33397	
177	0	32748	32603	32732	32604	32585	32741	32837	33207	
178	0	32791	32803	32735	32495	32693	32627	32895	32783	
179	0	32753	32743	32571	32609	33077	32592	33014	32647	
180	0	32749	32655	32629	32529	33159	32633	33007	32639	
181	0	32719	32885	32470	32677	32982	32557	32884	32235	
182	0	32782	32786	32809	32710	32875	32615	32749	32191	
183	0	32825	32509	32798	32503	32711	32707	32639	32133	
184	0	32786	32717	32924	32583	32751	32687	32718	32127	
185	0	32690	32595	32762	32643	32791	32949	32727	32311	
186	0	32574	32564	32877	32647	32743	32685	32751	32429	
187	0	32534	32726	32873	32787	32966	32724	32817	32522	
188	0	32600	32589	32867	32647	32919	32647	32789	32367	
189	0	32617	32647	32863	32749	32913	32551	32787	32611	
190	0	32478	32774	32597	32645	32915	32645	32690	32582	
191	0	32445	32663	32557	32571	32684	32462	32487	32684	
192	0	32506	32662	32407	32635	32884	32467	32581	32663	
193	0	32568	32631	32607	32679	32843	32615	32620	32699	
194	0	32712	32667	32503	32619	32711	32493	32527	32708	
195	0	32903	32567	32679	32711	32375	32518	32525	32498	
196	0	32972	32801	32559	32498	32346	32667	32623	32477	
197	0	32927	32733	32635	32340	32293	32599	32583	32494	
198	0	32832	32621	32566	32203	32403	32663	32537	32555	
199	0	32886	32735	32735	32104	32449	32725	32511	32703	
200	0	32925	32548	32663	32359	32487	32559	32575	32475	
201	0	32790	32843	32663	32433	32565	32575	32641	32711	
202	0	32757	32830	32553	32507	32773	32795	32797	32702	
203	0	32704	32691	32735	32767	32892	32839	32709	32999	
204	0	32640	32893	32794	32963	32564	32775	32514	32897	
205	0	32565	32615	33102	33132	32483	32423	32655	32937	
206	0	32586	32903	33037	33285	32285	32429	32757	32869	
207	0	32526	32887	32899	33507	32406	32407	33159	33223	
208	0	32548	32695	32699	33455	32833	32725	32981	33199	
209	0	32562	32947	32491	33374	32679	32183	33001	33199	
210	0	32603	32755	32351	33181	32527	32123	33044	33115	
211	0	32749	32610	32459	32941	32583	32187	33043	33124	
212	0	32756	32709	32557	32725	32742	32699	33058	32987	
213	0	32747	32623	32391	32591	32551	33212	32985	32985	
214	0	32737	32673	32262	32470	32566	33557	33108	32937	
215	0	32743	32734	32501	32247	32559	33391	33091	32903	
216	0	32717	32542	32407	32332	32719	32759	33055	32871	
217	0	32615	32854	32308	32338	32509	32839	32931	32557	
218	0	32558	32755	32382	32231	32743	32941	32863	32354	
219	0	32600	32557	32391	32170	33043	32631	32863	32307	
220	0	32516	32787	32487	31927	33529	32659	32915	32526	
221	0	32524	32799	32519	32031	33311	33453	32917	32280	
222	0	32629	32679	32677	32103	32893	32855	32837	32231	
223	0	32677	32751	32710	32343	32703	32247	32783	32055	
224	0	32782	32623	32939	32611	32799	32307	32742	32340	
225	0	32741	33043	32987	32997	32869	32661	32647	32445	
226	0	32725	32895	33075	33102	32770	32605	32615	32724	
227	0	32717	32940	33038	33051	32763	32621	32627	32709	
228	0	32629	32915	32775	33071	32847	32599	32647	32750	
229	0	32634	32801	32719	33173	32647	32635	32711	32597	
230	0	32718	33159	32635	33263	32767	32861	32764	32607	
231	0	32695	33071	32763	33241	32726	32839	32747	32403	
232	0	32703	32909	32802	33285	32617	32871	32681	32577	
233	0	32712	33159	32903	33323	32603	32807	32503	32601	
234	0	32735	33076	32877	33275	33119	32557	32636	32767	
235	0	32687	32893	32975	33334	33307	32607	32647	32955	
236	0	32815	33074	33031	33121	33151	32574	32695	32903	
237	0	32784	32903	32923	32834	32861	32487	32685	32967	
238	0	32820	32971	32902	32692	32735	32581	32725	32859	
239	0	32803	32978	32733	32543	32702	32489	32735	32903	
240	0	32876	32849	32887	32603	32639	32550	32849	32787	
241	0	33022	32879	32692	32647	32611	32506	32899	32842	
242	0	33060	32739	32623	32593	32571	32631	32861	32687	
243	0	32976	32991	32679	32559	32646	32695	32855	32817	
244	0	32964	33021	32596	32748	32615	32559	32775	32773	
245	0	32933	32839	32883	32964	32710	32623	32791	32687	
246	0	32925	32973	32937	33031	32775	32605	32799	32792	
247	0	32908	32823	32821	33001	32634	32647	32667	32644	
248	0	32882	33045	32979	33151	32685	32611	32754	32835	
249	0	32881	32939	32814	33238	32717	32631	32775	32645	
250	0	32903	32862	32685	33039	32655	32581	32715	32756	
251	0	32925	33097	32892	33015	32634	32667	32723	32671	
252	0	33009	33052	32805	32863	32591	32727	32719	32775	
253	0	33001	33063	32804	32709	32647	32679	32691	32667	
254	0	33030	32911	32591	32483	32615	32695	32643	32726	
255	0	32982	32767	32726	32359	32603	32647	32638	32723	
256	0	32980	32863	32508	32303	32647	32708	32679	32745	
257	0	32939	32615	32231	32259	32613	32762	32725	32775	
258	0	32908	32885	32279	32391	32742	32775	32719	32797	
259	0	32895	32865	32150	32527	32647	32839	32727	32882	
260	0	32980	32683	32383	32479	32743	32722	32733	32863	
261	0	32979	32815	32363	32613	32759	32751	32791	32878	
262	0	32993	32614	32095	32638	32645	32674	32711	32775	
263	0	33038	32855	32327	32543	32743	32751	32691	32804	
264	0	33063	32815	32390	32663	32642	32727	32741	32795	
265	0	33005	32567	32486	32749	32726	32683	32775	32738	
266	0	32962	32751	32507	32534	32771	32795	32807	32877	
267	0	32893	32661	32379	32590	32735	32770	32757	32797	
268	0	32827	32567	32483	32535	32751	32683	32671	32821	
269	0	32810	32703	32455	32739	32695	32789	32727	32687	
270	0	32749	32539	32558	32767	32659	32665	32791	32887	
271	0	32805	32839	32628	32839	32749	32790	32786	32763	
272	0	32786	32721	32549	32806	32829	32663	32759	32811	
273	0	32726	32719	32733	33027	32813	32815	32743	32775	
274	0	32759	32815	32639	33107	32830	32871	32703	32767	
275	0	32708	32863	32836	33018	32669	32769	32771	32701	
276	0	32719	32735	32589	32925	32741	32881	32719	32745	
277	0	32752	32819	32687	32739	32695	32866	32719	32759	
278	0	32755	32463	32641	32525	32797	32839	32717	32895	
279	0	32747	32743	32717	32552	32707	32809	32677	32647	
280	0	32694	32695	32663	32695	32683	32677	32698	32775	
281	0	32644	32497	32647	32635	32763	32723	32719	32646	
282	0	32583	32709	32749	32709	32629	32694	32717	32823	
283	0	32550	32615	32647	32719	32734	32578	32763	32725	
284	0	32590	32444	32795	32715	32645	32709	32773	32903	
285	0	32556	32621	32609	32631	32658	32664	32685	32767	
286	0	32583	32845	32751	32477	32663	32607	32708	32751	
287	0	32564	32851	32574	32459	32818	32694	32709	32845	
288	0	32543	32700	32609	32503	32734	32633	32713	32685	
289	0	32477	32804	32447	32643	32775	32564	32850	32823	
290	0	32487	32639	32350	32682	32785	32687	32775	32711	
291	0	32550	32871	32495	32691	32707	32694	32775	32917	
292	0	32594	32767	32541	32830	32817	32775	32709	32773	
293	0	32645	32773	32647	32851	32743	32729	32724	32895	
294	0	32643	32971	32615	32753	32773	32637	32692	32775	
295	0	32756	32898	32859	32927	32705	32696	32681	32709	
296	0	32751	32639	32671	32807	32775	32687	32643	32827	
297	0	32717	32921	32735	32701	32805	32766	32719	32759	
298	0	32698	32903	32683	32423	32743	32647	32711	32719	
299	0	32663	32755	32799	32335	32724	32679	32687	32663	
300	0	32727	32879	32847	32215	32811	32604	32703	32775	
301	0	32687	32810	32929	32083	32679	32715	32738	32703	
302	0	32647	33023	32663	32047	32806	32645	32726	32914	
303	0	32564	32939	32391	32445	32765	32679	32707	32723	
304	0	32540	32951	32357	32846	32730	32679	32732	32815	
305	0	32618	33108	32258	33153	32725	32647	32681	32647	
306	0	32601	32873	32391	33511	32668	32730	32695	32775	
307	0	32572	33119	32334	33732	32711	32619	32754	32695	
308	0	32566	33083	32578	33843	32679	32647	32763	32702	
309	0	32531	33007	32577	33709	32687	32657	32775	32775	
310	0	32582	32855	32581	33511	32559	32555	32802	32685	
311	0	32641	32901	32647	33309	32767	32662	32789	32855	
312	0	32611	32626	32595	33113	32759	32671	32815	32726	
313	0	32655	32932	32730	32775	32711	32708	32831	32842	
314	0	32684	32806	32695	32501	32767	32655	32765	32919	
315	0	32691	32725	32939	32375	32806	32614	32747	32775	
316	0	32696	32663	32839	32338	32644	32587	32695	32811	
317	0	32734	32583	32758	32283	32629	32452	32799	32852	
318	0	32743	32693	32761	32311	32575	32570	32775	32829	
319	0	32681	32477	32583	32421	32579	32449	32791	32919	
320	0	32727	32687	32615	32490	32617	32599	32884	32863	
321	0	32731	32567	32583	32391	32583	32549	32847	32855	
322	0	32760	32591	32639	32511	32753	32505	32830	32807	
323	0	32742	32721	32735	32604	32749	32492	32843	32895	
324	0	32824	32705	32773	32491	32708	32447	32862	32811	
325	0	32798	32623	32819	32577	32599	32487	32773	32767	
326	0	32844	32815	32669	32519	32555	32487	32695	32853	
327	0	32790	32747	32639	32543	32699	32518	32603	32898	
328	0	32766	32805	32557	32551	32677	32691	32590	32863	
329	0	32860	32741	32535	32639	32763	32755	32571	32879	
330	0	32903	32745	32551	32564	32775	32775	32647	32803	
331	0	32940	32687	32549	32663	32833	32791	32767	32833	
332	0	32962	32671	32559	32575	32734	32775	32787	32860	
333	0	32957	32505	32847	32583	32751	32881	32743	32754	
334	0	32888	32711	32758	32658	32748	32959	32725	32885	
335	0	32908	32703	32847	32669	32685	32823	32716	32831	
336	0	32804	32485	32743	32619	32698	32949	32674	32847	
337	0	32726	32766	32647	32647	32575	32887	32667	32839	
338	0	32679	32615	32543	32655	32707	33023	32643	32860	
339	0	32660	32423	32677	32495	32715	32935	32711	32763	
340	0	32693	32637	32523	32637	32735	32828	32679	32875	
341	0	32630	32467	32437	32549	32588	33007	32695	32775	
342	0	32645	32210	32283	32637	32611	32903	32653	32935	
343	0	32647	32457	32421	32717	32687	32749	32703	32871	
344	0	32584	32229	32375	32485	32775	32769	32749	32883	
345	0	32568	31975	32587	32501	32700	32769	32798	32902	
346	0	32621	32293	32535	32469	32763	32679	32775	32743	
347	0	32586	32199	32711	32487	32804	32738	32775	32887	
348	0	32639	32163	32599	32543	32711	32749	32687	32775	
349	0	32638	32214	32671	32525	32775	32602	32671	32863	
350	0	32560	32092	32564	32455	32813	32615	32679	32855	
351	0	32647	32263	32375	32540	32850	32582	32767	32879	
352	0	32728	32303	32545	32602	32807	32615	32775	32823	
353	0	32786	32315	32575	32551	32784	32687	32827	32982	
354	0	32916	32595	32743	32631	32886	32745	32740	32788	
355	0	32879	32535	32807	32535	32879	32621	32715	32785	
356	0	33026	32583	32691	32588	32751	32725	32767	32973	
357	0	33010	32567	32767	32546	32788	32703	32822	32827	
358	0	32903	32607	32615	32611	32699	32716	32834	32898	
359	0	32883	32591	32661	32756	32735	32775	32751	32812	
360	0	32919	32647	32771	32727	32685	32774	32666	32895	
361	0	32977	32735	32997	32882	32621	32655	32759	32749	
362	0	33004	32791	32947	33031	32703	32745	32890	32704	
363	0	33020	32991	32999	33004	32759	32632	32898	32683	
364	0	33053	33190	32819	33247	32847	32609	33026	32797	
365	0	33014	33014	32694	33343	32873	32797	33063	32811	
366	0	33044	33279	32755	33239	32823	32690	33069	32772	
367	0	32966	33134	32647	33403	32871	32565	32951	32609	
368	0	32959	32932	32775	33449	32796	32685	32883	32607	
369	0	32944	33089	32865	33422	32838	32549	32890	32484	
370	0	33001	32885	32749	33351	32802	32588	32915	32548	
371	0	33029	32783	32838	33254	32629	32629	32831	32527	
372	0	32977	32813	32821	33095	32647	32627	32743	32666	
373	0	32903	32695	32821	32977	32631	32514	32708	32546	
374	0	32729	33003	32855	32903	32660	32602	32710	32503	
375	0	32785	32935	32751	32709	32647	32789	32752	32639	
376	0	32788	32749	32674	32711	32724	32775	32695	32602	
377	0	32711	32964	32415	32715	32679	32743	32679	32587	
378	0	32741	32839	32527	32663	32583	32791	32742	32509	
379	0	32654	32719	32530	32647	32643	32721	32694	32546	
380	0	32596	32967	32671	32677	32583	32621	32759	32470	
381	0	32580	32871	32503	32543	32707	32759	32739	32511	
382	0	32577	32835	32494	32622	32631	32855	32716	32487	
383	0	32585	32706	32391	32511	32621	32775	32687	32611	
384	0	32647	32711	32534	32583	32631	32881	32679	32660	
385	0	32681	32615	32417	32543	32703	32855	32743	32662	
386	0	32743	32455	32517	32421	32643	32702	32674	32879	
387	0	32740	32735	32364	32479	32677	32707	32647	32695	
388	0	32822	32695	32540	32431	32539	32722	32691	32749	
389	0	32816	32701	32479	32527	32707	32759	32735	32839	
390	0	32880	32787	32583	32647	32702	32788	32763	32678	
391	0	32925	32751	32487	32613	32765	32775	32711	32706	
392	0	32986	32757	32647	32534	32647	32629	32742	32667	
393	0	32916	32775	32499	32358	32727	32803	32714	32756	
394	0	33008	33037	32623	32327	32711	32684	32807	32735	
395	0	33007	33059	32578	32401	32797	32741	32809	32647	
396	0	32903	33067	32563	32503	32694	32757	32738	32799	
397	0	32915	32949	32822	32629	32803	32733	32783	32715	
398	0	32945	33083	32897	32619	32686	32733	32886	32642	
399	0	32970	32916	32970	32711	32823	32658	32885	32877	
400	0	32839	32715	32903	32658	32727	32791	32891	32706	
401	0	32690	32969	32683	32679	32775	32775	32876	32869	
402	0	32667	32885	32527	32885	32733	32791	32814	32806	
403	0	32685	32647	32499	33031	32747	32858	32740	32743	
404	0	32655	32950	32691	33121	32719	32860	32727	32735	
405	0	32678	32823	32594	33254	32759	32695	32784	32695	
406	0	32665	32554	32709	33199	32815	32821	32867	32773	
407	0	32729	32631	32691	33274	32831	32765	32822	32727	
408	0	32679	32731	32669	33199	32830	32644	32847	32829	
409	0	32645	32663	32622	33029	32741	32723	32839	32707	
410	0	32655	32655	32487	32991	32662	32683	32866	32775	
411	0	32689	32699	32663	33018	32719	32642	32879	32627	
412	0	32753	32462	32587	32899	32751	32661	32882	32789	
413	0	32676	32623	32711	32858	32707	32575	32807	32703	
414	0	32634	32613	32722	32627	32755	32679	32767	32807	
415	0	32684	32495	32775	32642	32754	32719	32715	32795	
416	0	32773	32429	32757	32730	32810	32628	32738	32743	
417	0	32723	32639	32823	32727	32791	32775	32805	32791	
418	0	32629	32631	32631	32773	32687	32687	32775	32623	
419	0	32604	32567	32399	32743	32762	32722	32721	32759	
420	0	32585	32810	32205	32829	32739	32639	32705	32647	
421	0	32595	32767	32239	32691	32706	32723	32759	32675	
422	0	32641	32775	32194	32786	32799	32726	32738	32775	
423	0	32667	32634	32263	32739	32756	32687	32807	32669	
424	0	32620	32839	32308	32901	32663	32670	32803	32695	
425	0	32655	32902	32479	32791	32647	32775	32764	32821	
426	0	32783	32830	32501	32634	32731	32647	32575	32631	
427	0	32769	33170	32467	32643	32775	32829	32565	32789	
428	0	32683	33319	32391	32587	32921	32811	32583	32702	
429	0	32625	33127	32461	32575	32783	32762	32827	32751	
430	0	32663	33471	32421	32556	32853	32615	32802	32625	
431	0	32609	33492	32607	32499	32970	32519	32862	32640	
432	0	32575	33317	32528	32570	32929	32527	32831	32734	
433	0	32566	33607	32703	32541	32838	32441	32682	32667	
434	0	32570	33535	32758	32515	32719	32391	32759	32717	
435	0	32596	33479	32615	32605	32556	32645	33007	32771	
436	0	32589	33506	32783	32593	32495	32619	32863	32679	
437	0	32591	33499	32679	32621	32481	32756	32869	32707	
438	0	32592	33496	32670	32727	32882	33231	32775	32695	
439	0	32647	33359	32595	32735	33095	33023	32843	32739	
440	0	32623	33207	32726	32806	32870	32802	32751	32662	
441	0	32717	33410	32595	32724	32695	32802	32669	32687	
442	0	32747	33268	32879	32775	32532	32647	32595	32711	
443	0	32756	33043	32717	32687	32443	32583	32691	32821	
444	0	32669	33334	32786	32810	32391	32965	32658	32765	
445	0	32605	33231	32690	32771	32503	32865	32767	32820	
446	0	32562	33071	32583	32647	32709	32647	32775	32709	
447	0	32594	33058	32619	32559	32535	32461	32695	32798	
448	0	32540	33063	32527	32549	32724	32687	32854	32810	
449	0	32548	32770	32590	32519	32919	32811	32877	32767	
450	0	32598	32943	32642	32592	32709	32647	32799	32827	
451	0	32686	32837	32869	32542	32405	32599	32959	32710	
452	0	32731	32807	32751	32439	32431	32719	33047	32847	
453	0	32621	32735	32719	32611	32593	32573	33101	32781	
454	0	32672	32689	32687	32571	33090	32749	33110	32845	
455	0	32710	32471	32780	32439	32982	32591	32940	32715	
456	0	32773	32771	32551	32567	32647	32471	32619	32717	
457	0	32773	32638	32599	32609	32845	32634	32513	32519	
458	0	32679	32701	32574	32607	33087	33082	32563	32678	
459	0	32681	32623	32718	32611	33095	33117	32319	32539	
460	0	32763	32461	32751	32702	32784	32647	32157	32587	
461	0	32690	32535	32579	32839	32415	32471	32159	32619	
462	0	32741	32527	32635	32735	32535	32751	32313	32643	
463	0	32834	32571	32655	32874	32463	32759	32466	32591	
464	0	32880	32563	32859	32899	32819	32992	32660	32507	
465	0	33030	32383	32795	32791	33238	32885	32983	32711	
466	0	33152	32594	32885	32759	33110	32683	33119	32839	
467	0	33137	32470	32717	32743	32463	32447	32837	32795	
468	0	33009	32333	32511	32626	32531	32583	32838	32554	
469	0	32964	32479	32415	32559	32469	32615	33071	32643	
470	0	32827	32453	32169	32654	32367	32468	33031	32596	
471	0	32751	32335	32319	32615	32347	32554	32835	32699	
472	0	32739	32612	32354	32727	32615	32716	32691	32647	
473	0	32775	32477	32491	32739	32548	32717	32613	32611	
474	0	32942	32307	32413	32615	32773	32975	32727	32813	
475	0	32987	32511	32615	32647	33023	32801	33031	32743	
476	0	32903	32471	32580	32683	33116	32935	33159	32719	
477	0	32960	32343	32775	32605	32972	32818	32679	32457	
478	0	33028	32719	32851	32573	32450	32629	32773	32503	
479	0	33076	32571	33077	32541	32363	32792	32297	32198	
480	0	33041	32461	33061	32549	32450	32818	32214	32327	
481	0	33046	32735	33133	32615	33015	33015	32194	32231	
482	0	33035	32647	32993	32543	32903	32743	32147	32539	
483	0	33094	32571	32671	32705	32804	32721	32115	32422	
484	0	32911	32742	32542	32751	32135	32911	32135	32467	
485	0	32799	32699	32367	32735	32039	33107	32285	32325	
486	0	32772	32807	32399	32903	32559	32679	32389	32807	
487	0	32734	32787	32291	32987	32895	31703	32421	33703	
488	0	32628	32722	32327	32997	33339	31675	32981	34377	
489	0	32606	32997	32247	33159	32747	32041	33746	34529	
490	0	32571	32899	32321	33135	32612	31660	35100	34427	
491	0	32614	32802	32557	32949	32477	31751	35047	33948	
492	0	32689	32871	32589	33017	32506	32900	34128	33255	
493	0	32775	32732	32503	32866	32431	33396	33031	33026	
494	0	32793	32450	32516	32832	32621	33027	32323	32718	
495	0	32839	32685	32502	32829	32727	32863	32239	31823	
496	0	32830	32582	32739	32854	32759	32703	32183	31567	
497	0	32892	32469	32855	32964	33189	33275	32447	31479	
498	0	32925	32646	32999	32919	33241	34089	32466	31789	
499	0	32890	32519	32863	32951	33170	33754	32711	31999	
500	0	32843	32324	32815	32963	32938	32929	32991	32363	
501	0	32863	32539	32698	32811	32825	32597	32876	32799	
502	0	32839	32506	32587	32731	32823	32644	32783	32995	
503	0	32775	32386	32748	32735	32813	32566	32669	32855	
504	0	32692	32639	32425	32748	32711	32627	32623	32843	
505	0	32608	32605	32435	32679	32722	32711	32613	32859	
506	0	32640	32567	32338	32822	32635	32594	32623	32975	
507	0	32663	32717	32643	32751	32667	32589	32662	32895	
508	0	32549	32709	32551	32691	32599	32594	32685	33021	
509	0	32684	32695	32677	32726	32700	32589	32639	32949	
510	0	32698	32935	32711	32639	32727	32578	32679	32751	
511	0	32818	32917	32687	32668	32754	32583	32655	32743	
512	0	32844	32925	32745	32627	32681	32791	32674	32749	
513	0	32843	33019	32647	32671	32695	32781	32733	32566	
514	0	32812	33124	32767	32588	32735	32719	32737	32727	
515	0	32748	32990	32647	32671	32633	32721	32683	32727	
516	0	32809	32845	32935	32470	32701	32815	32711	32623	
517	0	32773	32992	32895	32499	32647	32775	32711	32791	
518	0	32765	32855	33003	32535	32674	32694	32761	32668	
519	0	32823	32621	32884	32658	32603	32759	32775	32739	
520	0	32863	32841	33007	32637	32635	32767	32706	32763	
521	0	32860	32775	32786	32543	32647	32701	32743	32647	
522	0	32852	32759	32747	32573	32687	32837	32722	32821	
523	0	32795	32903	32533	32607	32647	32854	32737	32747	
524	0	32724	32783	32646	32774	32727	32839	32813	32775	
525	0	32690	32667	32292	32711	32703	32983	32775	32811	
526	0	32629	32845	32275	32613	32698	33059	32775	32677	
527	0	32577	32701	32275	32551	32663	33001	32767	32823	
528	0	32615	32551	32367	32364	32743	32980	32775	32607	
529	0	32673	32663	32324	32459	32605	32955	32798	32554	
530	0	32714	32551	32501	32516	32663	32967	32759	32689	
531	0	32711	32557	32499	32563	32723	33035	32757	32637	
532	0	32762	32451	32671	32555	32855	33133	32799	32687	
533	0	32843	32475	32695	32670	32797	32836	32815	32655	
534	0	32848	32503	32771	32679	32775	32646	32791	32559	
535	0	32807	32327	32726	32837	32813	32487	32811	32543	
536	0	32791	32527	32581	32815	32736	32427	32839	32645	
537	0	32701	32591	32613	32710	32749	32419	32817	32647	
538	0	32647	32594	32452	32799	32695	32215	32749	32819	
539	0	32580	32466	32663	32701	32775	32219	32811	32761	
540	0	32640	32567	32775	32695	32775	32221	32663	32891	
541	0	32570	32611	32711	32713	32747	32263	32687	32895	
542	0	32631	32487	32838	32571	32762	32229	32702	32861	
543	0	32632	32459	32806	32671	32659	32151	32739	32881	
544	0	32597	32421	32941	32628	32767	32373	32754	32815	
545	0	32680	32279	32869	32431	32706	32391	32749	33008	
546	0	32711	32575	32845	32515	32799	32431	32795	33055	
547	0	32681	32501	32711	32503	32669	32557	32706	32951	
548	0	32613	32358	32549	32517	32791	32623	32715	32866	
549	0	32668	32595	32669	32663	32690	32594	32735	32791	
550	0	32743	32585	32639	32685	32713	32747	32796	32887	
551	0	32759	32445	32823	32854	32647	32869	32757	32775	
552	0	32884	32715	32735	32771	32799	32845	32841	32837	
553	0	32867	32787	32859	32775	32739	32991	32763	32723	
554	0	32871	32660	32737	32898	32741	33110	32711	32738	
555	0	32918	32952	32677	33022	32758	33119	32765	32687	
556	0	32936	32921	32587	32955	32695	33149	32821	32751	
557	0	32948	32927	32700	32980	32827	32956	32823	32673	
558	0	32910	32799	32559	32940	32749	32903	32835	32756	
559	0	32895	32508	32583	32802	32727	32885	32827	32671	
560	0	32843	32683	32404	32871	32802	32671	32847	32727	
561	0	32844	32729	32549	32903	32844	32772	32807	32711	
562	0	32799	32668	32450	32903	32540	32679	32676	32567	
563	0	32710	32705	32621	32939	32606	32576	32791	32694	
564	0	32647	32623	32485	32763	32551	32639	32794	32631	
565	0	32556	32495	32527	32636	32691	32620	32815	32767	
566	0	32561	32815	32493	32571	32663	32501	32859	32574	
567	0	32599	32751	32537	32391	32804	32511	32773	32850	
568	0	32564	32595	32543	32319	32683	32479	32758	32799	
569	0	32647	32773	32643	32239	32711	32481	32822	32749	
570	0	32743	32687	32583	32423	32743	32567	32903	32791	
571	0	32809	32675	32663	32673	32807	32562	32879	32713	
572	0	32714	32875	32724	32665	32722	32733	32818	32819	
573	0	32765	32807	32794	32743	32790	32799	32797	32829	
574	0	32846	32567	32677	32803	32719	32647	32819	32721	
575	0	32839	32647	32677	32711	32729	32677	32821	32813	
576	0	32770	32956	32629	32742	32841	32867	32819	32726	
577	0	32824	32867	32811	32703	32820	32721	32789	32699	
578	0	32838	32847	32711	32669	32751	32582	32729	32786	
579	0	32884	32739	32767	32567	32542	32525	32722	32738	
580	0	32846	32841	32643	32639	32639	32535	32820	32642	
581	0	32836	32867	32643	32807	32655	32466	32807	32559	
582	0	32784	32827	32391	32980	32711	32535	32767	32601	
583	0	32737	32927	32382	32835	32775	32475	32823	32682	
584	0	32686	32875	32244	33007	32773	32431	32811	32573	
585	0	32629	32765	32285	33047	32742	32663	32803	32804	
586	0	32687	32959	32391	32810	32757	32739	32832	32687	
587	0	32661	32719	32443	32803	32765	32615	32742	32884	
588	0	32645	32533	32469	32791	32742	32687	32847	32775	
589	0	32640	32775	32590	32793	32771	32684	32858	32815	
590	0	32627	32735	32596	32738	32756	32463	32807	32742	
591	0	32541	32711	32731	32748	32759	32732	32843	32703	
592	0	32673	32801	32679	32711	32860	32839	32855	32807	
593	0	32722	32797	32775	32647	32831	32711	32837	32684	
594	0	32747	32847	32647	32762	32851	32879	32818	32761	
595	0	32742	32885	32569	32866	32775	33127	32733	32516	
596	0	32734	32903	32487	32845	32663	32993	32727	32671	
597	0	32806	32692	32471	32823	32751	32823	32753	32711	
598	0	32820	32933	32615	32775	32679	32883	32714	32725	
599	0	32841	32816	32539	32802	32759	32940	32730	32687	
600	0	32775	32647	32541	32836	32647	32755	32695	32771	
601	0	32775	32855	32455	32679	32735	32663	32677	32660	
602	0	32736	32839	32445	32756	32663	32818	32726	32695	
603	0	32665	32700	32250	32707	32749	32739	32763	32654	
604	0	32591	32819	32219	32569	32637	32709	32726	32767	
605	0	32647	32745	32143	32579	32727	32674	32721	32647	
606	0	32732	32599	32358	32526	32644	32557	32662	32706	
607	0	32694	32807	32498	32551	32736	32679	32729	32709	
608	0	32679	32767	32621	32665	32727	32755	32765	32823	
609	0	32768	32566	32573	32597	32731	32611	32821	32767	
610	0	32765	32815	32763	32739	32703	32717	32839	32831	
611	0	32848	32690	32801	32771	32704	32623	32810	32775	
612	0	32854	32637	32727	32591	32707	32679	32791	32855	
613	0	32820	32684	32917	32533	32677	32663	32775	32716	
614	0	32777	32551	32647	32627	32707	32772	32693	32763	
615	0	32761	32783	32519	32738	32646	32803	32719	32706	
616	0	32706	32763	32551	32957	32691	32685	32679	32855	
617	0	32714	32659	32690	32715	32675	32835	32679	32740	
618	0	32757	32919	32763	32375	32725	32829	32685	32798	
619	0	32742	32851	32903	32391	32671	32749	32775	32710	
620	0	32734	32735	32861	32559	32758	32835	32724	32732	
621	0	32715	32759	32751	32647	32727	32677	32751	32699	
622	0	32726	32565	32783	32887	32641	32786	32706	32690	
623	0	32821	32810	32941	33142	32676	32732	32727	32719	
624	0	32805	32748	33175	33449	32642	32690	32791	32663	
625	0	32902	32591	33031	33530	32803	32679	32695	32735	
626	0	32897	32831	33142	33629	32775	32647	32775	32617	
627	0	32911	32549	33083	33554	32751	32749	32741	32763	
628	0	32878	32775	32855	33423	32734	32745	32727	32647	
629	0	32834	32809	32707	33287	32773	32631	32727	32679	
630	0	32740	32687	32346	32915	32718	32715	32701	32671	
631	0	32713	32927	32402	32801	32677	32547	32758	32818	
632	0	32737	32767	32278	32703	32805	32678	32749	32629	
633	0	32799	33062	32399	32647	32858	32647	32801	32804	
634	0	32828	32934	32307	32487	32831	32677	32887	32767	
635	0	32824	32769	32420	32399	32647	32682	32807	32872	
636	0	32813	32989	32583	32282	32662	32607	32759	32758	
637	0	32846	32839	32721	32243	32731	32713	32715	32837	
638	0	32858	32621	32765	32391	32679	32655	32713	32710	
639	0	32873	32966	32719	32318	32639	32759	32715	32815	
640	0	32865	32891	32982	32319	32759	32799	32693	32749	
641	0	32879	32871	33076	32463	32598	32647	32711	32787	
642	0	32870	33103	33185	32495	32710	32735	32695	32729	
643	0	32888	33046	32978	32707	32627	32775	32711	32797	
644	0	32869	32935	32917	32847	32677	32703	32679	32681	
645	0	32741	33135	32557	32815	32629	32795	32739	32839	
646	0	32673	33071	32443	32826	32673	32615	32803	32731	
647	0	32617	32983	32215	32839	32749	32709	32764	32799	
648	0	32503	33082	31975	32647	32675	32644	32835	32797	
649	0	32439	32873	32043	32681	32724	32735	32799	32737	
650	0	32602	33031	32158	32583	32749	32663	32837	32815	
651	0	32605	32785	32075	32485	32672	32719	32837	32903	
652	0	32615	33121	32399	32539	32676	32741	32751	32735	
653	0	32592	32979	32599	32559	32723	32895	32775	32876	
654	0	32580	32767	32725	32389	32709	32962	32827	32767	
655	0	32543	33023	32643	32411	32647	32787	32843	32865	
656	0	32658	32869	32508	32435	32775	32743	32789	32725	
657	0	32709	32727	32692	32343	32677	32643	32833	32877	
658	0	32839	32903	32584	32407	32758	32721	32959	32742	
659	0	32826	32791	32603	32495	32643	32775	32883	32851	
660	0	32839	32703	32721	32485	32372	32735	32748	32747	
661	0	32879	32791	32730	32495	32301	32815	32703	32759	
662	0	32893	32691	32669	32684	32529	32867	32751	32787	
663	0	32916	32655	32903	32603	32647	32838	32671	32884	
664	0	32988	32559	32999	32659	32543	32935	32562	32754	
665	0	32989	32543	32791	32751	32771	32966	32534	32855	
666	0	32847	32646	32769	32887	32674	32895	32679	32764	
667	0	32769	32531	32596	32803	32634	32599	32953	32951	
668	0	32769	32647	32717	32863	32356	32503	33087	32949	
669	0	32687	32481	32607	32858	32100	32391	33201	32847	
670	0	32599	32477	32306	32789	32311	32527	33174	33025	
671	0	32647	32462	32519	32767	32194	32455	32939	32869	
672	0	32687	32365	32479	32973	32237	32498	32583	32775	
673	0	32805	32661	32759	32979	32735	32632	32423	32647	
674	0	32871	32561	33026	32995	33343	32895	32366	32789	
675	0	32909	32530	33315	33141	34175	32893	32271	32694	
676	0	32902	32797	33257	33119	34471	32775	32167	32795	
677	0	32855	32699	32871	33053	33799	32709	32319	32758	
678	0	32789	32611	32879	33047	32951	32419	32349	32507	
679	0	32756	32562	32581	33091	32935	32668	32405	32611	
680	0	32879	32515	32500	33124	32645	32711	32869	32535	
681	0	32866	32614	32399	33207	32471	32445	32854	32439	
682	0	32847	32647	32407	33229	32527	32519	32947	32519	
683	0	32783	32647	32391	33229	32731	32460	32883	32463	
684	0	32797	32582	32475	33069	32735	32681	32511	32621	
685	0	32723	32738	32391	32871	32811	32775	32495	32767	
686	0	32743	32583	32404	32827	33023	32599	32559	32865	
687	0	32734	32838	32391	32759	33351	32411	32716	32951	
688	0	32676	32814	32331	32524	33431	32775	32754	32956	
689	0	32756	32642	32247	32557	32563	32555	32821	32929	
690	0	32911	32948	32099	32539	32219	32415	32694	32946	
691	0	32920	32816	32274	32429	32083	32627	32535	33039	
692	0	32968	32822	32167	32626	32255	32825	32667	33143	
693	0	32967	32967	32381	32594	32167	32943	32574	33038	
694	0	33023	32772	32738	32499	32157	32941	32551	33173	
695	0	32996	33061	32669	32543	32679	32935	32695	33025	
696	0	32991	32943	32845	32561	33133	32983	33319	33123	
697	0	32978	32749	32706	32359	33371	32999	33303	32948	
698	0	32942	33012	32805	32470	33359	33073	32671	32895	
699	0	32857	32903	32775	32523	33087	33067	32495	32727	
700	0	32747	32857	32527	32463	32641	32975	33079	32935	
701	0	32716	32923	32509	32487	32167	32881	33611	32707	
702	0	32684	32881	32303	32551	32495	32821	33807	32647	
703	0	32634	32831	32551	32445	32564	32811	33869	32509	
704	0	32621	33011	32677	32567	32485	32766	33579	32634	
705	0	32557	32991	32900	32518	32453	32767	33259	32551	
706	0	32583	32708	32759	32483	32486	32793	32789	32495	
707	0	32534	33029	32830	32452	32495	32702	32607	32559	
708	0	32454	32914	32729	32339	32461	32643	32570	32435	
709	0	32549	32773	32791	32509	32482	32613	32573	32507	
710	0	32573	32970	32733	32646	32628	32708	32471	32452	
711	0	32577	32927	32535	32481	32733	32663	32437	32549	
712	0	32569	32927	32685	32598	32663	32655	32503	32531	
713	0	32647	32927	32564	32615	32717	32460	32615	32527	
714	0	32689	32935	32589	32578	32621	32413	32711	32538	
715	0	32698	32919	32599	32743	32621	32391	32887	32550	
716	0	32730	32999	32703	32735	32558	32527	32883	32535	
717	0	32674	32919	32717	32617	32771	32582	32685	32533	
718	0	32727	33191	32609	32772	32760	32587	32515	32615	
719	0	32718	33039	32743	32838	32895	32694	32465	32591	
720	0	32761	32997	32831	32786	32783	32658	32419	32463	
721	0	32745	32842	32798	32733	32822	32542	32379	32623	
722	0	32697	32839	32601	32727	32871	32668	32455	32623	
723	0	32730	32767	32854	32911	32887	32919	32549	32775	
724	0	32809	32647	32975	32883	32703	32915	32555	32717	
725	0	32805	32807	33089	32902	32727	32756	32667	32699	
726	0	32827	32681	33022	32733	32670	32717	32637	32711	
727	0	32801	32571	33110	32786	32687	32759	32679	32719	
728	0	32832	32775	32966	32746	32705	32743	32751	32837	
729	0	32898	32726	33147	32819	32711	32775	32755	32775	
730	0	32854	32639	33017	32807	32671	32765	32711	32891	
731	0	32941	32839	33135	32951	32701	32870	32647	32817	
732	0	32892	32883	32948	33077	32659	32795	32703	32704	
733	0	32923	32725	32919	33053	32647	32731	32775	32801	
734	0	33031	32883	32679	32975	32479	32726	32789	32794	
735	0	33089	32775	32531	32679	32519	32758	32743	32887	
736	0	32970	32743	32127	32711	32527	32817	32685	32775	
737	0	32903	32799	32114	32685	32679	32749	32751	32695	
738	0	32703	32841	32083	32773	32775	32855	32759	32677	
739	0	32658	32819	31957	32715	32827	32799	32527	32707	
740	0	32630	32695	31983	32594	32717	32838	32599	32735	
741	0	32549	32833	32007	32627	33126	32868	32683	32887	
742	0	32479	32759	32111	32711	33212	32824	32677	32827	
743	0	32553	32493	32359	32629	32701	32815	32661	32838	
744	0	32586	32839	32327	32819	32577	32823	32755	32722	
745	0	32507	32811	32551	32948	32303	32711	32587	32739	
746	0	32428	32679	32543	32863	32135	32619	32667	32667	
747	0	32506	32863	32615	32826	32255	32775	32966	32694	
748	0	32474	32757	32500	32743	32775	32826	33331	32887	
749	0	32501	32453	32433	32595	33367	32775	33159	32767	
750	0	32521	32655	32303	32643	32914	32751	33159	32903	
751	0	32512	32717	32379	32543	32501	32526	32967	32576	
752	0	32569	32527	32206	32503	32427	32420	32727	32567	
753	0	32576	32775	32204	32493	32355	32615	33013	32695	
754	0	32603	32731	32201	32519	32825	32695	33007	32686	
755	0	32588	32495	32215	32647	32623	32630	32599	32575	
756	0	32690	32677	32335	32678	32487	32711	32731	32674	
757	0	32684	32565	32409	32627	32517	32676	32795	32685	
758	0	32668	32557	32493	32589	32813	32587	32282	32740	
759	0	32614	32683	32423	32591	33667	32359	32194	32663	
760	0	32647	32623	32495	32599	33893	32597	32471	32807	
761	0	32679	32783	32789	32574	33868	32549	32365	32641	
762	0	32690	32663	32631	32589	32863	32491	31970	32823	
763	0	32703	32447	33014	32603	32571	32540	32303	32855	
764	0	32805	32603	32913	32573	32001	32327	33212	32819	
765	0	32912	32535	33119	32643	31956	32031	33483	32799	
766	0	32929	32365	32962	32722	32135	32311	33743	32847	
767	0	32869	32705	32957	32679	33061	32342	33703	32836	
768	0	32822	32591	32815	32647	33205	32458	33207	32708	
769	0	32791	32486	32995	32677	32587	32867	32503	32845	
770	0	32711	32831	33063	32549	32670	32962	32559	32661	
771	0	32734	32723	32949	32533	33063	32793	32811	32763	
772	0	32812	32719	32935	32443	33661	32519	32567	32819	
773	0	32796	32671	32863	32425	32759	32501	32469	32631	
774	0	32765	32803	32959	32399	32375	32593	32541	32631	
775	0	32761	32783	32919	32279	31989	32725	32647	32571	
776	0	32727	32749	32854	32484	32731	32788	33069	32763	
777	0	32731	32999	32850	32553	33890	32756	33159	32775	
778	0	32775	32927	32747	32677	33798	32722	33145	32852	
779	0	32758	32759	32763	32813	32738	32671	33159	32799	
780	0	32765	32879	32535	32723	32470	32686	33115	32685	
781	0	32716	32647	32604	32939	32883	32731	33087	32729	
782	0	32775	32919	32439	33021	32932	32599	32583	32581	
783	0	32698	32813	32509	33095	32519	32647	32567	32583	
784	0	32827	32797	32557	33137	32519	32721	32640	32578	
785	0	32830	32811	32701	33067	32989	32858	32452	32759	
786	0	32825	32834	32847	33299	33307	32748	32535	32691	
787	0	32940	32575	32918	33223	32935	32775	32773	32735	
788	0	32845	32751	33031	33095	32391	32831	32999	32592	
789	0	32799	32693	32751	33051	32407	32815	32948	32647	
790	0	32742	32827	32751	33057	32385	32767	33241	32903	
791	0	32802	32660	32543	32999	32134	32743	33466	32679	
792	0	32815	32687	32231	32841	32150	32897	33037	32833	
793	0	32770	32725	32239	32775	32351	32895	32574	32911	
794	0	32854	32735	32199	32839	32655	32749	32311	32709	
795	0	32866	32769	32131	32827	32647	32843	32277	32710	
796	0	32947	32659	32314	32761	32575	32810	32343	32706	
797	0	33009	32813	32241	32762	32212	32767	32375	32703	
798	0	32953	32583	32147	32787	32244	32661	32705	32839	
799	0	32869	32647	32100	32615	32399	32775	32811	32775	
800	0	32831	32596	31955	32659	32893	32869	32679	32893	
801	0	32863	32447	32027	32743	32791	32855	32676	32647	
802	0	32867	32591	32155	32722	32741	32867	32743	32799	
803	0	32807	32518	32495	32845	32799	32747	32821	32698	
804	0	32786	32291	32539	32677	32884	32611	32739	32642	
805	0	32831	32380	32831	32745	32815	32617	32342	32562	
806	0	32846	32359	32694	32716	32749	32555	32449	32516	
807	0	32805	32126	32730	32790	32875	32495	32699	32614	
808	0	32775	32107	32863	32879	32945	32551	33002	32499	
809	0	32824	32095	32717	32903	32847	32719	33172	32817	
810	0	32716	32173	32748	33111	32533	32949	33117	32879	
811	0	32711	32068	32775	33269	32572	32839	32765	32715	
812	0	32791	32271	32935	33287	32221	32763	32263	32834	
813	0	32873	32127	33117	33387	32167	32573	32101	32577	
814	0	33007	31869	33309	33255	32163	32535	32180	32661	
815	0	33018	32263	33269	33239	32693	32734	32471	32711	
816	0	33039	32287	33111	33079	32991	32795	32423	32879	
817	0	33007	32135	32980	32887	32659	32862	32572	32787	
818	0	32891	32327	32811	32737	32423	33143	32871	32811	
819	0	32795	32476	32772	32759	32407	32935	33263	32887	
820	0	32695	32405	32593	32667	33130	32837	33395	32599	
821	0	32638	32799	32511	32470	32951	32646	32987	32709	
822	0	32573	32690	32469	32439	32613	32693	32572	32587	
823	0	32598	32647	32481	32492	32404	32735	32695	32767	
824	0	32514	32954	32407	32386	33221	32647	32853	32594	
825	0	32588	32903	32513	32375	33925	32535	32863	32702	
826	0	32642	32871	32625	32355	33650	32705	32965	32695	
827	0	32606	33139	32487	32391	33365	32679	32843	32695	
828	0	32640	33027	32519	32470	33142	32596	32565	32623	
829	0	32593	32871	32554	32402	32831	32637	32621	32571	
830	0	32571	33159	32479	32342	32277	32603	33159	32727	
831	0	32647	33103	32479	32335	32391	32711	33351	32757	
832	0	32620	32951	32551	32363	32189	32797	33031	32935	
833	0	32685	33174	32434	32263	32397	32730	32775	32820	
834	0	32757	33047	32671	32375	32554	32731	32804	32789	
835	0	32808	33053	32636	32359	32589	32742	32711	32903	
836	0	32845	33003	32733	32383	32365	32751	32645	32767	
837	0	32882	32999	32689	32463	32751	32599	32756	32829	
838	0	32842	32847	32658	32460	33205	32739	32775	32871	
839	0	32721	33103	32501	32575	32668	32735	32627	32858	
840	0	32672	32991	32510	32607	32383	32725	32758	32828	
841	0	32767	32933	32421	32583	32719	32765	32727	32695	
842	0	32762	32855	32607	32601	32863	32571	32866	32677	
843	0	32798	33091	32679	32551	32743	32643	32835	32805	
844	0	32749	32973	32471	32647	32931	32719	32749	32710	
845	0	32682	32767	32727	32541	33153	32679	32681	32690	
846	0	32711	32991	32519	32546	33211	32599	32559	32647	
847	0	32638	32903	32513	32509	33039	32679	32574	32593	
848	0	32634	32877	32687	32415	32695	32655	32559	33058	
849	0	32615	32795	32621	32501	32451	32709	32229	32800	
850	0	32688	32948	32578	32411	32527	32999	31581	32556	
851	0	32685	32900	32865	32684	33022	32793	31843	32473	
852	0	32687	32839	32995	32732	33023	32742	32411	32681	
853	0	32745	32951	32742	32679	32423	32821	32565	32796	
854	0	32806	32914	32786	32719	32212	32705	33195	32804	
855	0	32783	32743	32579	32676	32739	32541	33263	32921	
856	0	32788	32951	32567	32738	32789	32645	33213	32903	
857	0	32773	32865	32566	32783	32751	32657	33159	32919	
858	0	32741	32627	32775	32795	32630	32559	32929	32855	
859	0	32759	32754	32749	32871	32663	32549	32895	32687	
860	0	32735	32564	32551	32762	32498	32659	33287	32767	
861	0	32711	32775	32631	32613	32391	32615	33109	32668	
862	0	32751	32583	32799	32659	32491	32661	32828	32903	
863	0	32738	32510	32791	32602	33047	32623	32575	32847	
864	0	32773	32711	32826	32807	32987	32653	32595	32772	
865	0	32786	32766	32837	32799	32359	32647	32793	32647	
866	0	32758	32667	32935	32839	31891	32572	32711	32579	
867	0	32751	32982	32899	32919	32039	32564	32719	32739	
868	0	32663	32809	32818	32765	32247	32585	32471	32711	
869	0	32647	32767	32995	32748	32109	32702	32378	32783	
870	0	32626	32991	32815	32819	32526	32871	32535	32711	
871	0	32635	32943	32995	32754	32903	33101	32754	32874	
872	0	32653	32847	33143	32711	33763	32998	32855	32757	
873	0	32735	32883	33332	32678	33887	33015	33003	32935	
874	0	32788	32671	33467	32661	33967	32932	33142	32934	
875	0	32996	32807	33563	32663	33681	32831	32795	32925	
876	0	32947	32805	33637	32670	33323	32747	33010	32807	
877	0	32868	32578	33366	32700	32933	32813	33018	32660	
878	0	32813	32669	32975	32561	32775	32747	33031	32665	
879	0	32827	32788	32745	32639	32647	32721	32685	32467	
880	0	32781	32726	32479	32643	32647	32690	32474	32596	
881	0	32749	32775	32247	32527	32487	32523	32423	32439	
882	0	32722	32715	32183	32605	32436	32499	32452	32462	
883	0	32716	32495	32227	32663	32477	32605	32537	32459	
884	0	32710	32775	32069	32543	32415	32565	32719	32633	
885	0	32718	32659	31829	32614	32559	32547	32807	32637	
886	0	32831	32573	31991	32635	32562	32533	32735	32623	
887	0	32753	32747	31913	32607	32715	32516	32711	32741	
888	0	32647	32679	31690	32530	32498	32501	32701	32735	
889	0	32698	32619	31799	32604	32551	32559	32901	32812	
890	0	32708	32415	31879	32683	32619	32563	33031	32884	
891	0	32682	32662	32180	32823	32791	32518	32955	32791	
892	0	32732	32599	32447	33053	32743	32387	32903	32847	
893	0	32789	32460	32807	33076	32735	32301	32903	32713	
894	0	32784	32729	32867	33159	32671	32540	32911	32707	
895	0	32828	32757	33055	33215	32707	32615	32885	32834	
896	0	32923	32735	32980	33089	32500	32687	32829	32975	
897	0	33006	32754	33121	33138	32461	32805	32710	32767	
898	0	33012	32599	32974	33146	32367	32882	32583	32811	
899	0	32935	32807	32903	33039	32356	32683	32551	32848	
900	0	32940	32738	32879	32943	32623	32602	32211	32631	
901	0	32890	32711	32775	32967	32851	32641	32428	32631	
902	0	32755	32551	32725	33106	32535	32740	32509	32714	
903	0	32689	32863	32519	32957	32818	32931	32607	32695	
904	0	32663	32591	32639	33031	32949	33023	32837	32731	
905	0	32636	33013	32717	32963	32511	32873	32868	32670	
906	0	32644	32947	32655	32887	32439	32671	33018	32807	
907	0	32647	32943	32813	33010	32839	32593	33047	32749	
908	0	32687	33151	32756	32994	33038	32814	32967	32558	
909	0	32756	33047	32791	32851	32659	32807	33063	32612	
910	0	32775	32952	32855	32775	32527	32743	33012	32523	
911	0	32795	32935	33079	32679	32569	32655	32791	32757	
912	0	32788	32724	33141	32656	32468	32533	32533	32703	
913	0	32811	33014	33079	32810	33143	32615	32391	32620	
914	0	32807	32967	33051	32771	33543	32742	32503	32634	
915	0	32826	32757	33295	32863	33431	32729	32679	32846	
916	0	32802	33007	33239	32903	32700	32693	32727	32775	
917	0	32847	33005	33045	32855	32731	32676	32791	32845	
918	0	32769	32935	32695	32959	33123	32714	32815	32797	
919	0	32722	32859	32410	32837	32751	32685	32790	32759	
920	0	32678	32669	32071	32847	32673	32823	32685	32757	
921	0	32703	32923	32041	32915	32631	32887	32655	32815	
922	0	32592	32765	31954	32895	32591	32823	32646	33023	
923	0	32625	32579	32055	32859	32647	32863	32647	32735	
924	0	32540	32687	32162	32771	32582	32773	32635	32799	
925	0	32470	32439	31870	32850	32565	32775	32659	32799	
926	0	32549	32775	31916	32954	32647	32915	32707	32923	
927	0	32455	32547	32019	32999	32676	32835	32818	32831	
928	0	32367	32498	32047	32671	32603	32851	32796	32973	
929	0	32400	32421	32130	32462	32599	32716	32693	32911	
930	0	32464	32239	32263	32271	32719	32787	32742	32867	
931	0	32581	32390	32539	32103	32687	32791	32785	32867	
932	0	32698	32391	32439	31975	32783	32643	32871	32719	
933	0	32927	32719	32431	31987	32717	32676	32863	32899	
934	0	32953	32644	32731	31927	32775	32754	32844	32805	
935	0	32931	32730	32775	32101	32790	32719	32853	32863	
936	0	32972	32925	32828	32245	32695	32611	32839	32791	
937	0	32997	32723	32694	32239	32727	32603	32829	32812	
938	0	32954	33067	32810	32469	32703	32703	32835	32709	
939	0	32902	33054	32775	32586	32820	32787	32797	32759	
940	0	32887	33127	32701	32595	32751	32723	32755	32647	
941	0	32883	33159	32859	32623	32735	32700	32844	32692	
942	0	32913	33091	32879	32733	32871	32835	32937	32671	
943	0	32967	33287	32867	32735	32799	32748	32975	32703	
944	0	32873	33388	32903	32823	32863	32591	32943	32716	
945	0	32951	33127	32756	32815	32823	32730	33219	32791	
946	0	32929	33447	32635	32711	32788	32719	33041	32638	
947	0	32937	33287	32726	32751	32783	32611	32903	32795	
948	0	33010	32999	32756	32662	32841	32687	32903	32713	
949	0	33028	33197	33031	32643	32875	32762	32995	32755	
950	0	33028	33146	33031	32647	32739	32596	32995	32647	
951	0	33028	33105	33107	32646	32633	32511	32795	32679	
952	0	33001	33307	33079	32671	32567	32647	32739	32547	
953	0	32941	33037	33317	32711	32601	32807	32667	32701	
954	0	32911	33367	33123	32759	32533	32582	32791	32775	
955	0	32833	33146	32893	32695	32595	32885	32599	32727	
956	0	32878	33076	32879	32783	32657	32647	32623	32519	
957	0	32881	33039	32671	32767	32586	32553	32708	32445	
958	0	32871	32895	32565	32747	32914	32655	32617	32339	
959	0	32823	32689	32269	32837	32959	32511	32756	32356	
960	0	32838	32869	32439	32642	32951	32287	32822	32551	
961	0	32924	32571	32411	32735	32795	32449	32843	32566	
962	0	32830	32750	32459	32757	32059	32338	32711	32583	
963	0	32705	32655	32260	32626	32097	32659	32687	32623	
964	0	32644	32602	32276	32775	31889	32704	32372	32657	
965	0	32656	32679	32343	32751	31879	32598	31922	32663	
966	0	32607	32679	32325	32694	32435	32930	31919	32710	
967	0	32529	32580	32447	32749	31895	32677	31950	32626	
968	0	32559	32715	32525	32783	32413	32423	32179	32647	
969	0	32519	32514	32591	32802	34455	32615	32351	32660	
970	0	32477	32775	32511	32825	34270	32719	32289	32875	
971	0	32607	32615	32717	32804	32890	32742	32087	32701	
972	0	32694	32589	32711	32845	32754	32687	32342	32729	
973	0	32749	32533	32895	32735	32895	32833	32772	32829	
974	0	32831	32771	32856	32755	33094	32807	33263	32727	
975	0	32849	32518	32993	32845	33229	32843	33951	32951	
976	0	32892	32804	32964	32789	33381	32631	34492	32943	
977	0	32884	32659	33019	32732	33762	32612	34006	32863	
978	0	32813	32605	32892	32775	33109	32637	33191	32807	
979	0	32775	32863	32894	32687	32903	32671	32881	32927	
980	0	32809	32725	32935	32743	32626	32655	32775	32659	
981	0	32879	32599	32951	32639	32495	32519	32692	32797	
982	0	32876	32699	32811	32694	32527	32681	32647	32775	
983	0	32863	32623	32585	32757	32717	32957	32551	32852	
984	0	32877	32555	32495	32793	32625	32999	32475	32726	
985	0	32764	32676	32279	32865	32519	32881	32667	32719	
986	0	32647	32719	32227	32990	32578	32831	32671	32902	
987	0	32525	32775	32208	33037	32457	32815	32719	32727	
988	0	32524	32724	31975	33003	32532	32677	32666	32827	
989	0	32551	32691	32051	32766	32462	32804	32711	32815	
990	0	32602	32647	32295	32823	32555	32807	32687	32835	
991	0	32612	32633	32435	32807	32579	32694	32717	32996	
992	0	32676	32545	32775	32711	32629	32765	32759	32647	
993	0	32818	32427	32963	32743	32667	32743	32873	32639	
994	0	32928	32579	33114	32731	32809	32559	32871	32588	
995	0	32903	32617	33191	32799	32711	32619	32831	32565	
996	0	32868	32575	33042	32731	32775	32706	32807	32827	
997	0	32903	32699	33227	32711	32679	32767	32693	32815	
998	0	32895	32689	32914	32617	32514	32735	32671	32837	
999	0	32819	32479	32787	32678	32607	32769	32655	32815	
1000	0	32719	32775	32497	32695	32607	32855	32647	32646	
1001	0	32667	32702	32459	32659	32683	32647	32771	32834	
1002	0	32607	32519	32303	32715	32707	32733	32807	32823	
1003	0	32551	32763	32323	32638	32731	32775	32789	32721	
1004	0	32492	32659	32349	32709	32670	32773	32719	32854	
1005	0	32559	32655	32487	32647	32751	32587	32722	32799	
1006	0	32588	32630	32255	32609	32739	32739	32767	32775	
1007	0	32689	32837	32359	32751	32671	32638	32679	32847	
1008	0	32643	32735	32146	32607	32609	32679	32667	32727	
1009	0	32588	32534	32260	32709	32735	32743	32743	32785	
1010	0	32610	32815	32260	32663	32629	32679	32715	32788	
1011	0	32612	32759	32239	32711	32706	32684	32765	32675	
1012	0	32611	32548	32195	32775	32628	32711	32745	32775	
1013	0	32644	32821	32331	32659	32775	32775	32756	32595	
1014	0	32759	32763	32285	32687	32647	32682	32749	32687	
1015	0	32816	32733	32519	32570	32719	32471	32783	32795	
1016	0	32830	32669	32895	32671	32655	32679	32711	32686	
1017	0	32940	32795	32914	32730	32711	32679	32731	32623	
1018	0	32940	32751	32919	32819	32775	32759	32765	32719	
1019	0	32933	32741	32591	32809	32806	32757	32919	32719	
1020	0	32844	32679	32577	32831	32659	32719	32839	32839	
1021	0	32801	32707	32365	32859	32784	32774	32743	32647	
1022	0	32769	32755	32309	32839	32715	32623	32671	32749	
1023	0	32711	32620	32127	32727	32832	32775	32811	32787	
1024	0	32679	32687	32371	32675	32763	32946	32723	32775	
1025	0	32658	32677	32491	32463	32366	32838	32748	32710	
1026	0	32577	32639	32607	32543	32299	32835	32669	32940	
1027	0	32554	32775	32891	32613	32237	32587	32667	32911	
1028	0	32678	32543	33065	32583	32100	32711	32661	32627	
1029	0	32697	32695	33103	32660	32228	32686	32655	32677	
1030	0	32720	32694	33003	32669	32367	32557	32663	32591	
1031	0	32843	32503	33065	32601	32263	32787	32653	32747	
1032	0	32836	32663	33147	32799	32933	32853	32439	32633	
1033	0	32871	32775	32838	32804	33982	32915	32628	32703	
1034	0	32959	32734	32935	32815	33639	32738	32983	32964	
1035	0	33098	32711	32812	32884	33943	32588	33126	32767	
1036	0	33119	32853	32734	32801	34387	32622	33261	32956	
1037	0	33053	32897	32487	32959	33543	32745	33209	32855	
1038	0	32990	32828	32419	32989	32575	32761	33117	33051	
1039	0	33015	32695	32105	32769	32487	32463	33063	32775	
1040	0	32850	32667	31946	32876	32415	32340	32498	32743	
1041	0	32711	32855	32077	32855	31826	32071	32460	32562	
1042	0	32669	32807	32058	32773	31642	32295	32575	32678	
1043	0	32669	32612	32310	32878	32123	32573	32605	32714	
1044	0	32636	32823	32378	32719	32524	32609	32598	32775	
1045	0	32628	32787	32493	32612	32711	32867	32658	32775	
1046	0	32669	32551	32499	32439	32740	33037	32767	32551	
1047	0	32751	32757	32719	32272	32775	33307	32727	32732	
1048	0	32675	32690	32743	32287	32775	33287	32673	32759	
1049	0	32605	32681	32911	32223	32791	32971	32647	32775	
1050	0	32600	32717	33001	32199	32735	32677	32754	32685	
1051	0	32683	32709	32971	32439	32691	32576	32670	32743	
1052	0	32695	32673	32767	32639	32767	32445	32623	32743	
1053	0	32719	32695	32855	32763	32694	32525	32742	32638	
1054	0	32700	32791	32815	32947	32818	32703	32767	32687	
1055	0	32685	32623	32769	32948	32759	32659	32754	32615	
1056	0	32790	32885	32599	33007	32711	32563	32755	32804	
1057	0	32884	32891	32476	33133	32687	32647	32743	32745	
1058	0	32874	32900	32540	32894	32775	32631	32769	32839	
1059	0	32798	32884	32559	32897	32738	32860	32795	32875	
1060	0	32763	32891	32711	32861	32775	32738	32845	32903	
1061	0	32748	32603	32790	32695	32741	32663	32773	32695	
1062	0	32775	32751	32903	32595	32586	32582	32707	32711	
1063	0	32786	32751	33021	32626	32926	32789	32775	32689	
1064	0	32837	32771	33159	32667	32743	32742	32810	32845	
1065	0	32910	32797	33014	32567	32951	32823	32681	32734	
1066	0	32836	32635	32940	32599	33014	32687	32667	32853	
1067	0	32815	32813	32977	32629	32695	32277	32613	32663	
1068	0	32763	32716	32647	32630	32759	32250	32900	32666	
1069	0	32734	32611	32583	32799	32743	32487	32795	32421	
1070	0	32673	32790	32469	32818	32555	32519	32607	32487	
1071	0	32610	32700	32583	32671	32515	32855	32471	32151	
1072	0	32557	32987	32451	32764	32617	32743	32471	32160	
1073	0	32623	32764	32519	32647	32573	33149	32615	32223	
1074	0	32558	32871	32449	32471	32853	33692	32893	32576	
1075	0	32613	32803	32519	32495	32762	33149	32854	32525	
1076	0	32696	32551	32539	32172	32562	32988	32935	32695	
1077	0	32703	32775	32529	31897	32707	32873	33087	33351	
1078	0	32767	32711	32596	31943	32647	32295	33110	34235	
1079	0	32752	32647	32583	31963	32711	32260	33066	34055	
1080	0	32740	32852	32677	32110	32603	32387	32933	33406	
1081	0	32730	32831	32759	32279	32719	32718	32791	32743	
1082	0	32747	32637	32647	32415	32709	32735	32807	32721	
1083	0	32823	32829	32767	32605	32731	32534	32707	32563	
1084	0	32823	32843	32903	32933	32690	32461	32727	32775	
1085	0	32809	32855	32805	33267	32817	32562	32797	32823	
1086	0	32706	32773	32839	33327	32731	32517	32735	32463	
1087	0	32719	32943	32710	33566	32773	32647	32647	32583	
1088	0	32727	32981	32678	33607	32631	32811	32619	32591	
1089	0	32712	32805	32551	33622	32684	32803	32577	32655	
1090	0	32719	33052	32671	33547	32615	32935	32604	32606	
1091	0	32836	32847	32621	33407	32695	32925	32575	32373	
1092	0	32841	32997	32543	33254	32763	32773	32516	32062	
1093	0	32809	32999	32711	33119	32741	32623	32495	32237	
1094	0	32831	33063	32660	32903	32694	32396	32541	32610	
1095	0	32866	33015	32799	32834	32743	32535	32647	32580	
1096	0	32901	33111	32735	32775	32715	32737	32690	32599	
1097	0	32857	32942	32763	32846	32583	32373	32719	32799	
1098	0	32844	33069	32604	32735	32708	32183	32837	32868	
1099	0	32775	32940	32492	32633	32743	32079	32765	32801	
1100	0	32751	32741	32508	32495	32695	32582	32971	33075	
1101	0	32798	32847	32530	32559	32914	32695	32967	33124	
1102	0	32687	32761	32687	32553	32671	33302	32943	32979	
1103	0	32660	32902	32535	32399	32816	33212	32915	33407	
1104	0	32644	32676	32647	32343	32887	32834	32914	33287	
1105	0	32600	32853	32676	32417	32857	32847	32823	32687	
1106	0	32647	32812	32561	32475	32874	33010	32775	32157	
1107	0	32665	32775	32599	32471	32687	33045	32795	32099	
1108	0	32627	32815	32293	32551	32691	32885	32815	32052	
1109	0	32512	32667	32125	32655	32700	32735	32873	32371	
1110	0	32535	32896	32271	32559	32739	32875	32854	32711	
1111	0	32646	32791	32343	32535	32786	32823	32805	32931	
1112	0	32804	32639	32583	32317	32762	32786	32820	32822	
1113	0	32925	32927	32455	32019	32751	32534	32885	33061	
1114	0	32945	32871	32619	31991	32729	32503	32835	32982	
1115	0	32923	32831	32708	32031	32690	32583	32703	32815	
1116	0	33001	32787	32879	31947	32655	32585	32703	32773	
1117	0	32932	32803	32805	32135	32729	32669	32605	32903	
1118	0	32882	32951	32807	32365	32791	32727	32715	32775	
1119	0	33000	32837	32895	32591	32647	32819	32612	32899	
1120	0	33020	33047	32734	32839	32663	32831	32679	32767	
1121	0	32984	33015	32593	33227	32717	32723	32749	32450	
1122	0	32915	32886	32679	33367	32759	32644	32677	32525	
1123	0	32871	32967	32538	33287	32598	32787	32701	32801	
1124	0	32722	32887	32823	33415	32663	32745	32726	32730	
1125	0	32713	32674	32903	33405	32711	32659	32730	32979	
1126	0	32594	32915	33087	33358	32787	32723	32759	32843	
1127	0	32585	32975	33015	33356	32742	32796	32735	32919	
1128	0	32533	32855	32973	33305	32641	32805	32756	32733	
1129	0	32557	32903	32783	33119	32687	32647	32691	32815	
1130	0	32588	32973	32685	33037	32671	32711	32727	32698	
1131	0	32647	32815	32535	32789	32709	32667	32780	32603	
1132	0	32534	32999	32277	32821	32647	32714	32858	32823	
1133	0	32635	32963	32260	32717	32671	32626	32855	32838	
1134	0	32764	32927	32246	32693	32647	32785	32895	32735	
1135	0	32796	32765	32447	32727	32815	32682	32775	32871	
1136	0	32793	32711	32311	32799	32721	32607	32797	32797	
1137	0	32799	32735	32535	32727	32723	32679	32797	32714	
1138	0	32749	32557	32591	32788	32595	32607	32845	32921	
1139	0	32689	32673	32809	32695	32743	32703	32804	32833	
1140	0	32755	32485	32647	32599	32727	32701	32789	32871	
1141	0	32705	32275	32743	32575	32748	32633	32763	32743	
1142	0	32708	32466	32647	32406	32749	32742	32807	32642	
1143	0	32797	32279	32519	32407	32663	32628	32795	32805	
1144	0	32783	32111	32387	32375	32787	32727	32764	32787	
1145	0	32748	32263	32445	32309	32733	32676	32827	32820	
1146	0	32817	32250	32450	32487	32785	32583	32775	32683	
1147	0	32751	32123	32539	32503	32759	32731	32783	32759	
1148	0	32730	32307	32565	32474	32827	32775	32709	32743	
1149	0	32676	32399	32580	32706	32742	32603	32786	32817	
1150	0	32606	32459	32647	32623	32647	32717	32703	33023	
1151	0	32641	32388	32647	32311	32703	32587	32711	32765	
1152	0	32682	32210	32690	32197	32775	32687	32705	32615	
1153	0	32701	32365	32653	32229	32763	32727	32807	32771	
1154	0	32780	32255	32813	32149	32707	32591	32678	32627	
1155	0	32887	32135	32870	32359	32609	32627	32699	32635	
1156	0	32921	32455	32933	32450	32711	32709	32735	32831	
1157	0	32863	32551	32647	32443	32767	32711	32791	32940	
1158	0	32957	32647	32837	32547	32833	32675	32694	32687	
1159	0	32959	32677	32705	32669	32685	32403	32639	32557	
1160	0	32879	32871	32783	32839	32775	32371	32751	32754	
1161	0	32852	32933	32454	32847	32666	32749	32775	32677	
1162	0	32832	32718	32631	33144	32639	32821	32678	32633	
1163	0	32740	32887	32575	33365	32629	32595	32813	32627	
1164	0	32576	32755	32545	33569	32842	32466	32871	32807	
1165	0	32500	32935	32621	33639	32863	32710	32895	32685	
1166	0	32482	32873	32716	33479	32829	33287	32991	32758	
1167	0	32465	32748	32734	33129	32499	32723	32855	32591	
1168	0	32448	32719	32715	33079	32708	32212	32935	32671	
1169	0	32502	32767	32721	33077	32735	32239	32977	33031	
1170	0	32623	32725	32615	32999	32617	32731	32819	32903	
1171	0	32743	32663	32812	33047	32687	32987	32769	32807	
1172	0	32797	32589	32863	33102	32743	32703	32747	32635	
1173	0	32891	32557	32837	32915	32628	32550	32623	32608	
1174	0	32921	32893	32887	32999	32695	32983	32695	32598	
1175	0	32922	32871	32775	32884	32868	33564	32856	32719	
1176	0	32903	32591	32601	32823	32875	33689	32847	32732	
1177	0	32949	32812	32647	32735	32966	33373	32679	32630	
1178	0	32997	32660	32493	32595	32911	33223	32517	32508	
1179	0	32900	32442	32599	32391	32894	33036	32582	32443	
1180	0	32815	32732	32543	32275	32695	32471	32694	32421	
1181	0	32855	32647	32559	32339	32663	32679	32721	32300	
1182	0	32821	32543	32759	32461	32831	33279	32719	32679	
1183	0	32676	32735	32479	32429	32617	32370	32891	33215	
1184	0	32695	32679	32763	32415	32612	31538	32811	32743	
1185	0	32743	32663	32627	32314	32577	31309	32814	32527	
1186	0	32832	32663	32887	32252	32709	31367	32711	32467	
1187	0	32826	32484	32860	32447	32735	31199	32645	32411	
1188	0	32720	32854	32557	32603	33061	31250	32647	32114	
1189	0	32646	32839	32566	32689	32851	31915	32691	32259	
1190	0	32716	32806	32477	32847	32930	32346	32759	32263	
1191	0	32767	32935	32671	33009	33046	32943	32919	33063	
1192	0	32868	32863	32799	32980	32607	33181	33129	34119	
1193	0	32956	32667	32775	33026	32402	33799	33188	34299	
1194	0	32919	32788	32759	33036	32367	33687	32963	34311	
1195	0	32935	32734	32667	32876	32607	34081	32775	33655	
1196	0	32932	32683	32751	32875	32743	34815	32804	33287	
1197	0	32870	32695	32691	32771	32869	33967	32736	32998	
1198	0	32828	32735	32678	32703	32775	33369	32759	32773	
1199	0	32745	32823	32399	32861	32811	32999	32781	32087	
