# OpenSignals Text File Format
# {"00:07:80:3B:46:38": {"sensor": ["CUSTOM/0.5/1.0/V", "CUSTOM/0.5/1.0/V", "CUSTOM/0.5/1.0/V", "CUSTOM/0.5/1.0/V", "CUSTOM/0.5/1.0/V", "CUSTOM/0.5/1.0/V", "CUSTOM/0.5/1.0/V", "CUSTOM/0.5/1.0/V"], "device name": "EMGs", "column": ["nSeq", "DI", "RA_L", "RA_R", "OE_L", "OE:R", "IL_L", "IL_R", "MF_L", "MF_R"], "sync interval": 2, "time": "17:19:37.180", "comments": "", "device connection": "BTH00:07:80:3B:46:38", "channels": [1, 2, 3, 4, 5, 6, 7, 8], "date": "2017-6-1", "mode": 0, "digital IO": [0, 1], "firmware version": 772, "device": "biosignalsplux", "position": 0, "sampling rate": 1000, "label": ["RA_L", "RA_R", "OE_L", "OE:R", "IL_L", "IL_R", "MF_L", "MF_R"], "resolution": [16, 16, 16, 16, 16, 16, 16, 16], "special": [{}, {}, {}, {}, {}, {}, {}, {}]}}
# EndOfHeader
0	0	32802	32807	32690	32743	32775	32773	32711	32565	
1	0	32836	32695	32691	32807	32775	32775	32788	32533	
2	0	32756	32647	32743	32799	32765	32725	32773	32583	
3	0	32785	32717	32735	32722	32795	32735	32854	32563	
4	0	32767	32701	32775	32585	32786	32754	32788	32562	
5	0	32736	32455	32827	32611	32687	32775	32863	32659	
6	0	32731	32613	32705	32775	32751	32711	32767	32541	
7	0	32745	32735	32719	32775	32775	32799	32731	32515	
8	0	32735	32663	32743	32810	32753	32824	32799	32501	
9	0	32801	32723	32671	32942	32730	32751	32711	32448	
10	0	32740	32577	32822	32858	32847	32718	32820	32525	
11	0	32793	32775	32746	32662	32822	32815	32711	32707	
12	0	32762	32687	32815	32617	32807	32738	32799	32743	
13	0	32762	32679	32759	32787	32743	32741	32724	32743	
14	0	32748	32635	32677	32911	32787	32806	32726	32743	
15	0	32735	32582	32727	32717	32775	32759	32751	32759	
16	0	32742	32807	32721	32775	32805	32815	32751	32589	
17	0	32785	32683	32677	32846	32789	32701	32815	32647	
18	0	32809	32722	32723	32967	32747	32796	32844	32767	
19	0	32729	32833	32655	32727	32835	32757	32769	32713	
20	0	32785	32775	32699	32647	32839	32795	32730	32719	
21	0	32756	32669	32690	32799	32847	32791	32809	32735	
22	0	32811	32727	32663	32855	32775	32773	32787	32697	
23	0	32852	32567	32717	32903	32804	32794	32711	32607	
24	0	32799	32603	32631	32698	32791	32796	32823	32620	
25	0	32802	32863	32701	32707	32828	32771	32796	32659	
26	0	32780	32839	32692	32875	32716	32826	32775	32627	
27	0	32774	32732	32711	32895	32731	32786	32771	32556	
28	0	32804	32791	32749	32903	32623	32746	32765	32583	
29	0	32825	32567	32655	32671	32663	32807	32743	32775	
30	0	32740	32559	32773	32639	32739	32871	32795	32747	
31	0	32781	32559	32854	32834	32804	32748	32695	32669	
32	0	32694	32775	32797	32809	32837	32799	32843	32662	
33	0	32719	32727	32754	32875	32722	32791	32806	32636	
34	0	32773	32668	32751	32949	32735	32711	32796	32679	
35	0	32737	32634	32775	32791	32742	32799	32751	32708	
36	0	32764	32711	32771	32722	32803	32821	32756	32702	
37	0	32758	32518	32758	32787	32850	32755	32789	32687	
38	0	32738	32574	32621	32754	32755	32819	32721	32693	
39	0	32684	32765	32615	32848	32647	32834	32863	32723	
40	0	32769	32677	32679	33006	32727	32735	32802	32743	
41	0	32708	32631	32679	32939	32773	32751	32789	32772	
42	0	32700	32643	32715	32882	32835	32757	32811	32723	
43	0	32736	32691	32773	32775	32799	32803	32751	32684	
44	0	32749	32717	32757	32725	32869	32695	32813	32771	
45	0	32727	32699	32646	32842	32775	32741	32727	32679	
46	0	32764	32555	32679	32855	32637	32834	32851	32647	
47	0	32752	32583	32729	32831	32663	32717	32786	32555	
48	0	32720	32762	32789	32887	32759	32765	32775	32571	
49	0	32729	32733	32800	32871	32845	32811	32789	32527	
50	0	32725	32645	32755	32653	32871	32807	32687	32663	
51	0	32699	32683	32759	32782	32813	32729	32815	32660	
52	0	32749	32637	32847	32818	32725	32815	32789	32679	
53	0	32775	32601	32686	32891	32775	32719	32831	32782	
54	0	32732	32467	32621	32873	32845	32765	32722	32709	
55	0	32775	32574	32667	32722	32631	32797	32820	32735	
56	0	32789	32771	32621	32683	32679	32733	32803	32679	
57	0	32810	32732	32671	32615	32839	32756	32799	32691	
58	0	32771	32711	32626	32773	32786	32860	32727	32623	
59	0	32805	32667	32641	32837	32867	32732	32703	32743	
60	0	32840	32655	32527	32869	32854	32775	32759	32685	
61	0	32833	32526	32595	32695	32869	32783	32705	32563	
62	0	32812	32730	32643	32647	32727	32749	32783	32519	
63	0	32731	32635	32679	32773	32817	32742	32775	32583	
64	0	32725	32565	32716	32822	32793	32771	32695	32790	
65	0	32732	32719	32647	32811	32787	32773	32773	32703	
66	0	32709	32631	32675	32691	32830	32799	32783	32719	
67	0	32775	32452	32767	32559	32823	32755	32764	32699	
68	0	32725	32762	32758	32770	32836	32786	32754	32667	
69	0	32781	32631	32767	32751	32773	32827	32731	32708	
70	0	32783	32695	32775	32867	32735	32709	32732	32540	
71	0	32724	32515	32797	32644	32818	32823	32813	32679	
72	0	32794	32559	32831	32791	32762	32767	32756	32655	
73	0	32836	32751	32727	32766	32767	32767	32820	32671	
74	0	32807	32694	32713	32812	32647	32839	32687	32726	
75	0	32807	32679	32783	32841	32725	32735	32802	32734	
76	0	32810	32743	32743	32676	32887	32786	32787	32675	
77	0	32763	32673	32647	32615	32799	32839	32807	32685	
78	0	32772	32452	32611	32791	32747	32711	32799	32613	
79	0	32738	32549	32647	32775	32790	32731	32663	32575	
80	0	32807	32775	32735	32775	32802	32743	32731	32598	
81	0	32845	32745	32710	32807	32694	32803	32695	32663	
82	0	32775	32679	32759	32879	32697	32711	32815	32667	
83	0	32783	32643	32633	32772	32775	32775	32751	32787	
84	0	32757	32647	32647	32586	32771	32837	32807	32703	
85	0	32751	32661	32631	32498	32803	32735	32771	32677	
86	0	32792	32683	32676	32725	32748	32790	32851	32661	
87	0	32829	32655	32675	32735	32855	32845	32805	32647	
88	0	32810	32597	32591	32695	32813	32725	32786	32727	
89	0	32757	32543	32679	32821	32655	32715	32741	32693	
90	0	32695	32551	32798	32900	32775	32743	32827	32687	
91	0	32773	32519	32729	32855	32717	32775	32751	32679	
92	0	32704	32583	32681	32833	32855	32803	32788	32671	
93	0	32771	32635	32751	32748	32861	32783	32701	32735	
94	0	32767	32621	32795	32600	32637	32679	32841	32727	
95	0	32793	32519	32759	32661	32743	32770	32735	32685	
96	0	32768	32543	32647	32620	32807	32755	32807	32747	
97	0	32769	32519	32583	32773	32733	32745	32735	32727	
98	0	32783	32559	32581	32735	32817	32725	32797	32743	
99	0	32827	32567	32727	32765	32791	32775	32676	32775	
100	0	32845	32630	32681	32729	32757	32709	32775	32799	
101	0	32780	32551	32695	32775	32844	32684	32799	32742	
102	0	32771	32574	32607	32699	32847	32691	32837	32787	
103	0	32791	32596	32711	32796	32851	32775	32775	32691	
104	0	32817	32583	32647	32761	32604	32783	32787	32724	
105	0	32782	32591	32613	32757	32778	32740	32751	32675	
106	0	32806	32559	32607	32702	32735	32759	32859	32669	
107	0	32766	32751	32675	32639	32743	32839	32807	32677	
108	0	32754	32583	32658	32807	32807	32701	32697	32559	
109	0	32759	32711	32679	32821	32855	32838	32833	32669	
110	0	32742	32635	32677	32831	32843	32876	32773	32685	
111	0	32775	32606	32811	32788	32679	32767	32799	32638	
112	0	32750	32547	32806	32677	32647	32775	32759	32815	
113	0	32807	32669	32749	32589	32791	32831	32745	32731	
114	0	32726	32711	32772	32703	32783	32756	32755	32671	
115	0	32726	32679	32751	32775	32786	32803	32783	32631	
116	0	32743	32703	32751	32823	32805	32831	32797	32683	
117	0	32762	32679	32757	32783	32739	32675	32795	32647	
118	0	32756	32711	32790	32583	32775	32749	32759	32682	
119	0	32722	32549	32683	32732	32758	32711	32787	32517	
120	0	32811	32764	32632	32806	32827	32787	32771	32748	
121	0	32767	32669	32646	32679	32799	32759	32692	32719	
122	0	32807	32731	32731	32775	32788	32773	32807	32681	
123	0	32846	32601	32628	32767	32805	32767	32823	32693	
124	0	32788	32694	32631	32821	32702	32763	32799	32729	
125	0	32834	32623	32659	32883	32775	32773	32783	32707	
126	0	32763	32487	32753	32813	32801	32751	32747	32621	
127	0	32733	32541	32724	32679	32743	32755	32845	32556	
128	0	32722	32537	32759	32617	32783	32711	32755	32489	
129	0	32722	32539	32815	32639	32775	32738	32747	32575	
130	0	32740	32551	32755	32805	32698	32809	32687	32588	
131	0	32716	32565	32791	32709	32878	32678	32741	32563	
132	0	32764	32775	32831	32775	32757	32719	32730	32578	
133	0	32769	32725	32719	32775	32703	32806	32791	32533	
134	0	32761	32605	32732	32599	32745	32790	32771	32745	
135	0	32761	32679	32743	32676	32799	32855	32775	32658	
136	0	32762	32719	32644	32663	32797	32735	32839	32643	
137	0	32765	32669	32655	32711	32629	32743	32703	32643	
138	0	32751	32558	32719	32823	32749	32790	32721	32755	
139	0	32748	32525	32727	32614	32647	32731	32799	32671	
140	0	32743	32655	32711	32581	32731	32794	32718	32543	
141	0	32773	32692	32799	32743	32707	32815	32775	32553	
142	0	32758	32583	32748	32775	32758	32742	32775	32605	
143	0	32787	32639	32703	32897	32727	32799	32706	32721	
144	0	32716	32695	32741	32903	32773	32701	32769	32735	
145	0	32752	32695	32759	32711	32740	32727	32723	32775	
146	0	32724	32687	32705	32703	32771	32743	32839	32708	
147	0	32743	32775	32769	32877	32837	32711	32767	32711	
148	0	32775	32711	32742	32871	32767	32726	32882	32691	
149	0	32711	32727	32741	32839	32700	32771	32775	32647	
150	0	32804	32726	32669	32919	32688	32658	32756	32775	
151	0	32807	32637	32707	32815	32762	32731	32735	32771	
152	0	32743	32676	32679	32684	32887	32813	32770	32747	
153	0	32774	32582	32685	32493	32735	32831	32759	32719	
154	0	32790	32599	32647	32599	32847	32759	32742	32647	
155	0	32756	32687	32607	32631	32770	32828	32831	32677	
156	0	32758	32687	32621	32666	32703	32810	32773	32719	
157	0	32751	32519	32655	32779	32849	32711	32755	32636	
158	0	32701	32535	32607	32766	32775	32775	32749	32595	
159	0	32735	32597	32590	32711	32693	32893	32854	32551	
160	0	32768	32705	32661	32647	32642	32748	32835	32603	
161	0	32836	32723	32687	32607	32807	32765	32815	32647	
162	0	32839	32647	32895	32767	32775	32735	32805	32679	
163	0	32828	32663	32935	32791	32647	32805	32811	32566	
164	0	32807	32623	32957	32730	32679	32743	32773	32538	
165	0	32723	32594	32980	32727	32775	32743	32749	32573	
166	0	32647	32647	32847	32831	32748	32812	32665	32581	
167	0	32641	32716	32887	32915	32775	32795	32845	32621	
168	0	32647	32647	32895	32931	32837	32743	32799	32764	
169	0	32698	32516	32807	32637	32843	32756	32724	32758	
170	0	32707	32551	32842	32806	32771	32835	32783	32643	
171	0	32760	32731	32623	32751	32700	32791	32677	32669	
172	0	32844	32700	32547	32847	32643	32791	32788	32707	
173	0	32879	32711	32653	32845	32615	32769	32838	32559	
174	0	32766	32775	32583	32582	32799	32818	32679	32516	
175	0	32805	32734	32601	32719	32846	32805	32783	32582	
176	0	32680	32647	32575	32703	32700	32741	32827	32711	
177	0	32703	32539	32665	32834	32725	32815	32791	32723	
178	0	32668	32549	32749	32615	32767	32709	32815	32692	
179	0	32808	32775	32711	32727	32853	32711	32743	32767	
180	0	32832	32749	32719	32807	32846	32687	32679	32566	
181	0	32924	32711	32711	32903	32763	32749	32799	32679	
182	0	32897	32644	32829	32771	32787	32775	32718	32771	
183	0	32812	32693	32811	32679	32818	32775	32847	32711	
184	0	32773	32691	32695	32862	32685	32775	32797	32709	
185	0	32757	32659	32742	32878	32722	32839	32782	32686	
186	0	32692	32533	32837	33007	32847	32717	32758	32719	
187	0	32655	32592	32700	33071	32822	32693	32743	32775	
188	0	32806	32543	32562	32837	32791	32775	32845	32607	
189	0	32758	32566	32629	32789	32811	32759	32711	32615	
190	0	32750	32811	32625	32814	32851	32775	32759	32557	
191	0	32700	32725	32669	32637	32804	32845	32723	32637	
192	0	32665	32639	32688	32571	32825	32749	32787	32743	
193	0	32701	32683	32655	32301	32877	32863	32807	32647	
194	0	32714	32658	32677	32338	32773	32791	32735	32647	
195	0	32751	32583	32719	32391	32793	32725	32799	32711	
196	0	32812	32679	32708	32423	32767	32807	32726	32679	
197	0	32770	32543	32732	32213	32631	32803	32815	32589	
198	0	32797	32670	32711	32231	32711	32835	32804	32621	
199	0	32844	32679	32703	32429	32789	32839	32799	32699	
200	0	32843	32739	32925	32511	32767	32877	32684	32763	
201	0	32813	32663	32915	32789	32748	32693	32720	32775	
202	0	32845	32593	32797	32827	32640	32711	32747	32727	
203	0	32782	32500	32627	32943	32691	32679	32813	32763	
204	0	32745	32543	32556	33071	32767	32751	32797	32815	
205	0	32736	32738	32660	32903	32876	32677	32807	32667	
206	0	32785	32663	32639	32853	32767	32687	32759	32511	
207	0	32781	32590	32579	33087	32749	32751	32751	32565	
208	0	32756	32749	32595	33031	32765	32659	32806	32567	
209	0	32738	32775	32635	33109	32769	32703	32748	32628	
210	0	32740	32747	32743	33250	32831	32695	32788	32599	
211	0	32671	32772	32839	33153	32679	32767	32727	32655	
212	0	32774	32755	32788	32775	32647	32754	32807	32749	
213	0	32783	32799	32757	32667	32642	32765	32783	32703	
214	0	32786	32677	32767	32795	32775	32819	32786	32716	
215	0	32791	32660	32911	32662	32789	32765	32811	32647	
216	0	32786	32647	32887	32575	32767	32807	32743	32593	
217	0	32771	32783	32847	32351	32702	32868	32870	32621	
218	0	32719	32705	32855	32327	32695	32804	32717	32614	
219	0	32743	32661	32829	32342	32823	32811	32823	32685	
220	0	32830	32583	32855	32564	32775	32836	32719	32707	
221	0	32748	32527	32854	32527	32775	32717	32759	32599	
222	0	32709	32653	32801	32599	32731	32791	32835	32555	
223	0	32690	32581	32759	32447	32719	32831	32695	32541	
224	0	32706	32614	32854	32503	32705	32747	32791	32617	
225	0	32738	32551	32726	32726	32803	32757	32671	32627	
226	0	32775	32707	32703	32807	32833	32794	32765	32631	
227	0	32708	32663	32694	32956	32781	32815	32709	32773	
228	0	32768	32597	32741	32967	32835	32706	32775	32655	
229	0	32727	32619	32631	32925	32815	32743	32701	32563	
230	0	32769	32685	32509	32871	32619	32783	32786	32723	
231	0	32763	32687	32501	32733	32685	32806	32647	32743	
232	0	32724	32686	32543	32945	32799	32671	32727	32758	
233	0	32826	32587	32644	32999	32879	32679	32701	32727	
234	0	32791	32495	32559	33159	32882	32695	32783	32742	
235	0	32749	32511	32613	33239	32775	32671	32738	32762	
236	0	32713	32437	32603	33167	32807	32687	32771	32735	
237	0	32718	32541	32645	33031	32807	32715	32775	32727	
238	0	32775	32847	32671	32852	32813	32626	32679	32733	
239	0	32820	32884	32673	32959	32668	32703	32835	32685	
240	0	32814	32823	32705	32852	32754	32735	32775	32543	
241	0	32782	32700	32711	32623	32647	32807	32757	32500	
242	0	32865	32775	32735	32159	32639	32914	32785	32559	
243	0	32919	32715	32775	32151	32655	32962	32765	32675	
244	0	33069	32655	32797	32126	32726	32856	32823	32625	
245	0	33039	32551	32975	32307	32831	32884	32799	32685	
246	0	32852	32373	32949	32535	32673	32834	32863	32667	
247	0	32801	32367	32919	32554	32819	32759	32813	32691	
248	0	32754	32391	32937	32573	32854	32711	32767	32718	
249	0	32687	32389	32931	32721	32762	32774	32685	32723	
250	0	32684	32541	32839	32866	32787	32721	32805	32775	
251	0	32699	32567	32827	32943	32683	32703	32727	32717	
252	0	32668	32669	32835	32925	32721	32819	32794	32693	
253	0	32751	32679	32819	32695	32838	32807	32751	32623	
254	0	32756	32607	32716	32805	32832	32731	32679	32591	
255	0	32701	32621	32659	32775	32817	32727	32799	32663	
256	0	32710	32591	32727	32847	32807	32765	32771	32789	
257	0	32733	32629	32701	32786	32775	32819	32743	32735	
258	0	32703	32671	32671	32595	32807	32811	32791	32687	
259	0	32777	32719	32674	32839	32803	32751	32685	32691	
260	0	32756	32679	32687	32911	32647	32718	32759	32743	
261	0	32704	32671	32519	32890	32771	32756	32719	32730	
262	0	32797	32735	32479	32948	32822	32765	32789	32769	
263	0	32828	32623	32537	32839	32845	32763	32731	32767	
264	0	32727	32594	32613	32743	32751	32719	32775	32739	
265	0	32732	32535	32679	32687	32870	32749	32684	32739	
266	0	32759	32549	32727	32895	32900	32759	32793	32719	
267	0	32737	32749	32773	32821	32807	32647	32759	32639	
268	0	32741	32819	32775	32823	32682	32660	32807	32681	
269	0	32766	32775	32804	32775	32803	32790	32765	32694	
270	0	32823	32705	32839	32823	32827	32757	32851	32611	
271	0	32745	32613	32854	32703	32785	32709	32807	32565	
272	0	32715	32655	32726	32623	32843	32775	32775	32527	
273	0	32764	32601	32671	32525	32807	32795	32797	32583	
274	0	32771	32731	32671	32637	32775	32749	32786	32711	
275	0	32717	32595	32647	32738	32685	32719	32795	32805	
276	0	32709	32627	32711	32735	32643	32767	32735	32767	
277	0	32735	32511	32683	32743	32859	32817	32715	32775	
278	0	32675	32487	32733	32637	32835	32767	32823	32751	
279	0	32711	32638	32711	32631	32775	32723	32739	32676	
280	0	32748	32767	32730	32831	32704	32855	32743	32751	
281	0	32740	32703	32735	32761	32775	32775	32740	32733	
282	0	32723	32689	32623	32839	32847	32799	32673	32705	
283	0	32707	32706	32587	32663	32851	32809	32797	32692	
284	0	32770	32703	32621	32611	32628	32735	32743	32647	
285	0	32747	32735	32743	32570	32783	32786	32851	32598	
286	0	32774	32655	32734	32807	32801	32775	32821	32554	
287	0	32775	32613	32709	32827	32802	32716	32719	32571	
288	0	32754	32558	32713	32814	32814	32743	32789	32711	
289	0	32716	32642	32731	32751	32797	32775	32783	32761	
290	0	32711	32713	32818	32581	32831	32718	32787	32698	
291	0	32715	32698	32722	32715	32877	32749	32647	32721	
292	0	32721	32642	32620	32789	32823	32791	32772	32685	
293	0	32721	32603	32613	32775	32677	32791	32685	32679	
294	0	32738	32662	32628	32795	32628	32771	32773	32727	
295	0	32716	32671	32603	32853	32775	32773	32731	32735	
296	0	32709	32708	32717	32813	32821	32720	32757	32740	
297	0	32709	32647	32735	32743	32743	32733	32765	32655	
298	0	32742	32698	32647	32631	32839	32751	32754	32773	
299	0	32758	32679	32734	32742	32749	32861	32687	32767	
300	0	32751	32687	32718	32715	32679	32775	32795	32718	
301	0	32756	32764	32694	32771	32671	32709	32827	32763	
302	0	32788	32751	32619	32759	32743	32711	32786	32751	
303	0	32824	32758	32603	32775	32863	32747	32775	32803	
304	0	32797	32671	32621	32854	32786	32789	32813	32679	
305	0	32708	32615	32759	32876	32785	32749	32741	32711	
306	0	32749	32581	32701	32825	32821	32726	32732	32692	
307	0	32786	32679	32623	32743	32679	32773	32807	32707	
308	0	32748	32551	32738	32610	32673	32799	32846	32695	
309	0	32743	32591	32769	32551	32762	32795	32869	32671	
310	0	32783	32691	32641	32759	32887	32773	32775	32710	
311	0	32731	32773	32655	32763	32761	32713	32727	32724	
312	0	32793	32639	32574	32854	32751	32811	32733	32749	
313	0	32783	32679	32647	32841	32839	32775	32757	32765	
314	0	32766	32687	32690	32754	32833	32726	32791	32749	
315	0	32783	32639	32668	32579	32695	32787	32715	32719	
316	0	32796	32663	32610	32543	32771	32745	32775	32727	
317	0	32751	32660	32605	32578	32850	32837	32759	32731	
318	0	32736	32629	32617	32753	32783	32783	32757	32775	
319	0	32756	32679	32581	32756	32783	32711	32748	32742	
320	0	32738	32711	32551	32767	32767	32785	32795	32668	
321	0	32808	32751	32551	32827	32839	32735	32719	32723	
322	0	32772	32711	32479	32743	32709	32727	32748	32716	
323	0	32725	32643	32567	32689	32807	32725	32791	32787	
324	0	32748	32623	32641	32668	32775	32773	32732	32751	
325	0	32796	32647	32611	32583	32861	32747	32815	32741	
326	0	32780	32698	32627	32743	32764	32759	32733	32703	
327	0	32699	32647	32647	32807	32711	32775	32853	32674	
328	0	32743	32675	32582	32771	32739	32788	32675	32715	
329	0	32769	32661	32563	32745	32743	32783	32738	32677	
330	0	32743	32657	32621	32771	32847	32814	32835	32705	
331	0	32684	32679	32711	32799	32745	32862	32743	32679	
332	0	32708	32660	32708	32903	32663	32743	32796	32647	
333	0	32719	32679	32607	32835	32665	32735	32775	32647	
334	0	32733	32731	32655	32689	32815	32769	32860	32725	
335	0	32780	32739	32703	32578	32743	32815	32783	32708	
336	0	32724	32671	32557	32619	32809	32710	32822	32743	
337	0	32773	32645	32605	32756	32769	32747	32797	32727	
338	0	32803	32711	32519	32756	32705	32788	32762	32706	
339	0	32759	32695	32615	32765	32823	32831	32691	32717	
340	0	32757	32645	32599	32755	32759	32715	32775	32647	
341	0	32753	32623	32647	32813	32835	32729	32743	32567	
342	0	32815	32635	32623	32782	32690	32709	32775	32551	
343	0	32796	32715	32637	32814	32821	32739	32775	32526	
344	0	32796	32687	32565	32807	32759	32812	32775	32578	
345	0	32833	32755	32683	32850	32819	32805	32791	32644	
346	0	32828	32727	32711	32834	32671	32835	32663	32799	
347	0	32740	32799	32655	32815	32711	32773	32716	32764	
348	0	32735	32747	32647	32711	32789	32691	32723	32724	
349	0	32736	32667	32647	32647	32757	32738	32703	32663	
350	0	32772	32767	32646	32565	32817	32792	32879	32663	
351	0	32753	32551	32690	32562	32775	32827	32759	32675	
352	0	32757	32467	32743	32741	32709	32775	32838	32692	
353	0	32742	32518	32647	32738	32807	32743	32748	32687	
354	0	32822	32751	32725	32773	32826	32772	32791	32641	
355	0	32749	32551	32567	32767	32807	32751	32749	32687	
356	0	32743	32482	32719	32821	32727	32820	32791	32742	
357	0	32757	32567	32699	32903	32687	32751	32727	32719	
358	0	32743	32515	32711	32805	32823	32711	32734	32775	
359	0	32757	32504	32701	32599	32737	32698	32695	32756	
360	0	32760	32479	32683	32527	32805	32766	32855	32663	
361	0	32760	32487	32595	32586	32837	32820	32811	32658	
362	0	32773	32543	32598	32725	32667	32741	32771	32567	
363	0	32715	32541	32589	32783	32797	32735	32743	32485	
364	0	32724	32551	32722	32791	32686	32791	32764	32566	
365	0	32769	32567	32695	32863	32748	32871	32767	32495	
366	0	32738	32581	32719	32865	32759	32775	32775	32543	
367	0	32808	32583	32785	32903	32615	32695	32822	32543	
368	0	32690	32510	32683	32733	32725	32748	32719	32545	
369	0	32751	32535	32631	32620	32822	32785	32835	32621	
370	0	32759	32791	32566	32775	32743	32775	32751	32578	
371	0	32764	32743	32659	32758	32759	32803	32765	32596	
372	0	32741	32751	32719	32743	32798	32864	32775	32548	
373	0	32799	32725	32703	32791	32833	32831	32783	32623	
374	0	32715	32685	32695	32662	32647	32787	32835	32646	
375	0	32735	32679	32740	32578	32708	32819	32807	32643	
376	0	32793	32633	32727	32739	32764	32847	32743	32631	
377	0	32765	32655	32751	32690	32786	32823	32801	32591	
378	0	32788	32701	32647	32731	32773	32790	32735	32569	
379	0	32725	32679	32655	32871	32861	32756	32827	32631	
380	0	32775	32626	32589	32823	32675	32775	32723	32621	
381	0	32734	32645	32644	32719	32663	32738	32847	32701	
382	0	32786	32711	32693	32683	32767	32694	32735	32775	
383	0	32831	32702	32639	32563	32898	32702	32743	32695	
384	0	32788	32679	32733	32800	32747	32797	32786	32743	
385	0	32820	32690	32739	32793	32854	32775	32821	32713	
386	0	32788	32628	32671	32805	32757	32692	32766	32723	
387	0	32814	32603	32664	32837	32628	32759	32775	32691	
388	0	32820	32629	32719	32735	32786	32775	32789	32695	
389	0	32789	32531	32753	32553	32903	32711	32745	32673	
390	0	32671	32534	32742	32516	32806	32773	32717	32647	
391	0	32734	32567	32799	32773	32767	32775	32703	32659	
392	0	32723	32639	32679	32803	32775	32713	32831	32663	
393	0	32740	32791	32681	32855	32775	32751	32757	32663	
394	0	32731	32621	32711	32949	32735	32775	32731	32677	
395	0	32781	32631	32775	32895	32764	32767	32727	32710	
396	0	32734	32567	32811	32763	32658	32773	32710	32745	
397	0	32759	32595	32723	32606	32719	32726	32775	32775	
398	0	32712	32703	32807	32573	32773	32758	32757	32749	
399	0	32813	32762	32757	32743	32805	32767	32829	32775	
400	0	32814	32735	32740	32733	32692	32788	32727	32675	
401	0	32798	32679	32638	32791	32639	32787	32785	32745	
402	0	32820	32723	32623	32725	32771	32764	32731	32628	
403	0	32786	32659	32626	32755	32775	32751	32759	32636	
404	0	32736	32573	32593	32749	32791	32727	32681	32695	
405	0	32775	32543	32589	32815	32727	32832	32807	32705	
406	0	32756	32487	32631	32839	32815	32810	32743	32735	
407	0	32775	32457	32603	32791	32789	32726	32836	32607	
408	0	32775	32499	32667	32642	32647	32710	32772	32671	
409	0	32811	32543	32698	32575	32615	32812	32775	32642	
410	0	32817	32495	32575	32580	32839	32812	32807	32679	
411	0	32806	32591	32543	32620	32719	32813	32743	32658	
412	0	32762	32735	32583	32557	32827	32807	32775	32663	
413	0	32761	32705	32699	32567	32637	32743	32823	32769	
414	0	32678	32715	32733	32820	32775	32727	32783	32626	
415	0	32639	32642	32663	32788	32823	32757	32817	32631	
416	0	32647	32647	32759	32775	32733	32823	32719	32593	
417	0	32652	32669	32726	32767	32758	32775	32805	32581	
418	0	32712	32723	32503	32799	32789	32770	32709	32514	
419	0	32809	32775	32585	32791	32707	32805	32739	32532	
420	0	32872	32819	32799	32839	32789	32811	32785	32634	
421	0	32823	32743	32749	32735	32775	32775	32775	32667	
422	0	32793	32687	32703	32615	32745	32711	32855	32775	
423	0	32705	32579	32679	32607	32775	32763	32834	32719	
424	0	32758	32663	32679	32788	32765	32807	32767	32737	
425	0	32807	32683	32695	32755	32647	32741	32733	32709	
426	0	32789	32749	32615	32771	32847	32690	32806	32735	
427	0	32731	32749	32883	32775	32715	32710	32661	32659	
428	0	32738	32717	32947	32815	32767	32758	32839	32615	
429	0	32689	32807	32903	32807	32679	32767	32802	32641	
430	0	32698	32775	32763	32893	32687	32821	32827	32660	
431	0	32748	32775	32639	32895	32827	32755	32801	32627	
432	0	32745	32611	32595	32667	32789	32749	32795	32695	
433	0	32761	32542	32623	32583	32827	32757	32805	32679	
434	0	32748	32575	32759	32619	32759	32791	32684	32711	
435	0	32738	32575	32843	32784	32582	32769	32811	32707	
436	0	32783	32647	32863	32797	32701	32711	32767	32647	
437	0	32696	32786	32844	32743	32798	32751	32757	32647	
438	0	32716	32684	32811	32857	32791	32775	32775	32647	
439	0	32749	32594	32801	32671	32775	32783	32710	32754	
440	0	32819	32621	32911	32581	32697	32775	32775	32719	
441	0	32879	32669	32885	32663	32775	32708	32735	32719	
442	0	32837	32767	32767	32679	32837	32738	32775	32733	
443	0	32849	32698	32775	32703	32709	32730	32701	32721	
444	0	32851	32775	32759	32770	32670	32726	32863	32629	
445	0	32835	32631	32875	32757	32703	32743	32752	32607	
446	0	32742	32519	32971	32555	32652	32788	32748	32571	
447	0	32703	32422	32891	32550	32850	32813	32783	32614	
448	0	32711	32615	32893	32719	32641	32730	32823	32647	
449	0	32751	32660	32863	32740	32827	32791	32839	32663	
450	0	32717	32671	32839	32833	32771	32825	32783	32695	
451	0	32704	32615	32878	32743	32751	32733	32831	32735	
452	0	32704	32677	32751	32641	32807	32738	32713	32727	
453	0	32731	32659	32703	32759	32815	32869	32775	32719	
454	0	32741	32677	32583	32748	32791	32783	32813	32573	
455	0	32735	32615	32678	32743	32679	32773	32863	32510	
456	0	32780	32703	32775	32791	32647	32799	32711	32551	
457	0	32773	32711	32719	32863	32795	32832	32751	32615	
458	0	32737	32711	32773	32957	32727	32763	32701	32701	
459	0	32769	32709	32695	32846	32787	32767	32771	32703	
460	0	32775	32699	32551	32685	32831	32717	32647	32738	
461	0	32837	32759	32611	32647	32836	32775	32713	32599	
462	0	32798	32663	32615	32775	32833	32806	32695	32559	
463	0	32847	32655	32683	32783	32663	32786	32757	32582	
464	0	32869	32690	32694	32743	32687	32791	32757	32638	
465	0	32806	32695	32727	32731	32893	32749	32683	32727	
466	0	32751	32674	32827	32660	32724	32708	32757	32739	
467	0	32815	32695	32807	32759	32775	32823	32725	32807	
468	0	32775	32675	32789	32751	32815	32798	32773	32822	
469	0	32773	32679	32871	32751	32862	32759	32689	32771	
470	0	32735	32617	32915	32686	32693	32723	32811	32771	
471	0	32775	32665	32854	32683	32775	32734	32718	32775	
472	0	32734	32703	32731	32647	32829	32748	32727	32769	
473	0	32711	32734	32737	32719	32679	32836	32749	32727	
474	0	32715	32694	32788	32695	32767	32748	32754	32695	
475	0	32745	32727	32815	32807	32811	32794	32679	32690	
476	0	32784	32708	32743	32899	32742	32775	32789	32663	
477	0	32844	32595	32755	32871	32647	32743	32725	32623	
478	0	32802	32575	32791	32791	32605	32743	32823	32647	
479	0	32756	32590	32790	32735	32793	32733	32791	32637	
480	0	32824	32807	32775	32811	32735	32769	32695	32570	
481	0	32820	32823	32716	32799	32791	32733	32797	32471	
482	0	32763	32687	32735	32829	32827	32775	32751	32542	
483	0	32728	32742	32765	32555	32741	32706	32739	32658	
484	0	32762	32679	32811	32387	32827	32775	32742	32690	
485	0	32764	32612	32899	32634	32815	32786	32669	32723	
486	0	32806	32530	32806	32599	32879	32713	32735	32762	
487	0	32759	32549	32807	32694	32847	32791	32748	32829	
488	0	32719	32679	32854	32603	32879	32739	32757	32630	
489	0	32787	32607	32832	32773	32845	32765	32727	32854	
490	0	32806	32738	32647	32785	32866	32715	32708	32876	
491	0	32811	32755	32647	32846	32792	32693	32735	32791	
492	0	32770	32547	32709	32919	32738	32758	32775	32707	
493	0	32850	32607	32762	32692	32787	32783	32731	32683	
494	0	32804	32715	32821	32640	32831	32756	32738	32629	
495	0	32799	32727	32729	32663	32749	32725	32855	32669	
496	0	32777	32751	32807	32671	32707	32735	32701	32733	
497	0	32823	32759	32775	32699	32762	32789	32831	32755	
498	0	32866	32711	32715	32702	32767	32767	32797	32667	
499	0	32810	32647	32821	32827	32751	32775	32785	32601	
500	0	32762	32647	32694	32611	32753	32820	32751	32493	
501	0	32784	32647	32595	32655	32685	32783	32691	32582	
502	0	32746	32519	32745	32669	32695	32797	32799	32742	
503	0	32749	32532	32669	32743	32815	32786	32788	32695	
504	0	32775	32527	32679	32847	32795	32724	32775	32632	
505	0	32811	32767	32681	32734	32884	32775	32787	32642	
506	0	32773	32772	32647	32647	32663	32839	32749	32627	
507	0	32783	32635	32591	32807	32637	32791	32850	32703	
508	0	32740	32587	32642	32833	32639	32869	32791	32677	
509	0	32714	32551	32647	32903	32711	32709	32725	32574	
510	0	32762	32738	32615	32693	32681	32756	32790	32518	
511	0	32831	32683	32606	32671	32831	32785	32821	32606	
512	0	32781	32721	32563	32805	32743	32709	32749	32693	
513	0	32769	32647	32615	32847	32859	32786	32813	32687	
514	0	32783	32545	32634	32722	32887	32703	32727	32705	
515	0	32759	32531	32698	32599	32819	32771	32699	32743	
516	0	32782	32701	32679	32807	32815	32748	32775	32647	
517	0	32745	32647	32532	32790	32859	32759	32823	32606	
518	0	32756	32701	32599	32803	32832	32799	32835	32601	
519	0	32756	32703	32611	32611	32735	32791	32749	32623	
520	0	32740	32589	32613	32631	32719	32703	32759	32757	
521	0	32711	32539	32647	32753	32812	32743	32687	32743	
522	0	32773	32508	32597	32763	32839	32745	32775	32693	
523	0	32792	32525	32759	32727	32677	32791	32743	32762	
524	0	32742	32511	32759	32707	32711	32723	32822	32769	
525	0	32775	32563	32759	32868	32797	32742	32761	32711	
526	0	32677	32749	32771	32695	32830	32807	32789	32694	
527	0	32730	32692	32775	32579	32806	32723	32767	32773	
528	0	32773	32575	32731	32727	32765	32699	32756	32731	
529	0	32658	32647	32677	32765	32775	32807	32783	32708	
530	0	32679	32685	32743	32900	32843	32729	32822	32645	
531	0	32673	32627	32799	32871	32791	32743	32783	32643	
532	0	32708	32423	32795	32567	32676	32787	32828	32756	
533	0	32692	32459	32663	32533	32679	32726	32773	32679	
534	0	32661	32487	32642	32759	32619	32771	32735	32673	
535	0	32676	32566	32662	32839	32837	32791	32719	32671	
536	0	32647	32719	32559	32875	32815	32786	32635	32583	
537	0	32704	32743	32502	32871	32749	32749	32759	32607	
538	0	32763	32749	32439	32763	32791	32679	32818	32566	
539	0	32780	32719	32359	32567	32851	32851	32730	32503	
540	0	32846	32586	32352	32829	32831	32763	32693	32680	
541	0	32859	32583	32466	32799	32746	32810	32714	32708	
542	0	32798	32668	32551	32858	32607	32818	32772	32748	
543	0	32761	32634	32743	32678	32747	32718	32775	32749	
544	0	32724	32583	32759	32617	32833	32706	32742	32729	
545	0	32737	32698	32751	32757	32775	32713	32861	32711	
546	0	32751	32855	32909	32797	32647	32784	32735	32696	
547	0	32743	32767	32885	32895	32821	32679	32733	32709	
548	0	32729	32681	32775	33015	32830	32717	32767	32771	
549	0	32704	32743	32759	32786	32823	32875	32686	32785	
550	0	32740	32645	32635	32677	32637	32738	32807	32690	
551	0	32710	32575	32655	32699	32690	32709	32839	32633	
552	0	32698	32711	32678	32647	32739	32775	32783	32593	
553	0	32783	32767	32525	32647	32892	32775	32820	32514	
554	0	32719	32711	32507	32655	32765	32799	32787	32565	
555	0	32718	32735	32436	32707	32851	32805	32855	32487	
556	0	32742	32715	32479	32669	32811	32797	32756	32485	
557	0	32825	32694	32707	32685	32674	32791	32771	32598	
558	0	32914	32743	32743	32655	32782	32679	32629	32687	
559	0	32903	32724	32839	32598	32819	32775	32855	32631	
560	0	32767	32685	32865	32763	32705	32743	32804	32513	
561	0	32742	32676	32935	32743	32789	32799	32765	32557	
562	0	32751	32495	32751	32885	32783	32669	32799	32623	
563	0	32813	32541	32743	32933	32813	32759	32740	32775	
564	0	32759	32772	32639	32713	32759	32765	32811	32735	
565	0	32797	32759	32567	32711	32830	32726	32747	32738	
566	0	32756	32647	32534	32894	32827	32771	32742	32714	
567	0	32713	32642	32454	32900	32809	32767	32775	32679	
568	0	32689	32679	32514	32859	32795	32731	32694	32679	
569	0	32706	32548	32491	32615	32751	32731	32706	32677	
570	0	32704	32542	32455	32569	32836	32742	32791	32647	
571	0	32781	32574	32582	32751	32661	32731	32818	32534	
572	0	32757	32639	32739	32751	32693	32772	32743	32493	
573	0	32814	32919	32831	32748	32717	32834	32765	32541	
574	0	32898	32875	32989	32615	32797	32775	32765	32717	
575	0	32867	32750	32989	32583	32773	32797	32809	32799	
576	0	32814	32741	32935	32498	32757	32763	32799	32775	
577	0	32895	32730	32805	32749	32833	32717	32722	32771	
578	0	32804	32683	32707	32767	32871	32687	32775	32726	
579	0	32745	32621	32681	32797	32845	32775	32836	32767	
580	0	32730	32681	32758	32662	32845	32684	32647	32743	
581	0	32832	32715	32835	32693	32797	32707	32751	32655	
582	0	32837	32708	32887	32783	32623	32765	32830	32590	
583	0	32753	32722	32887	32747	32658	32753	32805	32583	
584	0	32825	32759	32690	32679	32791	32786	32764	32483	
585	0	32705	32679	32572	32837	32761	32851	32747	32647	
586	0	32707	32731	32594	32681	32822	32861	32773	32815	
587	0	32708	32711	32563	32497	32814	32781	32759	32715	
588	0	32662	32487	32518	32622	32737	32851	32709	32628	
589	0	32719	32519	32639	32715	32809	32887	32839	32612	
590	0	32775	32438	32766	32805	32811	32815	32783	32663	
591	0	32719	32437	32753	32845	32739	32758	32741	32687	
592	0	32690	32519	32849	32839	32663	32764	32758	32671	
593	0	32749	32585	32775	32733	32791	32836	32767	32703	
594	0	32858	32667	32831	32687	32855	32782	32737	32687	
595	0	32855	32695	32943	32813	32873	32738	32756	32647	
596	0	32806	32837	32738	32785	32827	32753	32791	32567	
597	0	32726	32735	32757	32877	32791	32690	32749	32607	
598	0	32679	32671	32867	32683	32806	32677	32747	32759	
599	0	32707	32644	32805	32677	32773	32759	32735	32783	
600	0	32791	32795	32903	32775	32692	32687	32819	32717	
601	0	32726	32635	32939	32758	32755	32765	32865	32710	
602	0	32663	32532	32977	32884	32791	32727	32834	32643	
603	0	32708	32495	32943	32671	32851	32679	32735	32690	
604	0	32764	32659	32945	32759	32823	32751	32775	32732	
605	0	32854	32707	32871	32765	32735	32831	32675	32647	
606	0	32773	32828	32839	32925	32655	32749	32788	32546	
607	0	32740	32839	32916	32931	32687	32787	32791	32646	
608	0	32730	32871	32847	32663	32775	32799	32775	32527	
609	0	32679	32751	32708	32527	32827	32767	32797	32631	
610	0	32791	32708	32695	32643	32807	32869	32799	32663	
611	0	32850	32635	32638	32518	32835	32813	32748	32647	
612	0	32814	32645	32701	32591	32815	32843	32791	32707	
613	0	32820	32598	32727	32578	32718	32759	32716	32647	
614	0	32854	32663	32825	32492	32851	32764	32775	32660	
615	0	32762	32479	32833	32471	32769	32783	32827	32539	
616	0	32741	32439	32771	32661	32831	32805	32869	32526	
617	0	32742	32563	32701	32813	32860	32745	32775	32603	
618	0	32761	32539	32493	32965	32690	32742	32711	32638	
619	0	32782	32709	32411	32821	32698	32771	32786	32725	
620	0	32726	32675	32443	32723	32674	32717	32751	32695	
621	0	32813	32683	32585	32975	32678	32748	32754	32633	
622	0	32903	32695	32679	32951	32595	32749	32775	32679	
623	0	32892	32747	32738	33046	32815	32735	32724	32711	
624	0	32910	32719	32839	32859	32771	32751	32855	32679	
625	0	32749	32571	32757	32726	32805	32775	32812	32634	
626	0	32846	32511	32675	32853	32697	32700	32732	32619	
627	0	32841	32455	32663	32739	32815	32773	32818	32725	
628	0	32812	32413	32660	32629	32748	32833	32655	32710	
629	0	32823	32479	32723	32508	32775	32759	32743	32785	
630	0	32787	32763	32807	32575	32775	32809	32647	32727	
631	0	32833	32735	32839	32503	32794	32882	32815	32717	
632	0	32788	32685	32775	32530	32703	32733	32775	32661	
633	0	32780	32575	32708	32791	32705	32719	32719	32757	
634	0	32742	32628	32636	32819	32775	32806	32767	32759	
635	0	32685	32615	32548	32807	32775	32823	32741	32667	
636	0	32677	32615	32671	32815	32749	32761	32733	32641	
637	0	32783	32711	32769	32823	32769	32749	32828	32647	
638	0	32847	32679	32773	32775	32739	32799	32758	32662	
639	0	32799	32661	32719	32701	32685	32803	32673	32771	
640	0	32791	32500	32834	32843	32655	32719	32756	32769	
641	0	32713	32527	32719	32811	32683	32707	32811	32639	
642	0	32630	32721	32732	32973	32767	32727	32703	32515	
643	0	32656	32679	32751	32751	32794	32663	32687	32686	
644	0	32655	32633	32815	32719	32742	32742	32663	32869	
645	0	32640	32578	32745	32871	32671	32860	32775	32770	
646	0	32661	32519	32786	32708	32785	32743	32767	32805	
647	0	32684	32519	32637	32709	32819	32709	32839	32807	
648	0	32710	32627	32569	32827	32844	32799	32823	32715	
649	0	32647	32567	32513	32826	32743	32759	32851	32684	
650	0	32634	32567	32511	32639	32614	32724	32879	32655	
651	0	32722	32607	32489	32677	32725	32801	32815	32703	
652	0	32729	32431	32535	32606	32751	32783	32826	32715	
653	0	32732	32419	32557	32847	32775	32775	32799	32674	
654	0	32821	32564	32663	32855	32799	32762	32814	32637	
655	0	32886	32733	32768	32981	32741	32893	32799	32515	
656	0	32871	32751	32839	32791	32722	32747	32847	32485	
657	0	32804	32755	32875	32683	32803	32743	32758	32543	
658	0	32751	32703	32986	32529	32839	32722	32850	32572	
659	0	32706	32671	32865	32700	32692	32791	32717	32599	
660	0	32684	32747	32743	32645	32702	32815	32764	32610	
661	0	32689	32762	32759	32637	32775	32791	32735	32628	
662	0	32785	32701	32683	32659	32655	32775	32831	32503	
663	0	32893	32751	32819	32694	32807	32757	32791	32551	
664	0	32811	32767	32863	32781	32822	32807	32819	32567	
665	0	32780	32743	32885	32850	32711	32835	32787	32517	
666	0	32705	32691	32821	32741	32775	32726	32819	32587	
667	0	32705	32672	32763	32623	32831	32700	32887	32579	
668	0	32712	32615	32687	32783	32839	32748	32793	32687	
669	0	32697	32754	32665	32799	32837	32758	32747	32725	
670	0	32690	32667	32713	32915	32813	32742	32720	32749	
671	0	32727	32655	32637	32883	32855	32749	32773	32845	
672	0	32740	32707	32455	32903	32725	32693	32673	32807	
673	0	32718	32679	32463	32967	32849	32727	32698	32826	
674	0	32736	32716	32571	32895	32903	32711	32743	32818	
675	0	32745	32794	32565	32643	32878	32647	32703	32711	
676	0	32775	32833	32559	32641	32775	32743	32631	32743	
677	0	32877	32786	32679	32859	32892	32833	32715	32749	
678	0	32883	32565	32827	32850	32807	32791	32799	32743	
679	0	32851	32594	32821	32775	32722	32711	32725	32831	
680	0	32811	32635	32762	32703	32711	32775	32711	32797	
681	0	32808	32631	32815	32583	32647	32758	32687	32663	
682	0	32759	32753	32927	32537	32681	32687	32811	32559	
683	0	32787	32691	32835	32751	32823	32770	32757	32571	
684	0	32712	32679	32683	32775	32764	32855	32814	32539	
685	0	32716	32663	32583	32822	32684	32775	32662	32488	
686	0	32733	32607	32678	32796	32797	32763	32813	32635	
687	0	32806	32679	32663	32739	32719	32770	32732	32677	
688	0	32764	32733	32671	32741	32719	32796	32855	32659	
689	0	32753	32693	32743	32765	32615	32710	32830	32631	
690	0	32641	32613	32731	32724	32620	32797	32839	32647	
691	0	32758	32677	32801	32667	32775	32789	32715	32621	
692	0	32742	32507	32762	32791	32787	32822	32810	32707	
693	0	32719	32487	32797	32876	32825	32711	32819	32641	
694	0	32660	32479	32743	32839	32831	32753	32807	32647	
695	0	32786	32607	32725	32837	32819	32802	32754	32627	
696	0	32745	32503	32635	32759	32860	32730	32704	32659	
697	0	32775	32487	32659	32615	32826	32687	32756	32665	
698	0	32788	32567	32685	32602	32793	32717	32773	32692	
699	0	32838	32621	32693	32549	32691	32751	32807	32643	
700	0	32831	32615	32694	32535	32903	32757	32791	32714	
701	0	32846	32519	32695	32711	32858	32855	32769	32691	
702	0	32751	32439	32836	32660	32759	32799	32807	32725	
703	0	32804	32526	32924	32647	32823	32767	32733	32662	
704	0	32748	32599	32950	32623	32695	32783	32783	32647	
705	0	32749	32588	32966	32631	32643	32791	32693	32721	
706	0	32747	32607	32983	32663	32839	32883	32799	32703	
707	0	32734	32781	32895	32614	32875	32695	32711	32695	
708	0	32772	32763	32935	32639	32826	32743	32769	32701	
709	0	32695	32765	32939	32775	32759	32756	32682	32685	
710	0	32695	32711	32978	32775	32799	32803	32715	32623	
711	0	32740	32607	32903	32775	32727	32727	32903	32532	
712	0	32727	32639	32811	32857	32805	32772	32867	32603	
713	0	32683	32550	32854	32897	32631	32833	32790	32599	
714	0	32676	32646	32863	32834	32679	32815	32823	32559	
715	0	32703	32703	32731	32719	32831	32683	32667	32551	
716	0	32705	32682	32807	32632	32811	32711	32722	32599	
717	0	32738	32615	32811	32815	32738	32751	32775	32697	
718	0	32764	32835	32854	32841	32799	32775	32795	32726	
719	0	32793	32775	32805	32919	32815	32722	32799	32717	
720	0	32740	32755	32719	32859	32798	32765	32671	32769	
721	0	32758	32703	32671	32701	32681	32851	32743	32764	
722	0	32806	32825	32575	32735	32781	32795	32775	32631	
723	0	32813	32599	32469	32751	32835	32786	32710	32519	
724	0	32878	32711	32503	32615	32681	32721	32867	32603	
725	0	32868	32677	32599	32609	32687	32727	32839	32631	
726	0	32868	32615	32685	32725	32751	32775	32834	32578	
727	0	32762	32579	32762	32711	32647	32823	32775	32549	
728	0	32765	32574	32843	32775	32587	32743	32839	32579	
729	0	32769	32535	33004	32787	32628	32677	32711	32557	
730	0	32791	32836	32967	32887	32830	32769	32839	32591	
731	0	32773	32845	32815	32743	32869	32783	32791	32573	
732	0	32823	32701	32634	32719	32839	32743	32741	32647	
733	0	32815	32694	32581	32636	32823	32727	32669	32716	
734	0	32785	32693	32655	32559	32756	32695	32586	32823	
735	0	32891	32647	32590	32559	32734	32749	32491	32831	
736	0	32879	32685	32433	32740	32790	32790	32639	32807	
737	0	32879	32633	32465	32759	32883	32766	32631	32804	
738	0	32859	32631	32365	32823	32775	32677	32725	32695	
739	0	32839	32607	32399	32901	32917	32629	32661	32845	
740	0	32956	32879	32438	32823	32903	32723	32695	32775	
741	0	33077	32859	32447	32671	32866	32763	32596	32711	
742	0	33016	32757	32346	32567	32660	32771	32749	32647	
743	0	32936	32690	32415	32535	32749	32695	32687	32647	
744	0	32911	32679	32391	32813	32865	32775	32775	32686	
745	0	32993	32643	32343	32703	32830	32717	32743	32647	
746	0	33012	32612	32427	32631	32892	32815	32663	32639	
747	0	33095	32642	32303	32548	32930	32751	32727	32633	
748	0	33085	32713	32236	32637	32961	32705	32739	32555	
749	0	33110	32622	32201	32700	32853	32783	32738	32533	
750	0	33108	32589	32221	32609	32732	32855	32736	32545	
751	0	33109	32445	32231	32597	32830	32883	32843	32607	
752	0	33081	32570	32359	32493	32945	32795	32711	32503	
753	0	33111	32511	32308	32405	32859	32799	32773	32602	
754	0	33117	32464	32245	32363	32894	32827	32717	32705	
755	0	33045	32519	32213	32349	32945	32868	32757	32658	
756	0	33069	32472	32291	32473	32915	32814	32702	32705	
757	0	32917	32335	32373	32476	32968	32831	32703	32623	
758	0	32797	32175	32372	32599	32775	32799	32626	32571	
759	0	32652	32123	32343	32562	32710	32843	32751	32550	
760	0	32573	32099	32387	32419	32759	32813	32671	32567	
761	0	32601	32279	32431	32410	32799	32861	32839	32407	
762	0	32537	32307	32450	32475	32668	32873	32855	32437	
763	0	32572	32327	32447	32644	32647	32962	33021	32271	
764	0	32606	32340	32471	32767	32562	32887	33082	32135	
765	0	32595	32371	32502	32910	32534	32935	33207	32129	
766	0	32544	32403	32423	33060	32487	32935	33199	32295	
767	0	32541	32399	32585	32861	32406	32895	33319	32167	
768	0	32463	32223	32582	32988	32327	32875	33279	32124	
769	0	32449	32203	32681	33007	32339	32913	33181	32191	
770	0	32347	32559	32641	33102	32381	32849	33179	32239	
771	0	32244	32557	32794	32933	32335	32935	33154	32263	
772	0	32187	32513	33031	32773	32345	32823	33151	32293	
773	0	32091	32556	33011	32943	32380	32799	33046	32359	
774	0	32053	32707	32999	33039	32439	32877	32995	32350	
775	0	32079	32679	33127	33171	32535	32743	32999	32383	
776	0	32115	32767	33119	33252	32426	32791	33031	32345	
777	0	32103	32843	33151	33228	32455	32790	33107	32338	
778	0	32125	32954	33285	33235	32491	32748	32925	32383	
779	0	32202	33024	33415	33207	32559	32647	32889	32492	
780	0	32330	33051	33319	33055	32519	32615	32775	32668	
781	0	32483	33177	33259	32893	32679	32671	32735	32818	
782	0	32524	33188	33167	33023	32701	32606	32471	33018	
783	0	32453	33125	33159	33089	32868	32559	32484	33091	
784	0	32497	33005	33095	33065	32919	32563	32391	33122	
785	0	32620	33110	32993	32869	33003	32535	32316	33183	
786	0	32612	33058	33015	32708	32991	32579	32219	33223	
787	0	32509	33086	32925	32743	32959	32615	32355	33182	
788	0	32494	33055	32851	32747	32962	32647	32487	33171	
789	0	32543	33044	32703	32784	32917	32647	32585	32967	
790	0	32662	33044	32631	32751	32871	32695	32551	32975	
791	0	32809	32756	32511	32615	32879	32669	32435	32903	
792	0	32868	32893	32662	32685	32915	32723	32490	32983	
793	0	32924	32851	32644	32701	32884	32626	32575	33087	
794	0	32885	32727	32671	32775	32815	32663	32455	32959	
795	0	32838	32711	32555	32551	32967	32631	32531	33003	
796	0	32949	32751	32567	32455	33037	32636	32447	32975	
797	0	33001	32807	32547	32647	32932	32735	32603	32910	
798	0	33014	32719	32613	32671	32943	32695	32509	32967	
799	0	32988	32690	32679	32687	32939	32687	32615	32903	
800	0	32919	32483	32623	32647	32866	32745	32727	32689	
801	0	32852	32455	32591	32455	32841	32724	32693	32615	
802	0	32911	32534	32513	32685	32767	32737	32727	32613	
803	0	32934	32633	32706	32687	32748	32747	32717	32674	
804	0	32959	32533	32685	32775	32694	32731	32679	32716	
805	0	33001	32507	32637	32647	32754	32807	32791	32647	
806	0	32953	32623	32603	32679	32855	32775	32738	32671	
807	0	32913	32571	32593	32531	32751	32843	32831	32743	
808	0	32858	32567	32615	32391	32769	32751	32733	32633	
809	0	32889	32543	32669	32427	32847	32850	32831	32613	
810	0	32873	32657	32673	32581	32823	32766	32811	32639	
811	0	32894	32485	32675	32503	32823	32775	32763	32575	
812	0	32900	32531	32740	32431	32759	32775	32901	32525	
813	0	33014	32549	32725	32714	32623	32787	32831	32463	
814	0	32946	32667	32797	32743	32631	32788	32865	32564	
815	0	32903	32621	32795	32815	32663	32852	32875	32693	
816	0	32767	32599	32847	32725	32771	32791	32765	32699	
817	0	32808	32623	32850	32543	32703	32791	32786	32715	
818	0	32831	32669	32767	32500	32803	32815	32799	32708	
819	0	32807	32655	32491	32679	32852	32835	32815	32631	
820	0	32741	32457	32429	32617	32847	32759	32759	32615	
821	0	32783	32495	32535	32775	32795	32719	32823	32635	
822	0	32809	32628	32579	32655	32759	32783	32829	32767	
823	0	32815	32613	32629	32485	32647	32761	32757	32749	
824	0	32910	32639	32551	32679	32578	32767	32791	32631	
825	0	32868	32693	32526	32807	32687	32815	32749	32529	
826	0	32801	32679	32698	32903	32802	32801	32807	32571	
827	0	32732	32669	32634	32919	32786	32764	32771	32519	
828	0	32715	32567	32668	32719	32803	32767	32803	32599	
829	0	32797	32467	32573	32613	32743	32821	32831	32591	
830	0	32717	32431	32545	32749	32756	32739	32794	32647	
831	0	32836	32502	32555	32771	32821	32802	32809	32727	
832	0	32758	32519	32511	32805	32836	32783	32847	32684	
833	0	32769	32525	32599	32877	32683	32757	32789	32623	
834	0	32751	32561	32725	32735	32623	32751	32682	32647	
835	0	32748	32724	32775	32647	32751	32711	32817	32609	
836	0	32735	32756	32722	32626	32839	32757	32683	32655	
837	0	32756	32738	32582	32775	32839	32742	32796	32731	
838	0	32773	32711	32551	32844	32775	32725	32694	32751	
839	0	32839	32570	32510	32819	32631	32733	32775	32739	
840	0	32902	32612	32466	32879	32691	32834	32727	32722	
841	0	32846	32627	32513	32862	32805	32775	32771	32683	
842	0	32831	32660	32614	32745	32841	32807	32679	32631	
843	0	32825	32845	32677	32537	32655	32843	32799	32635	
844	0	32761	32761	32749	32709	32759	32850	32707	32687	
845	0	32878	32767	32837	32647	32775	32738	32823	32671	
846	0	32818	32813	32799	32669	32820	32719	32756	32718	
847	0	32742	32710	32783	32698	32673	32771	32819	32703	
848	0	32691	32634	32687	32735	32825	32815	32775	32687	
849	0	32684	32671	32631	32795	32775	32806	32775	32647	
850	0	32735	32701	32665	32700	32767	32767	32811	32685	
851	0	32795	32749	32683	32709	32804	32726	32789	32683	
852	0	32834	32676	32674	32675	32645	32703	32878	32655	
853	0	32773	32727	32911	32796	32647	32799	32839	32663	
854	0	32823	32742	32797	32818	32841	32763	32845	32705	
855	0	32843	32639	32739	32775	32737	32750	32747	32693	
856	0	32871	32749	32715	32903	32855	32730	32783	32663	
857	0	32765	32647	32879	32647	32797	32775	32767	32699	
858	0	32758	32621	32979	32615	32845	32742	32643	32767	
859	0	32769	32503	32855	32807	32773	32751	32842	32607	
860	0	32782	32597	32885	32761	32711	32797	32755	32605	
861	0	32759	32807	32960	32833	32641	32772	32826	32534	
862	0	32725	32751	32867	32843	32575	32767	32773	32543	
863	0	32735	32679	32955	32775	32710	32809	32708	32767	
864	0	32807	32687	32892	32633	32839	32715	32751	32739	
865	0	32743	32669	32807	32707	32775	32757	32671	32703	
866	0	32733	32647	32714	32642	32765	32759	32683	32740	
867	0	32764	32735	32671	32708	32834	32791	32691	32731	
868	0	32809	32717	32693	32727	32690	32731	32740	32755	
869	0	32839	32767	32725	32679	32834	32683	32647	32853	
870	0	32826	32763	32756	32796	32847	32727	32732	32846	
871	0	32868	32607	32699	32671	32788	32772	32623	32935	
872	0	32685	32647	32756	32740	32847	32787	32719	32983	
873	0	32729	32699	32857	32698	32871	32715	32819	32790	
874	0	32745	32674	33002	32787	32620	32671	32855	32687	
875	0	32765	32617	32895	32887	32628	32847	32762	32700	
876	0	32709	32633	32940	32949	32655	32747	32855	32829	
877	0	32697	32615	33011	32773	32623	32751	32828	32806	
878	0	32854	32655	32919	32679	32735	32819	32811	32721	
879	0	32812	32735	32923	32789	32839	32723	32804	32703	
880	0	32724	32731	32901	32767	32711	32775	32791	32631	
881	0	32784	32829	32803	32767	32807	32805	32763	32663	
882	0	32712	32795	32666	32685	32773	32829	32763	32721	
883	0	32875	32613	32623	32655	32811	32751	32759	32578	
884	0	32903	32607	32655	32635	32673	32815	32783	32466	
885	0	32807	32555	32730	32421	32719	32845	32899	32423	
886	0	32736	32483	32695	32405	32743	32945	32973	32514	
887	0	32745	32537	32570	32519	32761	32868	32863	32553	
888	0	32614	32551	32613	32563	32775	32719	32839	32591	
889	0	32606	32436	32662	32743	32681	32706	32807	32612	
890	0	32703	32420	32592	32701	32655	32739	32811	32623	
891	0	32751	32405	32627	32857	32707	32770	32775	32541	
892	0	32681	32659	32609	32943	32711	32745	32743	32566	
893	0	32743	32695	32692	32799	32683	32751	32823	32621	
894	0	32718	32785	32799	32647	32791	32701	32763	32731	
895	0	32778	32631	32775	32583	32791	32719	32647	32790	
896	0	32698	32571	32742	32573	32815	32758	32759	32733	
897	0	32745	32511	32685	32706	32733	32775	32733	32647	
898	0	32732	32509	32775	32735	32812	32719	32807	32695	
899	0	32897	32567	32775	32772	32765	32743	32732	32775	
900	0	32854	32519	32662	32718	32647	32759	32770	32708	
901	0	32870	32543	32581	32799	32694	32743	32715	32732	
902	0	32730	32543	32494	32815	32884	32815	32741	32755	
903	0	32772	32495	32487	32812	32767	32788	32747	32771	
904	0	32731	32543	32630	32939	32782	32722	32755	32767	
905	0	32687	32759	32717	32956	32743	32722	32737	32743	
906	0	32759	32583	32631	32839	32663	32791	32735	32658	
907	0	32801	32574	32491	32799	32851	32831	32775	32645	
908	0	32847	32615	32531	32807	32701	32796	32813	32577	
909	0	32828	32813	32694	32683	32660	32737	32707	32687	
910	0	32783	32767	32834	32822	32723	32807	32773	32719	
911	0	32798	32643	32825	32775	32739	32692	32711	32757	
912	0	32762	32623	32804	32807	32791	32685	32763	32690	
913	0	32771	32594	33053	32839	32847	32707	32773	32693	
914	0	32716	32679	33012	32897	32775	32745	32771	32734	
915	0	32683	32631	32927	32870	32668	32773	32819	32679	
916	0	32665	32621	32828	32806	32847	32727	32807	32677	
917	0	32687	32575	32763	32770	32735	32717	32846	32647	
918	0	32745	32647	32783	32625	32774	32783	32807	32699	
919	0	32745	32595	32613	32631	32811	32775	32781	32659	
920	0	32793	32662	32564	32559	32706	32775	32771	32710	
921	0	32887	32683	32563	32567	32815	32713	32743	32687	
922	0	32838	32685	32575	32743	32807	32814	32724	32711	
923	0	32854	32767	32589	32655	32803	32843	32775	32679	
924	0	32806	32735	32484	32716	32802	32740	32787	32729	
925	0	32836	32691	32508	32807	32719	32747	32781	32739	
926	0	32804	32681	32515	32685	32866	32753	32747	32729	
927	0	32720	32675	32551	32749	32749	32754	32821	32631	
928	0	32758	32643	32695	32813	32723	32743	32717	32631	
929	0	32773	32703	32679	32831	32806	32743	32811	32647	
930	0	32791	32709	32647	32857	32831	32695	32717	32709	
931	0	32729	32623	32726	32755	32677	32740	32749	32775	
932	0	32809	32685	32765	32713	32799	32783	32679	32726	
933	0	32787	32621	32743	32607	32903	32759	32743	32655	
934	0	32791	32671	32647	32725	32813	32687	32715	32647	
935	0	32801	32738	32683	32775	32722	32765	32799	32759	
936	0	32824	32631	32718	32867	32775	32855	32867	32771	
937	0	32754	32578	32767	32865	32807	32797	32847	32698	
938	0	32703	32567	32773	32762	32790	32708	32775	32735	
939	0	32734	32679	32887	32647	32847	32807	32719	32615	
940	0	32740	32805	32735	32783	32598	32763	32751	32598	
941	0	32844	32834	32611	32839	32587	32707	32717	32601	
942	0	32881	32711	32711	32826	32662	32831	32795	32732	
943	0	32748	32671	32890	32826	32786	32729	32827	32733	
944	0	32676	32647	32871	32719	32725	32675	32834	32807	
945	0	32706	32711	32739	32605	32823	32719	32658	32735	
946	0	32751	32685	32693	32391	32851	32869	32695	32735	
947	0	32762	32668	32535	32407	32807	32788	32823	32665	
948	0	32717	32615	32425	32640	32703	32782	32847	32663	
949	0	32716	32583	32515	32722	32677	32839	32865	32643	
950	0	32710	32735	32543	32867	32749	32767	32725	32647	
951	0	32713	32659	32567	32839	32796	32799	32815	32629	
952	0	32748	32585	32623	32647	32759	32775	32743	32570	
953	0	32814	32575	32581	32583	32661	32806	32695	32563	
954	0	32818	32745	32475	32730	32787	32775	32823	32711	
955	0	32815	32765	32654	32715	32735	32803	32733	32727	
956	0	32810	32735	32942	32858	32711	32727	32771	32662	
957	0	32686	32607	33101	32791	32806	32685	32775	32684	
958	0	32695	32589	33039	32767	32697	32751	32855	32663	
959	0	32672	32643	33084	32677	32701	32726	32839	32652	
960	0	32627	32639	33151	32567	32791	32655	32749	32647	
961	0	32706	32667	33076	32527	32701	32715	32797	32647	
962	0	32775	32775	32931	32751	32770	32833	32740	32773	
963	0	32783	32796	32735	32707	32801	32847	32863	32699	
964	0	32790	32647	32590	32773	32735	32742	32757	32759	
965	0	32812	32599	32567	32836	32689	32809	32743	32645	
966	0	32736	32638	32621	32795	32807	32695	32759	32671	
967	0	32738	32607	32638	32687	32868	32771	32700	32715	
968	0	32731	32695	32644	32642	32663	32710	32763	32820	
969	0	32768	32741	32709	32679	32821	32756	32717	32741	
970	0	32677	32669	32802	32829	32766	32823	32766	32775	
971	0	32684	32669	32813	32769	32655	32828	32734	32735	
972	0	32735	32733	32615	32770	32731	32711	32843	32725	
973	0	32748	32695	32626	32769	32805	32799	32799	32695	
974	0	32828	32619	32727	32617	32862	32806	32763	32678	
975	0	32760	32601	32691	32583	32695	32749	32791	32695	
976	0	32710	32439	32773	32791	32756	32706	32681	32692	
977	0	32716	32419	32588	32771	32835	32775	32807	32647	
978	0	32805	32477	32633	32841	32767	32817	32717	32628	
979	0	32818	32509	32667	32931	32663	32759	32731	32667	
980	0	32791	32507	32598	32791	32739	32715	32647	32619	
981	0	32829	32687	32587	32587	32811	32804	32799	32585	
982	0	32782	32831	32591	32747	32845	32725	32743	32667	
983	0	32782	32771	32599	32811	32807	32727	32663	32754	
984	0	32718	32725	32747	32884	32719	32707	32815	32743	
985	0	32809	32695	32743	32874	32786	32751	32791	32655	
986	0	32806	32755	32739	32734	32772	32727	32866	32711	
987	0	32748	32559	32791	32631	32676	32723	32644	32722	
988	0	32742	32679	32785	32559	32737	32775	32824	32643	
989	0	32725	32583	32646	32727	32851	32830	32759	32647	
990	0	32743	32647	32692	32830	32822	32785	32783	32687	
991	0	32802	32631	32587	32769	32690	32785	32751	32711	
992	0	32831	32665	32637	32527	32730	32850	32729	32677	
993	0	32811	32679	32633	32698	32806	32743	32844	32534	
994	0	32775	32695	32647	32775	32846	32771	32807	32538	
995	0	32846	32703	32671	32660	32847	32789	32677	32775	
996	0	32884	32619	32791	32756	32839	32745	32743	32739	
997	0	32806	32734	32746	32847	32807	32781	32717	32735	
998	0	32783	32715	32591	32884	32655	32725	32885	32663	
999	0	32701	32693	32507	32835	32671	32711	32839	32655	
1000	0	32706	32731	32647	32675	32887	32707	32829	32727	
1001	0	32744	32549	32679	32795	32799	32775	32775	32701	
1002	0	32699	32491	32691	32891	32806	32733	32743	32559	
1003	0	32743	32487	32591	32791	32703	32775	32791	32519	
1004	0	32728	32553	32614	32577	32751	32812	32795	32619	
1005	0	32757	32671	32607	32767	32810	32705	32799	32635	
1006	0	32837	32739	32686	32847	32771	32771	32765	32595	
1007	0	32877	32807	32727	32915	32671	32757	32703	32604	
1008	0	32775	32708	32771	32895	32775	32799	32845	32708	
1009	0	32751	32638	32845	32663	32786	32767	32835	32742	
1010	0	32745	32615	32847	32567	32825	32836	32707	32679	
1011	0	32748	32692	32804	32639	32839	32758	32819	32679	
1012	0	32788	32663	32791	32647	32691	32766	32799	32666	
1013	0	32733	32527	32726	32589	32704	32844	32775	32586	
1014	0	32713	32471	32574	32391	32828	32699	32820	32557	
1015	0	32676	32535	32581	32443	32787	32803	32737	32519	
1016	0	32707	32749	32582	32734	32882	32823	32767	32687	
1017	0	32679	32689	32698	32879	32866	32717	32711	32819	
1018	0	32708	32607	32687	32927	32786	32771	32733	32647	
1019	0	32801	32636	32679	32770	32677	32751	32743	32668	
1020	0	32815	32685	32701	32697	32805	32719	32719	32675	
1021	0	32900	32727	32807	32775	32807	32767	32788	32666	
1022	0	32898	32711	32955	32860	32751	32797	32735	32711	
1023	0	32741	32727	33039	32815	32749	32719	32831	32719	
1024	0	32775	32671	32879	32775	32741	32692	32839	32694	
1025	0	32734	32662	32639	32761	32727	32839	32733	32735	
1026	0	32695	32575	32735	32519	32837	32741	32823	32694	
1027	0	32699	32555	32643	32492	32631	32815	32667	32687	
1028	0	32716	32468	32591	32639	32602	32882	32793	32533	
1029	0	32726	32567	32575	32749	32647	32775	32748	32541	
1030	0	32707	32773	32567	32787	32711	32807	32767	32598	
1031	0	32757	32670	32519	32578	32701	32821	32791	32751	
1032	0	32844	32579	32559	32793	32827	32695	32786	32669	
1033	0	32813	32647	32515	32775	32903	32738	32775	32702	
1034	0	32759	32700	32555	32883	32827	32711	32798	32749	
1035	0	32738	32591	32605	32711	32795	32775	32719	32773	
1036	0	32748	32587	32607	32719	32717	32727	32807	32717	
1037	0	32808	32529	32675	32740	32827	32837	32733	32647	
1038	0	32804	32596	32722	32773	32825	32693	32723	32581	
1039	0	32727	32775	32827	32740	32825	32775	32807	32511	
1040	0	32687	32665	32725	32751	32749	32863	32757	32729	
1041	0	32689	32573	32583	32583	32767	32707	32855	32727	
1042	0	32671	32685	32658	32739	32631	32757	32711	32719	
1043	0	32715	32764	32674	32691	32843	32805	32730	32742	
1044	0	32859	32749	32565	32751	32791	32801	32703	32707	
1045	0	32863	32695	32735	32755	32773	32855	32833	32693	
1046	0	32722	32695	32765	32830	32832	32727	32700	32687	
1047	0	32736	32695	32726	32829	32767	32743	32787	32732	
1048	0	32749	32699	32715	32871	32647	32775	32695	32767	
1049	0	32765	32660	32775	32797	32839	32755	32697	32711	
1050	0	32727	32589	32775	32641	32830	32710	32745	32679	
1051	0	32743	32483	32786	32775	32850	32703	32765	32759	
1052	0	32724	32859	32743	32799	32805	32756	32773	32703	
1053	0	32749	32763	32743	32845	32703	32765	32773	32753	
1054	0	32850	32685	32617	32774	32811	32743	32611	32775	
1055	0	32780	32683	32559	32661	32879	32756	32807	32639	
1056	0	32754	32759	32645	32629	32804	32827	32818	32551	
1057	0	32780	32647	32615	32711	32834	32756	32887	32527	
1058	0	32780	32591	32598	32791	32619	32703	32931	32519	
1059	0	32717	32532	32589	32847	32717	32740	32877	32519	
1060	0	32709	32601	32697	32791	32759	32815	32747	32567	
1061	0	32745	32783	32669	32668	32733	32711	32775	32642	
1062	0	32763	32733	32627	32700	32799	32703	32775	32638	
1063	0	32762	32679	32647	32773	32827	32809	32679	32775	
1064	0	32730	32759	32679	32809	32639	32791	32789	32671	
1065	0	32788	32668	32711	32754	32791	32699	32759	32605	
1066	0	32756	32775	32759	32767	32743	32733	32743	32559	
1067	0	32807	32749	32716	32834	32758	32775	32729	32565	
1068	0	32781	32671	32767	32527	32772	32839	32813	32646	
1069	0	32710	32605	32718	32499	32641	32822	32837	32655	
1070	0	32757	32627	32731	32571	32855	32807	32754	32615	
1071	0	32733	32709	32721	32671	32775	32758	32836	32591	
1072	0	32759	32799	32700	32823	32836	32725	32663	32519	
1073	0	32773	32717	32697	32806	32685	32743	32803	32606	
1074	0	32769	32692	32709	32819	32775	32791	32631	32545	
1075	0	32724	32671	32810	32844	32791	32743	32791	32641	
1076	0	32754	32603	32615	32932	32860	32733	32706	32599	
1077	0	32797	32677	32511	32869	32749	32759	32859	32607	
1078	0	32780	32647	32532	32679	32847	32755	32783	32607	
1079	0	32705	32635	32679	32563	32795	32775	32703	32698	
1080	0	32717	32637	32681	32453	32851	32783	32811	32707	
1081	0	32749	32679	32642	32658	32758	32771	32775	32619	
1082	0	32785	32668	32754	32692	32641	32733	32815	32595	
1083	0	32854	32628	32895	32851	32610	32859	32799	32530	
1084	0	32796	32594	32903	32702	32815	32763	32869	32515	
1085	0	32732	32503	32945	32663	32814	32691	32855	32611	
1086	0	32754	32567	32788	32853	32775	32763	32806	32731	
1087	0	32810	32734	32690	32855	32823	32714	32775	32775	
1088	0	32765	32647	32661	32980	32771	32773	32655	32757	
1089	0	32706	32687	32695	32916	32805	32709	32754	32775	
1090	0	32749	32607	32791	32734	32815	32799	32755	32715	
1091	0	32718	32577	32711	32639	32695	32751	32790	32727	
1092	0	32708	32711	32775	32719	32679	32775	32759	32623	
1093	0	32718	32684	32711	32721	32775	32815	32820	32687	
1094	0	32696	32631	32773	32770	32847	32833	32773	32628	
1095	0	32741	32642	32685	32631	32733	32771	32895	32677	
1096	0	32826	32711	32684	32557	32767	32757	32762	32642	
1097	0	32815	32723	32647	32278	32799	32837	32791	32669	
1098	0	32831	32548	32727	32375	32812	32847	32743	32659	
1099	0	32837	32461	32669	32641	32803	32753	32762	32557	
1100	0	32789	32725	32892	32804	32801	32759	32799	32583	
1101	0	32659	32708	32717	32911	32685	32783	32615	32679	
1102	0	32716	32722	32679	32775	32751	32717	32764	32815	
1103	0	32804	32743	32681	32743	32899	32759	32719	32747	
1104	0	32748	32749	32868	32869	32743	32792	32703	32695	
1105	0	32853	32754	32766	32829	32815	32759	32831	32693	
1106	0	32812	32639	32731	32967	32730	32757	32707	32647	
1107	0	32828	32526	32587	32900	32877	32775	32813	32725	
1108	0	32700	32538	32615	32700	32855	32775	32717	32763	
1109	0	32662	32519	32559	32807	32869	32694	32876	32679	
1110	0	32739	32727	32598	32762	32693	32722	32753	32685	
1111	0	32814	32762	32719	32811	32685	32749	32731	32617	
1112	0	32764	32722	32769	32847	32759	32793	32820	32543	
1113	0	32743	32735	32647	32903	32796	32767	32738	32565	
1114	0	32796	32711	32674	32895	32772	32794	32806	32516	
1115	0	32773	32611	32671	32706	32769	32806	32775	32495	
1116	0	32794	32621	32739	32605	32825	32867	32775	32518	
1117	0	32695	32621	32663	32548	32674	32747	32771	32589	
1118	0	32647	32623	32795	32503	32726	32743	32791	32599	
1119	0	32689	32607	32707	32679	32783	32790	32775	32686	
1120	0	32699	32547	32679	32727	32825	32861	32783	32727	
1121	0	32786	32621	32647	32862	32766	32747	32687	32810	
1122	0	32890	32553	32577	32695	32743	32765	32836	32741	
1123	0	32919	32595	32532	32623	32699	32751	32783	32735	
1124	0	32856	32775	32663	32759	32783	32741	32781	32671	
1125	0	32832	32773	32711	32827	32855	32746	32815	32717	
1126	0	32799	32732	32851	32807	32699	32773	32735	32645	
1127	0	32719	32725	32855	32855	32641	32821	32765	32653	
1128	0	32719	32687	32788	32917	32810	32717	32759	32751	
1129	0	32735	32703	32887	32869	32813	32741	32823	32722	
1130	0	32729	32681	32935	32685	32845	32775	32749	32699	
1131	0	32782	32685	32860	32567	32797	32807	32741	32671	
1132	0	32751	32635	32639	32738	32667	32851	32725	32621	
1133	0	32773	32595	32586	32763	32717	32775	32775	32661	
1134	0	32741	32695	32553	32775	32853	32739	32791	32741	
1135	0	32698	32690	32611	32735	32783	32765	32749	32742	
1136	0	32796	32710	32771	32939	32843	32825	32738	32675	
1137	0	32868	32757	32841	32667	32871	32704	32763	32711	
1138	0	32802	32681	32681	32671	32671	32719	32767	32703	
1139	0	32796	32599	32767	32754	32711	32790	32722	32676	
1140	0	32813	32603	32721	32719	32771	32829	32771	32687	
1141	0	32775	32579	32812	32731	32799	32748	32711	32675	
1142	0	32825	32609	32735	32740	32772	32695	32807	32743	
1143	0	32792	32725	32681	32527	32773	32820	32719	32677	
1144	0	32751	32727	32715	32737	32739	32711	32717	32538	
1145	0	32711	32755	32767	32701	32815	32767	32755	32524	
1146	0	32713	32639	32775	32751	32741	32826	32767	32599	
1147	0	32846	32701	32787	32791	32797	32717	32703	32687	
1148	0	32885	32694	32843	32474	32794	32755	32715	32703	
1149	0	32766	32449	32865	32693	32621	32767	32797	32725	
1150	0	32759	32449	32838	32775	32669	32757	32791	32719	
1151	0	32799	32719	32845	32787	32633	32783	32821	32671	
1152	0	32759	32706	32871	32676	32683	32775	32783	32659	
1153	0	32741	32611	32759	32711	32631	32795	32797	32679	
1154	0	32642	32596	32707	32613	32698	32791	32711	32531	
1155	0	32751	32569	32687	32775	32813	32759	32827	32604	
1156	0	32823	32509	32675	32788	32885	32759	32773	32635	
1157	0	32814	32623	32638	32671	32903	32763	32839	32695	
1158	0	32684	32661	32707	32811	32855	32790	32751	32703	
1159	0	32671	32717	32742	32823	32703	32775	32679	32692	
1160	0	32692	32623	32631	32815	32823	32759	32706	32711	
1161	0	32712	32679	32629	32837	32793	32713	32772	32727	
1162	0	32736	32655	32551	32826	32661	32724	32735	32727	
1163	0	32748	32707	32559	32844	32751	32789	32775	32703	
1164	0	32790	32799	32681	32758	32712	32855	32695	32729	
1165	0	32775	32801	32687	32765	32799	32771	32755	32514	
1166	0	32803	32823	32736	32775	32619	32739	32794	32465	
1167	0	32813	32787	32606	32759	32693	32751	32775	32671	
1168	0	32679	32679	32642	32695	32799	32725	32771	32701	
1169	0	32773	32655	32663	32720	32818	32818	32775	32611	
1170	0	32865	32822	32719	32637	32735	32806	32806	32556	
1171	0	32838	32789	32748	32698	32791	32733	32823	32575	
1172	0	32751	32611	32803	32755	32742	32733	32863	32503	
1173	0	32713	32539	32797	32583	32671	32790	32844	32563	
1174	0	32716	32503	32853	32527	32671	32815	32769	32534	
1175	0	32698	32622	32901	32460	32695	32783	32767	32514	
1176	0	32796	32645	32835	32535	32844	32811	32751	32573	
1177	0	32780	32570	32850	32647	32887	32821	32723	32639	
1178	0	32781	32543	32662	32738	32743	32690	32727	32641	
1179	0	32771	32519	32685	32855	32811	32725	32717	32709	
1180	0	32805	32591	32775	32818	32823	32775	32743	32647	
1181	0	32734	32591	32582	32775	32655	32741	32863	32581	
1182	0	32716	32535	32558	32748	32767	32775	32834	32588	
1183	0	32710	32555	32607	32643	32807	32733	32623	32583	
1184	0	32769	32572	32729	32643	32828	32699	32740	32633	
1185	0	32783	32601	32714	32825	32802	32767	32735	32570	
1186	0	32782	32799	32732	32885	32755	32787	32810	32631	
1187	0	32741	32762	32787	32914	32813	32711	32726	32711	
1188	0	32759	32843	32727	32791	32715	32807	32795	32707	
1189	0	32767	32786	32695	32679	32822	32803	32725	32695	
1190	0	32687	32773	32743	32666	32775	32813	32815	32641	
1191	0	32748	32757	32731	32775	32773	32738	32686	32711	
1192	0	32753	32771	32667	32679	32775	32723	32719	32701	
1193	0	32806	32755	32647	32611	32661	32764	32719	32579	
1194	0	32697	32655	32756	32665	32809	32788	32804	32549	
1195	0	32747	32767	32701	32711	32733	32847	32836	32527	
1196	0	32735	32607	32783	32743	32849	32791	32695	32535	
1197	0	32722	32571	32635	32715	32655	32749	32759	32755	
1198	0	32775	32532	32635	32796	32775	32733	32739	32733	
1199	0	32764	32637	32647	32878	32765	32823	32775	32666	
1200	0	32769	32591	32772	32886	32818	32733	32697	32706	
1201	0	32716	32575	32727	32935	32687	32743	32695	32775	
1202	0	32745	32604	32647	32835	32679	32687	32761	32743	
1203	0	32821	32783	32623	32694	32759	32773	32791	32694	
1204	0	32807	32703	32708	32679	32775	32775	32839	32775	
1205	0	32788	32790	32662	32647	32791	32791	32751	32741	
1206	0	32767	32604	32510	32635	32647	32790	32786	32679	
1207	0	32789	32580	32511	32639	32798	32799	32727	32646	
1208	0	32750	32599	32475	32610	32690	32703	32775	32711	
1209	0	32793	32678	32509	32525	32911	32735	32835	32727	
1210	0	32733	32783	32647	32485	32773	32751	32735	32711	
1211	0	32826	32827	32739	32455	32714	32797	32748	32655	
1212	0	32882	32775	32900	32591	32711	32807	32690	32629	
1213	0	32860	32635	32927	32595	32737	32749	32791	32726	
1214	0	32745	32569	33147	32636	32811	32716	32837	32751	
1215	0	32671	32455	32927	32767	32826	32719	32828	32812	
1216	0	32725	32535	32801	32858	32677	32756	32859	32743	
1217	0	32742	32559	32751	32854	32831	32825	32773	32692	
1218	0	32764	32562	32613	32820	32743	32703	32807	32564	
1219	0	32774	32614	32599	32839	32763	32747	32759	32501	
1220	0	32770	32663	32647	32863	32647	32787	32739	32627	
1221	0	32729	32555	32699	32694	32615	32748	32717	32599	
1222	0	32713	32637	32711	32663	32827	32705	32835	32699	
1223	0	32702	32647	32705	32739	32805	32765	32775	32719	
1224	0	32740	32638	32694	32627	32807	32791	32713	32717	
1225	0	32912	32708	32647	32738	32811	32853	32705	32749	
1226	0	32876	32879	32743	32735	32711	32711	32743	32620	
1227	0	32782	32785	32731	32715	32715	32749	32690	32581	
1228	0	32796	32611	32620	32692	32740	32749	32829	32535	
1229	0	32660	32679	32687	32749	32775	32787	32959	32597	
1230	0	32676	32613	32711	32830	32835	32738	32783	32589	
1231	0	32694	32621	32727	32727	32759	32743	32803	32559	
1232	0	32765	32639	32727	32701	32839	32771	32743	32646	
1233	0	32714	32702	32767	32635	32763	32868	32791	32540	
1234	0	32775	32667	32719	32811	32607	32795	32703	32531	
1235	0	32769	32559	32723	32858	32567	32818	32885	32539	
1236	0	32717	32582	32759	32863	32775	32919	32847	32600	
1237	0	32640	32677	32837	32790	32823	32735	32821	32543	
1238	0	32643	32621	32759	32519	32773	32739	32775	32601	
1239	0	32647	32663	32662	32493	32767	32807	32825	32761	
1240	0	32703	32700	32543	32645	32639	32794	32746	32767	
1241	0	32748	32715	32487	32887	32711	32739	32783	32762	
1242	0	32717	32663	32503	32823	32839	32749	32717	32801	
1243	0	32730	32642	32539	32863	32858	32787	32811	32692	
1244	0	32750	32623	32706	32727	32687	32837	32739	32675	
1245	0	32722	32631	32835	32503	32769	32749	32815	32724	
1246	0	32765	32690	32834	32553	32807	32726	32714	32747	
1247	0	32759	32699	32917	32775	32659	32739	32813	32758	
1248	0	32814	32775	32863	32793	32695	32791	32813	32684	
1249	0	32848	32705	32675	32839	32827	32738	32719	32699	
1250	0	32780	32687	32695	32823	32797	32683	32741	32735	
1251	0	32719	32559	32495	32839	32870	32706	32741	32635	
1252	0	32775	32583	32447	32815	32804	32761	32685	32639	
1253	0	32818	32615	32391	32863	32804	32775	32762	32595	
1254	0	32779	32803	32391	32771	32791	32693	32759	32551	
1255	0	32748	32701	32437	32534	32687	32741	32865	32587	
1256	0	32804	32759	32402	32527	32711	32769	32795	32700	
1257	0	32822	32663	32526	32715	32623	32749	32727	32716	
1258	0	32783	32615	32737	32727	32783	32814	32819	32681	
1259	0	32679	32499	32996	32663	32775	32835	32819	32671	
1260	0	32788	32627	33003	32747	32734	32733	32807	32733	
1261	0	32809	32517	32945	32789	32775	32783	32789	32677	
1262	0	32742	32527	32858	32927	32663	32733	32645	32655	
1263	0	32661	32519	32783	32879	32716	32775	32775	32679	
1264	0	32717	32471	32607	32903	32739	32775	32735	32711	
1265	0	32751	32537	32607	32949	32823	32747	32738	32734	
1266	0	32710	32674	32549	32871	32647	32790	32755	32753	
1267	0	32765	32679	32514	32935	32726	32709	32762	32755	
1268	0	32786	32703	32511	32895	32847	32789	32763	32799	
1269	0	32735	32690	32485	32740	32753	32775	32851	32761	
1270	0	32804	32743	32466	32591	32810	32751	32853	32703	
1271	0	32789	32663	32487	32679	32847	32723	32767	32623	
1272	0	32687	32479	32507	32726	32615	32830	32775	32549	
1273	0	32655	32487	32503	32647	32591	32818	32862	32621	
1274	0	32690	32543	32559	32691	32775	32775	32735	32671	
1275	0	32757	32519	32667	32713	32758	32805	32775	32663	
1276	0	32834	32551	32740	32834	32805	32831	32719	32715	
1277	0	32815	32589	32757	32839	32799	32825	32727	32716	
1278	0	32876	32503	32743	32863	32679	32767	32723	32751	
1279	0	32867	32631	32789	32797	32854	32707	32751	32746	
1280	0	32848	32631	32725	32795	32789	32709	32711	32647	
1281	0	32720	32815	32807	32660	32743	32751	32775	32843	
1282	0	32704	32678	32839	32629	32855	32695	32715	32749	
1283	0	32698	32599	32893	32597	32671	32647	32775	32771	
1284	0	32780	32701	32948	32807	32727	32716	32771	32857	
1285	0	32810	32709	32883	32789	32807	32751	32790	32887	
1286	0	32827	32711	32845	32759	32869	32775	32767	32743	
1287	0	32802	32710	32731	32634	32667	32807	32684	32679	
1288	0	32749	32638	32683	32775	32739	32727	32793	32673	
1289	0	32686	32681	32647	32806	32787	32774	32859	32647	
1290	0	32716	32674	32575	32836	32769	32775	32815	32711	
1291	0	32719	32679	32500	32831	32853	32825	32683	32711	
1292	0	32719	32663	32736	32845	32722	32662	32823	32642	
1293	0	32754	32685	32742	32739	32811	32687	32715	32631	
1294	0	32722	32642	32847	32805	32739	32757	32876	32647	
1295	0	32813	32647	32765	32647	32743	32839	32831	32647	
1296	0	32783	32628	32803	32625	32642	32879	32836	32647	
1297	0	32806	32705	32979	32647	32865	32845	32839	32640	
1298	0	32753	32739	33135	32709	32707	32711	32763	32727	
1299	0	32753	32695	32979	32751	32829	32723	32858	32695	
1300	0	32700	32535	32877	32799	32845	32847	32790	32711	
1301	0	32735	32551	32743	32604	32807	32775	32799	32703	
1302	0	32854	32631	32710	32615	32751	32695	32710	32741	
1303	0	32932	32740	32679	32803	32743	32762	32799	32801	
1304	0	32871	32723	32512	32733	32775	32807	32698	32775	
1305	0	32717	32641	32559	32719	32836	32803	32805	32721	
1306	0	32805	32643	32485	32811	32722	32748	32690	32635	
1307	0	32903	32745	32609	32967	32791	32706	32807	32775	
1308	0	32795	32613	32743	33087	32766	32679	32715	32693	
1309	0	32768	32567	32703	32902	32587	32747	32839	32675	
1310	0	32658	32671	32711	32613	32590	32767	32735	32611	
1311	0	32719	32679	32647	32751	32595	32759	32791	32679	
1312	0	32647	32571	32693	32797	32676	32673	32719	32634	
1313	0	32699	32673	32773	32743	32823	32694	32807	32683	
1314	0	32721	32655	32743	32687	32826	32751	32727	32629	
1315	0	32684	32591	32740	32514	32867	32743	32759	32609	
1316	0	32816	32671	32773	32519	32803	32815	32821	32660	
1317	0	32813	32599	32903	32551	32747	32806	32843	32655	
1318	0	32794	32614	32935	32727	32787	32815	32727	32647	
1319	0	32790	32530	32751	32685	32775	32780	32794	32690	
1320	0	32861	32529	32763	32647	32647	32758	32791	32646	
1321	0	32829	32483	32866	32775	32799	32770	32817	32663	
1322	0	32767	32460	32967	32811	32835	32667	32725	32636	
1323	0	32738	32391	32947	32758	32711	32742	32735	32658	
1324	0	32700	32479	32815	32805	32846	32831	32710	32723	
1325	0	32734	32671	32759	32818	32729	32745	32591	32791	
1326	0	32771	32685	32767	32763	32719	32746	32795	32759	
1327	0	32770	32557	32607	32647	32763	32647	32829	32757	
1328	0	32747	32535	32599	32751	32831	32753	32877	32719	
1329	0	32730	32543	32589	32849	32807	32807	32805	32711	
1330	0	32839	32535	32647	32850	32747	32763	32797	32775	
1331	0	32796	32525	32677	32873	32774	32757	32730	32767	
1332	0	32690	32731	32639	32607	32775	32827	32807	32589	
1333	0	32743	32727	32631	32578	32822	32863	32766	32567	
1334	0	32713	32764	32577	32796	32850	32730	32751	32637	
1335	0	32799	32783	32609	32733	32701	32748	32738	32563	
1336	0	32748	32647	32574	32749	32647	32852	32765	32631	
1337	0	32721	32611	32674	32875	32743	32743	32739	32747	
1338	0	32719	32643	32687	32827	32822	32701	32714	32666	
1339	0	32780	32677	32757	32668	32751	32758	32775	32739	
1340	0	32814	32690	32727	32799	32751	32707	32663	32719	
1341	0	32810	32609	32775	32775	32765	32749	32759	32725	
1342	0	32846	32645	32893	32890	32855	32775	32630	32725	
1343	0	32790	32551	32870	32871	32837	32726	32771	32732	
1344	0	32739	32597	32870	32659	32715	32799	32821	32663	
1345	0	32706	32764	32793	32436	32756	32791	32797	32531	
1346	0	32799	32717	32735	32663	32703	32799	32711	32547	
1347	0	32791	32675	32667	32818	32745	32751	32775	32566	
1348	0	32811	32727	32647	32887	32774	32726	32758	32525	
1349	0	32707	32698	32751	32969	32719	32762	32730	32564	
1350	0	32674	32621	32751	32783	32731	32731	32683	32607	
1351	0	32663	32615	32806	32679	32698	32759	32803	32756	
1352	0	32718	32647	32647	32647	32847	32743	32738	32732	
1353	0	32735	32715	32617	32719	32799	32825	32823	32636	
1354	0	32756	32749	32647	32691	32669	32861	32723	32719	
1355	0	32741	32641	32669	32663	32621	32716	32765	32706	
1356	0	32711	32582	32629	32751	32701	32821	32733	32647	
1357	0	32789	32735	32583	32661	32799	32867	32775	32771	
1358	0	32710	32705	32569	32671	32859	32791	32783	32743	
1359	0	32743	32722	32642	32717	32794	32790	32775	32757	
1360	0	32759	32663	32671	32709	32763	32719	32791	32741	
1361	0	32743	32717	32751	32931	32797	32751	32707	32733	
1362	0	32709	32743	32733	32833	32727	32719	32805	32679	
1363	0	32671	32756	32868	32763	32827	32733	32797	32565	
1364	0	32783	32615	32892	32766	32741	32742	32797	32620	
1365	0	32842	32839	32760	32837	32683	32783	32799	32605	
1366	0	32854	32795	32773	32799	32759	32767	32767	32507	
1367	0	32768	32775	32638	32743	32827	32812	32838	32567	
1368	0	32740	32725	32647	32611	32695	32854	32767	32535	
1369	0	32761	32711	32681	32459	32763	32799	32740	32565	
1370	0	32807	32639	32687	32556	32835	32748	32773	32655	
1371	0	32785	32583	32775	32628	32859	32713	32775	32702	
1372	0	32839	32667	32799	32612	32727	32717	32815	32703	
1373	0	32799	32594	32717	32647	32871	32790	32747	32668	
1374	0	32800	32621	32626	32676	32827	32771	32797	32543	
1375	0	32748	32675	32711	32858	32787	32796	32764	32572	
1376	0	32658	32775	32818	32671	32660	32775	32815	32567	
1377	0	32694	32836	32825	32551	32666	32775	32859	32502	
1378	0	32794	32749	32686	32519	32830	32708	32795	32543	
1379	0	32887	32563	32619	32835	32821	32742	32844	32644	
1380	0	32863	32659	32571	32879	32773	32791	32727	32806	
1381	0	32790	32766	32644	32963	32734	32715	32742	32775	
1382	0	32857	32722	32518	32948	32809	32742	32695	32658	
1383	0	32773	32719	32495	32843	32719	32775	32886	32631	
1384	0	32639	32597	32479	32749	32599	32725	32567	32797	
1385	0	32581	32383	32579	32741	32679	32732	32775	32769	
1386	0	32670	32527	32783	32852	32711	32721	32799	32671	
1387	0	32804	32745	32877	32847	32895	32756	32847	32671	
1388	0	32772	32837	32755	32806	32711	32787	32725	32740	
1389	0	32746	32759	32635	32759	32852	32831	32660	32705	
1390	0	32735	32677	32535	32903	32827	32723	32793	32719	
1391	0	32633	32549	32472	32886	32711	32699	32673	32671	
1392	0	32729	32583	32391	32663	32775	32850	32787	32591	
1393	0	32711	32628	32388	32599	32756	32845	32686	32703	
1394	0	32793	32703	32461	32699	32893	32812	32647	32718	
1395	0	32844	32703	32415	32751	32837	32807	32769	32695	
1396	0	32772	32595	32559	32628	32727	32723	32791	32743	
1397	0	32691	32569	32671	32607	32567	32828	32767	32755	
1398	0	32756	32579	32813	32671	32783	32757	32725	32775	
1399	0	32783	32675	32943	32807	32797	32719	32811	32767	
1400	0	32703	32711	32783	32754	32741	32743	32936	32629	
1401	0	32815	32739	32575	32813	32708	32717	32884	32717	
1402	0	32794	32599	32549	32854	32783	32751	32775	32695	
1403	0	32786	32509	32687	32761	32829	32839	32743	32675	
1404	0	32775	32621	32727	32647	32748	32747	32775	32740	
1405	0	32731	32763	32671	32826	32764	32691	32793	32717	
1406	0	32703	32671	32605	32865	32827	32756	32775	32763	
1407	0	32647	32639	32677	32938	32751	32783	32755	32691	
1408	0	32671	32583	32691	32925	32663	32719	32710	32557	
1409	0	32860	32675	32499	32695	32647	32724	32723	32535	
1410	0	32785	32797	32612	32662	32783	32853	32721	32519	
1411	0	32725	32645	32545	32807	32758	32843	32773	32530	
1412	0	32773	32533	32519	32683	32767	32719	32738	32571	
1413	0	32756	32583	32541	32733	32823	32711	32783	32629	
1414	0	32751	32769	32583	32841	32837	32812	32747	32658	
1415	0	32790	32647	32514	32598	32775	32803	32819	32675	
1416	0	32865	32753	32559	32605	32772	32811	32683	32710	
1417	0	32796	32677	32717	32751	32790	32799	32826	32703	
1418	0	32810	32667	32771	32775	32839	32646	32733	32731	
1419	0	32742	32455	32607	32811	32775	32724	32743	32687	
1420	0	32685	32514	32757	32730	32879	32838	32751	32711	
1421	0	32722	32654	32695	32543	32791	32791	32799	32631	
1422	0	32826	32775	32597	32559	32679	32711	32765	32690	
1423	0	32854	32531	32559	32551	32789	32703	32774	32755	
1424	0	32836	32543	32606	32572	32810	32727	32731	32698	
1425	0	32677	32493	32735	32611	32743	32687	32819	32703	
1426	0	32748	32540	32725	32703	32865	32794	32811	32681	
1427	0	32770	32527	32642	32705	32865	32775	32798	32698	
1428	0	32725	32495	32647	32756	32701	32775	32801	32663	
1429	0	32726	32808	32723	32853	32679	32739	32765	32647	
1430	0	32767	32703	32642	32807	32735	32782	32748	32647	
1431	0	32784	32564	32590	32637	32799	32819	32703	32702	
1432	0	32799	32634	32611	32788	32847	32733	32802	32694	
1433	0	32759	32613	32578	32807	32791	32759	32773	32706	
1434	0	32725	32695	32518	32845	32701	32759	32871	32668	
1435	0	32743	32663	32539	32897	32731	32771	32815	32711	
1436	0	32847	32722	32628	32983	32783	32691	32767	32599	
1437	0	32841	32740	32671	32871	32671	32775	32815	32687	
1438	0	32805	32570	32715	32593	32671	32823	32725	32575	
1439	0	32748	32605	32809	32765	32617	32751	32829	32635	
1440	0	32783	32703	32827	32647	32783	32731	32747	32590	
1441	0	32742	32765	32855	32665	32843	32767	32769	32762	
1442	0	32817	32766	32812	32733	32867	32758	32724	32715	
1443	0	32811	32631	32874	32512	32807	32799	32854	32647	
1444	0	32729	32530	32773	32501	32769	32845	32797	32615	
1445	0	32757	32577	32797	32655	32709	32761	32742	32693	
1446	0	32858	32679	32817	32701	32810	32695	32732	32743	
1447	0	32784	32631	32767	32882	32791	32753	32671	32827	
1448	0	32679	32407	32814	32885	32775	32764	32839	32543	
1449	0	32758	32723	32841	32679	32805	32749	32747	32546	
1450	0	32796	32630	32843	32669	32789	32799	32756	32629	
1451	0	32759	32740	32775	32855	32789	32802	32766	32751	
1452	0	32748	32634	32730	32831	32703	32693	32727	32797	
1453	0	32737	32611	32740	32836	32695	32754	32750	32751	
1454	0	32756	32684	32705	32751	32831	32809	32687	32685	
1455	0	32733	32631	32751	32869	32783	32787	32791	32742	
1456	0	32732	32631	32679	32700	32775	32699	32739	32746	
1457	0	32772	32667	32761	32798	32794	32765	32679	32716	
1458	0	32807	32739	32603	32719	32831	32823	32738	32671	
1459	0	32741	32679	32615	32685	32677	32807	32831	32684	
1460	0	32807	32621	32551	32855	32727	32742	32710	32733	
1461	0	32783	32543	32669	32669	32709	32799	32823	32694	
1462	0	32731	32535	32807	32591	32701	32775	32723	32665	
1463	0	32770	32477	32951	32583	32757	32775	32797	32644	
1464	0	32688	32525	32844	32583	32775	32763	32759	32687	
1465	0	32753	32631	32839	32751	32745	32803	32783	32703	
1466	0	32821	32807	32919	32815	32699	32839	32723	32615	
1467	0	32751	32751	32815	32695	32733	32758	32807	32565	
1468	0	32705	32631	32773	32636	32758	32742	32754	32579	
1469	0	32715	32673	32756	32839	32775	32831	32795	32631	
1470	0	32757	32727	32727	32797	32855	32740	32731	32647	
1471	0	32756	32738	32719	32767	32791	32718	32802	32653	
1472	0	32768	32739	32711	32801	32749	32731	32757	32661	
1473	0	32738	32735	32710	32745	32660	32823	32821	32815	
1474	0	32765	32518	32731	32671	32701	32769	32791	32745	
1475	0	32726	32423	32721	32476	32770	32799	32732	32719	
1476	0	32732	32491	32693	32604	32811	32797	32763	32687	
1477	0	32829	32796	32804	32719	32830	32797	32719	32663	
1478	0	32841	32819	32859	32852	32814	32773	32855	32755	
1479	0	32726	32787	32847	32887	32791	32733	32751	32695	
1480	0	32707	32725	32775	32855	32835	32703	32775	32687	
1481	0	32805	32741	32879	32727	32841	32679	32827	32693	
1482	0	32933	32783	32866	32703	32647	32711	32825	32679	
1483	0	32900	32775	32775	32751	32679	32715	32761	32594	
1484	0	32775	32743	32699	32823	32839	32808	32877	32583	
1485	0	32796	32731	32711	32706	32659	32820	32775	32623	
1486	0	32724	32633	32773	32647	32715	32676	32860	32621	
1487	0	32724	32603	32711	32701	32823	32759	32716	32723	
1488	0	32761	32732	32582	32621	32837	32866	32775	32735	
1489	0	32774	32754	32572	32684	32859	32831	32677	32717	
1490	0	32740	32695	32581	32647	32724	32791	32775	32647	
1491	0	32687	32611	32663	32775	32700	32775	32804	32626	
1492	0	32851	32679	32771	32773	32621	32813	32751	32683	
1493	0	32775	32689	32789	32851	32739	32751	32852	32597	
1494	0	32685	32723	32775	32700	32831	32797	32805	32603	
1495	0	32530	32543	32820	32551	32859	32887	32807	32571	
1496	0	32716	32567	32815	32619	32815	32759	32709	32655	
1497	0	32861	32549	32775	32630	32756	32799	32717	32668	
1498	0	32982	32511	32698	32797	32711	32759	32735	32757	
1499	0	32933	32618	32693	32756	32724	32771	32731	32823	
1500	0	32845	32617	32589	32603	32735	32796	32815	32735	
1501	0	32751	32631	32634	32647	32804	32787	32711	32732	
1502	0	32806	32703	32703	32772	32883	32738	32703	32814	
1503	0	32679	32647	32685	32775	32684	32717	32655	32727	
1504	0	32612	32483	32627	32791	32719	32740	32737	32663	
1505	0	32828	32741	32685	32839	32822	32763	32632	32754	
1506	0	32805	32749	32694	32748	32831	32713	32859	32673	
1507	0	32839	32795	32787	32663	32727	32759	32895	32735	
1508	0	32854	32732	32745	32619	32787	32791	32878	32879	
1509	0	32804	32683	32809	32807	32807	32711	32797	32786	
1510	0	32734	32615	32831	32813	32859	32731	32787	32695	
1511	0	32736	32627	32835	32935	32797	32775	32770	32743	
1512	0	32681	32641	32769	32804	32695	32741	32685	32731	
1513	0	32698	32715	32759	32626	32692	32765	32844	32597	
1514	0	32716	32646	32700	32602	32711	32756	32743	32647	
1515	0	32696	32660	32669	32718	32859	32781	32791	32639	
1516	0	32711	32615	32615	32783	32782	32803	32782	32663	
1517	0	32748	32615	32602	32759	32807	32715	32887	32676	
1518	0	32678	32499	32539	32717	32823	32676	32660	32751	
1519	0	32719	32581	32679	32691	32625	32775	32819	32695	
1520	0	32806	32703	32669	32751	32628	32807	32789	32701	
1521	0	32799	32658	32698	32743	32674	32715	32743	32711	
1522	0	32729	32647	32733	32711	32745	32767	32756	32670	
1523	0	32656	32679	32717	32671	32757	32797	32734	32746	
1524	0	32697	32671	32733	32615	32791	32763	32707	32734	
1525	0	32724	32523	32863	32613	32743	32745	32607	32719	
1526	0	32730	32524	32853	32711	32783	32743	32748	32740	
1527	0	32715	32534	32887	32825	32740	32797	32703	32789	
1528	0	32687	32511	32821	32833	32775	32652	32831	32687	
1529	0	32713	32535	32879	32844	32865	32715	32741	32591	
1530	0	32714	32747	32801	32991	32671	32699	32847	32538	
1531	0	32741	32763	32755	32959	32727	32783	32887	32521	
1532	0	32742	32699	32783	32845	32759	32707	32742	32503	
1533	0	32728	32597	32715	32601	32743	32775	32810	32585	
1534	0	32748	32647	32711	32529	32801	32823	32742	32477	
1535	0	32790	32663	32685	32726	32791	32751	32839	32551	
1536	0	32774	32703	32573	32679	32783	32735	32775	32562	
1537	0	32815	32701	32612	32693	32759	32815	32757	32550	
1538	0	32851	32735	32566	32655	32783	32783	32687	32549	
1539	0	32863	32729	32516	32767	32699	32711	32739	32487	
1540	0	32813	32662	32613	32679	32772	32775	32721	32551	
1541	0	32799	32711	32697	32685	32847	32797	32799	32575	
1542	0	32829	32711	32667	32763	32741	32773	32683	32549	
1543	0	32866	32749	32783	32879	32702	32742	32767	32555	
1544	0	32699	32708	32845	32802	32748	32694	32739	32541	
1545	0	32629	32691	32850	32822	32813	32733	32817	32583	
1546	0	32659	32723	32871	32709	32743	32786	32735	32574	
1547	0	32626	32759	32887	32815	32791	32687	32799	32587	
1548	0	32722	32731	32787	32835	32647	32761	32729	32551	
1549	0	32775	32647	32719	32812	32695	32765	32791	32631	
1550	0	32847	32723	32767	32721	32871	32799	32647	32797	
1551	0	32774	32691	32641	32759	32724	32727	32745	32733	
1552	0	32749	32727	32703	32814	32791	32735	32711	32679	
1553	0	32711	32719	32723	32897	32807	32767	32775	32728	
1554	0	32720	32679	32751	32925	32713	32749	32713	32719	
1555	0	32680	32647	32837	32849	32775	32767	32743	32671	
1556	0	32629	32631	32814	32698	32866	32707	32706	32753	
1557	0	32617	32657	32903	32615	32837	32740	32717	32903	
1558	0	32655	32727	32903	32719	32798	32813	32708	32691	
1559	0	32628	32811	32759	32765	32795	32799	32647	32719	
1560	0	32602	32715	32631	32723	32647	32734	32695	32762	
1561	0	32686	32549	32635	32734	32634	32797	32867	32593	
1562	0	32662	32519	32641	32839	32606	32819	32773	32604	
1563	0	32738	32486	32694	32669	32687	32708	32716	32583	
1564	0	32698	32791	32783	32659	32799	32713	32663	32599	
1565	0	32685	32885	32751	32669	32839	32746	32725	32607	
1566	0	32748	32629	32644	32782	32729	32813	32647	32578	
1567	0	32736	32519	32639	32761	32823	32815	32815	32471	
1568	0	32695	32495	32583	32671	32805	32759	32799	32525	
1569	0	32720	32807	32607	32671	32810	32834	32879	32594	
1570	0	32624	32775	32615	32757	32634	32775	32836	32594	
1571	0	32620	32595	32579	32813	32802	32726	32862	32615	
1572	0	32710	32533	32647	32727	32853	32719	32713	32605	
1573	0	32804	32583	32814	32645	32689	32743	32807	32634	
1574	0	32799	32647	32811	32599	32758	32811	32775	32685	
1575	0	32762	32602	32815	32808	32798	32755	32895	32719	
1576	0	32736	32764	32727	32804	32775	32690	32727	32723	
1577	0	32775	32743	32711	32847	32662	32755	32800	32703	
1578	0	32733	32767	32643	32813	32750	32786	32783	32807	
1579	0	32775	32775	32679	32775	32675	32837	32708	32764	
1580	0	32727	32735	32582	32893	32715	32703	32647	32694	
1581	0	32719	32691	32479	32823	32831	32739	32789	32689	
1582	0	32708	32630	32515	32691	32838	32765	32767	32645	
1583	0	32730	32644	32542	32647	32841	32788	32683	32751	
1584	0	32794	32681	32623	32598	32742	32743	32719	32695	
1585	0	32847	32623	32743	32591	32763	32821	32824	32642	
1586	0	32828	32605	32869	32743	32799	32871	32812	32757	
1587	0	32761	32601	32935	32684	32671	32724	32860	32662	
1588	0	32815	32615	32919	32701	32735	32775	32884	32551	
1589	0	32833	32763	32798	32743	32800	32763	32797	32695	
1590	0	32813	32709	32787	32578	32725	32747	32711	32591	
1591	0	32788	32579	32740	32739	32713	32807	32889	32599	
1592	0	32742	32591	32743	32804	32685	32694	32775	32748	
1593	0	32773	32775	32801	32811	32758	32766	32797	32667	
1594	0	32808	32727	32713	32519	32791	32717	32723	32719	
1595	0	32732	32619	32535	32665	32816	32734	32641	32699	
1596	0	32671	32615	32509	32703	32788	32851	32751	32661	
1597	0	32711	32638	32491	32807	32855	32755	32679	32679	
1598	0	32706	32627	32428	32754	32790	32813	32711	32610	
1599	0	32762	32572	32535	32621	32703	32775	32763	32621	
1600	0	32846	32599	32543	32565	32621	32714	32735	32534	
1601	0	32839	32555	32583	32815	32703	32753	32738	32615	
1602	0	32813	32837	32580	32852	32724	32788	32687	32844	
1603	0	32879	32645	32739	32903	32658	32775	32959	32703	
1604	0	32804	32647	32727	32727	32863	32845	32834	32647	
1605	0	32839	32711	32743	32502	32887	32787	32679	32695	
1606	0	32783	32702	32765	32707	32799	32791	32710	32719	
1607	0	32791	32679	32684	32775	32791	32738	32727	32827	
1608	0	32738	32527	32611	32807	32727	32743	32796	32690	
1609	0	32753	32543	32607	32839	32775	32756	32703	32645	
1610	0	32871	32598	32775	32783	32767	32745	32771	32611	
1611	0	32858	32677	32814	32687	32847	32733	32807	32637	
1612	0	32743	32629	32751	32573	32852	32726	32716	32597	
1613	0	32781	32847	32755	32723	32823	32709	32699	32639	
1614	0	32745	32878	32711	32765	32694	32695	32675	32751	
1615	0	32751	32870	32555	32903	32751	32703	32805	32751	
1616	0	32807	32815	32535	32889	32763	32735	32587	32903	
1617	0	32916	32839	32502	32753	32925	32701	32579	32935	
1618	0	32817	32787	32603	32667	32879	32703	32548	32941	
1619	0	32871	32732	32660	32588	32807	32693	32615	32815	
1620	0	32911	32732	32628	32719	32785	32682	32725	32763	
1621	0	32903	32621	32647	32695	32863	32711	32695	32787	
1622	0	32918	32591	32596	32743	32855	32685	32775	32791	
1623	0	32980	32623	32537	32735	32723	32671	32756	32799	
1624	0	32987	32715	32543	32775	32701	32775	32755	32717	
1625	0	33035	32845	32645	32598	32709	32775	32731	32690	
1626	0	33042	32833	32626	32565	32733	32775	32726	32733	
1627	0	33062	32804	32668	32790	32775	32725	32691	32815	
1628	0	33087	32773	32591	32719	32938	32763	32823	32725	
1629	0	33069	32727	32577	32839	32951	32717	32682	32767	
1630	0	33155	32671	32501	32773	32793	32749	32787	32765	
1631	0	33127	32567	32484	32788	32911	32749	32647	32615	
1632	0	33004	32473	32535	32605	32918	32767	32810	32677	
1633	0	32999	32469	32420	32349	32735	32876	32722	32631	
1634	0	33102	32455	32439	32263	32669	32903	32869	32559	
1635	0	33152	32378	32483	32237	32749	32916	32815	32487	
1636	0	33031	32339	32491	32331	32807	32887	32691	32405	
1637	0	32942	32340	32535	32359	32879	32839	32775	32471	
1638	0	32908	32493	32455	32519	32903	32839	32639	32543	
1639	0	32806	32421	32540	32470	32847	32823	32788	32495	
1640	0	32735	32166	32463	32370	32901	32773	32749	32763	
1641	0	32677	32165	32391	32557	32766	32773	32671	32733	
1642	0	32506	32229	32502	32727	32767	32903	32775	32667	
1643	0	32609	32142	32698	32749	32803	32853	32807	32607	
1644	0	32647	32109	32587	32759	32647	32883	32967	32551	
1645	0	32657	32215	32679	32669	32539	32845	32999	32489	
1646	0	32628	32343	32686	32679	32471	32935	33159	32359	
1647	0	32581	32431	32671	32789	32535	32895	33186	32263	
1648	0	32597	32455	32565	32991	32455	32809	33335	32221	
1649	0	32589	32443	32631	33058	32473	32851	33239	32188	
1650	0	32548	32295	32731	33071	32495	32929	33191	32203	
1651	0	32383	32407	32743	33015	32603	32891	33155	32172	
1652	0	32402	32455	32775	33005	32564	32850	33251	32163	
1653	0	32375	32590	32879	32974	32311	32876	33141	32237	
1654	0	32212	32646	32947	32853	32258	32883	33127	32351	
1655	0	32199	32598	33007	32847	32399	32767	32983	32399	
1656	0	32135	32591	33141	33029	32537	32855	33052	32435	
1657	0	32156	32673	33261	33013	32452	32877	32919	32461	
1658	0	32072	32775	33281	33155	32519	32711	32997	32549	
1659	0	32011	32851	33399	33219	32457	32679	32943	32543	
1660	0	32237	33001	33349	33341	32318	32687	33003	32655	
1661	0	32407	33191	33255	33217	32423	32711	32839	32708	
1662	0	32523	33207	33199	33119	32599	32679	32758	32762	
1663	0	32525	33095	33183	32975	32693	32621	32581	32855	
1664	0	32535	33047	33102	32801	32751	32702	32519	32863	
1665	0	32542	33028	33005	32909	32861	32613	32509	32946	
1666	0	32686	33127	33151	32949	32927	32588	32342	33035	
1667	0	32625	33010	33174	32961	32933	32613	32303	32987	
1668	0	32624	32887	33029	32853	33039	32550	32383	33022	
1669	0	32553	32903	33031	32766	32823	32623	32353	32978	
1670	0	32431	32911	32911	32612	32839	32691	32407	32949	
1671	0	32550	32844	32763	32730	32948	32627	32487	32867	
1672	0	32647	32767	32611	32705	33029	32629	32399	32854	
1673	0	32790	33005	32510	32662	32931	32647	32447	32869	
1674	0	32863	32865	32453	32682	33031	32695	32547	32901	
1675	0	32881	32831	32487	32701	33031	32617	32506	33017	
1676	0	32975	32845	32405	32734	32963	32668	32493	32975	
1677	0	32959	32831	32365	32679	32877	32663	32549	33051	
1678	0	32973	32797	32391	32669	32846	32615	32487	32951	
1679	0	32871	32799	32445	32743	32854	32631	32668	32885	
1680	0	32887	32698	32529	32799	32929	32683	32604	32964	
1681	0	32935	32667	32645	32722	32967	32666	32621	32964	
1682	0	32972	32619	32589	32751	32900	32769	32660	32927	
1683	0	32895	32492	32535	32753	32925	32775	32781	32839	
1684	0	32887	32564	32569	32583	32927	32787	32725	32775	
1685	0	32911	32527	32609	32551	32743	32760	32775	32788	
1686	0	32950	32487	32485	32503	32753	32792	32685	32783	
1687	0	32987	32495	32415	32501	32829	32837	32791	32695	
1688	0	32957	32519	32421	32699	32821	32875	32719	32663	
1689	0	33016	32549	32523	32775	32835	32763	32865	32615	
1690	0	33106	32559	32678	32775	32807	32816	32775	32611	
1691	0	33055	32775	32850	32863	32663	32871	32785	32582	
1692	0	32962	32662	32845	32870	32754	32783	32763	32623	
1693	0	32801	32631	32827	32771	32870	32738	32839	32671	
1694	0	32737	32630	32892	32551	32803	32803	32739	32589	
1695	0	32659	32671	32827	32548	32731	32762	32850	32543	
1696	0	32754	32615	32635	32658	32769	32775	32780	32532	
1697	0	32919	32563	32490	32607	32746	32791	32775	32564	
1698	0	32846	32583	32535	32495	32759	32910	32772	32443	
1699	0	32901	32671	32639	32517	32775	32823	32929	32415	
1700	0	32932	32723	32764	32623	32575	32795	32775	32427	
1701	0	32821	32694	32735	32849	32709	32758	32879	32435	
1702	0	32764	32685	32735	32893	32799	32775	32839	32527	
1703	0	32788	32647	32739	32858	32762	32845	32857	32599	
1704	0	32775	32645	32642	32747	32766	32764	32831	32540	
1705	0	32813	32659	32627	32663	32758	32817	32890	32623	
1706	0	32868	32623	32741	32790	32839	32825	32847	32595	
1707	0	32760	32669	32647	32785	32815	32783	32734	32669	
1708	0	32827	32711	32647	32807	32763	32858	32799	32627	
1709	0	32807	32735	32723	32696	32835	32839	32749	32671	
1710	0	32796	32669	32677	32587	32747	32743	32815	32679	
1711	0	32778	32485	32694	32699	32711	32829	32715	32669	
1712	0	32868	32563	32582	32715	32663	32835	32738	32735	
1713	0	32788	32759	32677	32727	32607	32775	32815	32599	
1714	0	32727	32595	32679	32767	32671	32761	32699	32563	
1715	0	32824	32677	32621	32655	32709	32775	32775	32611	
1716	0	32802	32637	32551	32835	32687	32743	32751	32693	
1717	0	32789	32695	32527	32949	32655	32830	32883	32698	
1718	0	32846	32751	32439	32804	32698	32757	32823	32699	
1719	0	32811	32801	32646	32895	32786	32762	32835	32703	
1720	0	32806	32795	32754	32843	32751	32741	32775	32751	
1721	0	32780	32567	32719	32567	32732	32833	32759	32635	
1722	0	32743	32563	32815	32513	32775	32772	32820	32607	
1723	0	32751	32773	32851	32460	32818	32805	32815	32487	
1724	0	32775	32635	32799	32602	32843	32871	32799	32468	
1725	0	32698	32611	32630	32666	32767	32791	32739	32551	
1726	0	32682	32717	32711	32755	32663	32655	32857	32494	
1727	0	32716	32719	32802	32879	32781	32647	32855	32637	
1728	0	32792	32706	32811	32963	32759	32727	32739	32722	
1729	0	32740	32727	32598	32903	32727	32698	32815	32683	
1730	0	32764	32711	32535	32871	32837	32693	32738	32615	
1731	0	32810	32751	32576	32735	32695	32722	32797	32452	
1732	0	32809	32735	32583	32555	32647	32810	32756	32487	
1733	0	32841	32607	32575	32437	32717	32871	32705	32692	
1734	0	32833	32641	32551	32647	32661	32801	32853	32647	
1735	0	32802	32639	32493	32759	32671	32869	32799	32654	
1736	0	32753	32535	32607	32703	32685	32772	32791	32724	
1737	0	32791	32604	32684	32631	32663	32835	32740	32711	
1738	0	32790	32723	32685	32647	32711	32743	32695	32669	
1739	0	32743	32773	32725	32751	32881	32711	32797	32775	
1740	0	32738	32764	32839	32771	32751	32682	32775	32799	
1741	0	32854	32615	32711	32831	32827	32717	32745	32767	
1742	0	32854	32599	32761	32901	32815	32759	32734	32790	
1743	0	32782	32571	32698	32807	32687	32844	32775	32807	
1744	0	32727	32619	32677	32847	32662	32762	32897	32628	
1745	0	32756	32605	32705	32887	32799	32745	32834	32661	
1746	0	32769	32591	32713	32867	32798	32679	32775	32737	
1747	0	32801	32873	32647	32658	32767	32764	32703	32659	
1748	0	32789	32821	32717	32747	32799	32775	32811	32676	
1749	0	32741	32719	32671	32735	32879	32803	32733	32578	
1750	0	32783	32759	32594	32759	32763	32740	32772	32599	
1751	0	32786	32738	32647	32743	32647	32765	32747	32583	
1752	0	32789	32578	32615	32820	32677	32766	32763	32439	
1753	0	32758	32683	32621	32679	32695	32788	32759	32501	
1754	0	32802	32675	32635	32610	32718	32791	32594	32743	
1755	0	32793	32449	32591	32719	32836	32785	32884	32727	
1756	0	32782	32671	32757	32812	32903	32727	32802	32679	
1757	0	32756	32811	32899	32916	32821	32715	32866	32637	
1758	0	32781	32727	32914	32679	32804	32718	32743	32685	
1759	0	32767	32703	32845	32559	32801	32748	32765	32755	
1760	0	32802	32613	32820	32687	32873	32771	32747	32709	
1761	0	32719	32647	32912	32871	32642	32851	32842	32735	
1762	0	32614	32621	32851	32702	32727	32814	32775	32687	
1763	0	32549	32543	32793	32820	32855	32762	32795	32721	
1764	0	32593	32573	32594	32743	32790	32751	32773	32691	
1765	0	32719	32582	32487	32639	32871	32831	32785	32663	
1766	0	32852	32763	32604	32636	32733	32749	32810	32703	
1767	0	32937	32759	32756	32775	32684	32759	32681	32807	
1768	0	32871	32711	32647	32879	32767	32775	32801	32692	
1769	0	32751	32727	32697	32855	32695	32707	32727	32771	
1770	0	32821	32653	32647	32771	32787	32704	32759	32642	
1771	0	32841	32701	32665	32687	32647	32787	32775	32586	
1772	0	32837	32707	32847	32755	32671	32758	32731	32492	
1773	0	32738	32727	33047	32754	32691	32847	32863	32671	
1774	0	32764	32698	32985	32684	32759	32793	32943	32679	
1775	0	32743	32567	32877	32595	32847	32773	32747	32765	
1776	0	32701	32597	32861	32707	32775	32745	32787	32727	
1777	0	32690	32595	32655	32767	32678	32843	32815	32639	
1778	0	32703	32535	32591	32818	32847	32797	32847	32703	
1779	0	32750	32455	32637	32753	32818	32820	32681	32751	
1780	0	32750	32559	32643	32871	32751	32676	32775	32728	
1781	0	32807	32751	32587	32898	32867	32687	32703	32735	
1782	0	32785	32711	32467	32949	32748	32716	32767	32711	
1783	0	32807	32805	32503	32847	32647	32854	32699	32691	
1784	0	32756	32743	32435	32663	32840	32805	32751	32663	
1785	0	32761	32772	32555	32555	32849	32735	32820	32677	
1786	0	32820	32693	32562	32623	32679	32741	32743	32735	
1787	0	32841	32663	32689	32775	32853	32743	32749	32775	
1788	0	32794	32647	32781	32713	32727	32717	32837	32671	
1789	0	32737	32643	32898	32791	32749	32775	32719	32583	
1790	0	32662	32623	32895	32903	32639	32719	32839	32497	
1791	0	32724	32567	32755	32833	32695	32745	32739	32583	
1792	0	32745	32581	32743	33107	32869	32742	32788	32596	
1793	0	32740	32503	32743	32946	32724	32743	32732	32541	
1794	0	32725	32570	32647	32933	32853	32723	32731	32543	
1795	0	32720	32602	32663	32839	32803	32803	32789	32626	
1796	0	32772	32577	32797	32685	32679	32775	32705	32647	
1797	0	32734	32762	32844	32455	32767	32775	32805	32637	
1798	0	32740	32748	32751	32307	32813	32831	32719	32583	
1799	0	32749	32749	32532	32367	32730	32852	32759	32543	
1800	0	32751	32623	32526	32461	32817	32826	32735	32641	
1801	0	32691	32533	32561	32539	32847	32711	32749	32583	
1802	0	32790	32487	32772	32815	32802	32743	32723	32484	
1803	0	32861	32557	32795	32771	32629	32815	32819	32503	
1804	0	32956	32511	32871	32665	32751	32775	32807	32583	
1805	0	32854	32555	33003	32593	32813	32735	32833	32595	
1806	0	32745	32546	32895	32731	32735	32765	32857	32681	
1807	0	32714	32751	32903	32843	32707	32820	32813	32555	
1808	0	32668	32691	32882	32971	32767	32725	32819	32595	
1809	0	32647	32671	32643	32965	32859	32679	32703	32657	
1810	0	32623	32615	32487	32979	32818	32692	32797	32607	
1811	0	32676	32559	32359	32831	32631	32775	32747	32543	
1812	0	32624	32705	32470	32671	32659	32759	32815	32599	
1813	0	32590	32603	32634	32625	32763	32767	32703	32559	
1814	0	32679	32495	32733	32647	32791	32806	32756	32765	
1815	0	32781	32615	32933	32571	32767	32825	32719	32764	
1816	0	32835	32631	32899	32631	32745	32823	32756	32659	
1817	0	32941	32662	32854	32756	32759	32863	32855	32756	
1818	0	32903	32692	32851	32671	32799	32743	32756	32727	
1819	0	32784	32587	32797	32607	32831	32701	32756	32605	
1820	0	32843	32623	32863	32636	32831	32775	32769	32631	
1821	0	32797	32738	32894	32669	32775	32703	32703	32621	
1822	0	32749	32707	32738	32851	32696	32739	32731	32503	
1823	0	32810	32679	32623	32836	32667	32739	32641	32589	
1824	0	32816	32677	32647	32825	32813	32711	32711	32773	
1825	0	32804	32559	32715	32842	32812	32791	32732	32709	
1826	0	32830	32765	32743	32791	32839	32791	32775	32711	
1827	0	32796	32671	32799	32615	32813	32700	32775	32698	
1828	0	32741	32644	32878	32645	32809	32727	32748	32711	
1829	0	32749	32705	32787	32788	32767	32775	32798	32749	
1830	0	32749	32660	32767	32823	32823	32723	32756	32675	
1831	0	32773	32609	32647	32839	32823	32703	32823	32667	
1832	0	32759	32548	32625	32884	32820	32807	32726	32679	
1833	0	32847	32555	32551	32837	32797	32727	32733	32599	
1834	0	32765	32647	32540	32775	32637	32767	32745	32589	
1835	0	32771	32615	32527	32589	32603	32831	32738	32586	
1836	0	32758	32607	32659	32477	32703	32726	32755	32429	
1837	0	32805	32717	32598	32677	32877	32716	32743	32547	
1838	0	32785	32731	32628	32663	32815	32817	32797	32757	
1839	0	32756	32551	32689	32741	32851	32703	32771	32707	
1840	0	32701	32699	32799	32765	32826	32753	32711	32679	
1841	0	32703	32667	32839	32718	32813	32785	32847	32795	
1842	0	32764	32628	32751	32727	32723	32763	32727	32780	
1843	0	32799	32711	32705	32581	32807	32739	32877	32735	
1844	0	32753	32628	32725	32563	32849	32676	32775	32655	
1845	0	32724	32547	32642	32895	32739	32786	32797	32583	
1846	0	32807	32835	32555	32903	32671	32807	32817	32557	
1847	0	32769	32667	32639	32903	32765	32845	32707	32562	
1848	0	32810	32669	32646	32911	32829	32797	32743	32566	
1849	0	32809	32647	32479	32997	32749	32738	32671	32567	
1850	0	32841	32623	32612	33025	32823	32679	32791	32531	
1851	0	32756	32647	32655	32985	32823	32738	32749	32516	
1852	0	32767	32627	32845	32903	32663	32759	32839	32559	
1853	0	32751	32500	32938	32734	32743	32847	32715	32519	
1854	0	32828	32599	32996	32293	32805	32775	32795	32765	
1855	0	32908	32813	33081	32187	32711	32869	32877	32769	
1856	0	32859	32727	33031	32511	32731	32845	32791	32719	
1857	0	32839	32596	32885	32647	32835	32701	32791	32763	
1858	0	32785	32709	32723	32839	32829	32765	32693	32667	
1859	0	32719	32446	32775	32967	32863	32813	32771	32676	
1860	0	32782	32479	32645	32871	32705	32754	32681	32690	
1861	0	32735	32623	32479	32590	32647	32725	32726	32759	
1862	0	32731	32851	32527	32547	32823	32789	32699	32719	
1863	0	32740	32811	32465	32551	32791	32775	32877	32727	
1864	0	32769	32695	32565	32655	32849	32767	32775	32527	
1865	0	32820	32615	32647	32647	32766	32824	32727	32535	
1866	0	32681	32594	32742	32695	32699	32787	32727	32599	
1867	0	32729	32682	32683	32809	32791	32757	32655	32564	
1868	0	32807	32583	32713	32845	32791	32851	32711	32775	
1869	0	32802	32668	32775	32895	32837	32815	32748	32751	
1870	0	32800	32701	32791	32775	32763	32668	32773	32708	
1871	0	32871	32743	32759	32705	32614	32711	32797	32709	
1872	0	32854	32567	32859	32595	32725	32756	32754	32763	
1873	0	32806	32585	32945	32503	32671	32813	32827	32676	
1874	0	32725	32590	33071	32367	32791	32860	32735	32551	
1875	0	32662	32666	32935	32535	32767	32788	32891	32658	
1876	0	32559	32583	32759	32627	32830	32775	32735	32556	
1877	0	32687	32595	32718	32756	32697	32711	32745	32599	
1878	0	32685	32654	32561	32769	32851	32762	32677	32647	
1879	0	32658	32662	32723	32812	32755	32855	32807	32475	
1880	0	32705	32679	32683	32837	32831	32727	32733	32582	
1881	0	32748	32689	32631	32797	32775	32695	32695	32527	
1882	0	32914	32639	32631	32915	32703	32719	32706	32635	
1883	0	32911	32945	32563	32980	32727	32775	32679	32662	
1884	0	32775	32739	32477	32871	32663	32771	32839	32697	
1885	0	32757	32595	32459	32839	32739	32707	32837	32607	
1886	0	32638	32557	32439	32790	32887	32711	32784	32683	
1887	0	32632	32711	32601	32807	32827	32711	32807	32871	
1888	0	32757	32803	32605	32783	32749	32754	32759	32739	
1889	0	32732	32742	32647	32915	32827	32647	32703	32820	
1890	0	32748	32567	32539	32647	32708	32836	32756	32795	
1891	0	32772	32683	32615	32537	32799	32854	32841	32727	
1892	0	32775	32791	32621	32543	32767	32863	32903	32641	
1893	0	32807	32655	32613	32601	32667	32823	32747	32653	
1894	0	32754	32643	32807	32571	32790	32837	32839	32633	
1895	0	32660	32575	32935	32683	32771	32879	32707	32701	
1896	0	32721	32635	32869	32687	32709	32775	32753	32703	
1897	0	32823	32693	32804	32621	32783	32647	32687	32687	
1898	0	32692	32637	32725	32627	32725	32679	32703	32610	
1899	0	32677	32612	32751	32724	32743	32716	32873	32559	
1900	0	32711	32561	32855	32692	32803	32739	32727	32493	
1901	0	32737	32647	32673	32669	32732	32759	32757	32551	
1902	0	32807	32579	32708	32695	32813	32807	32695	32581	
1903	0	32899	32855	32731	32830	32859	32757	32766	32563	
1904	0	32870	32813	32679	32711	32753	32807	32738	32510	
1905	0	32763	32739	32871	32729	32699	32799	32767	32569	
1906	0	32734	32679	32900	32718	32785	32809	32811	32581	
1907	0	32687	32547	32711	32801	32775	32711	32869	32535	
1908	0	32703	32615	32703	32932	32817	32677	32787	32507	
1909	0	32711	32719	32659	32881	32871	32751	32716	32615	
1910	0	32758	32695	32581	32879	32829	32815	32743	32549	
1911	0	32710	32654	32547	32745	32679	32725	32883	32621	
1912	0	32696	32565	32425	32660	32791	32707	32799	32549	
1913	0	32783	32621	32466	32706	32773	32701	32641	32553	
1914	0	32821	32815	32623	32823	32735	32759	32823	32583	
1915	0	32763	32635	32659	32719	32791	32807	32749	32628	
1916	0	32797	32701	32669	32647	32853	32797	32841	32546	
1917	0	32703	32671	32703	32659	32767	32891	32757	32557	
1918	0	32719	32799	32721	32803	32667	32822	32749	32647	
1919	0	32696	32735	32647	32826	32887	32815	32756	32557	
1920	0	32765	32708	32614	32807	32678	32793	32850	32515	
1921	0	32806	32723	32601	32805	32733	32715	32682	32513	
1922	0	32796	32703	32708	32835	32795	32706	32757	32579	
1923	0	32806	32623	32741	32663	32795	32719	32647	32589	
1924	0	32799	32765	32761	32916	32730	32675	32855	32679	
1925	0	32754	32731	32686	32879	32703	32767	32799	32764	
1926	0	32821	32687	32763	32877	32679	32799	32693	32742	
1927	0	32810	32747	32795	32822	32665	32747	32743	32751	
1928	0	32695	32519	32775	32748	32642	32807	32803	32629	
1929	0	32699	32487	32631	32540	32763	32855	32810	32570	
1930	0	32892	32801	32671	32681	32825	32775	32799	32671	
1931	0	32839	32851	32751	32662	32749	32701	32831	32647	
1932	0	32818	32703	32949	32685	32806	32845	32823	32747	
1933	0	32681	32621	32938	32765	32663	32739	32723	32647	
1934	0	32697	32604	32903	32713	32739	32759	32731	32587	
1935	0	32726	32837	32925	32621	32759	32781	32854	32559	
1936	0	32751	32720	32743	32703	32791	32708	32797	32581	
1937	0	32727	32703	32599	32647	32658	32726	32843	32553	
1938	0	32765	32687	32631	32595	32695	32742	32827	32540	
1939	0	32640	32681	32511	32775	32751	32774	32813	32539	
1940	0	32647	32660	32495	32815	32743	32727	32818	32663	
1941	0	32702	32535	32399	32918	32731	32765	32813	32740	
1942	0	32758	32786	32355	32839	32699	32802	32701	32706	
1943	0	32799	32675	32501	32711	32914	32785	32759	32703	
1944	0	32898	32691	32809	32665	32847	32796	32757	32711	
1945	0	32887	32719	32902	32655	32797	32788	32791	32695	
1946	0	32818	32743	32939	32725	32799	32799	32797	32739	
1947	0	32796	32753	32831	32687	32663	32711	32811	32711	
1948	0	32718	32775	32685	32607	32579	32724	32749	32726	
1949	0	32713	32551	32851	32684	32841	32743	32766	32741	
1950	0	32644	32767	32743	32698	32735	32791	32661	32727	
1951	0	32724	32789	32765	32801	32803	32765	32855	32707	
1952	0	32827	32860	32711	32847	32815	32749	32787	32655	
1953	0	32782	32789	32655	32739	32759	32786	32877	32687	
1954	0	32791	32663	32702	32655	32638	32807	32809	32647	
1955	0	32660	32679	32819	32662	32813	32735	32747	32659	
1956	0	32663	32619	32897	32925	32832	32759	32711	32775	
1957	0	32753	32718	32647	32863	32836	32842	32841	32735	
1958	0	32698	32655	32662	32935	32845	32739	32761	32721	
1959	0	32722	32625	32588	32838	32739	32759	32793	32715	
1960	0	32687	32655	32556	32891	32701	32743	32751	32660	
1961	0	32801	32775	32639	32809	32775	32735	32765	32707	
1962	0	32832	32815	32671	32742	32815	32789	32775	32660	
1963	0	32876	32739	32755	32775	32855	32775	32785	32647	
1964	0	32780	32758	32827	32839	32703	32708	32795	32687	
1965	0	32819	32815	32684	32807	32833	32790	32692	32728	
1966	0	32807	32769	32639	32859	32647	32791	32771	32631	
1967	0	32845	32749	32717	32843	32810	32727	32775	32711	
1968	0	32820	32711	32743	32850	32703	32807	32790	32775	
1969	0	32775	32799	32773	32949	32767	32775	32719	32771	
1970	0	32738	32807	32830	32853	32799	32719	32749	32727	
1971	0	32749	32647	32695	32687	32739	32775	32738	32717	
1972	0	32759	32591	32598	32594	32823	32812	32743	32711	
1973	0	32780	32599	32571	32542	32799	32740	32711	32695	
1974	0	32769	32615	32671	32503	32695	32767	32817	32647	
1975	0	32823	32623	32807	32477	32903	32767	32726	32631	
1976	0	32804	32647	32763	32533	32783	32783	32747	32695	
1977	0	32783	32711	32687	32783	32775	32855	32785	32703	
1978	0	32775	32723	32725	32823	32727	32711	32823	32695	
1979	0	32775	32711	32735	32901	32679	32719	32759	32673	
1980	0	32759	32610	32769	32845	32717	32723	32759	32708	
1981	0	32741	32626	32647	32706	32804	32822	32751	32735	
1982	0	32812	32619	32597	32617	32714	32759	32759	32737	
1983	0	32772	32524	32679	32683	32793	32775	32743	32703	
1984	0	32764	32445	32677	32803	32645	32743	32727	32738	
1985	0	32695	32502	32629	32916	32769	32813	32823	32636	
1986	0	32743	32605	32623	32895	32703	32788	32719	32623	
1987	0	32813	32571	32741	32885	32775	32732	32799	32571	
1988	0	32775	32463	32699	32815	32786	32738	32775	32563	
1989	0	32825	32553	32765	32903	32631	32813	32799	32627	
1990	0	32843	32545	32722	32951	32839	32841	32671	32745	
1991	0	32775	32621	32687	32943	32861	32787	32687	32820	
1992	0	32697	32628	32671	32863	32813	32751	32691	32739	
1993	0	32737	32559	32553	32839	32647	32711	32771	32710	
1994	0	32812	32644	32578	32695	32857	32738	32692	32710	
1995	0	32761	32590	32551	32631	32799	32711	32748	32687	
1996	0	32742	32607	32731	32713	32863	32765	32724	32644	
1997	0	32835	32587	32708	32717	32738	32743	32879	32727	
1998	0	32937	32655	32827	32605	32837	32726	32835	32721	
1999	0	32927	32579	32826	32625	32870	32775	32817	32655	
2000	0	32716	32621	32795	32691	32771	32842	32751	32666	
2001	0	32711	32743	32813	32660	32791	32733	32775	32671	
2002	0	32740	32709	32765	32623	32758	32775	32775	32660	
2003	0	32751	32675	32599	32668	32813	32876	32845	32692	
2004	0	32679	32583	32533	32715	32823	32759	32687	32765	
2005	0	32672	32610	32609	32755	32660	32775	32814	32708	
2006	0	32756	32647	32759	32722	32727	32804	32759	32700	
2007	0	32766	32671	32775	32629	32771	32743	32823	32663	
2008	0	32729	32661	32813	32590	32775	32711	32743	32671	
2009	0	32672	32669	32879	32751	32767	32759	32757	32726	
2010	0	32694	32679	32871	32775	32799	32775	32735	32711	
2011	0	32872	32741	32757	32775	32679	32789	32695	32702	
2012	0	32948	32687	32743	32844	32658	32731	32799	32647	
2013	0	32833	32756	32521	32903	32827	32715	32775	32639	
2014	0	32832	32679	32663	32884	32731	32691	32821	32699	
2015	0	32713	32609	32659	32887	32843	32719	32742	32722	
2016	0	32775	32518	32655	32806	32831	32727	32743	32804	
2017	0	32767	32527	32724	32685	32727	32691	32719	32695	
2018	0	32732	32577	32659	32671	32735	32727	32837	32643	
2019	0	32820	32576	32743	32615	32823	32739	32719	32630	
2020	0	32745	32583	32663	32781	32751	32734	32831	32671	
2021	0	32764	32791	32711	32807	32759	32703	32739	32657	
2022	0	32771	32567	32713	32743	32839	32836	32701	32795	
2023	0	32726	32524	32775	32775	32647	32756	32753	32813	
2024	0	32735	32627	32758	32751	32831	32791	32708	32775	
2025	0	32745	32695	32647	32836	32859	32775	32787	32742	
2026	0	32775	32797	32690	32895	32858	32725	32689	32657	
2027	0	32754	32575	32571	32887	32638	32751	32787	32543	
2028	0	32709	32642	32679	32831	32755	32771	32703	32541	
2029	0	32788	32759	32707	32730	32851	32749	32775	32589	
2030	0	32801	32813	32692	32655	32823	32769	32775	32690	
2031	0	32818	32615	32715	32666	32804	32749	32799	32702	
2032	0	32748	32479	32711	32631	32685	32751	32807	32713	
2033	0	32809	32491	32727	32535	32807	32753	32765	32647	
2034	0	32783	32477	32621	32491	32671	32861	32798	32669	
2035	0	32827	32547	32679	32681	32765	32823	32770	32715	
2036	0	32704	32501	32805	32733	32735	32719	32775	32695	
2037	0	32677	32493	32759	32835	32647	32730	32811	32723	
2038	0	32694	32598	32771	32861	32740	32817	32803	32676	
2039	0	32708	32533	32764	32898	32879	32797	32832	32686	
2040	0	32751	32511	32684	32921	32727	32759	32775	32727	
2041	0	32714	32493	32595	32884	32767	32710	32710	32671	
2042	0	32756	32503	32695	32917	32709	32756	32679	32586	
2043	0	32748	32519	32795	32879	32735	32730	32788	32571	
2044	0	32772	32574	32871	32786	32692	32727	32853	32655	
2045	0	32847	32723	32805	32775	32799	32763	32731	32631	
2046	0	32799	32694	32705	32795	32666	32815	32775	32683	
2047	0	32773	32647	32723	32771	32691	32727	32771	32631	
2048	0	32751	32691	32719	32613	32822	32745	32775	32769	
2049	0	32734	32635	32771	32593	32745	32739	32835	32665	
2050	0	32761	32570	32775	32707	32815	32757	32711	32627	
2051	0	32799	32698	32692	32699	32655	32775	32799	32679	
2052	0	32815	32662	32641	32623	32775	32743	32762	32667	
2053	0	32721	32685	32629	32663	32791	32735	32692	32756	
2054	0	32652	32647	32717	32755	32851	32717	32691	32684	
2055	0	32690	32613	32690	32740	32749	32775	32699	32791	
2056	0	32759	32558	32743	32742	32839	32794	32693	32703	
2057	0	32794	32591	32558	32834	32809	32765	32787	32663	
2058	0	32755	32619	32585	32843	32775	32742	32791	32775	
2059	0	32775	32628	32639	32884	32815	32787	32747	32742	
2060	0	32741	32706	32719	32859	32639	32773	32679	32585	
2061	0	32815	32771	32695	32903	32813	32803	32783	32579	
2062	0	32692	32816	32685	32829	32733	32818	32775	32599	
2063	0	32771	32775	32599	32818	32738	32805	32837	32605	
2064	0	32767	32829	32623	32744	32813	32745	32751	32674	
2065	0	32879	32775	32713	32738	32717	32784	32767	32723	
2066	0	32751	32735	32662	32685	32855	32787	32799	32751	
2067	0	32738	32661	32631	32596	32714	32775	32699	32682	
2068	0	32771	32687	32565	32506	32813	32795	32767	32705	
2069	0	32724	32699	32595	32525	32641	32727	32793	32663	
2070	0	32758	32722	32679	32742	32775	32727	32748	32617	
2071	0	32732	32701	32811	32823	32727	32799	32795	32695	
2072	0	32728	32679	32715	32806	32805	32796	32720	32705	
2073	0	32809	32759	32681	32810	32747	32751	32747	32647	
2074	0	32865	32690	32674	32855	32756	32731	32727	32667	
2075	0	32832	32623	32675	32745	32676	32753	32803	32642	
2076	0	32644	32509	32713	32763	32841	32711	32811	32639	
2077	0	32711	32694	32733	32599	32822	32763	32767	32646	
2078	0	32728	32695	32791	32543	32759	32765	32833	32715	
2079	0	32767	32683	32812	32826	32829	32739	32796	32711	
2080	0	32727	32719	32801	32659	32685	32751	32806	32719	
2081	0	32711	32647	32749	32775	32834	32773	32715	32699	
2082	0	32709	32596	32751	32775	32727	32807	32749	32714	
2083	0	32777	32483	32615	32771	32801	32766	32681	32695	
2084	0	32779	32573	32755	32794	32679	32775	32765	32707	
2085	0	32816	32663	32711	32767	32790	32775	32835	32647	
2086	0	32791	32773	32705	32803	32810	32807	32773	32594	
2087	0	32773	32695	32705	32822	32751	32731	32786	32673	
2088	0	32729	32655	32710	32791	32771	32687	32727	32700	
2089	0	32687	32663	32630	32773	32767	32725	32811	32742	
2090	0	32716	32708	32676	32639	32700	32735	32709	32756	
2091	0	32709	32683	32690	32619	32829	32797	32741	32723	
2092	0	32748	32591	32647	32794	32743	32757	32745	32727	
2093	0	32775	32633	32739	32822	32843	32661	32699	32775	
2094	0	32738	32615	32807	32765	32647	32743	32767	32611	
2095	0	32773	32575	32723	32736	32751	32759	32727	32598	
2096	0	32833	32581	32637	32771	32815	32812	32881	32543	
2097	0	32775	32575	32727	32791	32759	32804	32767	32565	
2098	0	32763	32583	32791	32738	32853	32763	32775	32588	
2099	0	32775	32807	32775	32767	32659	32692	32708	32595	
2100	0	32807	32610	32647	32771	32847	32743	32747	32742	
2101	0	32740	32541	32644	32711	32825	32711	32791	32758	
2102	0	32715	32492	32719	32802	32738	32737	32698	32683	
2103	0	32717	32551	32743	32893	32695	32742	32763	32589	
2104	0	32741	32583	32807	32847	32836	32811	32767	32655	
2105	0	32819	32671	32647	32763	32730	32775	32762	32679	
2106	0	32815	32815	32655	32739	32799	32738	32839	32698	
2107	0	32790	32727	32625	32681	32653	32775	32775	32695	
2108	0	32775	32767	32699	32605	32735	32741	32807	32711	
2109	0	32780	32719	32701	32511	32787	32775	32800	32735	
2110	0	32796	32711	32759	32679	32775	32767	32773	32751	
2111	0	32734	32615	32687	32775	32843	32838	32770	32749	
2112	0	32702	32703	32635	32819	32679	32725	32748	32702	
2113	0	32727	32795	32735	32811	32747	32700	32804	32738	
2114	0	32742	32735	32879	32887	32823	32783	32735	32715	
2115	0	32767	32587	32814	32831	32751	32807	32823	32735	
2116	0	32689	32497	32725	32623	32717	32771	32705	32711	
2117	0	32685	32585	32791	32615	32775	32756	32871	32647	
2118	0	32710	32767	32790	32734	32783	32831	32783	32622	
2119	0	32804	32747	32783	32774	32831	32773	32775	32681	
2120	0	32804	32679	32635	32827	32671	32751	32758	32758	
2121	0	32723	32578	32591	32775	32804	32693	32681	32763	
2122	0	32762	32689	32678	32883	32839	32791	32782	32703	
2123	0	32778	32673	32667	32647	32805	32839	32797	32645	
2124	0	32743	32539	32677	32607	32721	32759	32739	32639	
2125	0	32743	32606	32605	32614	32787	32822	32790	32723	
2126	0	32823	32863	32587	32703	32711	32765	32797	32722	
2127	0	32838	32630	32700	32788	32687	32808	32738	32647	
2128	0	32787	32685	32807	32831	32729	32775	32810	32735	
2129	0	32826	32516	32721	32733	32831	32735	32725	32733	
2130	0	32746	32583	32711	32678	32724	32775	32807	32756	
2131	0	32708	32539	32749	32607	32813	32802	32837	32723	
2132	0	32727	32751	32748	32647	32702	32794	32747	32671	
2133	0	32684	32619	32805	32634	32724	32748	32734	32669	
2134	0	32713	32629	32723	32799	32791	32735	32767	32671	
2135	0	32726	32718	32590	32772	32739	32763	32661	32679	
2136	0	32765	32647	32535	32775	32845	32774	32738	32675	
2137	0	32763	32558	32548	32750	32797	32765	32685	32679	
2138	0	32807	32571	32613	32775	32676	32751	32775	32687	
2139	0	32772	32548	32747	32791	32838	32706	32807	32673	
2140	0	32852	32596	32789	32823	32722	32807	32769	32755	
2141	0	32804	32683	32763	32763	32788	32773	32826	32742	
2142	0	32729	32541	32738	32763	32583	32820	32687	32612	
2143	0	32759	32711	32749	32631	32740	32773	32784	32677	
2144	0	32807	32719	32715	32581	32715	32787	32823	32628	
2145	0	32775	32631	32647	32548	32775	32713	32727	32591	
2146	0	32748	32582	32631	32613	32835	32747	32732	32535	
2147	0	32743	32694	32597	32775	32727	32771	32676	32587	
