# OpenSignals Text File Format
# {"00:07:80:3B:46:38": {"sensor": ["CUSTOM/0.5/1.0/V", "CUSTOM/0.5/1.0/V", "CUSTOM/0.5/1.0/V", "CUSTOM/0.5/1.0/V", "CUSTOM/0.5/1.0/V", "CUSTOM/0.5/1.0/V", "CUSTOM/0.5/1.0/V", "CUSTOM/0.5/1.0/V"], "device name": "EMGs", "column": ["nSeq", "DI", "RA_L", "RA_R", "OE_L", "OE:R", "IL_L", "IL_R", "MF_L", "MF_R"], "sync interval": 2, "time": "18:3:40.382", "comments": "", "device connection": "BTH00:07:80:3B:46:38", "channels": [1, 2, 3, 4, 5, 6, 7, 8], "date": "2017-6-1", "mode": 0, "digital IO": [0, 1], "firmware version": 772, "device": "biosignalsplux", "position": 0, "sampling rate": 1000, "label": ["RA_L", "RA_R", "OE_L", "OE:R", "IL_L", "IL_R", "MF_L", "MF_R"], "resolution": [16, 16, 16, 16, 16, 16, 16, 16], "special": [{}, {}, {}, {}, {}, {}, {}, {}]}}
# EndOfHeader
0	0	32802	32759	32742	32757	0	32823	32659	32543	
1	0	32796	32815	32747	32658	0	32795	32785	32571	
2	0	32844	32711	32567	32634	0	32706	32791	32551	
3	0	32782	32751	32755	32663	0	32745	32565	32663	
4	0	32783	32787	32763	32679	0	32671	32886	32719	
5	0	32762	32775	32743	32755	0	32695	32657	32549	
6	0	32765	32799	32662	32660	0	32851	32839	32659	
7	0	32743	32714	32709	32690	0	32850	32897	32548	
8	0	32742	32767	32685	32631	0	32903	32647	32653	
9	0	32745	32819	32587	32731	0	32855	32787	32550	
10	0	32718	32675	32791	32708	0	32845	32790	32717	
11	0	32758	32771	32745	32745	0	32766	32642	32581	
12	0	32766	32835	32837	32708	0	32805	32811	32711	
13	0	32771	32807	32738	32775	0	32791	32738	32455	
14	0	32742	32756	32669	32765	0	32831	32823	32693	
15	0	32720	32847	32747	32659	0	32805	32797	32543	
16	0	32687	32698	32723	32671	0	32743	32647	32621	
17	0	32735	32743	32710	32549	0	32723	32811	32627	
18	0	32730	32739	32775	32559	0	32817	32711	32751	
19	0	32723	32843	32757	32587	0	32833	32770	32693	
20	0	32667	32766	32747	32723	0	32823	32775	32895	
21	0	32731	32903	32666	32771	0	32829	32729	32740	
22	0	32745	32775	32647	32767	0	32799	32847	32747	
23	0	32723	32807	32662	32788	0	32807	32585	32589	
24	0	32794	32815	32682	32739	0	32703	32799	32667	
25	0	32756	32758	32775	32709	0	32711	32580	32569	
26	0	32751	32807	32740	32669	0	32615	32759	32757	
27	0	32774	32733	32719	32550	0	32655	32595	32689	
28	0	32764	32742	32761	32501	0	32647	32902	32557	
29	0	32773	32771	32699	32591	0	32925	32743	32539	
30	0	32775	32827	32637	32615	0	33019	32654	32811	
31	0	32771	32817	32679	32655	0	32966	32759	32839	
32	0	32756	32759	32735	32711	0	32863	32563	32726	
33	0	32754	32733	32787	32735	0	32839	32739	32834	
34	0	32774	32791	32749	32607	0	32794	32647	32732	
35	0	32728	32767	32599	32480	0	32731	32775	32623	
36	0	32725	32847	32647	32561	0	32581	32731	32436	
37	0	32701	32775	32762	32530	0	32517	32815	32557	
38	0	32775	32763	32725	32553	0	32775	32873	32775	
39	0	32828	32799	32771	32707	0	32623	32783	32601	
40	0	32784	32767	32811	32675	0	32640	32951	32655	
41	0	32757	32871	32823	32667	0	32773	32671	32784	
42	0	32811	32805	32807	32687	0	32783	32887	32597	
43	0	32749	32868	32698	32807	0	32740	32607	32583	
44	0	32767	32706	32578	32725	0	32703	32830	32534	
45	0	32775	32759	32757	32742	0	32741	32831	32647	
46	0	32810	32775	32748	32775	0	32773	32689	32786	
47	0	32812	32715	32729	32557	0	32729	32813	32598	
48	0	32797	32807	32701	32493	0	32573	32815	32674	
49	0	32865	32759	32621	32453	0	32694	32845	32665	
50	0	32730	32763	32719	32551	0	32735	32668	32679	
51	0	32757	32762	32590	32599	0	32859	32769	32775	
52	0	32718	32739	32611	32535	0	32807	32743	32775	
53	0	32740	32825	32621	32638	0	32903	32613	32837	
54	0	32743	32775	32751	32647	0	32839	32717	32863	
55	0	32834	32799	32677	32659	0	32775	32807	32877	
56	0	32808	32775	32666	32647	0	32890	32599	32668	
57	0	32773	32791	32647	32646	0	32845	32735	32627	
58	0	32797	32797	32678	32635	0	32849	32829	32591	
59	0	32758	32775	32663	32631	0	32807	32637	32623	
60	0	32769	32775	32647	32610	0	32743	32967	32503	
61	0	32767	32749	32773	32557	0	32763	32900	32684	
62	0	32729	32786	32637	32499	0	32836	32571	32629	
63	0	32740	32703	32647	32541	0	32795	32739	32583	
64	0	32753	32767	32668	32647	0	32794	32873	32647	
65	0	32775	32732	32735	32591	0	32788	32639	32645	
66	0	32733	32684	32663	32583	0	32795	32767	32690	
67	0	32711	32736	32773	32587	0	32839	32727	32707	
68	0	32736	32707	32711	32647	0	32711	32703	32703	
69	0	32749	32805	32675	32703	0	32742	32807	32626	
70	0	32741	32758	32639	32773	0	32699	32539	32701	
71	0	32731	32783	32751	32763	0	32701	32731	32631	
72	0	32732	32871	32753	32751	0	32773	32887	32759	
73	0	32741	32747	32706	32722	0	32758	32799	32775	
74	0	32756	32775	32772	32775	0	32806	32898	32501	
75	0	32710	32717	32637	32692	0	32733	32527	32579	
76	0	32760	32734	32767	32690	0	32748	32759	32471	
77	0	32747	32791	32751	32694	0	32727	32775	32580	
78	0	32711	32739	32595	32647	0	32770	32631	32451	
79	0	32727	32775	32743	32647	0	32881	32799	32730	
80	0	32790	32786	32758	32674	0	33039	32663	32706	
81	0	32721	32785	32587	32735	0	32894	32815	32731	
82	0	32681	32858	32731	32645	0	32855	32815	32511	
83	0	32724	32757	32742	32619	0	32862	32831	32735	
84	0	32726	32851	32678	32655	0	32851	32876	32797	
85	0	32781	32807	32722	32655	0	32740	32647	32799	
86	0	32796	32739	32700	32543	0	32679	32850	32703	
87	0	32834	32797	32629	32566	0	32709	32925	32679	
88	0	32785	32765	32678	32559	0	32655	32766	32693	
89	0	32799	32789	32755	32605	0	32644	32903	32563	
90	0	32752	32727	32799	32735	0	32662	32615	32703	
91	0	32820	32833	32667	32759	0	32769	32771	32647	
92	0	32804	32711	32747	32743	0	32863	32815	32598	
93	0	32772	32759	32663	32583	0	32847	32562	32695	
94	0	32833	32775	32702	32475	0	32660	32645	32721	
95	0	32799	32775	32747	32507	0	32737	32802	32772	
96	0	32804	32742	32671	32605	0	32775	32741	32703	
97	0	32790	32799	32726	32743	0	32748	32831	32591	
98	0	32757	32847	32655	32751	0	32739	32863	32571	
99	0	32743	32799	32671	32663	0	32711	32805	32495	
100	0	32740	32733	32631	32670	0	32823	32619	32685	
101	0	32781	32797	32711	32647	0	32765	32759	32663	
102	0	32775	32817	32621	32703	0	32695	32809	32825	
103	0	32797	32719	32707	32723	0	32623	32630	32698	
104	0	32745	32745	32679	32707	0	32835	32771	32532	
105	0	32726	32765	32732	32612	0	32845	32797	32626	
106	0	32759	32765	32695	32637	0	32903	32877	32441	
107	0	32759	32725	32733	32609	0	32790	32643	32470	
108	0	32773	32751	32835	32607	0	32769	32837	32468	
109	0	32734	32859	32647	32583	0	32730	32783	32679	
110	0	32726	32795	32765	32495	0	32727	32579	32738	
111	0	32797	32835	32750	32583	0	32751	32829	32695	
112	0	32788	32738	32671	32659	0	32789	32621	32775	
113	0	32766	32807	32789	32775	0	32751	32775	32627	
114	0	32740	32775	32733	32663	0	32687	32727	32591	
115	0	32791	32749	32655	32692	0	32791	32716	32599	
116	0	32748	32879	32683	32775	0	32773	32853	32775	
117	0	32795	32791	32771	32715	0	32861	32617	32931	
118	0	32755	32763	32631	32695	0	32805	32775	32763	
119	0	32743	32799	32783	32719	0	32861	32903	32711	
120	0	32757	32727	32793	32742	0	33023	32619	32663	
121	0	32710	32719	32607	32751	0	33045	32723	32871	
122	0	32727	32764	32731	32674	0	32869	32803	32668	
123	0	32732	32685	32717	32733	0	32773	32619	32707	
124	0	32715	32815	32678	32679	0	32798	32796	32871	
125	0	32735	32757	32754	32647	0	32871	32763	32687	
126	0	32748	32758	32766	32751	0	32692	32764	32765	
127	0	32752	32891	32659	32695	0	32732	32887	32719	
128	0	32708	32759	32775	32679	0	32638	32631	32699	
129	0	32801	32743	32787	32691	0	32639	32751	32706	
130	0	32832	32815	32671	32679	0	32721	32765	32717	
131	0	32797	32746	32773	32685	0	32738	32583	32563	
132	0	32762	32811	32723	32693	0	32735	32747	32505	
133	0	32773	32751	32675	32683	0	32775	32685	32423	
134	0	32808	32756	32699	32671	0	32875	32729	32644	
135	0	32753	32851	32599	32686	0	32854	32775	32695	
136	0	32749	32733	32716	32708	0	32719	32565	32679	
137	0	32800	32703	32607	32655	0	32717	32879	32681	
138	0	32788	32818	32689	32693	0	32694	32799	32675	
139	0	32705	32773	32691	32685	0	32693	32851	32679	
140	0	32708	32833	32711	32675	0	32775	32887	32545	
141	0	32703	32788	32763	32622	0	32823	32633	32679	
142	0	32764	32757	32725	32647	0	32763	32769	32578	
143	0	32687	32875	32603	32711	0	32743	32605	32667	
144	0	32789	32749	32751	32699	0	32725	32786	32671	
145	0	32775	32806	32775	32699	0	32755	32810	32633	
146	0	32799	32791	32631	32734	0	32735	32739	32671	
147	0	32758	32735	32695	32647	0	32743	32839	32566	
148	0	32760	32837	32745	32557	0	32773	32695	32700	
149	0	32850	32735	32663	32604	0	32751	32767	32613	
150	0	32834	32775	32763	32615	0	32795	32631	32815	
151	0	32783	32775	32741	32639	0	32812	32690	32804	
152	0	32829	32813	32709	32589	0	32885	32723	32758	
153	0	32764	32823	32751	32543	0	32759	32555	32759	
154	0	32724	32698	32683	32564	0	32803	32831	32727	
155	0	32706	32732	32658	32613	0	32685	32659	32679	
156	0	32809	32775	32807	32567	0	32701	32850	32662	
157	0	32790	32751	32718	32617	0	32775	32911	32500	
158	0	32737	32823	32699	32623	0	32775	32639	32671	
159	0	32727	32839	32743	32755	0	32676	32741	32606	
160	0	32756	32853	32710	32715	0	32707	32833	32717	
161	0	32732	32775	32719	32799	0	32807	32626	32574	
162	0	32743	32759	32647	32693	0	32771	32783	32809	
163	0	32758	32799	32714	32723	0	32810	32887	32745	
164	0	32769	32743	32658	32689	0	32751	32583	32679	
165	0	32775	32772	32599	32612	0	32749	32831	32687	
166	0	32771	32775	32647	32647	0	32722	32741	32837	
167	0	32827	32775	32647	32659	0	32763	32813	32747	
168	0	32814	32759	32695	32732	0	32799	32891	32661	
169	0	32754	32711	32677	32783	0	32817	32655	32702	
170	0	32771	32775	32739	32815	0	32807	32820	32663	
171	0	32756	32783	32675	32731	0	32813	32823	32630	
172	0	32724	32807	32679	32718	0	32769	32803	32701	
173	0	32710	32757	32703	32687	0	32803	32871	32647	
174	0	32788	32807	32575	32743	0	32727	32587	32751	
175	0	32721	32822	32647	32730	0	32775	32727	32709	
176	0	32756	32723	32628	32689	0	32759	32774	32701	
177	0	32743	32699	32642	32633	0	32759	32841	32631	
178	0	32772	32755	32655	32645	0	32775	32863	32615	
179	0	32739	32819	32687	32635	0	32926	32667	32647	
180	0	32747	32839	32637	32548	0	32875	32823	32763	
181	0	32745	32815	32765	32597	0	32871	32671	32807	
182	0	32739	32862	32745	32669	0	32807	32758	32662	
183	0	32729	32793	32647	32807	0	32747	32807	32647	
184	0	32775	32851	32751	32831	0	32775	32708	32588	
185	0	32775	32742	32655	32671	0	32734	32813	32647	
186	0	32793	32811	32670	32641	0	32749	32647	32640	
187	0	32811	32775	32626	32623	0	32667	32899	32621	
188	0	32756	32791	32710	32708	0	32671	32683	32775	
189	0	32833	32827	32663	32663	0	32679	32741	32583	
190	0	32845	32763	32738	32677	0	32740	32788	32789	
191	0	32775	32775	32745	32607	0	32743	32623	32535	
192	0	32703	32903	32627	32663	0	32743	32727	32773	
193	0	32740	32803	32671	32707	0	32949	32923	32663	
194	0	32759	32788	32641	32698	0	32923	32657	32699	
195	0	32704	32775	32603	32655	0	32903	32822	32615	
196	0	32724	32786	32806	32667	0	32943	32831	32588	
197	0	32727	32804	32819	32611	0	32851	32948	32671	
198	0	32735	32694	32710	32679	0	32765	32877	32643	
199	0	32673	32770	32775	32645	0	32791	32700	32582	
200	0	32671	32699	32759	32727	0	32807	32827	32525	
201	0	32759	32679	32701	32647	0	32735	32620	32663	
202	0	32772	32799	32767	32671	0	32770	32695	32695	
203	0	32793	32683	32663	32692	0	32737	32791	32722	
204	0	32785	32807	32761	32711	0	32647	32579	32543	
205	0	32819	32821	32715	32785	0	32663	32795	32612	
206	0	32802	32793	32647	32784	0	32711	32553	32759	
207	0	32783	32838	32731	32717	0	32717	32767	32523	
208	0	32773	32751	32735	32687	0	32782	32719	32615	
209	0	32852	32775	32694	32637	0	32847	32707	32583	
210	0	32863	32811	32732	32615	0	32775	32655	32676	
211	0	32825	32679	32687	32591	0	32731	32751	32711	
212	0	32783	32749	32671	32663	0	32727	32868	32677	
213	0	32764	32711	32758	32733	0	32717	32755	32743	
214	0	32762	32835	32825	32742	0	32750	32791	32636	
215	0	32775	32749	32678	32641	0	32716	32562	32607	
216	0	32734	32743	32663	32647	0	32742	32795	32759	
217	0	32725	32815	32742	32685	0	32695	32663	32711	
218	0	32669	32719	32671	32764	0	32851	32783	32663	
219	0	32711	32796	32767	32621	0	32885	32839	32685	
220	0	32701	32875	32796	32683	0	32761	32879	32559	
221	0	32737	32751	32683	32699	0	32809	32787	32613	
222	0	32712	32791	32791	32727	0	32819	32819	32555	
223	0	32797	32735	32785	32681	0	32723	32775	32647	
224	0	32799	32691	32677	32639	0	32669	32599	32711	
225	0	32773	32738	32711	32655	0	32711	32753	32615	
226	0	32813	32719	32708	32646	0	32731	32623	32677	
227	0	32807	32791	32610	32669	0	32806	32775	32604	
228	0	32719	32767	32763	32743	0	32831	32807	32743	
229	0	32749	32763	32703	32715	0	32831	32535	32679	
230	0	32685	32775	32617	32685	0	32775	32767	32742	
231	0	32743	32759	32646	32659	0	32763	32604	32708	
232	0	32724	32812	32740	32679	0	32807	32831	32623	
233	0	32698	32751	32707	32629	0	32822	32804	32869	
234	0	32742	32819	32796	32727	0	32819	32773	32705	
235	0	32764	32879	32773	32703	0	32739	32850	32726	
236	0	32775	32859	32585	32675	0	32719	32634	32719	
237	0	32751	32791	32769	32647	0	32754	32767	32850	
238	0	32704	32711	32647	32671	0	32815	32682	32604	
239	0	32677	32719	32663	32615	0	32743	32735	32612	
240	0	32735	32793	32709	32641	0	32754	32738	32669	
241	0	32718	32773	32729	32693	0	32799	32743	32679	
242	0	32707	32839	32628	32708	0	32743	32822	32694	
243	0	32756	32759	32775	32703	0	32719	32547	32775	
244	0	32798	32734	32723	32711	0	32711	32791	32661	
245	0	32808	32755	32625	32746	0	32788	32685	32533	
246	0	32780	32743	32703	32745	0	32806	32766	32623	
247	0	32807	32807	32711	32739	0	32839	32939	32594	
248	0	32757	32742	32631	32682	0	32815	32805	32739	
249	0	32782	32767	32677	32719	0	32689	32815	32539	
250	0	32824	32807	32683	32759	0	32723	32699	32671	
251	0	32788	32735	32573	32788	0	32722	32743	32575	
252	0	32815	32803	32738	32603	0	32734	32771	32551	
253	0	32822	32727	32742	32671	0	32787	32711	32479	
254	0	32783	32821	32620	32607	0	32739	32831	32335	
255	0	32733	32767	32743	32569	0	32819	32598	32567	
256	0	32717	32822	32707	32462	0	32839	32819	32745	
257	0	32702	32723	32775	32549	0	32887	32647	32803	
258	0	32721	32765	32655	32662	0	32879	32854	32898	
259	0	32775	32691	32775	32687	0	32799	32692	32775	
260	0	32811	32791	32727	32679	0	32871	32802	32973	
261	0	32815	32786	32630	32676	0	32863	32823	32743	
262	0	32805	32719	32775	32759	0	32903	32747	32631	
263	0	32773	32755	32859	32723	0	32873	32755	32423	
264	0	32724	32771	32665	32756	0	32811	32620	32375	
265	0	32745	32811	32797	32775	0	32663	32685	32386	
266	0	32773	32839	32814	32711	0	32611	32739	32437	
267	0	32748	32807	32629	32733	0	32607	32767	32383	
268	0	32743	32827	32805	32763	0	32679	32807	32543	
269	0	32804	32799	32765	32615	0	32899	32647	32559	
270	0	32766	32845	32635	32832	0	33036	32716	32826	
271	0	32722	32879	32810	32727	0	32914	32647	32850	
272	0	32736	32733	32798	32671	0	32879	32797	32788	
273	0	32767	32805	32667	32709	0	32693	32901	32879	
274	0	32715	32862	32791	32743	0	32633	32582	32855	
275	0	32711	32775	32771	32695	0	32817	32715	32847	
276	0	32693	32807	32679	32703	0	32893	32727	32665	
277	0	32721	32803	32716	32701	0	32919	32727	32707	
278	0	32736	32687	32756	32753	0	32799	32789	32591	
279	0	32734	32775	32636	32706	0	32759	32796	32687	
280	0	32751	32797	32714	32727	0	32783	32877	32771	
281	0	32714	32866	32717	32686	0	32679	32813	32716	
282	0	32765	32749	32615	32646	0	32725	32751	32718	
283	0	32795	32743	32742	32663	0	32797	32640	32663	
284	0	32728	32787	32587	32687	0	32775	32766	32813	
285	0	32775	32753	32625	32663	0	32742	32867	32747	
286	0	32787	32747	32703	32679	0	32751	32557	32701	
287	0	32830	32794	32679	32684	0	32726	32775	32708	
288	0	32765	32791	32757	32692	0	32677	32818	32606	
289	0	32783	32807	32698	32687	0	32734	32738	32487	
290	0	32807	32708	32695	32679	0	32806	32791	32631	
291	0	32860	32757	32647	32687	0	32669	32711	32555	
292	0	32742	32802	32775	32685	0	32677	32963	32679	
293	0	32791	32787	32611	32707	0	32691	32682	32743	
294	0	32740	32775	32693	32720	0	32711	32695	32719	
295	0	32740	32809	32807	32694	0	32822	32871	32585	
296	0	32815	32783	32629	32694	0	32836	32742	32455	
297	0	32729	32711	32701	32685	0	32767	32791	32455	
298	0	32722	32846	32751	32687	0	32775	32839	32588	
299	0	32758	32805	32607	32619	0	32881	32638	32519	
300	0	32747	32767	32715	32741	0	32903	32827	32755	
301	0	32831	32773	32647	32727	0	32719	32807	32574	
302	0	32771	32796	32791	32679	0	32634	32607	32594	
303	0	32713	32754	32815	32775	0	32627	32817	32486	
304	0	32790	32835	32628	32639	0	32622	32862	32674	
305	0	32756	32733	32701	32723	0	32679	32669	32805	
306	0	32754	32747	32711	32719	0	32748	32775	32738	
307	0	32731	32811	32638	32751	0	32815	32663	32759	
308	0	32734	32726	32766	32647	0	32759	32751	32668	
309	0	32737	32775	32642	32487	0	32903	32769	32815	
310	0	32791	32839	32735	32530	0	32819	32790	32587	
311	0	32751	32815	32647	32654	0	32791	32775	32807	
312	0	32734	32759	32660	32717	0	32633	32723	32871	
313	0	32806	32759	32613	32689	0	32771	32807	32661	
314	0	32799	32763	32763	32687	0	32898	32645	32600	
315	0	32763	32775	32775	32677	0	32823	32877	32475	
316	0	32708	32748	32621	32723	0	32891	32844	32647	
317	0	32765	32819	32725	32495	0	32804	32667	32494	
318	0	32711	32797	32638	32495	0	32919	32743	32787	
319	0	32807	32787	32679	32647	0	32887	32864	32707	
320	0	32743	32727	32572	32647	0	32791	32611	32782	
321	0	32766	32749	32735	32719	0	32692	32767	32505	
322	0	32743	32793	32671	32699	0	32685	32843	32679	
323	0	32795	32767	32711	32717	0	32775	32573	32470	
324	0	32724	32775	32625	32765	0	32799	32711	32629	
325	0	32754	32814	32667	32733	0	32775	32605	32567	
326	0	32785	32787	32679	32708	0	32763	32764	32690	
327	0	32788	32683	32639	32519	0	32699	32867	32623	
328	0	32740	32767	32823	32564	0	32807	32551	32668	
329	0	32749	32747	32757	32643	0	32799	32821	32733	
330	0	32759	32767	32667	32578	0	32793	32646	32515	
331	0	32772	32797	32765	32615	0	32727	32805	32691	
332	0	32762	32670	32818	32581	0	32751	32855	32502	
333	0	32722	32758	32695	32611	0	32951	32590	32615	
334	0	32708	32751	32740	32685	0	32899	32731	32607	
335	0	32711	32799	32613	32727	0	32733	32879	32647	
336	0	32719	32775	32724	32724	0	32711	32673	32583	
337	0	32767	32775	32612	32687	0	32797	32838	32685	
338	0	32804	32797	32717	32743	0	32834	32827	32638	
339	0	32756	32890	32645	32727	0	32733	32605	32669	
340	0	32787	32797	32763	32751	0	32668	32891	32583	
341	0	32796	32719	32721	32671	0	32748	32893	32735	
342	0	32807	32775	32707	32543	0	32807	32656	32647	
343	0	32823	32814	32727	32558	0	32751	32799	32581	
344	0	32814	32775	32685	32658	0	32804	32915	32667	
345	0	32759	32783	32743	32711	0	32790	32638	32514	
346	0	32788	32834	32695	32738	0	32806	32775	32615	
347	0	32782	32739	32693	32715	0	32839	32791	32731	
348	0	32767	32863	32759	32731	0	32833	32732	32689	
349	0	32752	32809	32665	32711	0	32684	32791	32761	
350	0	32747	32775	32773	32660	0	32751	32639	32739	
351	0	32775	32789	32663	32630	0	32743	32766	32791	
352	0	32799	32759	32647	32701	0	32791	32883	32663	
353	0	32759	32715	32711	32694	0	32815	32583	32669	
354	0	32730	32727	32677	32701	0	32775	32845	32523	
355	0	32750	32803	32747	32679	0	32695	32635	32707	
356	0	32745	32747	32775	32644	0	32767	32804	32767	
357	0	32759	32794	32771	32742	0	32738	32683	32677	
358	0	32746	32771	32613	32727	0	32759	32795	32671	
359	0	32742	32795	32711	32719	0	32759	32839	32476	
360	0	32788	32751	32739	32619	0	32775	32795	32647	
361	0	32795	32819	32661	32580	0	32759	32887	32811	
362	0	32765	32786	32771	32715	0	32695	32579	32799	
363	0	32795	32743	32719	32691	0	32679	32803	32749	
364	0	32769	32767	32699	32711	0	32735	32673	32605	
365	0	32799	32783	32687	32727	0	32821	32775	32647	
366	0	32789	32691	32674	32707	0	32785	32863	32583	
367	0	32758	32775	32711	32703	0	32839	32646	32751	
368	0	32748	32739	32683	32706	0	32773	32796	32743	
369	0	32724	32802	32657	32681	0	32700	32631	32749	
370	0	32707	32823	32717	32685	0	32775	32758	32819	
371	0	32718	32767	32742	32711	0	32839	32855	32711	
372	0	32806	32797	32643	32707	0	32675	32639	32611	
373	0	32743	32878	32703	32687	0	32685	32738	32631	
374	0	32767	32756	32727	32701	0	32725	32613	32794	
375	0	32743	32812	32747	32747	0	32911	32647	32781	
376	0	32738	32817	32731	32737	0	32839	32855	32830	
377	0	32725	32751	32631	32766	0	32865	32703	32807	
378	0	32727	32671	32749	32677	0	32775	32853	32773	
379	0	32751	32795	32695	32542	0	32711	32873	32639	
380	0	32769	32820	32775	32540	0	32766	32623	32607	
381	0	32769	32727	32612	32492	0	32743	32684	32710	
382	0	32767	32810	32775	32555	0	32775	32813	32567	
383	0	32799	32819	32759	32554	0	32829	32735	32583	
384	0	32763	32743	32669	32735	0	32711	32612	32423	
385	0	32820	32715	32719	32755	0	32639	32831	32552	
386	0	32807	32811	32683	32679	0	32647	32702	32623	
387	0	32802	32711	32739	32637	0	32602	32679	32611	
388	0	32767	32764	32726	32671	0	32671	32676	32681	
389	0	32631	32827	32639	32627	0	32795	32647	32709	
390	0	32718	32807	32767	32679	0	32822	32775	32829	
391	0	32741	32815	32756	32669	0	32759	32701	32655	
392	0	32706	32731	32701	32757	0	32836	32679	32790	
393	0	32714	32791	32741	32756	0	32914	32854	32830	
394	0	32694	32839	32695	32708	0	32953	32611	32948	
395	0	32740	32730	32719	32647	0	32758	32790	32830	
396	0	32742	32733	32711	32663	0	32703	32900	32699	
397	0	32745	32783	32658	32683	0	32695	32750	32481	
398	0	32791	32775	32709	32646	0	32809	32843	32640	
399	0	32721	32839	32660	32538	0	32884	32893	32644	
400	0	32742	32727	32737	32551	0	32871	32626	32775	
401	0	32755	32751	32615	32533	0	32775	32822	32615	
402	0	32727	32786	32717	32647	0	32702	32851	32573	
403	0	32716	32835	32717	32743	0	32835	32611	32610	
404	0	32754	32775	32727	32690	0	32770	32705	32693	
405	0	32793	32847	32745	32638	0	32722	32607	32469	
406	0	32831	32783	32615	32725	0	32695	32665	32522	
407	0	32800	32711	32663	32751	0	32737	32759	32409	
408	0	32814	32887	32668	32669	0	32823	32694	32663	
409	0	32788	32743	32610	32671	0	32801	32943	32481	
410	0	32793	32775	32723	32695	0	32630	32710	32532	
411	0	32795	32827	32706	32695	0	32623	32813	32713	
412	0	32812	32735	32615	32740	0	32630	32591	32707	
413	0	32715	32743	32741	32641	0	32647	32775	32775	
414	0	32794	32793	32662	32583	0	32783	32822	32754	
415	0	32765	32703	32707	32669	0	32892	32647	32699	
416	0	32751	32789	32751	32705	0	32883	32775	32551	
417	0	32767	32786	32754	32739	0	32819	32887	32639	
418	0	32744	32762	32833	32795	0	32775	32687	32535	
419	0	32742	32775	32791	32635	0	32743	32803	32615	
420	0	32722	32750	32669	32539	0	32855	32815	32553	
421	0	32775	32819	32757	32532	0	32803	32541	32734	
422	0	32742	32751	32613	32759	0	32758	32763	32615	
423	0	32774	32731	32734	32794	0	32861	32815	32881	
424	0	32784	32767	32719	32701	0	32871	32587	32877	
425	0	32789	32838	32791	32773	0	32775	32727	32815	
426	0	32751	32775	32640	32814	0	32820	32823	32691	
427	0	32756	32716	32807	32759	0	32806	32575	32796	
428	0	32790	32817	32725	32738	0	32819	32865	32711	
429	0	32705	32802	32671	32713	0	32855	32732	32662	
430	0	32741	32743	32773	32727	0	32946	32855	32487	
431	0	32751	32771	32597	32595	0	32813	32886	32689	
432	0	32783	32835	32713	32559	0	32837	32671	32599	
433	0	32790	32711	32755	32597	0	32751	32797	32803	
434	0	32723	32767	32647	32615	0	32659	32823	32575	
435	0	32724	32903	32716	32559	0	32731	32647	32647	
436	0	32732	32759	32609	32603	0	32757	32773	32677	
437	0	32738	32708	32767	32671	0	32749	32823	32675	
438	0	32775	32775	32789	32715	0	32751	32525	32637	
439	0	32729	32771	32703	32634	0	32675	32739	32503	
440	0	32748	32795	32787	32645	0	32791	32860	32647	
441	0	32749	32735	32663	32647	0	32724	32791	32549	
442	0	32775	32743	32671	32643	0	32756	32751	32707	
443	0	32732	32829	32647	32683	0	32756	32687	32517	
444	0	32791	32743	32770	32751	0	32663	32773	32673	
445	0	32762	32821	32775	32786	0	32677	32868	32551	
446	0	32802	32807	32663	32751	0	32799	32628	32647	
447	0	32791	32815	32734	32715	0	32871	32775	32775	
448	0	32779	32877	32730	32707	0	32878	32470	32847	
449	0	32790	32789	32627	32701	0	32835	32732	32835	
450	0	32816	32787	32805	32647	0	32701	32827	32795	
451	0	32804	32803	32730	32643	0	32682	32787	32726	
452	0	32812	32747	32647	32620	0	32711	32879	32615	
453	0	32720	32831	32797	32663	0	32775	32659	32751	
454	0	32700	32839	32767	32628	0	32743	32743	32698	
455	0	32769	32751	32555	32647	0	32773	32868	32675	
456	0	32763	32715	32631	32727	0	32639	32571	32646	
457	0	32738	32791	32675	32705	0	32895	32759	32743	
458	0	32702	32669	32671	32717	0	32943	32847	32823	
459	0	32745	32763	32690	32711	0	32830	32799	32743	
460	0	32780	32749	32629	32722	0	32765	32849	32642	
461	0	32760	32807	32627	32767	0	32751	32501	32747	
462	0	32748	32807	32711	32687	0	32599	32671	32759	
463	0	32743	32763	32615	32635	0	32804	32797	32687	
464	0	32749	32673	32671	32541	0	32859	32639	32594	
465	0	32773	32790	32583	32539	0	32863	32850	32772	
466	0	32754	32890	32719	32690	0	32813	32725	32687	
467	0	32785	32823	32707	32641	0	32811	32625	32831	
468	0	32757	32775	32727	32751	0	32887	32879	32871	
469	0	32782	32810	32733	32703	0	32854	32803	32834	
470	0	32783	32918	32676	32647	0	32799	32825	32775	
471	0	32805	32801	32771	32668	0	32735	32859	32690	
472	0	32775	32831	32795	32710	0	32815	32643	32687	
473	0	32772	32759	32734	32692	0	32757	32810	32685	
474	0	32756	32793	32727	32711	0	32693	32687	32510	
475	0	32735	32903	32691	32743	0	32723	32823	32599	
476	0	32751	32743	32629	32703	0	32725	32713	32727	
477	0	32799	32783	32721	32683	0	32703	32731	32599	
478	0	32803	32815	32786	32639	0	32823	32739	32715	
479	0	32732	32699	32701	32687	0	32829	32627	32667	
480	0	32694	32769	32742	32647	0	32729	32879	32707	
481	0	32708	32742	32645	32660	0	32784	32698	32647	
482	0	32679	32786	32735	32703	0	32724	32775	32551	
483	0	32705	32773	32799	32758	0	32694	32895	32647	
484	0	32751	32723	32619	32695	0	32663	32619	32683	
485	0	32748	32694	32743	32710	0	32694	32764	32634	
486	0	32749	32775	32687	32626	0	32681	32535	32625	
487	0	32788	32711	32562	32623	0	32743	32815	32626	
488	0	32755	32769	32719	32559	0	32769	32663	32670	
489	0	32694	32773	32759	32539	0	32711	32735	32491	
490	0	32775	32759	32702	32515	0	32775	32823	32717	
491	0	32799	32803	32783	32535	0	32835	32803	32770	
492	0	32775	32711	32755	32516	0	32742	33047	32607	
493	0	32801	32726	32673	32519	0	32811	32725	32711	
494	0	32824	32727	32719	32559	0	32775	32738	32582	
495	0	32751	32711	32727	32555	0	32631	32631	32719	
496	0	32762	32748	32647	32587	0	32683	32785	32564	
497	0	32773	32751	32795	32630	0	32765	32807	32715	
498	0	32792	32804	32762	32606	0	32763	32727	32581	
499	0	32757	32847	32617	32547	0	32823	32684	32738	
500	0	32804	32751	32731	32528	0	32764	32469	32551	
501	0	32799	32807	32727	32527	0	32775	32834	32607	
502	0	32739	32775	32711	32662	0	32775	32739	32643	
503	0	32727	32862	32806	32775	0	32834	32853	32553	
504	0	32728	32855	32755	32765	0	32703	32775	32633	
505	0	32705	32741	32647	32647	0	32751	32785	32519	
506	0	32680	32804	32735	32613	0	32677	32933	32518	
507	0	32741	32699	32765	32591	0	32684	32807	32633	
508	0	32799	32762	32637	32643	0	32631	32827	32503	
509	0	32782	32711	32726	32613	0	32717	32575	32727	
510	0	32747	32687	32719	32641	0	32855	32783	32771	
511	0	32784	32775	32659	32615	0	32886	32919	33011	
512	0	32806	32821	32717	32586	0	32933	32643	32903	
513	0	32816	32741	32630	32631	0	32962	32866	32951	
514	0	32772	32739	32721	32631	0	32922	32775	32719	
515	0	32735	32799	32739	32599	0	32927	32822	32581	
516	0	32749	32795	32647	32575	0	32805	32775	32593	
517	0	32706	32775	32713	32503	0	32807	32647	32537	
518	0	32731	32878	32699	32599	0	32839	32797	32594	
519	0	32707	32775	32579	32765	0	32903	32706	32500	
520	0	32749	32829	32729	32743	0	32871	32793	32647	
521	0	32775	32791	32697	32655	0	32733	32797	32614	
522	0	32814	32815	32564	32734	0	32935	32805	32615	
523	0	32804	32883	32655	32719	0	32847	32972	32581	
524	0	32839	32801	32734	32735	0	32851	32719	32694	
525	0	32820	32775	32591	32702	0	32772	32834	32710	
526	0	32743	32850	32740	32725	0	32719	32799	32789	
527	0	32785	32767	32767	32711	0	32702	32717	32755	
528	0	32763	32807	32603	32717	0	32647	32742	32740	
529	0	32769	32855	32731	32674	0	32711	32591	32524	
530	0	32783	32743	32765	32699	0	32719	32813	32591	
531	0	32775	32791	32660	32699	0	32731	32827	32551	
532	0	32763	32740	32747	32767	0	32743	32527	32699	
533	0	32771	32723	32647	32743	0	32765	32668	32575	
534	0	32782	32751	32767	32739	0	32647	32847	32721	
535	0	32780	32803	32666	32635	0	32723	32653	32626	
536	0	32759	32721	32631	32658	0	32731	32807	32628	
537	0	32663	32759	32802	32677	0	32711	32663	32535	
538	0	32698	32813	32799	32663	0	32685	32835	32683	
539	0	32723	32775	32676	32671	0	32711	32876	32771	
540	0	32712	32775	32759	32711	0	32703	32595	32671	
541	0	32734	32751	32771	32767	0	32722	32708	32695	
542	0	32719	32749	32727	32835	0	32735	32879	32641	
543	0	32789	32811	32711	32749	0	32742	32633	32667	
544	0	32739	32791	32612	32703	0	32775	32757	32623	
545	0	32678	32783	32621	32786	0	32827	32691	32868	
546	0	32711	32811	32759	32727	0	32804	32701	32807	
547	0	32756	32687	32733	32631	0	32797	32707	32807	
548	0	32807	32743	32733	32575	0	32807	32765	32758	
549	0	32734	32819	32775	32471	0	32843	32687	32775	
550	0	32780	32773	32647	32454	0	32831	32775	32759	
551	0	32799	32775	32794	32475	0	32805	32735	32599	
552	0	32787	32799	32708	32555	0	32687	32735	32683	
553	0	32801	32695	32610	32503	0	32749	32829	32527	
554	0	32795	32766	32671	32438	0	32631	32623	32633	
555	0	32747	32837	32631	32542	0	32719	32795	32599	
556	0	32733	32749	32775	32611	0	32690	32871	32717	
557	0	32759	32757	32727	32586	0	32723	32731	32751	
558	0	32787	32783	32607	32530	0	32789	32721	32627	
559	0	32751	32743	32739	32477	0	32747	32771	32581	
560	0	32775	32743	32773	32579	0	32832	32525	32771	
561	0	32743	32775	32647	32685	0	32775	32919	32743	
562	0	32731	32790	32666	32703	0	32871	32789	32628	
563	0	32688	32855	32772	32807	0	32893	32719	32773	
564	0	32769	32767	32639	32739	0	32883	32831	32766	
565	0	32842	32751	32797	32775	0	32795	32587	32714	
566	0	32767	32855	32687	32771	0	32769	32727	32607	
567	0	32788	32723	32659	32677	0	32685	32719	32647	
568	0	32839	32775	32734	32671	0	32710	32713	32419	
569	0	32862	32851	32719	32669	0	32719	32733	32490	
570	0	32787	32759	32658	32709	0	32737	32633	32555	
571	0	32798	32775	32751	32753	0	32811	32813	32722	
572	0	32745	32807	32717	32663	0	32788	32966	32813	
573	0	32741	32733	32599	32687	0	32807	32676	32585	
574	0	32675	32775	32775	32707	0	32827	32719	32793	
575	0	32775	32821	32642	32693	0	32854	32913	32671	
576	0	32742	32731	32679	32631	0	32895	32767	32681	
577	0	32772	32751	32775	32690	0	32817	32831	32639	
578	0	32763	32815	32687	32655	0	32687	32817	32691	
579	0	32769	32811	32583	32676	0	32804	32709	32731	
580	0	32732	32823	32705	32703	0	32839	32711	32693	
581	0	32743	32771	32643	32685	0	32783	32591	32703	
582	0	32788	32742	32711	32703	0	32803	32835	32631	
583	0	32706	32839	32830	32743	0	32751	32883	32723	
584	0	32708	32751	32751	32687	0	32642	32589	32627	
585	0	32756	32831	32726	32735	0	32671	32891	32647	
586	0	32751	32716	32775	32687	0	32693	32691	32564	
587	0	32724	32787	32759	32567	0	32727	32694	32671	
588	0	32812	32762	32629	32571	0	32711	32886	32679	
589	0	32758	32751	32807	32563	0	32765	32621	32708	
590	0	32762	32797	32773	32611	0	32839	32742	32811	
591	0	32763	32791	32681	32638	0	32827	32869	32647	
592	0	32792	32815	32715	32574	0	32723	32695	32611	
593	0	32810	32847	32711	32501	0	32754	32834	32469	
594	0	32783	32735	32637	32525	0	32775	32573	32593	
595	0	32718	32852	32655	32516	0	32773	32771	32551	
596	0	32725	32851	32599	32566	0	32803	32854	32687	
597	0	32743	32775	32647	32563	0	32747	32587	32733	
598	0	32791	32871	32695	32567	0	32763	32789	32787	
599	0	32775	32719	32685	32607	0	32791	32819	32811	
600	0	32687	32847	32559	32635	0	32818	32782	32679	
601	0	32740	32855	32697	32751	0	32775	32842	32879	
602	0	32732	32831	32743	32791	0	32847	32541	32770	
603	0	32743	32818	32695	32775	0	32829	32819	32787	
604	0	32750	32804	32587	32671	0	32869	32591	32647	
605	0	32709	32855	32695	32751	0	32773	32739	32743	
606	0	32759	32803	32765	32721	0	32797	32641	32830	
607	0	32732	32819	32684	32663	0	32727	32673	32801	
608	0	32738	32819	32739	32626	0	32791	32707	32839	
609	0	32749	32791	32767	32593	0	32679	32679	32719	
610	0	32758	32683	32767	32669	0	32749	32519	32469	
611	0	32743	32735	32807	32637	0	32751	32708	32607	
612	0	32724	32773	32771	32516	0	32903	32815	32551	
613	0	32696	32707	32835	32549	0	32839	32566	32617	
614	0	32656	32685	32807	32452	0	32763	32759	32501	
615	0	32637	32767	32861	32499	0	32687	32916	32559	
616	0	32653	32758	32835	32580	0	32813	32647	32607	
617	0	32594	32702	32887	32506	0	32845	32543	32691	
618	0	32624	32647	32847	32539	0	32753	32647	32583	
619	0	32619	32727	32991	32479	0	32766	32727	32517	
620	0	32583	32723	32973	32469	0	32841	32431	32547	
621	0	32624	32759	32877	32335	0	32681	32551	32467	
622	0	32613	32670	32775	32313	0	32621	32597	32638	
623	0	32713	32609	32912	32551	0	32695	32714	32637	
624	0	32795	32630	32866	32519	0	32695	32495	32639	
625	0	32813	32535	32775	32481	0	32683	32671	32523	
626	0	32763	32569	32903	32531	0	32719	32715	32607	
627	0	32760	32673	32731	32554	0	32647	32543	32501	
628	0	32773	32691	32758	32549	0	32647	32709	32717	
629	0	32748	32597	32807	32598	0	32527	32845	32575	
630	0	32821	32587	32701	32639	0	32699	32759	32597	
631	0	32782	32695	32727	32676	0	32735	32707	32528	
632	0	32821	32764	32589	32711	0	32827	32973	32615	
633	0	32795	32812	32654	32647	0	32705	33062	32619	
634	0	32762	32823	32599	32701	0	32763	32855	32636	
635	0	32797	32819	32694	32783	0	32775	32959	32740	
636	0	32840	32963	32671	32847	0	32853	33121	32771	
637	0	32879	32919	32508	33027	0	32859	33043	32726	
638	0	32929	33005	32539	33007	0	32998	33095	32730	
639	0	32983	33039	32533	32967	0	32933	33171	32562	
640	0	32999	32927	32407	33127	0	32836	32902	32564	
641	0	33024	32807	32455	33029	0	32695	33115	32553	
642	0	33045	32891	32353	33021	0	32729	33223	32619	
643	0	33151	32963	32419	33095	0	32803	33212	32748	
644	0	33165	32819	32363	33068	0	32741	33219	32819	
645	0	33095	32839	32297	32980	0	32759	33305	32629	
646	0	33053	32867	32403	33007	0	32775	33191	32791	
647	0	33084	32797	32428	32943	0	32715	33071	32638	
648	0	33000	32825	32385	33005	0	32719	33078	32703	
649	0	33076	32868	32383	33039	0	32770	32839	32749	
650	0	33025	32836	32404	32975	0	32795	32935	32844	
651	0	32958	32823	32461	32947	0	32850	32925	32681	
652	0	32869	32847	32621	32875	0	32943	32709	32661	
653	0	32806	32775	32695	32751	0	32929	32852	32647	
654	0	32715	32791	32670	32754	0	32947	32621	32711	
655	0	32622	32722	32839	32755	0	32901	32724	32582	
656	0	32637	32727	32822	32676	0	32843	32727	32675	
657	0	32623	32775	32732	32583	0	32819	32455	32818	
658	0	32599	32677	32898	32563	0	32687	32606	32587	
659	0	32559	32701	32783	32461	0	32647	32539	32493	
660	0	32471	32759	32902	32463	0	32708	32374	32527	
661	0	32598	32743	32879	32407	0	32799	32461	32725	
662	0	32522	32735	32830	32383	0	32839	32455	32634	
663	0	32489	32775	32983	32359	0	32823	32236	32817	
664	0	32501	32719	32947	32383	0	32887	32491	32727	
665	0	32534	32733	32977	32342	0	32903	32351	32711	
666	0	32503	32812	32879	32425	0	32743	32307	32647	
667	0	32537	32775	32919	32531	0	32732	32482	32739	
668	0	32556	32787	32813	32551	0	32765	32602	32706	
669	0	32578	32834	32955	32641	0	32791	32310	32775	
670	0	32588	32823	32873	32642	0	32844	32627	32623	
671	0	32580	32815	32738	32710	0	32827	32591	32754	
672	0	32617	32892	32775	32591	0	32883	32446	32647	
673	0	32630	32883	32690	32615	0	32743	32647	32655	
674	0	32700	32775	32687	32631	0	32637	32571	32533	
675	0	32684	32887	32766	32647	0	32925	32591	32757	
676	0	32767	32855	32759	32791	0	32925	32719	32794	
677	0	32773	32823	32591	32787	0	32903	32562	32602	
678	0	32769	32807	32731	32775	0	32807	32727	32647	
679	0	32783	32783	32647	32764	0	32715	32614	32567	
680	0	32802	32735	32543	32763	0	32607	32854	32606	
681	0	32820	32711	32696	32758	0	32692	33019	32477	
682	0	32812	32679	32735	32695	0	32646	32797	32677	
683	0	32775	32751	32762	32614	0	32806	32865	32597	
684	0	32810	32819	32775	32556	0	32747	32884	32689	
685	0	32856	32720	32597	32503	0	32743	32731	32551	
686	0	32753	32775	32703	32543	0	32731	32719	32607	
687	0	32844	32807	32576	32663	0	32732	32855	32503	
688	0	32855	32721	32663	32615	0	32722	32749	32535	
689	0	32849	32759	32687	32597	0	32941	32867	32513	
690	0	32865	32723	32613	32630	0	32877	32987	32585	
691	0	32830	32721	32802	32682	0	32767	32679	32445	
692	0	32863	32683	32775	32693	0	32759	32831	32611	
693	0	32797	32767	32621	32743	0	32629	32775	32533	
694	0	32775	32773	32735	32737	0	32799	32785	32775	
695	0	32759	32789	32773	32757	0	32887	32806	32987	
696	0	32765	32837	32638	32733	0	32887	32583	32799	
697	0	32762	32775	32764	32751	0	32757	32801	32679	
698	0	32762	32703	32726	32743	0	32803	32876	32759	
699	0	32735	32791	32767	32703	0	32702	32671	32541	
700	0	32708	32863	32775	32711	0	32671	32871	32564	
701	0	32727	32831	32745	32742	0	32829	32941	32489	
702	0	32657	32775	32709	32699	0	32759	32699	32599	
703	0	32719	32795	32666	32677	0	32705	32914	32491	
704	0	32797	32787	32685	32655	0	32666	32653	32607	
705	0	32742	32829	32655	32687	0	32734	32783	32775	
706	0	32785	32836	32599	32667	0	32796	32799	32762	
707	0	32740	32731	32707	32705	0	32870	32766	32726	
708	0	32773	32751	32723	32658	0	32771	32916	32555	
709	0	32796	32742	32599	32621	0	32677	32662	32593	
710	0	32773	32763	32739	32643	0	32647	32835	32476	
711	0	32793	32799	32722	32639	0	32727	32687	32647	
712	0	32811	32851	32707	32642	0	32787	32755	32562	
713	0	32799	32747	32683	32647	0	32786	32823	32749	
714	0	32748	32775	32765	32668	0	32861	32543	32863	
715	0	32764	32787	32662	32645	0	32751	32727	32749	
716	0	32775	32707	32711	32711	0	32727	32567	32797	
717	0	32724	32823	32710	32775	0	32690	32607	32671	
718	0	32766	32771	32714	32677	0	32775	32806	32727	
719	0	32718	32725	32719	32715	0	32749	32775	32594	
720	0	32723	32775	32685	32647	0	32745	32887	32638	
721	0	32704	32827	32695	32677	0	32619	32690	32679	
722	0	32695	32756	32807	32645	0	32647	32812	32823	
723	0	32691	32841	32695	32753	0	32870	32915	32756	
724	0	32749	32845	32786	32695	0	32815	32641	32585	
725	0	32734	32706	32697	32742	0	32767	32734	32703	
726	0	32751	32815	32703	32695	0	32723	32703	32751	
727	0	32738	32775	32758	32647	0	32711	32731	32605	
728	0	32729	32723	32661	32631	0	32669	32741	32642	
729	0	32751	32785	32617	32633	0	32619	32579	32615	
730	0	32789	32726	32721	32647	0	32717	32687	32731	
731	0	32796	32759	32708	32647	0	32699	32635	32391	
732	0	32796	32743	32636	32697	0	32797	32823	32551	
733	0	32742	32687	32783	32663	0	32871	32727	32647	
734	0	32772	32757	32661	32679	0	32975	32527	33003	
735	0	32822	32813	32804	32756	0	32916	32755	32753	
736	0	32745	32799	32775	32791	0	33069	32917	32727	
737	0	32749	32775	32690	32679	0	32991	32692	32621	
738	0	32775	32711	32775	32630	0	32946	32839	32822	
739	0	32775	32759	32719	32627	0	32851	32867	32827	
740	0	32825	32829	32727	32667	0	32897	32711	32683	
741	0	32773	32829	32617	32707	0	32861	32798	32646	
742	0	32743	32761	32679	32690	0	32726	32903	32405	
743	0	32754	32742	32625	32677	0	32763	32647	32659	
744	0	32727	32765	32735	32726	0	32825	32854	32507	
745	0	32807	32791	32647	32742	0	32749	32900	32591	
746	0	32775	32843	32789	32711	0	32719	32669	32421	
747	0	32799	32773	32745	32709	0	32715	32767	32591	
748	0	32782	32751	32705	32571	0	32807	32863	32567	
749	0	32809	32727	32715	32565	0	32647	32675	32662	
750	0	32767	32775	32647	32679	0	32663	32757	32663	
751	0	32761	32747	32707	32687	0	32660	32815	32756	
752	0	32769	32701	32679	32716	0	32743	32647	32639	
753	0	32727	32847	32703	32598	0	32799	32818	32638	
754	0	32718	32775	32735	32529	0	32770	32623	32527	
755	0	32741	32767	32775	32567	0	32770	32755	32623	
756	0	32719	32762	32633	32659	0	32749	32571	32559	
757	0	32767	32759	32735	32605	0	32743	32743	32621	
758	0	32743	32771	32807	32644	0	32751	32852	32543	
759	0	32746	32807	32610	32670	0	32709	32625	32619	
760	0	32731	32747	32677	32643	0	32732	32738	32623	
761	0	32743	32827	32645	32727	0	32758	32633	32665	
762	0	32775	32727	32721	32709	0	32670	32911	32495	
763	0	32735	32815	32750	32695	0	32663	32839	32615	
764	0	32732	32775	32731	32732	0	32791	32719	32723	
765	0	32743	32743	32615	32687	0	32863	32893	32733	
766	0	32716	32757	32732	32727	0	32695	32668	32679	
767	0	32748	32830	32599	32751	0	32799	32742	32647	
768	0	32791	32775	32775	32735	0	32875	32853	32647	
769	0	32819	32815	32735	32773	0	32895	32535	32855	
770	0	32788	32839	32627	32771	0	32843	32699	32655	
771	0	32764	32775	32730	32573	0	32757	32789	32807	
772	0	32760	32733	32707	32639	0	32723	32647	32567	
773	0	32764	32795	32757	32635	0	32755	32855	32677	
774	0	32802	32818	32743	32581	0	32807	32845	32705	
775	0	32759	32687	32623	32563	0	32766	32647	32711	
776	0	32706	32788	32715	32605	0	32735	32771	32658	
777	0	32718	32830	32735	32613	0	32830	32765	32711	
778	0	32735	32775	32645	32683	0	32830	32764	32627	
779	0	32742	32751	32706	32708	0	32839	32848	32699	
780	0	32699	32823	32632	32757	0	32806	32743	32687	
781	0	32843	32863	32795	32693	0	32709	32588	32695	
782	0	32751	32751	32711	32687	0	32799	32847	32837	
783	0	32790	32754	32763	32675	0	32786	32825	32851	
784	0	32815	32775	32751	32674	0	32738	32565	32547	
785	0	32793	32775	32551	32766	0	32743	32853	32461	
786	0	32802	32786	32695	32719	0	32775	32659	32695	
787	0	32815	32715	32773	32623	0	32671	32765	32855	
788	0	32818	32757	32636	32637	0	32729	32877	32765	
789	0	32801	32711	32723	32635	0	32756	32575	32799	
790	0	32775	32833	32687	32669	0	32836	32723	32715	
791	0	32690	32801	32735	32815	0	32807	32830	32684	
792	0	32704	32719	32669	32698	0	32772	32567	32693	
793	0	32712	32807	32627	32707	0	32755	32805	32797	
794	0	32743	32783	32690	32703	0	32863	32739	32775	
795	0	32781	32757	32706	32719	0	32870	32758	32610	
796	0	32733	32725	32619	32705	0	32756	32751	32685	
797	0	32699	32775	32692	32695	0	32700	32822	32575	
798	0	32771	32797	32582	32583	0	32739	32647	32615	
799	0	32745	32749	32759	32563	0	32805	32831	32621	
800	0	32755	32763	32703	32562	0	32747	32839	32579	
801	0	32745	32788	32810	32605	0	32647	32749	32689	
802	0	32729	32743	32775	32501	0	32703	32803	32743	
803	0	32696	32815	32689	32551	0	32694	32743	32583	
804	0	32770	32815	32775	32487	0	32687	32549	32751	
805	0	32745	32805	32699	32591	0	32751	32725	32631	
806	0	32773	32854	32629	32539	0	32742	32615	32715	
807	0	32759	32751	32717	32571	0	32812	32727	32530	
808	0	32796	32711	32683	32559	0	32719	32788	32655	
809	0	32759	32763	32575	32551	0	32754	32591	32563	
810	0	32805	32805	32682	32581	0	32701	32727	32738	
811	0	32767	32723	32763	32597	0	32738	32894	32551	
812	0	32784	32790	32610	32539	0	32703	32646	32647	
813	0	32780	32743	32756	32549	0	32667	32811	32669	
814	0	32788	32775	32775	32606	0	32701	32731	32543	
815	0	32775	32902	32685	32566	0	32798	32686	32695	
816	0	32755	32799	32705	32747	0	32702	32894	32631	
817	0	32773	32837	32724	32705	0	32775	32669	32647	
818	0	32794	32755	32678	32709	0	32871	32730	32578	
819	0	32722	32765	32727	32722	0	32795	32775	32660	
820	0	32743	32834	32725	32771	0	32754	32613	32711	
821	0	32729	32827	32639	32803	0	32772	32727	32687	
822	0	32726	32764	32699	32731	0	32757	32717	32801	
823	0	32771	32807	32703	32743	0	32791	32725	32775	
824	0	32789	32723	32676	32666	0	32759	32748	32655	
825	0	32799	32791	32813	32641	0	32742	32735	32639	
826	0	32815	32775	32796	32647	0	32775	32630	32593	
827	0	32826	32731	32748	32503	0	32733	32817	32639	
828	0	32816	32711	32717	32518	0	32821	32902	32543	
829	0	32785	32767	32583	32518	0	32578	32615	32579	
830	0	32743	32797	32691	32507	0	32719	32726	32521	
831	0	32754	32775	32655	32567	0	32795	32826	32647	
832	0	32759	32719	32687	32531	0	32799	32619	32571	
833	0	32733	32775	32737	32575	0	32775	32807	32647	
834	0	32711	32839	32634	32711	0	32786	32863	32659	
835	0	32727	32838	32729	32759	0	32807	32935	32733	
836	0	32722	32804	32775	32747	0	32791	32647	32775	
837	0	32751	32826	32587	32703	0	32733	32807	32621	
838	0	32692	32773	32711	32599	0	32679	32797	32663	
839	0	32749	32803	32743	32594	0	32805	32783	32769	
840	0	32745	32834	32659	32733	0	32759	32790	32775	
841	0	32735	32819	32647	32727	0	32858	32802	32727	
842	0	32716	32749	32703	32743	0	32829	32558	32711	
843	0	32773	32815	32820	32740	0	32685	32739	32615	
844	0	32775	32871	32763	32683	0	32671	32714	32493	
845	0	32774	32751	32671	32679	0	32759	32621	32519	
846	0	32821	32775	32696	32647	0	32613	32839	32493	
847	0	32711	32789	32629	32718	0	32606	32662	32671	
848	0	32729	32687	32775	32638	0	32783	32516	32727	
849	0	32719	32738	32826	32671	0	32943	32623	32789	
850	0	32751	32775	32663	32610	0	32891	32655	32549	
851	0	32787	32821	32705	32513	0	32866	32883	32773	
852	0	32712	32769	32645	32593	0	32831	32893	32713	
853	0	32767	32807	32703	32561	0	32815	32771	32657	
854	0	32782	32748	32759	32563	0	32719	32826	32547	
855	0	32745	32775	32646	32539	0	32887	32557	32679	
856	0	32782	32799	32740	32529	0	32757	32767	32711	
857	0	32710	32699	32799	32531	0	32689	32862	32534	
858	0	32811	32755	32665	32553	0	32799	32860	32375	
859	0	32761	32731	32703	32561	0	32711	32852	32551	
860	0	32771	32764	32669	32588	0	32743	32633	32614	
861	0	32743	32749	32719	32615	0	32719	32822	32503	
862	0	32759	32847	32735	32745	0	32715	32763	32415	
863	0	32775	32837	32596	32717	0	32643	32745	32694	
864	0	32721	32727	32725	32711	0	32765	32742	32677	
865	0	32763	32775	32647	32743	0	32903	32815	32791	
866	0	32812	32807	32803	32755	0	32823	32837	32750	
867	0	32772	32850	32828	32775	0	32854	32839	32920	
868	0	32727	32722	32647	32755	0	32854	32621	32977	
869	0	32772	32773	32703	32783	0	32839	32739	33055	
870	0	32764	32805	32647	32735	0	32759	32851	32769	
871	0	32772	32717	32748	32516	0	32755	32683	32621	
872	0	32766	32759	32615	32511	0	32855	32836	32407	
873	0	32784	32775	32653	32518	0	32805	32867	32731	
874	0	32775	32771	32727	32527	0	32799	32803	32695	
875	0	32729	32719	32642	32607	0	32887	32825	32703	
876	0	32697	32837	32719	32566	0	32727	32586	32546	
877	0	32771	32835	32695	32695	0	32707	32775	32587	
878	0	32825	32756	32583	32767	0	32839	32817	32565	
879	0	32775	32789	32742	32775	0	32823	32560	32674	
880	0	32732	32829	32647	32727	0	32839	32767	32611	
881	0	32742	32829	32727	32731	0	32739	32819	32663	
882	0	32775	32831	32659	32699	0	32715	32604	32671	
883	0	32837	32791	32711	32585	0	32748	32795	32647	
884	0	32812	32772	32691	32549	0	32749	32743	32645	
885	0	32831	32759	32609	32594	0	32775	32743	32731	
886	0	32775	32825	32711	32743	0	32707	32723	32647	
887	0	32743	32823	32607	32712	0	32717	32749	32569	
888	0	32775	32795	32713	32669	0	32735	32727	32655	
889	0	32761	32769	32655	32755	0	32773	32799	32612	
890	0	32726	32823	32766	32724	0	32819	32786	32799	
891	0	32742	32750	32793	32707	0	32775	32799	32823	
892	0	32726	32737	32695	32599	0	32754	32818	32701	
893	0	32766	32823	32669	32627	0	32724	32691	32635	
894	0	32753	32743	32583	32619	0	32839	32804	32743	
895	0	32801	32825	32722	32647	0	32827	32821	32711	
896	0	32720	32814	32775	32683	0	32805	32742	32722	
897	0	32716	32877	32643	32726	0	32815	32583	32615	
898	0	32775	32717	32708	32709	0	32807	32807	32631	
899	0	32743	32767	32638	32698	0	32725	32803	32677	
900	0	32759	32799	32719	32775	0	32764	32583	32741	
901	0	32739	32739	32683	32677	0	32734	32739	32751	
902	0	32775	32827	32775	32547	0	32791	32713	32807	
903	0	32729	32799	32663	32509	0	32708	32886	32903	
904	0	32791	32727	32735	32695	0	32839	32747	32799	
905	0	32717	32788	32743	32715	0	32839	32863	32707	
906	0	32811	32799	32695	32671	0	32755	32879	32711	
907	0	32857	32743	32741	32698	0	32711	32879	32765	
908	0	32787	32685	32636	32727	0	32717	32654	32663	
909	0	32719	32775	32791	32783	0	32761	32814	32559	
910	0	32752	32757	32805	32719	0	32716	32783	32677	
911	0	32815	32751	32615	32708	0	32823	32615	32557	
912	0	32798	32791	32663	32767	0	32772	32743	32702	
913	0	32823	32795	32633	32807	0	32711	32767	32532	
914	0	32764	32759	32751	32693	0	32799	32639	32674	
915	0	32735	32746	32722	32575	0	32837	32769	32547	
916	0	32756	32821	32647	32477	0	32871	32900	32567	
917	0	32794	32842	32679	32533	0	32847	32692	32505	
918	0	32753	32807	32679	32679	0	32773	32775	32635	
919	0	32796	32775	32773	32743	0	32830	32815	32647	
920	0	32745	32799	32676	32734	0	32845	32788	32551	
921	0	32745	32811	32647	32722	0	32706	32749	32722	
922	0	32762	32711	32727	32687	0	32669	32871	32716	
923	0	32715	32753	32647	32692	0	32703	32583	32631	
924	0	32823	32813	32753	32631	0	32559	32769	32730	
925	0	32764	32806	32743	32647	0	32757	32786	32719	
926	0	32737	32770	32756	32735	0	32742	32669	32811	
927	0	32684	32742	32762	32631	0	32743	32903	32743	
928	0	32679	32839	32703	32683	0	32737	32903	32727	
929	0	32722	32693	32767	32700	0	32761	32795	32623	
930	0	32829	32759	32700	32705	0	32665	32741	32642	
931	0	32783	32694	32545	32711	0	32695	32690	32600	
932	0	32720	32830	32679	32751	0	32903	32525	32613	
933	0	32759	32758	32663	32739	0	32831	32845	32711	
934	0	32791	32767	32658	32751	0	32817	32671	32787	
935	0	32807	32851	32639	32642	0	32815	32843	32871	
936	0	32789	32735	32661	32553	0	32813	32943	32739	
937	0	32823	32813	32750	32527	0	32769	32615	32717	
938	0	32827	32759	32775	32573	0	32951	32767	32759	
939	0	32706	32818	32749	32614	0	32833	32801	32685	
940	0	32696	32751	32751	32677	0	32783	32559	32601	
941	0	32710	32806	32685	32785	0	32711	32727	32727	
942	0	32767	32767	32759	32741	0	32755	32903	32510	
943	0	32735	32807	32663	32645	0	32619	32623	32445	
944	0	32715	32743	32735	32647	0	32749	32791	32423	
945	0	32695	32690	32647	32719	0	32742	32791	32659	
946	0	32773	32829	32705	32735	0	32775	32773	32553	
947	0	32758	32823	32715	32716	0	32895	32719	32807	
948	0	32737	32758	32671	32742	0	32884	32470	32667	
949	0	32791	32787	32783	32671	0	32845	32701	32735	
950	0	32795	32815	32685	32534	0	32823	32943	32673	
951	0	32784	32759	32775	32611	0	32735	32711	32703	
952	0	32758	32818	32647	32735	0	32815	32775	32660	
953	0	32726	32799	32711	32751	0	32773	32707	32627	
954	0	32775	32759	32819	32667	0	32775	32859	32607	
955	0	32741	32725	32827	32693	0	32711	32647	32483	
956	0	32738	32815	32759	32711	0	32723	32711	32535	
957	0	32710	32797	32725	32564	0	32806	32818	32547	
958	0	32697	32771	32703	32576	0	32655	32731	32602	
959	0	32756	32711	32613	32501	0	32623	32773	32543	
960	0	32727	32743	32701	32451	0	32631	32831	32579	
961	0	32749	32835	32605	32551	0	32694	32647	32735	
962	0	32768	32760	32783	32674	0	32743	32583	32628	
963	0	32805	32805	32647	32671	0	32807	32755	32775	
964	0	32742	32775	32731	32691	0	32806	32839	32771	
965	0	32679	32783	32655	32711	0	32775	32553	32946	
966	0	32730	32847	32669	32699	0	32919	32735	32831	
967	0	32727	32839	32807	32703	0	32855	32804	32791	
968	0	32757	32717	32673	32609	0	32795	32571	32803	
969	0	32818	32763	32747	32579	0	32671	32727	32764	
970	0	32789	32818	32734	32647	0	32721	32695	32615	
971	0	32810	32810	32663	32557	0	32847	32711	32797	
972	0	32767	32775	32767	32549	0	32855	32859	32647	
973	0	32750	32763	32685	32575	0	32862	32839	32629	
974	0	32760	32803	32674	32557	0	32765	32661	32336	
975	0	32714	32767	32623	32595	0	32799	32837	32505	
976	0	32767	32769	32595	32590	0	32827	32775	32719	
977	0	32759	32803	32658	32579	0	32711	32711	32659	
978	0	32775	32775	32684	32534	0	32647	32791	32706	
979	0	32755	32788	32607	32621	0	32690	32455	32751	
980	0	32760	32787	32698	32621	0	32727	32695	32790	
981	0	32794	32751	32795	32675	0	32759	32787	32722	
982	0	32810	32771	32695	32606	0	32749	32471	32693	
983	0	32760	32822	32775	32532	0	32786	32809	32615	
984	0	32775	32799	32773	32503	0	32807	33097	32658	
985	0	32791	32726	32708	32525	0	32706	32807	32694	
986	0	32794	32766	32733	32583	0	32865	32733	32723	
987	0	32816	32786	32647	32671	0	32899	32823	32867	
988	0	32799	32770	32707	32715	0	32853	32662	32795	
989	0	32775	32757	32727	32691	0	32759	32739	32770	
990	0	32813	32749	32701	32701	0	32692	32743	32774	
991	0	32747	32775	32738	32703	0	32794	32903	32614	
992	0	32722	32813	32711	32698	0	32823	32655	32546	
993	0	32729	32757	32802	32735	0	32668	32809	32567	
994	0	32735	32695	32732	32731	0	32637	32921	32489	
995	0	32747	32795	32761	32799	0	32695	32607	32559	
996	0	32743	32749	32684	32693	0	32727	32771	32535	
997	0	32711	32787	32627	32570	0	32839	32791	32795	
998	0	32698	32789	32749	32499	0	32703	32631	32823	
999	0	32713	32823	32687	32565	0	32711	32775	32743	
1000	0	32726	32833	32694	32639	0	32707	32756	32577	
1001	0	32789	32719	32655	32719	0	32767	32933	32447	
1002	0	32803	32775	32711	32805	0	32733	32647	32571	
1003	0	32746	32829	32791	32757	0	32805	32739	32542	
1004	0	32743	32815	32659	32742	0	32807	32821	32612	
1005	0	32761	32759	32757	32701	0	32647	32639	32421	
1006	0	32784	32759	32719	32695	0	32727	32822	32567	
1007	0	32758	32764	32799	32703	0	32932	32796	32659	
1008	0	32714	32741	32735	32749	0	32927	32591	32815	
1009	0	32710	32739	32587	32704	0	32822	32647	32695	
1010	0	32748	32775	32718	32641	0	32859	32711	32773	
1011	0	32799	32775	32599	32631	0	32743	32620	32811	
1012	0	32817	32679	32730	32679	0	32791	32647	32711	
1013	0	32784	32732	32769	32681	0	32825	32810	32854	
1014	0	32765	32797	32611	32679	0	32851	32823	32695	
1015	0	32740	32733	32687	32663	0	32743	32631	32717	
1016	0	32714	32763	32775	32719	0	32743	32883	32599	
1017	0	32715	32807	32683	32690	0	32642	32800	32634	
1018	0	32765	32787	32735	32775	0	32647	32879	32495	
1019	0	32756	32785	32631	32738	0	32791	32865	32667	
1020	0	32769	32911	32631	32786	0	32716	32533	32711	
1021	0	32775	32764	32644	32787	0	32741	32757	32671	
1022	0	32692	32759	32698	32671	0	32807	32669	32503	
1023	0	32757	32790	32743	32551	0	32737	32775	32613	
1024	0	32791	32831	32750	32546	0	32711	32866	32586	
1025	0	32761	32765	32671	32583	0	32706	32621	32733	
1026	0	32763	32743	32781	32693	0	32671	32743	32695	
1027	0	32785	32807	32749	32629	0	32647	32866	32694	
1028	0	32839	32814	32692	32636	0	32755	32663	32551	
1029	0	32823	32723	32735	32655	0	32679	32820	32421	
1030	0	32773	32751	32695	32695	0	32730	32681	32637	
1031	0	32771	32775	32717	32638	0	32799	32701	32863	
1032	0	32755	32829	32628	32489	0	32895	32583	32815	
1033	0	32740	32751	32669	32631	0	32790	32727	33020	
1034	0	32765	32772	32631	32734	0	33010	32761	33079	
1035	0	32727	32726	32738	32819	0	32975	32669	33117	
1036	0	32740	32759	32727	32724	0	32859	32718	32871	
1037	0	32734	32734	32577	32684	0	32877	32911	32554	
1038	0	32704	32687	32735	32717	0	32757	32871	32437	
1039	0	32703	32795	32617	32658	0	32703	32863	32549	
1040	0	32660	32758	32709	32769	0	32621	32842	32481	
1041	0	32738	32847	32749	32751	0	32671	32621	32551	
1042	0	32775	32775	32637	32762	0	32714	32719	32706	
1043	0	32807	32751	32721	32583	0	32671	32775	32468	
1044	0	32720	32775	32699	32562	0	32638	32875	32707	
1045	0	32783	32786	32751	32695	0	32723	32667	32647	
1046	0	32795	32756	32645	32660	0	32837	32775	32739	
1047	0	32802	32751	32758	32607	0	32799	32805	32643	
1048	0	32781	32671	32740	32687	0	32708	32647	32559	
1049	0	32727	32700	32775	32671	0	32715	32727	32642	
1050	0	32743	32749	32654	32751	0	32903	32764	32501	
1051	0	32735	32827	32815	32559	0	32903	32859	32679	
1052	0	32780	32757	32659	32546	0	32783	32595	32599	
1053	0	32790	32807	32718	32490	0	32847	32739	32703	
1054	0	32786	32842	32743	32625	0	32767	32807	32617	
1055	0	32800	32807	32555	32687	0	32828	32615	32479	
1056	0	32804	32806	32719	32692	0	32811	32755	32703	
1057	0	32775	32812	32707	32775	0	32791	32757	32831	
1058	0	32711	32809	32775	32679	0	32839	32759	32642	
1059	0	32713	32773	32615	32551	0	32775	32573	32671	
1060	0	32742	32747	32683	32517	0	32710	32759	32671	
1061	0	32827	32711	32633	32583	0	32573	32993	32635	
1062	0	32775	32775	32679	32638	0	32683	32867	32583	
1063	0	32729	32804	32663	32577	0	32773	32823	32803	
1064	0	32725	32743	32759	32615	0	32623	32791	32717	
1065	0	32809	32762	32771	32703	0	32706	32679	32662	
1066	0	32694	32757	32685	32741	0	32669	32543	32703	
1067	0	32775	32772	32723	32735	0	32742	32743	32543	
1068	0	32715	32759	32564	32662	0	32951	32877	32579	
1069	0	32773	32799	32751	32626	0	32924	32694	32595	
1070	0	32765	32814	32700	32659	0	32781	32823	32539	
1071	0	32804	32743	32823	32661	0	32751	32809	32695	
1072	0	32780	32735	32707	32783	0	32807	32759	32591	
1073	0	32734	32811	32713	32670	0	32892	32573	32797	
1074	0	32746	32745	32615	32711	0	32785	32725	32700	
1075	0	32775	32791	32717	32691	0	32723	32787	32757	
1076	0	32820	32841	32715	32744	0	32655	32673	32719	
1077	0	32708	32801	32639	32735	0	32741	32742	32637	
1078	0	32691	32751	32757	32623	0	32855	32883	32727	
1079	0	32727	32767	32575	32495	0	32757	32870	32761	
1080	0	32797	32804	32730	32613	0	32783	32695	32523	
1081	0	32757	32747	32717	32659	0	32725	32743	32638	
1082	0	32743	32803	32791	32667	0	32707	32871	32601	
1083	0	32769	32730	32751	32679	0	32811	32679	32643	
1084	0	32719	32791	32679	32677	0	32715	32823	32621	
1085	0	32705	32831	32743	32774	0	32679	32927	32695	
1086	0	32767	32749	32790	32839	0	32706	32615	32567	
1087	0	32751	32751	32689	32711	0	32668	32763	32701	
1088	0	32834	32789	32727	32705	0	32743	32799	32663	
1089	0	32783	32803	32694	32685	0	32711	32774	32671	
1090	0	32827	32727	32771	32793	0	32819	32623	32735	
1091	0	32805	32774	32631	32612	0	32715	32751	32595	
1092	0	32685	32806	32678	32589	0	32842	32798	32679	
1093	0	32733	32783	32615	32719	0	32711	32834	32715	
1094	0	32718	32859	32731	32759	0	32879	32613	32711	
1095	0	32775	32775	32711	32682	0	32791	32782	32711	
1096	0	32761	32775	32641	32695	0	32794	32823	32755	
1097	0	32723	32814	32662	32663	0	32801	32563	32687	
1098	0	32708	32855	32573	32685	0	32639	32727	32539	
1099	0	32734	32724	32751	32701	0	32681	32815	32683	
1100	0	32737	32735	32687	32738	0	32766	32615	32566	
1101	0	32674	32815	32723	32754	0	32854	32775	32690	
1102	0	32727	32828	32756	32666	0	32839	32798	32622	
1103	0	32743	32807	32746	32571	0	32717	32559	32797	
1104	0	32827	32759	32699	32558	0	32870	32727	32666	
1105	0	32781	32789	32677	32683	0	32737	32751	32502	
1106	0	32772	32755	32775	32583	0	32762	32877	32767	
1107	0	32861	32775	32667	32671	0	32725	32586	32751	
1108	0	32854	32679	32721	32671	0	32820	32795	32719	
1109	0	32852	32703	32715	32667	0	32765	32903	32727	
1110	0	32785	32716	32708	32699	0	32690	32647	32569	
1111	0	32774	32758	32602	32631	0	32658	32703	32726	
1112	0	32794	32799	32771	32535	0	32769	32783	32739	
1113	0	32743	32795	32667	32634	0	32743	32845	32513	
1114	0	32743	32775	32727	32773	0	32713	32723	32605	
1115	0	32724	32763	32661	32683	0	32795	32751	32655	
1116	0	32764	32722	32775	32637	0	32734	32811	32551	
1117	0	32762	32735	32639	32647	0	32701	32715	32671	
1118	0	32775	32772	32715	32559	0	32708	32461	32855	
1119	0	32751	32799	32641	32431	0	32735	32739	32671	
1120	0	32725	32759	32804	32555	0	32762	32983	32567	
1121	0	32731	32775	32684	32687	0	32826	32845	32605	
1122	0	32742	32786	32740	32749	0	32749	32594	32763	
1123	0	32754	32775	32662	32684	0	32895	32811	32727	
1124	0	32716	32791	32743	32754	0	32854	32807	32725	
1125	0	32775	32849	32799	32775	0	32837	32671	32673	
1126	0	32739	32771	32767	32775	0	32694	32858	32655	
1127	0	32799	32719	32637	32598	0	32815	32862	32759	
1128	0	32734	32787	32675	32597	0	32814	32679	32583	
1129	0	32725	32799	32743	32679	0	32827	32775	32415	
1130	0	32743	32790	32619	32731	0	32719	32743	32467	
1131	0	32807	32711	32711	32735	0	32722	32667	32407	
1132	0	32750	32775	32646	32786	0	32806	32711	32643	
1133	0	32758	32815	32742	32759	0	32935	32775	32711	
1134	0	32731	32711	32677	32737	0	32831	32659	32867	
1135	0	32679	32718	32647	32679	0	32801	32874	32799	
1136	0	32722	32741	32681	32647	0	32789	32831	32735	
1137	0	32769	32829	32647	32615	0	32737	32431	32871	
1138	0	32738	32757	32718	32719	0	32823	32636	32739	
1139	0	32733	32795	32735	32749	0	32823	32947	32727	
1140	0	32733	32757	32723	32730	0	32647	32834	32510	
1141	0	32770	32855	32723	32613	0	32711	32874	32599	
1142	0	32822	32755	32623	32607	0	32701	32927	32535	
1143	0	32775	32869	32752	32627	0	32675	32655	32666	
1144	0	32838	32855	32663	32514	0	32819	32739	32745	
1145	0	32715	32873	32755	32629	0	32791	32731	32607	
1146	0	32698	32757	32804	32699	0	32773	32646	32698	
1147	0	32717	32775	32679	32694	0	32847	32671	32890	
1148	0	32812	32823	32730	32703	0	32759	32883	32687	
1149	0	32806	32767	32631	32675	0	32702	32747	32455	
1150	0	32759	32694	32711	32695	0	32695	32839	32591	
1151	0	32775	32763	32787	32719	0	32726	32819	32567	
1152	0	32807	32813	32628	32693	0	32716	32655	32706	
1153	0	32700	32735	32743	32742	0	32687	32699	32828	
1154	0	32732	32747	32723	32711	0	32739	32767	32729	
1155	0	32784	32771	32773	32551	0	32903	32567	32671	
1156	0	32775	32850	32775	32583	0	32935	32789	32743	
1157	0	32757	32759	32695	32519	0	32887	32775	32543	
1158	0	32742	32775	32775	32546	0	32885	32628	32638	
1159	0	32738	32766	32660	32735	0	32827	32751	32595	
1160	0	32794	32786	32733	32677	0	32839	32806	32535	
1161	0	32810	32847	32660	32612	0	32807	32629	32589	
1162	0	32767	32723	32719	32659	0	32887	32757	32663	
1163	0	32790	32759	32711	32730	0	32723	32871	32675	
1164	0	32809	32739	32725	32691	0	32863	32631	32686	
1165	0	32767	32815	32587	32535	0	32741	32765	32807	
1166	0	32749	32871	32695	32548	0	32698	32758	32599	
1167	0	32767	32771	32647	32630	0	32623	32809	32647	
1168	0	32773	32743	32743	32647	0	32635	32603	32679	
1169	0	32727	32831	32758	32742	0	32694	32739	32763	
1170	0	32709	32863	32644	32676	0	32819	32797	32713	
1171	0	32728	32773	32727	32705	0	32783	32589	32731	
1172	0	32719	32786	32571	32671	0	32719	32745	32711	
1173	0	32799	32775	32682	32745	0	32685	32807	32775	
1174	0	32743	32839	32642	32731	0	32783	32759	32742	
1175	0	32737	32817	32755	32523	0	32695	32595	32546	
1176	0	32733	32738	32647	32641	0	32702	32795	32643	
1177	0	32756	32771	32747	32676	0	32759	32837	32535	
1178	0	32766	32756	32695	32671	0	32773	32783	32719	
1179	0	32808	32790	32801	32663	0	32700	32703	32570	
1180	0	32790	32775	32615	32791	0	32692	32845	32563	
1181	0	32742	32727	32758	32631	0	32695	32836	32599	
1182	0	32818	32748	32639	32495	0	32847	32719	32801	
1183	0	32742	32771	32743	32647	0	32790	32583	32759	
1184	0	32803	32771	32647	32757	0	32655	32819	32638	
1185	0	32815	32770	32803	32755	0	32823	32887	32679	
1186	0	32762	32719	32685	32685	0	32869	32811	32566	
1187	0	32756	32738	32718	32677	0	32811	32850	32629	
1188	0	32719	32787	32709	32723	0	32893	32919	32469	
1189	0	32716	32775	32646	32715	0	32839	32660	32671	
1190	0	32720	32775	32709	32759	0	32715	32719	32619	
1191	0	32745	32823	32615	32759	0	32767	32847	32599	
1192	0	32698	32883	32717	32671	0	32839	32735	32647	
1193	0	32735	32783	32687	32527	0	32666	32772	32565	
1194	0	32775	32687	32775	32551	0	32717	32631	32706	
1195	0	32811	32710	32655	32647	0	32739	32678	32685	
1196	0	32771	32757	32807	32692	0	32933	32727	32815	
1197	0	32757	32879	32717	32663	0	32844	32805	32793	
1198	0	32731	32759	32623	32647	0	32861	32845	32665	
1199	0	32740	32775	32729	32707	0	32789	32614	32751	
1200	0	32710	32831	32589	32700	0	32825	32711	32671	
1201	0	32730	32869	32709	32731	0	32831	32823	32771	
1202	0	32708	32807	32607	32623	0	32726	32670	32663	
1203	0	32743	32764	32735	32602	0	32839	32569	32742	
1204	0	32742	32711	32641	32765	0	32813	32799	32803	
1205	0	32741	32769	32661	32733	0	32815	32829	32607	
1206	0	32802	32831	32612	32683	0	32647	32583	32647	
1207	0	32767	32827	32829	32679	0	32663	32723	32626	
1208	0	32754	32711	32717	32631	0	32795	32819	32807	
1209	0	32738	32691	32751	32699	0	32815	32612	32839	
1210	0	32788	32703	32639	32697	0	32831	32773	32775	
1211	0	32797	32887	32756	32743	0	32726	32794	32507	
1212	0	32751	32813	32671	32623	0	32847	32859	32493	
1213	0	32722	32789	32677	32659	0	32799	32621	32647	
1214	0	32714	32773	32629	32586	0	32755	32751	32587	
1215	0	32707	32765	32687	32519	0	32715	32855	32727	
1216	0	32729	32819	32687	32557	0	32834	32631	32742	
1217	0	32793	32775	32771	32566	0	32925	32869	32583	
1218	0	32796	32743	32703	32511	0	32852	32831	32707	
1219	0	32813	32821	32635	32551	0	32803	32759	32635	
1220	0	32726	32823	32695	32647	0	32716	32698	32734	
1221	0	32771	32751	32635	32630	0	32647	32638	32427	
1222	0	32781	32684	32775	32671	0	32605	32803	32585	
1223	0	32810	32809	32772	32588	0	32683	32865	32551	
1224	0	32780	32795	32629	32639	0	32587	32566	32615	
1225	0	32786	32731	32785	32613	0	32647	32743	32627	
1226	0	32756	32761	32642	32615	0	32699	32995	32487	
1227	0	32695	32766	32745	32657	0	32765	32791	32695	
1228	0	32743	32719	32677	32671	0	32821	32611	32721	
1229	0	32854	32815	32749	32599	0	32850	32735	32695	
1230	0	32748	32829	32639	32594	0	32837	32829	32717	
1231	0	32817	32765	32760	32679	0	32775	32620	32519	
1232	0	32807	32710	32695	32695	0	32799	32847	32391	
1233	0	32745	32834	32751	32671	0	32916	32855	32647	
1234	0	32744	32775	32727	32726	0	32759	32743	32591	
1235	0	32751	32743	32767	32661	0	32771	32758	32583	
1236	0	32769	32791	32733	32519	0	32795	32750	32615	
1237	0	32759	32795	32756	32662	0	32850	32903	32500	
1238	0	32787	32733	32671	32723	0	32857	32617	32711	
1239	0	32765	32775	32727	32730	0	32775	32775	32614	
1240	0	32686	32830	32655	32731	0	32708	32814	32566	
1241	0	32708	32723	32775	32695	0	32773	32819	32693	
1242	0	32711	32751	32803	32717	0	32822	32817	32703	
1243	0	32669	32801	32621	32647	0	32775	32599	32771	
1244	0	32730	32747	32763	32647	0	32772	32679	32851	
1245	0	32796	32738	32687	32709	0	32663	32743	32899	
1246	0	32813	32829	32711	32695	0	32695	32549	32604	
1247	0	32775	32823	32723	32731	0	32687	32767	32687	
1248	0	32762	32765	32621	32703	0	32711	32807	32595	
1249	0	32844	32813	32740	32743	0	32799	32647	32703	
1250	0	32769	32835	32757	32746	0	32833	32873	32623	
1251	0	32767	32775	32683	32694	0	32813	32695	32601	
1252	0	32759	32767	32743	32775	0	32703	32812	32447	
1253	0	32735	32789	32655	32817	0	32749	32839	32534	
1254	0	32788	32791	32699	32754	0	32775	32626	32503	
1255	0	32679	32803	32745	32775	0	32717	32829	32615	
1256	0	32713	32844	32695	32747	0	32839	32890	32535	
1257	0	32775	32775	32775	32764	0	32855	32647	32621	
1258	0	32748	32807	32771	32741	0	32762	32775	32519	
1259	0	32769	32815	32673	32715	0	32775	32619	32647	
1260	0	32743	32695	32740	32715	0	32775	32775	32589	
1261	0	32775	32731	32679	32743	0	32749	32851	32599	
1262	0	32793	32775	32523	32698	0	32679	32635	32587	
1263	0	32788	32717	32763	32687	0	32749	32756	32691	
1264	0	32775	32767	32637	32663	0	32774	32871	32642	
1265	0	32756	32775	32749	32671	0	32743	32647	32667	
1266	0	32797	32789	32687	32668	0	32727	32875	32642	
1267	0	32759	32759	32701	32628	0	32759	32639	32639	
1268	0	32826	32847	32743	32707	0	32705	32811	32533	
1269	0	32809	32885	32682	32705	0	32761	32943	32751	
1270	0	32794	32751	32623	32709	0	32846	32845	32739	
1271	0	32753	32775	32719	32703	0	32733	32927	32591	
1272	0	32749	32831	32681	32746	0	32858	32607	32647	
1273	0	32730	32788	32730	32765	0	32787	32813	32603	
1274	0	32711	32791	32767	32719	0	32724	32719	32711	
1275	0	32748	32775	32634	32727	0	32783	32703	32737	
1276	0	32749	32765	32765	32749	0	32772	32843	32613	
1277	0	32749	32727	32679	32727	0	32703	32671	32530	
1278	0	32754	32791	32775	32487	0	32731	32579	32695	
1279	0	32780	32829	32711	32523	0	32801	32695	32613	
1280	0	32760	32813	32758	32677	0	32853	32731	32675	
1281	0	32754	32807	32698	32723	0	32821	32485	32551	
1282	0	32723	32787	32734	32698	0	32724	32751	32683	
1283	0	32758	32839	32834	32733	0	32831	32844	32726	
1284	0	32767	32841	32639	32687	0	32767	32647	32667	
1285	0	32815	32745	32709	32681	0	32767	32671	32535	
1286	0	32775	32751	32685	32711	0	32809	32591	32613	
1287	0	32812	32805	32689	32694	0	32850	32775	32567	
1288	0	32807	32762	32695	32659	0	32790	32919	32611	
1289	0	32797	32719	32599	32673	0	32807	32663	32551	
1290	0	32794	32831	32789	32623	0	32871	32759	32851	
1291	0	32816	32786	32743	32711	0	32823	32827	32885	
1292	0	32755	32747	32751	32533	0	32674	32628	32721	
1293	0	32805	32709	32687	32431	0	32607	32871	32603	
1294	0	32796	32753	32693	32527	0	32707	32859	32688	
1295	0	32740	32828	32775	32562	0	32871	32639	32759	
1296	0	32719	32743	32655	32538	0	32884	32791	32727	
1297	0	32767	32741	32793	32595	0	32796	32847	32755	
1298	0	32700	32775	32654	32690	0	32687	32613	32658	
1299	0	32793	32891	32743	32663	0	32640	32717	32658	
1300	0	32733	32773	32821	32683	0	32819	32831	32663	
1301	0	32743	32775	32615	32642	0	32815	32823	32684	
1302	0	32683	32773	32695	32703	0	32804	32811	32634	
1303	0	32749	32771	32635	32671	0	32679	32833	32683	
1304	0	32751	32727	32729	32666	0	32818	32564	32635	
1305	0	32709	32807	32679	32639	0	32766	32743	32759	
1306	0	32729	32831	32599	32607	0	32670	32786	32715	
1307	0	32774	32775	32719	32665	0	32823	32847	32675	
1308	0	32784	32775	32587	32708	0	32775	32871	32592	
1309	0	32718	32871	32747	32692	0	32775	32587	32510	
1310	0	32751	32807	32771	32741	0	32804	32763	32596	
1311	0	32815	32762	32635	32775	0	32848	32573	32526	
1312	0	32807	32743	32663	32742	0	32807	32763	32581	
1313	0	32752	32759	32732	32679	0	32817	32823	32498	
1314	0	32719	32748	32663	32631	0	32831	32602	32619	
1315	0	32747	32817	32722	32754	0	32699	32807	32547	
1316	0	32663	32820	32613	32765	0	32803	32903	32749	
1317	0	32773	32795	32773	32727	0	32743	32636	32595	
1318	0	32751	32823	32633	32799	0	32793	32820	32711	
1319	0	32747	32828	32822	32647	0	32623	32591	32679	
1320	0	32749	32831	32699	32519	0	32759	32587	32751	
1321	0	32745	32788	32737	32612	0	32807	32931	32527	
1322	0	32695	32773	32807	32631	0	32795	32855	32623	
1323	0	32724	32783	32750	32728	0	32727	32775	32717	
1324	0	32708	32787	32745	32647	0	32839	32821	32943	
1325	0	32735	32711	32815	32615	0	32813	32615	32829	
1326	0	32804	32709	32742	32755	0	32775	32693	32911	
1327	0	32751	32775	32647	32723	0	32757	32676	32735	
1328	0	32727	32770	32735	32623	0	32689	32764	32615	
1329	0	32704	32724	32771	32647	0	32751	32601	32745	
1330	0	32698	32775	32654	32695	0	32722	32829	32599	
1331	0	32758	32759	32715	32715	0	32751	32911	32711	
1332	0	32754	32823	32655	32637	0	32679	32714	32663	
1333	0	32764	32718	32695	32547	0	32723	32631	32551	
1334	0	32829	32743	32554	32487	0	32798	32791	32615	
1335	0	32806	32773	32671	32531	0	32749	32899	32503	
1336	0	32720	32795	32713	32527	0	32813	32638	32687	
1337	0	32714	32773	32678	32727	0	32775	32815	32734	
1338	0	32738	32787	32609	32683	0	32837	32829	32641	
1339	0	32750	32831	32767	32695	0	32763	32871	32690	
1340	0	32714	32799	32613	32671	0	32646	32742	32665	
1341	0	32738	32831	32741	32551	0	32827	32639	32574	
1342	0	32688	32854	32623	32703	0	32919	32743	32815	
1343	0	32714	32871	32732	32695	0	32703	32767	32730	
1344	0	32791	32866	32707	32799	0	32775	32746	32595	
1345	0	32806	32901	32647	32599	0	32825	32775	32715	
1346	0	32856	32846	32735	32620	0	32890	32503	32633	
1347	0	32719	32826	32614	32747	0	32935	32399	32742	
1348	0	32764	32757	32799	32743	0	32879	32606	32737	
1349	0	32758	32767	32817	32788	0	32839	32503	32631	
1350	0	32766	32852	32711	32735	0	32791	32695	32683	
1351	0	32754	32775	32711	32719	0	32847	32727	32406	
1352	0	32743	32829	32631	32769	0	32809	32821	32677	
1353	0	32721	32775	32767	32559	0	32743	32787	32519	
1354	0	32701	32757	32715	32630	0	32591	32615	32534	
1355	0	32699	32743	32847	32605	0	32715	32559	32723	
1356	0	32672	32767	32805	32599	0	32727	32659	32581	
1357	0	32758	32756	32895	32551	0	32606	32677	32531	
1358	0	32708	32795	32927	32404	0	32686	32823	32359	
1359	0	32647	32687	32854	32562	0	32740	32599	32835	
1360	0	32678	32641	32943	32501	0	32735	32476	32830	
1361	0	32711	32647	32871	32487	0	32706	32543	32551	
1362	0	32702	32623	32933	32463	0	32708	32621	32605	
1363	0	32658	32639	32827	32335	0	32719	32671	32587	
1364	0	32678	32640	32883	32343	0	32773	32639	32497	
1365	0	32698	32599	32807	32506	0	32799	32507	32637	
1366	0	32684	32617	32839	32509	0	32705	32691	32527	
1367	0	32679	32603	32877	32583	0	32623	32854	32565	
1368	0	32718	32660	32795	32549	0	32593	32674	32599	
1369	0	32721	32685	32847	32551	0	32647	32861	32613	
1370	0	32836	32685	32695	32675	0	32563	32827	32559	
1371	0	32816	32719	32743	32695	0	32587	32877	32659	
1372	0	32797	32679	32679	32713	0	32725	32791	32598	
1373	0	32754	32738	32722	32675	0	32599	33015	32703	
1374	0	32806	32807	32575	32567	0	32683	33047	32671	
1375	0	32804	32807	32675	32626	0	32673	32771	32599	
1376	0	32813	32807	32583	32746	0	32756	32983	32703	
1377	0	32882	32887	32519	32839	0	32727	33167	32727	
1378	0	32902	32914	32535	32903	0	32891	32990	32487	
1379	0	32875	32918	32471	32989	0	32903	32879	32615	
1380	0	32902	33031	32551	33051	0	32958	33095	32731	
1381	0	32935	32959	32391	33110	0	32955	33093	32809	
1382	0	32966	32879	32587	32941	0	32943	32955	32685	
1383	0	33055	32903	32391	32959	0	32854	33220	32631	
1384	0	33090	32884	32463	32988	0	32839	33257	32605	
1385	0	33063	32903	32323	33091	0	32775	33245	32626	
1386	0	33098	32838	32501	32935	0	32791	33055	32695	
1387	0	33082	32717	32444	32903	0	32815	33115	32602	
1388	0	33089	32799	32506	32884	0	32838	33045	32743	
1389	0	32969	32855	32390	33037	0	32773	32991	32719	
1390	0	33001	32839	32451	32828	0	32887	32807	32719	
1391	0	32935	32869	32407	32945	0	32911	32722	32852	
1392	0	32848	32931	32538	32998	0	32871	32730	32919	
1393	0	32802	32771	32471	32847	0	32813	32659	33018	
1394	0	32747	32735	32663	32719	0	32847	32587	32983	
1395	0	32691	32751	32673	32647	0	32935	32503	32828	
1396	0	32631	32723	32791	32694	0	32851	32736	32835	
1397	0	32647	32703	32815	32564	0	32751	32703	32751	
1398	0	32519	32692	32855	32438	0	32785	32601	32815	
1399	0	32570	32695	32903	32343	0	32715	32430	32721	
1400	0	32541	32671	32769	32334	0	32732	32591	32574	
1401	0	32569	32734	32871	32391	0	32647	32639	32612	
1402	0	32593	32738	32860	32435	0	32747	32340	32610	
1403	0	32514	32716	32871	32421	0	32742	32323	32738	
1404	0	32518	32699	32787	32406	0	32701	32450	32667	
1405	0	32519	32719	32951	32466	0	32620	32519	32463	
1406	0	32557	32749	32845	32321	0	32707	32629	32615	
1407	0	32569	32775	32903	32403	0	32734	32459	32559	
1408	0	32548	32807	32941	32489	0	32727	32372	32551	
1409	0	32501	32859	33007	32503	0	32855	32511	32791	
1410	0	32510	32845	32915	32559	0	32850	32435	32719	
1411	0	32602	32903	32935	32621	0	32887	32596	32549	
1412	0	32604	32867	32807	32515	0	32847	32447	32713	
1413	0	32644	32927	32733	32559	0	32919	32364	32717	
1414	0	32687	32884	32633	32659	0	32871	32553	32599	
1415	0	32637	32852	32741	32671	0	32798	32646	32767	
1416	0	32706	32819	32623	32759	0	32743	32524	32711	
1417	0	32751	32755	32756	32716	0	32772	32679	32593	
1418	0	32699	32823	32619	32759	0	32843	32736	32647	
1419	0	32791	32839	32707	32714	0	32797	32719	32543	
1420	0	32823	32771	32607	32709	0	32735	32703	32807	
1421	0	32868	32735	32681	32743	0	32682	32983	32647	
1422	0	32892	32773	32691	32739	0	32821	33027	32621	
1423	0	32892	32815	32623	32690	0	32797	32795	32703	
1424	0	32911	32804	32743	32669	0	32743	32847	32599	
1425	0	32833	32703	32791	32807	0	32757	32977	32676	
1426	0	32832	32719	32743	32611	0	32659	32740	32489	
1427	0	32819	32791	32763	32637	0	32711	32869	32535	
1428	0	32818	32807	32675	32769	0	32743	32846	32559	
1429	0	32764	32797	32679	32676	0	32743	32883	32599	
1430	0	32737	32770	32761	32790	0	32767	32637	32742	
1431	0	32713	32773	32717	32787	0	32868	32818	32511	
1432	0	32782	32788	32647	32775	0	32767	32871	32597	
1433	0	32780	32647	32621	32700	0	32787	32679	32437	
1434	0	32756	32723	32663	32647	0	32757	32807	32623	
1435	0	32747	32743	32775	32518	0	32713	32861	32724	
1436	0	32736	32797	32727	32499	0	32771	32634	32791	
1437	0	32792	32804	32687	32551	0	32727	32788	32717	
1438	0	32718	32691	32742	32593	0	32735	32903	32701	
1439	0	32773	32775	32599	32643	0	32645	32675	32613	
1440	0	32810	32781	32699	32726	0	32773	32817	32573	
1441	0	32789	32726	32599	32715	0	32823	32859	32759	
1442	0	32809	32716	32811	32668	0	32791	32599	32623	
1443	0	32771	32771	32623	32647	0	32743	32751	32671	
1444	0	32783	32793	32815	32681	0	32788	32823	32722	
1445	0	32797	32791	32716	32553	0	32791	32887	32791	
1446	0	32801	32751	32759	32561	0	32718	32671	32606	
1447	0	32788	32741	32771	32591	0	32685	32783	32685	
1448	0	32738	32794	32663	32595	0	32695	32731	32775	
1449	0	32735	32847	32769	32647	0	32747	32599	32887	
1450	0	32735	32837	32687	32709	0	32903	32697	32825	
1451	0	32734	32828	32749	32719	0	32818	32703	32647	
1452	0	32745	32775	32690	32751	0	32807	32647	32715	
1453	0	32831	32775	32706	32711	0	32675	32679	32487	
1454	0	32813	32820	32647	32722	0	32751	32813	32671	
1455	0	32841	32771	32743	32647	0	32789	32873	32610	
1456	0	32799	32707	32647	32557	0	32791	32610	32567	
1457	0	32759	32687	32751	32645	0	32690	32807	32695	
1458	0	32748	32814	32681	32642	0	32727	32925	32646	
1459	0	32741	32698	32695	32647	0	32739	32613	32644	
1460	0	32772	32685	32723	32685	0	32767	32815	32660	
1461	0	32759	32717	32645	32714	0	32791	32753	32675	
1462	0	32701	32775	32751	32643	0	32727	32589	32839	
1463	0	32714	32740	32695	32662	0	32726	32737	32689	
1464	0	32764	32789	32806	32694	0	32775	32839	32773	
1465	0	32772	32877	32791	32747	0	32851	32783	32607	
1466	0	32783	32803	32686	32735	0	32775	32671	32627	
1467	0	32749	32711	32735	32621	0	32679	32839	32562	
1468	0	32786	32747	32717	32583	0	32699	32941	32406	
1469	0	32813	32819	32775	32563	0	32855	32815	32620	
1470	0	32766	32867	32655	32559	0	32810	32603	32604	
1471	0	32782	32748	32690	32631	0	32787	32643	32785	
1472	0	32753	32767	32627	32613	0	32714	32786	32759	
1473	0	32725	32787	32676	32729	0	32815	32739	32615	
1474	0	32775	32795	32639	32769	0	32845	32882	32681	
1475	0	32772	32823	32767	32739	0	32799	32951	32639	
1476	0	32743	32747	32775	32734	0	32841	32647	32718	
1477	0	32811	32759	32679	32771	0	32743	32691	32552	
1478	0	32771	32754	32775	32715	0	32655	32759	32559	
1479	0	32765	32805	32723	32595	0	32761	32895	32743	
1480	0	32743	32837	32818	32543	0	32805	32711	32647	
1481	0	32798	32775	32670	32601	0	32759	32559	32711	
1482	0	32795	32670	32722	32584	0	32775	32835	32588	
1483	0	32750	32749	32662	32647	0	32797	32857	32690	
1484	0	32793	32823	32787	32751	0	32827	32687	32698	
1485	0	32752	32810	32714	32655	0	32731	32783	32695	
1486	0	32759	32789	32795	32655	0	32903	32775	32661	
1487	0	32687	32761	32662	32698	0	32855	32879	32571	
1488	0	32769	32788	32748	32687	0	32789	32685	32642	
1489	0	32750	32841	32677	32739	0	32647	32726	32658	
1490	0	32752	32886	32751	32673	0	32773	32796	32683	
1491	0	32738	32795	32745	32639	0	32735	32645	32671	
1492	0	32802	32775	32740	32539	0	32807	32579	32507	
1493	0	32772	32751	32626	32679	0	32727	32731	32629	
1494	0	32765	32799	32742	32733	0	32799	32855	32690	
1495	0	32794	32833	32723	32765	0	32772	32583	32775	
1496	0	32769	32719	32675	32706	0	32763	32766	32643	
1497	0	32725	32695	32663	32679	0	32810	32818	32655	
1498	0	32727	32711	32609	32705	0	32815	32570	32719	
1499	0	32752	32807	32685	32642	0	32789	32782	32672	
1500	0	32703	32891	32590	32754	0	32693	32658	32606	
1501	0	32711	32701	32719	32734	0	32775	32759	32621	
1502	0	32822	32686	32765	32719	0	32797	32899	32567	
1503	0	32852	32783	32643	32647	0	32775	32623	32559	
1504	0	32789	32877	32671	32517	0	32706	32701	32621	
1505	0	32752	32769	32711	32583	0	32893	32727	32854	
1506	0	32790	32707	32759	32735	0	32855	32615	32807	
1507	0	32807	32717	32727	32751	0	32852	32791	32667	
1508	0	32859	32801	32797	32687	0	32818	32815	32685	
1509	0	32740	32739	32747	32711	0	32775	32879	32735	
1510	0	32720	32773	32783	32789	0	32815	32647	32557	
1511	0	32736	32787	32775	32541	0	32738	32763	32643	
1512	0	32738	32751	32735	32534	0	32801	32902	32598	
1513	0	32724	32775	32641	32511	0	32605	32638	32607	
1514	0	32711	32835	32738	32566	0	32775	32815	32447	
1515	0	32647	32755	32647	32574	0	32751	32807	32631	
1516	0	32715	32743	32735	32619	0	32758	32693	32637	
1517	0	32737	32783	32743	32567	0	32711	32804	32751	
1518	0	32729	32815	32799	32607	0	32787	32807	32743	
1519	0	32790	32759	32735	32743	0	32683	32815	32738	
1520	0	32770	32769	32641	32750	0	32663	32687	32588	
1521	0	32775	32806	32767	32771	0	32665	32867	32483	
1522	0	32802	32813	32643	32758	0	32709	32849	32573	
1523	0	32789	32738	32763	32675	0	32823	32645	32559	
1524	0	32903	32775	32655	32629	0	32795	32718	32715	
1525	0	32775	32817	32671	32639	0	32775	32629	32573	
1526	0	32786	32734	32734	32670	0	32746	32723	32743	
1527	0	32756	32759	32662	32619	0	32854	32900	32605	
1528	0	32758	32775	32727	32719	0	32807	32669	32743	
1529	0	32729	32833	32695	32667	0	32687	32674	32720	
1530	0	32722	32801	32707	32743	0	32775	32810	32718	
1531	0	32755	32719	32716	32722	0	32816	32602	32662	
1532	0	32759	32738	32591	32703	0	32775	32782	32775	
1533	0	32783	32799	32691	32706	0	32807	32839	32762	
1534	0	32743	32738	32615	32636	0	32751	32611	32637	
1535	0	32766	32763	32743	32518	0	32855	32751	32645	
1536	0	32766	32799	32647	32535	0	32823	32847	32626	
1537	0	32743	32839	32743	32711	0	32703	32717	32879	
1538	0	32710	32775	32647	32799	0	32723	32751	32806	
1539	0	32700	32743	32797	32719	0	32751	32789	32727	
1540	0	32708	32815	32763	32743	0	32759	32647	32684	
1541	0	32705	32868	32675	32775	0	32854	32735	32811	
1542	0	32739	32751	32819	32719	0	32715	32903	32615	
1543	0	32801	32740	32677	32671	0	32819	32671	32631	
1544	0	32819	32775	32673	32710	0	32847	32767	32647	
1545	0	32753	32734	32695	32709	0	32715	32567	32646	
1546	0	32730	32747	32609	32679	0	32694	32663	32605	
1547	0	32788	32775	32745	32695	0	32903	32823	32439	
1548	0	32771	32759	32707	32615	0	32751	32943	32563	
1549	0	32775	32767	32765	32543	0	32647	32729	32514	
1550	0	32767	32865	32743	32758	0	32845	32863	32575	
1551	0	32765	32751	32721	32775	0	32995	32831	32887	
1552	0	32727	32741	32631	32663	0	32781	32479	32829	
1553	0	32713	32791	32707	32683	0	32729	32756	32794	
1554	0	32764	32775	32622	32615	0	32607	32975	32707	
1555	0	32818	32797	32741	32641	0	32807	32751	32541	
1556	0	32823	32767	32687	32614	0	32820	32575	32711	
1557	0	32734	32739	32790	32567	0	32765	32830	32659	
1558	0	32762	32759	32647	32581	0	32927	32875	32629	
1559	0	32751	32823	32741	32691	0	32919	32599	32659	
1560	0	32770	32775	32690	32703	0	32875	32802	32587	
1561	0	32740	32831	32749	32679	0	32875	32822	32711	
1562	0	32723	32787	32638	32716	0	32783	32605	32740	
1563	0	32735	32789	32747	32691	0	32751	32749	32813	
1564	0	32817	32743	32647	32707	0	32679	32823	32727	
1565	0	32797	32731	32775	32663	0	32842	32575	32612	
1566	0	32800	32675	32711	32647	0	32623	32711	32515	
1567	0	32813	32679	32727	32645	0	32597	32786	32621	
1568	0	32781	32773	32623	32549	0	32775	32677	32599	
1569	0	32689	32829	32677	32687	0	32887	32828	32598	
1570	0	32728	32773	32599	32719	0	32811	32851	32493	
1571	0	32762	32831	32727	32735	0	32647	32788	32623	
1572	0	32782	32770	32715	32727	0	32714	32806	32535	
1573	0	32710	32749	32586	32647	0	32791	32775	32594	
1574	0	32704	32775	32751	32567	0	32671	32603	32557	
1575	0	32667	32831	32621	32579	0	32691	32623	32683	
1576	0	32722	32691	32710	32636	0	32599	32711	32594	
1577	0	32726	32807	32647	32630	0	32685	32725	32631	
1578	0	32697	32783	32749	32711	0	32746	32775	32743	
1579	0	32747	32719	32791	32725	0	32836	32815	32812	
1580	0	32727	32761	32703	32691	0	32879	32743	32953	
1581	0	32656	32815	32808	32767	0	32873	32655	32797	
1582	0	32797	32821	32695	32805	0	32815	32743	32870	
1583	0	32823	32753	32790	32798	0	32831	32783	32671	
1584	0	32790	32771	32754	32683	0	32951	32855	32598	
1585	0	32798	32775	32659	32692	0	32916	32565	32570	
1586	0	32812	32815	32675	32621	0	32811	32855	32571	
1587	0	32843	32727	32719	32723	0	32887	32863	32443	
1588	0	32860	32799	32662	32703	0	32835	32943	32479	
1589	0	32798	32711	32734	32690	0	32775	32647	32391	
1590	0	32791	32786	32766	32711	0	32741	32756	32510	
1591	0	32742	32791	32719	32711	0	32678	32845	32599	
1592	0	32762	32847	32685	32555	0	32775	32717	32763	
1593	0	32743	32815	32767	32571	0	32727	32589	32699	
1594	0	32790	32738	32751	32556	0	32815	32708	32575	
1595	0	32669	32756	32647	32631	0	32759	32669	32711	
1596	0	32745	32805	32603	32714	0	32695	32583	32767	
1597	0	32671	32739	32681	32677	0	32692	32759	32598	
1598	0	32742	32793	32716	32691	0	32711	32799	32807	
1599	0	32761	32743	32646	32679	0	32679	32591	32563	
1600	0	32774	32749	32695	32695	0	32823	32869	32754	
1601	0	32796	32815	32659	32705	0	32862	32875	32639	
1602	0	32775	32775	32717	32642	0	32743	32612	32711	
1603	0	32793	32818	32647	32559	0	32705	32775	32710	
1604	0	32770	32823	32735	32647	0	32847	32839	32583	
1605	0	32780	32765	32749	32679	0	32820	32734	32685	
1606	0	32767	32786	32771	32635	0	32721	32499	32679	
1607	0	32812	32751	32667	32607	0	32703	32737	32683	
1608	0	32786	32820	32727	32655	0	32829	32877	32719	
1609	0	32801	32810	32711	32679	0	32811	32559	32590	
1610	0	32791	32801	32604	32759	0	32743	32717	32691	
1611	0	32846	32791	32669	32727	0	32647	32845	32643	
1612	0	32810	32742	32639	32627	0	32839	32715	32749	
1613	0	32837	32767	32759	32550	0	32827	32823	32771	
1614	0	32757	32798	32707	32604	0	32775	32815	32703	
1615	0	32761	32787	32727	32668	0	32681	32639	32663	
1616	0	32766	32799	32639	32626	0	32623	32831	32731	
1617	0	32687	32767	32725	32711	0	32822	32849	32725	
1618	0	32719	32743	32791	32749	0	32847	32613	32583	
1619	0	32743	32795	32702	32739	0	32807	32745	32700	
1620	0	32726	32740	32742	32749	0	32695	32708	32631	
1621	0	32692	32743	32643	32715	0	32679	32535	32631	
1622	0	32705	32711	32711	32699	0	32819	32835	32474	
1623	0	32700	32831	32708	32729	0	32799	33031	32583	
1624	0	32759	32787	32759	32775	0	32929	32869	32647	
1625	0	32801	32759	32793	32708	0	32807	32807	32655	
1626	0	32750	32767	32653	32675	0	32743	32613	32695	
1627	0	32775	32846	32674	32571	0	32871	32671	32875	
1628	0	32775	32771	32563	32530	0	32785	32799	32647	
1629	0	32759	32711	32673	32543	0	32807	32873	32611	
1630	0	32758	32788	32711	32570	0	32811	32631	32623	
1631	0	32727	32848	32589	32586	0	32759	32723	32749	
1632	0	32725	32759	32722	32611	0	32822	32541	32742	
1633	0	32708	32823	32749	32621	0	32850	32822	32745	
1634	0	32717	32839	32723	32636	0	32951	32823	32647	
1635	0	32758	32799	32803	32703	0	32723	32655	32437	
1636	0	32797	32727	32668	32741	0	32591	32879	32534	
1637	0	32679	32700	32591	32663	0	32762	32835	32687	
1638	0	32756	32751	32751	32709	0	32767	32755	32687	
1639	0	32775	32783	32633	32759	0	32791	32531	32817	
1640	0	32729	32895	32716	32721	0	32785	32791	32707	
1641	0	32799	32795	32775	32735	0	32871	32741	32721	
1642	0	32766	32759	32670	32751	0	32815	32679	32799	
1643	0	32760	32775	32767	32735	0	32743	32837	32655	
1644	0	32734	32799	32683	32647	0	32815	32742	32587	
1645	0	32797	32757	32727	32595	0	32717	32759	32670	
1646	0	32837	32719	32713	32598	0	32690	32873	32564	
1647	0	32790	32763	32603	32538	0	32743	32815	32783	
1648	0	32743	32867	32669	32505	0	32823	32622	32931	
1649	0	32746	32787	32647	32532	0	32743	32782	32823	
1650	0	32737	32790	32711	32580	0	32796	32887	32727	
1651	0	32737	32775	32751	32479	0	32709	32839	32548	
1652	0	32787	32773	32611	32479	0	32677	32947	32574	
1653	0	32772	32711	32742	32479	0	32671	32668	32485	
1654	0	32796	32762	32694	32565	0	32644	32843	32519	
1655	0	32784	32773	32677	32555	0	32854	32671	32455	
1656	0	32775	32709	32699	32631	0	32754	32775	32621	
1657	0	32785	32790	32754	32775	0	32775	32671	32595	
1658	0	32767	32783	32663	32702	0	32847	32671	32837	
1659	0	32738	32815	32803	32758	0	32854	32870	32599	
1660	0	32739	32769	32677	32637	0	32739	32669	32676	
1661	0	32738	32855	32731	32623	0	32823	32827	32841	
1662	0	32802	32738	32727	32587	0	32850	32769	32815	
1663	0	32774	32743	32669	32545	0	32841	32699	32849	
1664	0	32806	32755	32815	32503	0	32814	32803	32647	
1665	0	32692	32787	32726	32607	0	32727	32567	32607	
1666	0	32766	32767	32775	32623	0	32726	32743	32535	
1667	0	32773	32699	32647	32699	0	32713	32902	32639	
1668	0	32749	32767	32679	32663	0	32730	32559	32775	
1669	0	32694	32839	32743	32599	0	32671	32699	32671	
1670	0	32726	32740	32727	32572	0	32715	32679	32594	
1671	0	32749	32807	32631	32535	0	32733	32803	32731	
1672	0	32797	32799	32775	32543	0	32647	32807	32519	
1673	0	32754	32737	32695	32733	0	32743	32621	32623	
1674	0	32724	32739	32767	32743	0	32811	32739	32527	
1675	0	32758	32727	32669	32702	0	32740	32862	32583	
1676	0	32782	32822	32582	32730	0	32734	32677	32615	
1677	0	32761	32733	32719	32671	0	32718	32775	32551	
1678	0	32757	32791	32668	32663	0	32757	32791	32579	
1679	0	32772	32867	32647	32679	0	32873	32791	32525	
1680	0	32754	32751	32756	32685	0	32927	32862	32643	
1681	0	32743	32731	32646	32723	0	32851	32612	32687	
1682	0	32711	32789	32748	32708	0	32833	32757	32791	
1683	0	32684	32903	32739	32641	0	32769	32615	32775	
1684	0	32745	32811	32669	32577	0	32786	32698	32621	
1685	0	32815	32742	32681	32607	0	32807	32895	32749	
1686	0	32785	32796	32647	32647	0	32859	32717	32677	
1687	0	32738	32711	32677	32751	0	32785	32844	32743	
1688	0	32784	32705	32719	32757	0	32866	32583	32791	
1689	0	32837	32807	32679	32703	0	32759	32831	32676	
1690	0	32727	32758	32775	32692	0	32783	32903	32758	
1691	0	32772	32823	32719	32715	0	32714	32837	32727	
1692	0	32773	32817	32607	32662	0	32737	32739	32655	
1693	0	32751	32839	32759	32715	0	32746	32703	32743	
1694	0	32732	32723	32647	32683	0	32711	32757	32571	
1695	0	32756	32771	32775	32674	0	32689	32739	32555	
1696	0	32780	32862	32758	32630	0	32599	32605	32367	
1697	0	32797	32727	32681	32610	0	32535	32871	32443	
1698	0	32720	32753	32751	32717	0	32749	32833	32376	
1699	0	32787	32762	32679	32677	0	32854	32582	32623	
1700	0	32775	32699	32702	32687	0	32882	32811	32634	
1701	0	32756	32754	32723	32675	0	32802	32634	32811	
1702	0	32728	32797	32658	32701	0	32853	32791	32815	
1703	0	32831	32727	32669	32671	0	32869	32647	32967	
1704	0	32826	32735	32731	32611	0	32831	32762	32614	
1705	0	32833	32822	32727	32692	0	32809	32831	32617	
1706	0	32765	32765	32800	32687	0	32835	32551	32623	
1707	0	32797	32730	32722	32702	0	32902	32647	32855	
1708	0	32818	32797	32607	32709	0	32823	32615	32829	
1709	0	32758	32803	32803	32638	0	32733	32701	32759	
1710	0	32758	32759	32727	32691	0	32847	32749	32693	
1711	0	32774	32727	32677	32623	0	32715	32591	32623	
1712	0	32706	32811	32767	32635	0	32722	32751	32763	
1713	0	32749	32739	32647	32803	0	32796	32721	32758	
1714	0	32748	32735	32723	32738	0	32723	32639	32748	
1715	0	32763	32807	32751	32747	0	32699	32825	32563	
1716	0	32722	32757	32663	32679	0	32740	32802	32631	
1717	0	32758	32775	32711	32638	0	32810	32887	32439	
1718	0	32775	32827	32719	32701	0	32699	32846	32564	
1719	0	32797	32756	32692	32759	0	32773	32743	32567	
1720	0	32783	32831	32769	32711	0	32767	32774	32586	
1721	0	32703	32845	32767	32660	0	32775	32879	32453	
1722	0	32695	32775	32751	32731	0	32775	32669	32590	
1723	0	32682	32785	32805	32663	0	32705	32903	32603	
1724	0	32687	32741	32791	32525	0	32519	32967	32378	
1725	0	32734	32759	32685	32647	0	32739	32743	32629	
1726	0	32721	32818	32799	32747	0	32667	32791	32694	
1727	0	32699	32791	32751	32738	0	32819	32731	32791	
1728	0	32711	32847	32619	32733	0	32815	32803	32925	
1729	0	32749	32786	32719	32695	0	32853	32637	32893	
1730	0	32819	32783	32631	32647	0	32967	32754	32887	
1731	0	32762	32763	32727	32691	0	32903	32754	32773	
1732	0	32768	32767	32633	32719	0	32775	32710	32772	
1733	0	32743	32831	32819	32703	0	32801	32495	32533	
1734	0	32786	32791	32729	32743	0	32935	32697	32419	
1735	0	32770	32787	32694	32671	0	32955	32831	32391	
1736	0	32716	32822	32715	32559	0	32903	32699	32623	
1737	0	32730	32837	32631	32557	0	32847	32870	32630	
1738	0	32722	32759	32679	32551	0	32747	32918	32719	
1739	0	32774	32845	32714	32563	0	32631	32671	32699	
1740	0	32721	32767	32637	32523	0	32634	32787	32846	
1741	0	32727	32711	32727	32495	0	32815	32775	32685	
1742	0	32751	32723	32671	32621	0	32687	32543	32589	
1743	0	32775	32829	32717	32642	0	32771	32714	32759	
1744	0	32839	32834	32687	32663	0	32611	32755	32695	
1745	0	32805	32771	32611	32710	0	32586	32662	32775	
1746	0	32752	32767	32719	32671	0	32647	32605	32660	
1747	0	32782	32766	32663	32707	0	32647	32839	32735	
1748	0	32775	32832	32775	32854	0	32775	32887	32615	
1749	0	32754	32775	32691	32717	0	32751	32583	32543	
1750	0	32743	32681	32775	32691	0	32699	32726	32655	
1751	0	32694	32694	32625	32679	0	32695	32864	32524	
1752	0	32719	32775	32747	32775	0	32742	32807	32733	
1753	0	32780	32815	32609	32609	0	32805	32694	32917	
1754	0	32745	32791	32727	32733	0	33002	32799	32911	
1755	0	32773	32803	32791	32695	0	32983	32457	32883	
1756	0	32786	32813	32668	32710	0	32803	32662	32879	
1757	0	32727	32719	32775	32738	0	32819	32916	32571	
1758	0	32761	32699	32727	32767	0	32743	32837	32499	
1759	0	32771	32815	32723	32818	0	32775	33004	32451	
1760	0	32745	32831	32834	32639	0	32971	32866	32625	
1761	0	32754	32839	32639	32555	0	32775	32645	32695	
1762	0	32764	32765	32707	32548	0	32740	32711	32621	
1763	0	32782	32773	32706	32535	0	32660	32815	32695	
1764	0	32799	32763	32775	32631	0	32727	32589	32743	
1765	0	32806	32788	32770	32591	0	32761	32717	32823	
1766	0	32775	32677	32716	32695	0	32763	32807	32771	
1767	0	32782	32701	32740	32679	0	32732	32733	32679	
1768	0	32841	32757	32623	32672	0	32699	32788	32639	
1769	0	32705	32820	32667	32685	0	32691	32805	32479	
1770	0	32767	32815	32690	32689	0	32841	32631	32631	
1771	0	32806	32749	32647	32686	0	32807	32684	32575	
1772	0	32793	32823	32755	32626	0	32847	32783	32671	
1773	0	32775	32775	32637	32669	0	32854	32685	32583	
1774	0	32748	32724	32791	32605	0	32773	32791	32638	
1775	0	32742	32831	32794	32668	0	32765	32866	32491	
1776	0	32751	32727	32642	32615	0	32763	32659	32588	
1777	0	32729	32775	32734	32827	0	32796	32823	32477	
1778	0	32727	32823	32748	32742	0	32847	32812	32637	
1779	0	32734	32845	32631	32675	0	32837	32641	32643	
1780	0	32758	32743	32747	32747	0	32714	32775	32686	
1781	0	32771	32751	32646	32687	0	32775	32735	32557	
1782	0	32743	32807	32751	32659	0	32813	32626	32663	
1783	0	32718	32765	32796	32681	0	32773	32797	32589	
1784	0	32741	32763	32679	32698	0	32727	32894	32701	
1785	0	32775	32835	32724	32764	0	32804	32613	32627	
1786	0	32820	32762	32590	32711	0	32695	32747	32687	
1787	0	32815	32791	32717	32706	0	32647	32839	32759	
1788	0	32765	32845	32689	32775	0	32775	32543	32751	
1789	0	32791	32775	32627	32775	0	32819	32759	32811	
1790	0	32822	32742	32794	32783	0	32855	32847	32765	
1791	0	32769	32791	32717	32692	0	32739	32738	32663	
1792	0	32791	32757	32635	32671	0	32647	32715	32734	
1793	0	32735	32759	32759	32617	0	32743	32727	32703	
1794	0	32729	32775	32786	32711	0	32839	32737	32725	
1795	0	32771	32711	32621	32710	0	32827	32854	32673	
1796	0	32732	32757	32764	32685	0	32727	32631	32631	
1797	0	32793	32765	32685	32589	0	32759	32724	32646	
1798	0	32723	32747	32807	32615	0	32659	32770	32605	
1799	0	32714	32699	32796	32726	0	32775	32895	32647	
1800	0	32748	32739	32599	32695	0	32813	32654	32539	
1801	0	32726	32855	32717	32734	0	32732	32879	32579	
1802	0	32819	32755	32710	32687	0	32765	32955	32533	
1803	0	32735	32829	32756	32614	0	32759	32717	32695	
1804	0	32775	32815	32735	32596	0	32747	32790	32662	
1805	0	32736	32759	32573	32639	0	32699	32879	32663	
1806	0	32708	32751	32639	32599	0	32830	32695	32555	
1807	0	32740	32790	32645	32507	0	32799	32794	32797	
1808	0	32773	32883	32785	32639	0	32903	32795	32647	
1809	0	32755	32751	32767	32582	0	32807	32719	32453	
1810	0	32757	32764	32667	32615	0	32723	32775	32524	
1811	0	32790	32823	32773	32535	0	32677	32887	32553	
1812	0	32759	32791	32812	32539	0	32673	32557	32679	
1813	0	32711	32783	32671	32577	0	32660	32820	32795	
1814	0	32747	32759	32705	32609	0	32743	32598	32639	
1815	0	32775	32767	32791	32673	0	32827	32735	32694	
1816	0	32734	32806	32813	32754	0	32839	32855	32630	
1817	0	32730	32755	32686	32647	0	32810	32591	32715	
1818	0	32775	32762	32681	32723	0	32711	32775	32607	
1819	0	32771	32819	32740	32699	0	32742	32734	32711	
1820	0	32749	32711	32647	32662	0	32739	32699	32765	
1821	0	32748	32832	32789	32716	0	32767	32855	32615	
1822	0	32717	32711	32695	32775	0	32700	32635	32578	
1823	0	32799	32791	32638	32722	0	32732	32767	32495	
1824	0	32801	32815	32759	32711	0	32775	32743	32508	
1825	0	32790	32758	32711	32681	0	32903	32855	32493	
1826	0	32745	32839	32647	32633	0	32879	32966	32743	
1827	0	32734	32773	32645	32671	0	32951	32595	32759	
1828	0	32813	32748	32676	32663	0	32933	32850	32775	
1829	0	32747	32846	32609	32562	0	32838	32799	32631	
1830	0	32745	32843	32635	32553	0	32771	32767	32626	
1831	0	32749	32856	32743	32527	0	32655	32775	32647	
1832	0	32767	32790	32685	32597	0	32631	32851	32639	
1833	0	32759	32711	32765	32681	0	32790	32550	32583	
1834	0	32733	32751	32677	32669	0	32839	32727	32687	
1835	0	32749	32771	32803	32655	0	32821	32775	32703	
1836	0	32760	32743	32732	32623	0	32799	32690	32885	
1837	0	32765	32734	32645	32723	0	32727	32827	32739	
1838	0	32817	32766	32771	32623	0	32726	32791	32775	
1839	0	32775	32759	32611	32577	0	32690	32823	32493	
1840	0	32758	32734	32775	32599	0	32707	32852	32431	
1841	0	32794	32823	32759	32631	0	32759	32605	32591	
1842	0	32754	32895	32679	32647	0	32786	32623	32699	
1843	0	32754	32759	32804	32719	0	32759	32737	32717	
1844	0	32735	32754	32679	32733	0	32711	32621	32756	
1845	0	32706	32839	32759	32702	0	32763	32879	32705	
1846	0	32734	32704	32717	32695	0	32927	32633	32582	
1847	0	32701	32775	32789	32790	0	32847	32815	32557	
1848	0	32805	32881	32643	32788	0	32819	32731	32527	
1849	0	32781	32771	32751	32819	0	32797	32683	32732	
1850	0	32756	32685	32647	32813	0	32754	32707	32703	
1851	0	32740	32807	32687	32727	0	32647	32788	32647	
1852	0	32756	32853	32719	32706	0	32595	32692	32615	
1853	0	32751	32887	32735	32723	0	32775	32722	32775	
1854	0	32731	32729	32739	32715	0	32839	32639	32743	
1855	0	32756	32803	32679	32615	0	32903	32738	32743	
1856	0	32723	32719	32703	32613	0	32875	32717	32606	
1857	0	32716	32751	32705	32723	0	32810	32731	32671	
1858	0	32767	32743	32795	32759	0	32813	32797	32668	
1859	0	32719	32691	32676	32719	0	32895	32609	32765	
1860	0	32775	32751	32763	32591	0	32879	32735	32863	
1861	0	32745	32726	32719	32511	0	32867	32802	32743	
1862	0	32764	32727	32591	32493	0	32815	32631	32815	
1863	0	32800	32807	32611	32555	0	32802	32867	32755	
1864	0	32745	32751	32687	32514	0	32743	32705	32671	
1865	0	32775	32799	32627	32510	0	32727	32869	32615	
1866	0	32760	32839	32709	32483	0	32735	32899	32535	
1867	0	32830	32766	32717	32493	0	32749	32769	32589	
1868	0	32839	32733	32689	32539	0	32717	32783	32775	
1869	0	32820	32823	32723	32541	0	32711	32823	32674	
1870	0	32782	32751	32721	32719	0	32734	32582	32684	
1871	0	32791	32773	32771	32759	0	32711	32775	32571	
1872	0	32751	32807	32639	32755	0	32642	32683	32639	
1873	0	32815	32762	32775	32679	0	32775	32731	32743	
1874	0	32767	32767	32647	32627	0	32818	32811	32847	
1875	0	32758	32769	32711	32545	0	32709	32599	32783	
1876	0	32800	32799	32775	32521	0	32806	32755	32743	
1877	0	32759	32757	32633	32583	0	32775	32807	32567	
1878	0	32743	32831	32749	32611	0	32725	32759	32599	
1879	0	32749	32751	32743	32655	0	32739	32809	32559	
1880	0	32690	32757	32635	32722	0	32764	32635	32471	
1881	0	32692	32882	32749	32703	0	32871	32863	32483	
1882	0	32749	32732	32750	32671	0	32791	32859	32551	
1883	0	32764	32731	32641	32701	0	32711	32743	32658	
1884	0	32766	32851	32754	32659	0	32612	32815	32630	
1885	0	32743	32759	32763	32667	0	32713	32605	32729	
1886	0	32708	32795	32627	32714	0	32863	32647	32785	
1887	0	32743	32775	32740	32685	0	32858	32791	32763	
1888	0	32735	32829	32637	32691	0	32807	32577	32803	
1889	0	32765	32803	32703	32735	0	32748	32786	32807	
1890	0	32791	32762	32799	32653	0	32735	32927	32854	
1891	0	32815	32799	32663	32518	0	32763	32676	32663	
1892	0	32743	32765	32763	32634	0	32775	32800	32773	
1893	0	32783	32751	32631	32575	0	32755	32823	32743	
1894	0	32735	32859	32787	32575	0	32851	32647	32647	
1895	0	32730	32767	32694	32691	0	32725	32773	32621	
1896	0	32758	32775	32765	32727	0	32839	32860	32642	
1897	0	32743	32727	32743	32659	0	32749	32943	32679	
1898	0	32801	32767	32617	32631	0	32817	32679	32610	
1899	0	32807	32802	32710	32739	0	32722	32811	32655	
1900	0	32791	32815	32647	32761	0	32796	32871	32615	
1901	0	32760	32807	32791	32797	0	32796	32660	32822	
1902	0	32722	32775	32770	32637	0	32799	32839	32684	
1903	0	32804	32823	32679	32487	0	32791	32831	32715	
1904	0	32767	32835	32725	32563	0	32733	32470	32891	
1905	0	32784	32751	32595	32539	0	32745	32647	32853	
1906	0	32790	32773	32695	32699	0	32799	32735	32850	
1907	0	32807	32703	32663	32695	0	32695	32519	32641	
1908	0	32782	32799	32759	32599	0	32745	32775	32495	
1909	0	32742	32674	32775	32647	0	32639	32949	32573	
1910	0	32764	32687	32679	32660	0	32827	32677	32382	
1911	0	32708	32823	32767	32682	0	32883	32782	32575	
1912	0	32764	32871	32685	32709	0	32877	32821	32621	
1913	0	32756	32855	32738	32702	0	32829	32571	32743	
1914	0	32759	32692	32717	32735	0	32826	32775	32753	
1915	0	32707	32775	32711	32669	0	32870	32702	32879	
1916	0	32706	32842	32775	32731	0	32790	32735	32676	
1917	0	32743	32759	32804	32692	0	32742	32825	32681	
1918	0	32723	32783	32660	32637	0	32807	32590	32662	
1919	0	32775	32818	32743	32685	0	32865	32775	32689	
1920	0	32733	32835	32708	32739	0	32839	32775	32631	
1921	0	32712	32807	32711	32621	0	32759	32743	32756	
1922	0	32713	32738	32647	32567	0	32791	32711	32743	
1923	0	32739	32725	32751	32547	0	32755	32823	32807	
1924	0	32820	32803	32647	32531	0	32723	32803	32729	
1925	0	32743	32794	32641	32607	0	32679	32659	32687	
1926	0	32791	32721	32647	32636	0	32599	32726	32599	
1927	0	32827	32725	32603	32669	0	32613	32811	32531	
1928	0	32830	32791	32663	32627	0	32790	32891	32661	
1929	0	32775	32887	32731	32743	0	32823	32814	32711	
1930	0	32727	32879	32747	32764	0	32882	32743	32847	
1931	0	32729	32787	32794	32703	0	32735	32507	32864	
1932	0	32742	32765	32607	32554	0	32797	32735	32957	
1933	0	32724	32707	32763	32487	0	32791	32918	32879	
1934	0	32784	32783	32694	32511	0	32796	32949	32812	
1935	0	32766	32719	32717	32573	0	32839	32909	32587	
1936	0	32735	32695	32743	32611	0	32719	32733	32615	
1937	0	32729	32767	32733	32731	0	32815	32613	32541	
1938	0	32735	32822	32747	32655	0	32775	32743	32583	
1939	0	32775	32807	32663	32733	0	32850	32827	32703	
1940	0	32738	32797	32839	32735	0	32747	32615	32645	
1941	0	32778	32791	32805	32647	0	32756	32815	32547	
1942	0	32743	32775	32615	32639	0	32731	32639	32486	
1943	0	32743	32731	32775	32615	0	32701	32871	32563	
1944	0	32743	32759	32788	32717	0	32722	32703	32436	
1945	0	32775	32852	32606	32707	0	32755	32761	32489	
1946	0	32768	32775	32757	32687	0	32735	32785	32511	
1947	0	32853	32743	32703	32700	0	32719	32754	32617	
1948	0	32815	32784	32557	32775	0	32725	32900	32519	
1949	0	32703	32705	32741	32733	0	32799	32895	32759	
1950	0	32775	32748	32818	32713	0	32759	32599	32795	
1951	0	32749	32783	32623	32646	0	32695	32799	32671	
1952	0	32738	32749	32774	32623	0	32743	32729	32671	
1953	0	32733	32769	32834	32635	0	32839	32573	32797	
1954	0	32786	32795	32679	32679	0	32827	32671	32663	
1955	0	32756	32885	32721	32751	0	32799	32775	32711	
1956	0	32791	32819	32646	32695	0	32839	32797	32749	
1957	0	32764	32841	32629	32701	0	32661	32791	32621	
1958	0	32815	32807	32667	32672	0	32611	32579	32615	
1959	0	32763	32758	32687	32635	0	32663	32711	32583	
1960	0	32787	32799	32519	32631	0	32770	32487	32775	
1961	0	32739	32756	32692	32702	0	32847	32717	32507	
1962	0	32755	32775	32751	32738	0	32867	32748	32753	
1963	0	32716	32813	32655	32711	0	32789	32732	32637	
1964	0	32796	32719	32719	32759	0	32817	32893	32507	
1965	0	32773	32689	32743	32727	0	32781	32679	32679	
1966	0	32756	32771	32630	32675	0	32723	32811	32555	
1967	0	32743	32727	32671	32775	0	32711	32839	32599	
1968	0	32735	32799	32599	32658	0	32775	32621	32543	
1969	0	32742	32791	32717	32707	0	32749	32775	32699	
1970	0	32769	32725	32726	32690	0	32871	32805	32555	
1971	0	32743	32755	32665	32754	0	32798	32811	32671	
1972	0	32742	32815	32771	32743	0	32763	32852	32607	
1973	0	32754	32879	32791	32766	0	32831	32617	32723	
1974	0	32754	32775	32667	32743	0	32850	32770	32601	
1975	0	32775	32757	32719	32711	0	32805	32823	32742	
1976	0	32734	32803	32669	32772	0	32647	32655	32563	
1977	0	32806	32839	32711	32625	0	32879	32837	32738	
1978	0	32799	32763	32690	32562	0	32795	32843	32775	
1979	0	32745	32796	32671	32467	0	32799	32699	32883	
1980	0	32787	32819	32743	32575	0	32757	32789	32795	
1981	0	32800	32757	32719	32623	0	32743	32839	32519	
1982	0	32800	32734	32687	32612	0	32767	32722	32677	
1983	0	32780	32871	32823	32647	0	32869	32740	32791	
1984	0	32753	32759	32755	32571	0	32807	32854	32775	
1985	0	32703	32741	32655	32524	0	32743	32694	32595	
1986	0	32795	32791	32765	32553	0	32711	32791	32699	
1987	0	32787	32791	32708	32617	0	32775	32759	32647	
1988	0	32811	32738	32762	32638	0	32804	32727	32683	
1989	0	32782	32745	32731	32690	0	32735	32599	32540	
1990	0	32754	32823	32695	32599	0	32831	32839	32673	
1991	0	32748	32807	32743	32661	0	32671	32922	32689	
1992	0	32797	32839	32635	32691	0	32807	32717	32591	
1993	0	32695	32775	32715	32719	0	32788	32815	32620	
1994	0	32747	32742	32717	32695	0	32887	32843	32583	
1995	0	32749	32811	32615	32647	0	32818	32679	32646	
1996	0	32742	32711	32716	32747	0	32739	32763	32482	
1997	0	32795	32767	32694	32716	0	32701	32775	32565	
1998	0	32775	32739	32717	32691	0	32641	32839	32563	
1999	0	32729	32829	32686	32735	0	32703	32609	32743	
2000	0	32759	32769	32580	32742	0	32797	32679	32689	
2001	0	32754	32782	32775	32719	0	32740	32759	32791	
2002	0	32797	32799	32689	32702	0	32711	32639	32738	
2003	0	32771	32811	32769	32739	0	32647	32748	32551	
2004	0	32734	32743	32735	32765	0	32621	32773	32615	
2005	0	32717	32749	32598	32731	0	32698	32695	32492	
2006	0	32752	32799	32731	32681	0	32775	32758	32619	
2007	0	32743	32799	32775	32691	0	32835	32923	32615	
2008	0	32804	32759	32629	32573	0	32815	32786	32694	
2009	0	32723	32866	32675	32519	0	32855	32851	32580	
2010	0	32701	32831	32662	32557	0	32839	32845	32679	
2011	0	32698	32775	32719	32628	0	32771	32731	32415	
2012	0	32706	32783	32769	32615	0	32775	32759	32647	
2013	0	32694	32869	32684	32563	0	32823	32869	32555	
2014	0	32719	32767	32743	32535	0	32835	32647	32647	
2015	0	32806	32743	32755	32515	0	32927	32767	32659	
2016	0	32771	32754	32703	32574	0	32839	32698	32642	
2017	0	32729	32847	32743	32615	0	32775	32643	32771	
2018	0	32756	32764	32663	32605	0	32713	32626	32559	
2019	0	32775	32775	32742	32635	0	32693	32847	32615	
2020	0	32758	32805	32743	32767	0	32719	32816	32530	
2021	0	32775	32807	32615	32669	0	32807	32599	32599	
2022	0	32775	32722	32687	32706	0	32823	32707	32583	
2023	0	32801	32767	32703	32695	0	32775	32637	32663	
2024	0	32772	32767	32669	32692	0	32727	32671	32583	
2025	0	32793	32692	32769	32719	0	32775	32701	32743	
2026	0	32687	32807	32669	32668	0	32734	32617	32719	
2027	0	32743	32839	32775	32647	0	32735	32719	32903	
2028	0	32769	32795	32702	32699	0	32893	32727	32765	
2029	0	32754	32695	32615	32767	0	32755	32809	32641	
2030	0	32758	32677	32743	32583	0	32692	32645	32605	
2031	0	32839	32695	32547	32538	0	32658	32838	32415	
2032	0	32815	32748	32730	32565	0	32719	32878	32463	
2033	0	32757	32703	32755	32543	0	32711	32690	32589	
2034	0	32753	32775	32679	32525	0	32771	32887	32625	
2035	0	32765	32825	32775	32611	0	32799	32887	32429	
2036	0	32728	32734	32669	32572	0	32735	32631	32895	
2037	0	32765	32803	32773	32556	0	32903	32635	33047	
2038	0	32726	32773	32820	32575	0	32921	32711	32983	
2039	0	32760	32791	32711	32503	0	32875	32743	32743	
2040	0	32804	32740	32791	32557	0	32799	32817	32525	
2041	0	32753	32767	32771	32645	0	32707	32587	32477	
2042	0	32825	32859	32627	32679	0	32703	32735	32411	
2043	0	32831	32862	32703	32795	0	32767	32775	32486	
2044	0	32798	32751	32666	32818	0	32775	32830	32541	
2045	0	32749	32820	32791	32771	0	32725	32695	32575	
2046	0	32729	32871	32775	32691	0	32775	32859	32436	
2047	0	32711	32806	32671	32629	0	32647	32895	32647	
2048	0	32775	32687	32687	32692	0	32838	32587	32631	
2049	0	32797	32715	32631	32811	0	32855	32759	32751	
2050	0	32728	32803	32645	32735	0	32829	32715	32669	
2051	0	32764	32743	32723	32727	0	32819	32745	32799	
2052	0	32807	32731	32597	32679	0	32751	32757	32643	
2053	0	32753	32805	32695	32711	0	32751	32815	32739	
2054	0	32756	32839	32700	32662	0	32911	32675	32599	
2055	0	32775	32853	32707	32604	0	32839	32819	32823	
2056	0	32815	32775	32723	32511	0	32787	32927	32710	
2057	0	32748	32758	32621	32543	0	32623	32622	32711	
2058	0	32799	32839	32687	32690	0	32647	32763	32749	
2059	0	32753	32863	32606	32749	0	32811	32901	32677	
2060	0	32726	32786	32644	32761	0	32725	32575	32767	
2061	0	32708	32879	32669	32735	0	32843	32773	32795	
2062	0	32700	32898	32607	32735	0	32844	32711	32765	
2063	0	32718	32895	32675	32783	0	32795	32757	32852	
2064	0	32729	32791	32727	32797	0	32845	32751	32739	
2065	0	32709	32815	32615	32667	0	32878	32601	32749	
2066	0	32716	32885	32786	32703	0	32858	32735	32756	
2067	0	32715	32775	32795	32727	0	32817	32727	32766	
2068	0	32731	32807	32647	32749	0	32771	32711	32698	
2069	0	32775	32838	32754	32703	0	32723	32695	32723	
2070	0	32710	32681	32839	32658	0	32682	32609	32643	
2071	0	32674	32702	32751	32687	0	32621	32731	32647	
2072	0	32699	32735	32869	32615	0	32626	32767	32516	
2073	0	32719	32767	32799	32647	0	32700	32487	32621	
2074	0	32614	32721	32845	32669	0	32727	32643	32607	
2075	0	32679	32771	32875	32551	0	32637	32775	32438	
2076	0	32712	32751	32757	32509	0	32667	32543	32645	
2077	0	32630	32709	32863	32506	0	32743	32666	32487	
2078	0	32660	32605	32772	32461	0	32755	32635	32647	
2079	0	32628	32647	32875	32583	0	32727	32407	32839	
2080	0	32594	32711	32823	32566	0	32733	32485	32878	
2081	0	32583	32757	32839	32399	0	32823	32587	32754	
2082	0	32611	32740	32863	32421	0	32807	32655	32489	
2083	0	32697	32627	32820	32387	0	32775	32647	32541	
2084	0	32736	32695	32823	32355	0	32695	32805	32321	
2085	0	32791	32747	32727	32421	0	32639	32714	32364	
2086	0	32759	32631	32794	32467	0	32575	32820	32149	
2087	0	32719	32631	32775	32603	0	32727	32839	32348	
2088	0	32738	32631	32707	32611	0	32703	32807	32635	
2089	0	32842	32692	32795	32647	0	32742	32604	32991	
2090	0	32793	32699	32693	32613	0	32720	32927	32836	
2091	0	32789	32679	32775	32745	0	32731	33174	32500	
2092	0	32791	32671	32630	32823	0	32823	32899	32628	
2093	0	32839	32775	32647	32853	0	32775	33011	32525	
2094	0	32836	32869	32691	32839	0	32788	33175	32625	
2095	0	32846	32896	32587	32796	0	32775	33053	32647	
2096	0	32885	32878	32570	32838	0	32701	33113	32551	
2097	0	32893	32943	32551	32850	0	32710	33135	32733	
2098	0	32983	33015	32391	32861	0	32799	32916	32699	
2099	0	33044	32903	32455	32871	0	32855	33014	32773	
2100	0	33114	32819	32382	33005	0	32789	33095	32737	
2101	0	33047	32847	32487	33045	0	32663	33223	32519	
2102	0	33095	32919	32455	32987	0	32493	33123	32549	
2103	0	33125	32863	32391	32949	0	32575	33189	32427	
2104	0	33066	32807	32431	32967	0	32764	33159	32685	
2105	0	33046	32765	32407	32903	0	32841	32715	32615	
2106	0	32980	32775	32508	32918	0	32887	32767	32726	
2107	0	32988	32826	32429	32897	0	32839	32722	32671	
2108	0	32983	32833	32263	32951	0	32835	32611	32831	
2109	0	32959	32879	32359	32815	0	32964	32711	32903	
2110	0	32943	32861	32439	32661	0	33014	32749	33031	
2111	0	32848	32807	32647	32660	0	32982	32463	33023	
2112	0	32795	32827	32615	32671	0	32879	32711	32839	
2113	0	32725	32738	32791	32751	0	32903	32902	32903	
2114	0	32667	32677	32723	32659	0	32879	32735	32679	
2115	0	32612	32711	32829	32662	0	32769	32687	32722	
2116	0	32623	32739	32878	32615	0	32799	32667	32615	
2117	0	32519	32711	32886	32636	0	32771	32702	32743	
2118	0	32569	32756	32783	32391	0	32719	32647	32602	
2119	0	32578	32831	32891	32415	0	32704	32439	32548	
2120	0	32592	32749	32903	32503	0	32638	32583	32615	
2121	0	32523	32714	32933	32517	0	32695	32591	32548	
2122	0	32556	32767	32935	32507	0	32844	32467	32760	
2123	0	32529	32758	32859	32461	0	32787	32361	32617	
2124	0	32571	32789	32955	32429	0	32835	32503	32470	
2125	0	32525	32799	32926	32252	0	32734	32499	32739	
2126	0	32596	32749	32946	32294	0	32810	32542	32713	
2127	0	32511	32759	32919	32447	0	32767	32371	32583	
2128	0	32577	32743	32931	32501	0	32820	32561	32690	
2129	0	32585	32822	32799	32547	0	32739	32641	32567	
2130	0	32615	32870	32935	32615	0	32711	32437	32633	
2131	0	32639	32859	32861	32707	0	32747	32659	32503	
2132	0	32642	32835	32711	32719	0	32863	32703	32639	
2133	0	32677	32871	32700	32671	0	32839	32495	32703	
2134	0	32644	32836	32635	32718	0	32759	32695	32775	
2135	0	32703	32866	32788	32831	0	32727	32739	32675	
2136	0	32677	32769	32691	32666	0	32731	32671	32587	
2137	0	32745	32791	32697	32559	0	32930	32581	32751	
2138	0	32792	32797	32630	32735	0	32823	32811	32662	
2139	0	32743	32738	32671	32681	0	32728	32871	32595	
2140	0	32769	32785	32681	32687	0	32735	32707	32695	
2141	0	32799	32690	32723	32703	0	32812	32821	32617	
2142	0	32822	32715	32635	32775	0	32775	32852	32726	
2143	0	32854	32775	32731	32790	0	32751	33012	32641	
2144	0	32831	32759	32725	32581	0	32719	32755	32565	
2145	0	32854	32815	32571	32599	0	32706	32823	32735	
2146	0	32868	32759	32609	32547	0	32719	32885	32516	
2147	0	32879	32747	32557	32639	0	32749	32638	32647	
2148	0	32811	32783	32735	32755	0	32739	32689	32631	
2149	0	32798	32775	32627	32719	0	32803	32963	32499	
2150	0	32800	32791	32789	32741	0	32711	33043	32523	
2151	0	32815	32791	32597	32773	0	32671	32803	32510	
2152	0	32828	32738	32751	32612	0	32695	32731	32451	
2153	0	32804	32638	32655	32515	0	32647	32767	32605	
2154	0	32792	32711	32680	32541	0	32815	32899	32614	
2155	0	32795	32807	32623	32703	0	32859	32695	32655	
2156	0	32743	32806	32706	32727	0	32903	32795	32775	
2157	0	32774	32860	32751	32756	0	32855	32884	32894	
2158	0	32801	32723	32671	32775	0	32769	32811	32647	
2159	0	32829	32743	32709	32698	0	32679	32883	32724	
2160	0	32768	32819	32692	32660	0	32763	32863	32706	
2161	0	32756	32763	32784	32715	0	32855	32675	32753	
2162	0	32807	32759	32660	32695	0	32766	32531	32714	
2163	0	32786	32733	32722	32687	0	32775	32771	32607	
2164	0	32724	32837	32815	32647	0	32727	32775	32640	
2165	0	32694	32747	32615	32646	0	32685	32615	32639	
2166	0	32713	32701	32750	32647	0	32631	32850	32587	
2167	0	32773	32731	32703	32745	0	32669	32949	32679	
2168	0	32759	32805	32543	32775	0	32775	32623	32701	
2169	0	32795	32829	32647	32719	0	32827	32644	32695	
2170	0	32790	32810	32603	32690	0	32863	32829	32839	
2171	0	32750	32813	32707	32607	0	32799	32783	32749	
2172	0	32748	32727	32689	32579	0	32799	32558	32851	
2173	0	32738	32806	32799	32684	0	32855	32773	32591	
2174	0	32756	32817	32749	32642	0	32775	32871	32373	
2175	0	32754	32762	32702	32725	0	32773	32747	32541	
2176	0	32756	32765	32807	32623	0	32761	32875	32655	
2177	0	32759	32796	32647	32642	0	32755	32807	32735	
2178	0	32796	32775	32699	32671	0	32883	32751	32748	
2179	0	32749	32745	32655	32699	0	32891	32583	32796	
2180	0	32742	32759	32635	32679	0	32823	32806	32753	
2181	0	32749	32775	32775	32719	0	32815	32801	32639	
2182	0	32796	32773	32595	32723	0	32775	32639	32607	
2183	0	32806	32763	32773	32731	0	32703	32775	32583	
2184	0	32807	32791	32699	32675	0	32691	32825	32683	
2185	0	32775	32850	32679	32711	0	32635	32713	32495	
2186	0	32783	32783	32747	32565	0	32741	32631	32671	
2187	0	32785	32749	32590	32566	0	32839	32807	32743	
2188	0	32744	32811	32681	32551	0	32843	32861	32679	
2189	0	32731	32832	32739	32532	0	32823	32635	32679	
2190	0	32810	32694	32669	32491	0	32823	32791	32673	
2191	0	32763	32790	32663	32639	0	32756	32711	32591	
2192	0	32736	32731	32725	32583	0	32835	32771	32685	
2193	0	32738	32783	32703	32621	0	32836	32887	32500	
2194	0	32742	32695	32647	32583	0	32850	32663	32620	
2195	0	32759	32751	32727	32591	0	32813	32756	32580	
2196	0	32749	32758	32631	32579	0	32726	32863	32709	
2197	0	32782	32747	32710	32562	0	32671	32615	32747	
2198	0	32750	32879	32789	32579	0	32669	32863	32750	
2199	0	32775	32859	32659	32559	0	32709	32807	32673	
2200	0	32702	32738	32622	32579	0	32759	32589	32739	
2201	0	32783	32783	32731	32527	0	32812	32795	32679	
2202	0	32690	32817	32670	32581	0	32749	32799	32603	
2203	0	32732	32755	32695	32499	0	32775	32775	32615	
2204	0	32711	32774	32721	32508	0	32775	32729	32615	
2205	0	32805	32833	32677	32609	0	32731	32626	32615	
2206	0	32759	32801	32735	32703	0	32839	32615	32501	
2207	0	32803	32791	32691	32775	0	32882	32747	32775	
2208	0	32730	32679	32733	32790	0	32873	32885	32727	
2209	0	32758	32751	32691	32677	0	32837	32647	32827	
2210	0	32775	32822	32686	32691	0	32679	32819	32647	
2211	0	32816	32775	32699	32679	0	32698	32847	32803	
2212	0	32786	32783	32610	32755	0	32687	32775	32723	
2213	0	32771	32819	32647	32546	0	32703	32935	32707	
2214	0	32790	32711	32767	32631	0	32749	32597	32605	
2215	0	32759	32775	32727	32701	0	32735	32799	32663	
2216	0	32749	32811	32599	32703	0	32722	32895	32463	
2217	0	32723	32727	32767	32612	0	32701	32632	32655	
2218	0	32762	32711	32627	32587	0	32643	32775	32619	
2219	0	32732	32739	32727	32617	0	32687	32913	32617	
2220	0	32788	32839	32771	32641	0	32807	32663	32647	
2221	0	32725	32799	32690	32691	0	32853	32767	32463	
2222	0	32732	32765	32731	32715	0	32847	32839	32639	
2223	0	32784	32867	32626	32675	0	32843	32583	32455	
2224	0	32749	32847	32731	32742	0	32740	32742	32590	
2225	0	32723	32835	32638	32700	0	32923	32719	32679	
2226	0	32756	32813	32765	32583	0	32895	32807	32640	
2227	0	32788	32766	32743	32551	0	32854	32553	32719	
2228	0	32799	32747	32677	32543	0	32843	32767	32690	
2229	0	32775	32775	32606	32615	0	32716	32683	32574	
2230	0	32767	32727	32655	32594	0	32635	32795	32563	
2231	0	32820	32689	32810	32599	0	32717	32730	32671	
2232	0	32781	32703	32666	32717	0	32787	32722	32567	
2233	0	32751	32855	32758	32710	0	32743	32807	32732	
2234	0	32693	32683	32759	32607	0	32647	32877	32623	
2235	0	32746	32695	32668	32719	0	32726	32810	32775	
2236	0	32762	32815	32738	32645	0	32743	32515	32706	
2237	0	32743	32815	32698	32623	0	32851	32775	32628	
2238	0	32696	32839	32755	32749	0	32831	32931	32789	
2239	0	32759	32724	32675	32765	0	32873	32787	32671	
2240	0	32726	32775	32787	32621	0	32775	32883	32875	
2241	0	32757	32839	32631	32525	0	32669	32854	32765	
2242	0	32736	32823	32701	32543	0	32759	32727	32694	
2243	0	32713	32772	32699	32511	0	32812	32818	32699	
2244	0	32749	32737	32691	32540	0	32775	32765	32617	
2245	0	32796	32740	32743	32694	0	32775	32799	32675	
2246	0	32805	32795	32605	32665	0	32705	32573	32574	
2247	0	32815	32735	32700	32727	0	32673	32773	32583	
2248	0	32749	32797	32661	32711	0	32821	32822	32447	
2249	0	32742	32785	32767	32619	0	32789	32661	32583	
2250	0	32788	32855	32785	32663	0	32759	32729	32629	
2251	0	32772	32822	32727	32719	0	32717	32754	32751	
2252	0	32761	32699	32753	32743	0	32671	32589	32785	
2253	0	32730	32791	32734	32679	0	32820	32703	32647	
2254	0	32735	32843	32729	32735	0	32711	32738	32623	
2255	0	32719	32791	32639	32605	0	32775	32813	32575	
2256	0	32704	32805	32711	32593	0	32822	32647	32775	
2257	0	32712	32727	32701	32670	0	32847	32751	32702	
2258	0	32665	32738	32717	32695	0	32767	32803	32637	
2259	0	32687	32763	32658	32733	0	32765	32826	32661	
2260	0	32785	32820	32725	32692	0	32705	32643	32583	
2261	0	32716	32859	32674	32663	0	32811	32759	32707	
2262	0	32790	32834	32683	32694	0	32802	32815	32615	
2263	0	32813	32823	32620	32615	0	32735	32935	32623	
2264	0	32796	32705	32659	32533	0	32843	32635	32561	
2265	0	32796	32742	32601	32543	0	32876	32773	32590	
2266	0	32787	32807	32745	32566	0	32891	32839	32543	
2267	0	32791	32819	32783	32623	0	32809	32671	32692	
2268	0	32819	32663	32764	32583	0	32791	32659	32678	
2269	0	32809	32699	32743	32684	0	32747	32743	32931	
2270	0	32828	32749	32643	32716	0	32829	32799	32795	
2271	0	32839	32775	32757	32743	0	32876	32687	32493	
2272	0	32791	32849	32647	32720	0	32769	32790	32603	
2273	0	32809	32742	32715	32639	0	32813	32775	32635	
2274	0	32787	32791	32694	32634	0	32698	32710	32807	
2275	0	32727	32814	32711	32700	0	32647	32757	32694	
2276	0	32718	32843	32757	32615	0	32755	32799	32575	
2277	0	32724	32771	32677	32742	0	32759	32677	32575	
2278	0	32739	32733	32775	32727	0	32725	32795	32475	
2279	0	32739	32795	32718	32698	0	32725	32797	32669	
2280	0	32773	32847	32818	32671	0	32669	32731	32607	
2281	0	32758	32759	32797	32626	0	32695	32583	32687	
2282	0	32725	32808	32607	32687	0	32723	32815	32711	
2283	0	32732	32815	32707	32611	0	32807	32818	32567	
2284	0	32716	32818	32629	32497	0	32845	32575	32767	
2285	0	32761	32755	32756	32550	0	32831	32765	32667	
2286	0	32806	32727	32639	32550	0	32701	32795	32665	
2287	0	32736	32738	32727	32749	0	32667	32713	32575	
2288	0	32763	32786	32599	32692	0	32731	32607	32703	
2289	0	32730	32823	32759	32687	0	32839	32795	32775	
2290	0	32780	32831	32670	32743	0	32775	32809	32531	
2291	0	32740	32747	32711	32740	0	32735	32685	32611	
2292	0	32754	32766	32674	32753	0	32746	32815	32502	
2293	0	32747	32830	32591	32606	0	32711	32775	32604	
2294	0	32720	32871	32751	32482	0	32647	32737	32682	
2295	0	32791	32791	32623	32569	0	32743	32571	32716	
2296	0	32807	32750	32718	32594	0	32823	32729	32599	
2297	0	32735	32743	32571	32775	0	32871	32829	32879	
2298	0	32734	32787	32719	32729	0	32895	32703	32755	
2299	0	32743	32759	32647	32613	0	32699	32579	32743	
2300	0	32797	32751	32756	32615	0	32755	32847	32515	
2301	0	32746	32751	32676	32719	0	32903	32935	32564	
2302	0	32715	32684	32775	32743	0	32871	32767	32580	
2303	0	32721	32735	32631	32555	0	32759	32845	32647	
2304	0	32739	32786	32703	32636	0	32695	32711	32822	
2305	0	32729	32843	32807	32613	0	32647	32799	32815	
2306	0	32745	32775	32758	32727	0	32739	32591	32635	
2307	0	32788	32769	32759	32759	0	32815	32798	32893	
2308	0	32802	32767	32695	32707	0	32826	32747	32929	
2309	0	32785	32805	32687	32731	0	32731	32541	32703	
2310	0	32823	32815	32615	32612	0	32716	32839	32727	
2311	0	32813	32756	32702	32679	0	32623	32903	32569	
2312	0	32718	32775	32643	32571	0	32775	32873	32647	
