# OpenSignals Text File Format
# {"00:07:80:3B:46:38": {"sensor": ["CUSTOM/0.5/1.0/V", "CUSTOM/0.5/1.0/V", "CUSTOM/0.5/1.0/V", "CUSTOM/0.5/1.0/V", "CUSTOM/0.5/1.0/V", "CUSTOM/0.5/1.0/V", "CUSTOM/0.5/1.0/V", "CUSTOM/0.5/1.0/V"], "device name": "EMGs", "column": ["nSeq", "DI", "RA_L", "RA_R", "OE_L", "OE:R", "IL_L", "IL_R", "MF_L", "MF_R"], "sync interval": 2, "time": "16:20:41.282", "comments": "", "device connection": "BTH00:07:80:3B:46:38", "channels": [1, 2, 3, 4, 5, 6, 7, 8], "date": "2017-6-1", "mode": 0, "digital IO": [0, 1], "firmware version": 772, "device": "biosignalsplux", "position": 0, "sampling rate": 1000, "label": ["RA_L", "RA_R", "OE_L", "OE:R", "IL_L", "IL_R", "MF_L", "MF_R"], "resolution": [16, 16, 16, 16, 16, 16, 16, 16], "special": [{}, {}, {}, {}, {}, {}, {}, {}]}}
# EndOfHeader
0	0	32732	32615	32748	32727	32823	32607	32775	32850	
1	0	32759	32667	32751	32755	32763	32653	32607	32755	
2	0	32756	32698	32740	32775	32791	32655	32710	32603	
3	0	32780	32535	32637	32757	32746	32775	32659	32743	
4	0	32764	32719	32791	32837	32622	32767	32683	32828	
5	0	32790	32567	32717	32829	32690	32770	32503	32694	
6	0	32738	32762	32725	32752	32727	32807	32748	32646	
7	0	32798	32802	32810	32815	32765	32661	32631	32647	
8	0	32788	32622	32767	32762	32691	32663	32557	32775	
9	0	32756	32717	32663	32709	32727	32644	32739	32742	
10	0	32768	32527	32748	32775	32694	32647	32647	32742	
11	0	32737	32701	32733	32719	32733	32703	32743	32786	
12	0	32785	32635	32832	32802	32722	32711	32601	32759	
13	0	32775	32711	32773	32807	32703	32732	32657	32687	
14	0	32775	32715	32801	32756	32669	32733	32703	32807	
15	0	32836	32746	32802	32809	32797	32703	32799	32721	
16	0	32779	32621	32727	32775	32815	32758	32647	32655	
17	0	32754	32663	32677	32699	32634	32727	32567	32656	
18	0	32769	32631	32775	32799	32687	32769	32749	32605	
19	0	32714	32581	32759	32729	32727	32719	32711	32755	
20	0	32802	32667	32695	32756	32719	32807	32619	32771	
21	0	32730	32579	32813	32775	32806	32705	32827	32769	
22	0	32765	32749	32800	32711	32865	32647	32679	32726	
23	0	32807	32731	32775	32741	32687	32622	32583	32834	
24	0	32748	32595	32662	32765	32765	32629	32754	32763	
25	0	32775	32647	32661	32767	32772	32647	32677	32567	
26	0	32751	32707	32621	32730	32675	32610	32553	32615	
27	0	32742	32758	32617	32799	32679	32658	32687	32751	
28	0	32748	32495	32677	32767	32721	32630	32643	32772	
29	0	32757	32721	32615	32710	32735	32675	32745	32879	
30	0	32789	32742	32802	32710	32734	32661	32771	32845	
31	0	32748	32567	32731	32759	32626	32647	32473	32871	
32	0	32788	32695	32791	32767	32743	32819	32633	32819	
33	0	32740	32579	32711	32823	32647	32710	32583	32789	
34	0	32783	32839	32738	32735	32679	32716	32721	32660	
35	0	32736	32655	32847	32821	32726	32751	32519	32678	
36	0	32743	32732	32700	32767	32655	32773	32700	32669	
37	0	32732	32699	32743	32707	32679	32630	32737	32690	
38	0	32759	32637	32775	32801	32751	32751	32535	32775	
39	0	32764	32773	32818	32751	32773	32659	32727	32773	
40	0	32756	32717	32647	32725	32675	32599	32641	32713	
41	0	32816	32575	32715	32751	32784	32611	32511	32795	
42	0	32832	32756	32807	32759	32762	32599	32798	32866	
43	0	32802	32625	32647	32767	32690	32806	32738	32782	
44	0	32795	32742	32715	32683	32766	32723	32629	32722	
45	0	32737	32713	32691	32715	32739	32748	32791	32698	
46	0	32758	32605	32639	32713	32719	32735	32709	32708	
47	0	32783	32690	32755	32687	32757	32676	32671	32660	
48	0	32728	32495	32743	32687	32667	32609	32519	32611	
49	0	32743	32647	32743	32780	32693	32698	32775	32743	
50	0	32748	32639	32669	32759	32621	32743	32635	32647	
51	0	32691	32725	32803	32764	32754	32729	32727	32706	
52	0	32767	32727	32773	32807	32837	32715	32575	32583	
53	0	32710	32691	32819	32769	32743	32775	32683	32561	
54	0	32760	32718	32775	32793	32731	32662	32643	32638	
55	0	32755	32706	32743	32718	32675	32679	32655	32706	
56	0	32714	32715	32792	32849	32754	32765	32631	32619	
57	0	32731	32709	32805	32713	32669	32751	32719	32655	
58	0	32732	32694	32791	32843	32743	32757	32699	32603	
59	0	32776	32551	32615	32783	32806	32747	32735	32617	
60	0	32692	32639	32710	32807	32710	32639	32512	32767	
61	0	32748	32519	32775	32797	32751	32620	32749	32594	
62	0	32760	32719	32843	32739	32647	32751	32695	32587	
63	0	32738	32519	32631	32761	32715	32711	32615	32551	
64	0	32735	32703	32773	32698	32647	32725	32535	32757	
65	0	32829	32542	32687	32691	32730	32647	32727	32617	
66	0	32775	32690	32757	32706	32773	32677	32610	32621	
67	0	32749	32559	32593	32734	32739	32811	32668	32671	
68	0	32786	32751	32685	32699	32743	32799	32551	32743	
69	0	32799	32699	32783	32745	32714	32773	32751	32747	
70	0	32769	32615	32681	32692	32710	32743	32611	32742	
71	0	32773	32773	32775	32795	32815	32637	32692	32731	
72	0	32773	32677	32711	32775	32687	32603	32588	32739	
73	0	32722	32767	32799	32854	32719	32764	32582	32775	
74	0	32775	32564	32706	32745	32617	32703	32687	32716	
75	0	32734	32643	32745	32771	32775	32680	32743	32755	
76	0	32796	32613	32773	32764	32807	32722	32643	32769	
77	0	32808	32679	32629	32831	32767	32647	32587	32759	
78	0	32796	32519	32835	32734	32850	32647	32719	32727	
79	0	32765	32690	32801	32708	32684	32692	32629	32771	
80	0	32820	32669	32804	32743	32775	32735	32647	32769	
81	0	32795	32717	32775	32681	32713	32739	32743	32763	
82	0	32731	32711	32707	32775	32647	32723	32647	32711	
83	0	32742	32519	32687	32831	32717	32739	32519	32786	
84	0	32775	32796	32783	32742	32671	32775	32713	32842	
85	0	32817	32709	32647	32729	32751	32799	32717	32831	
86	0	32732	32807	32839	32687	32827	32630	32628	32819	
87	0	32693	32767	32695	32771	32735	32687	32691	32900	
88	0	32747	32560	32719	32663	32740	32759	32647	32762	
89	0	32783	32735	32823	32775	32685	32767	32663	32769	
90	0	32844	32709	32845	32743	32766	32671	32579	32741	
91	0	32740	32711	32754	32807	32775	32711	32731	32670	
92	0	32743	32738	32827	32695	32706	32783	32767	32673	
93	0	32806	32659	32803	32717	32753	32681	32583	32631	
94	0	32788	32727	32646	32749	32791	32644	32730	32679	
95	0	32794	32795	32659	32748	32679	32694	32694	32879	
96	0	32799	32577	32612	32735	32745	32625	32567	32839	
97	0	32831	32748	32754	32743	32767	32788	32679	32799	
98	0	32713	32553	32701	32769	32724	32710	32679	32799	
99	0	32772	32683	32799	32789	32767	32727	32539	32751	
100	0	32771	32591	32675	32751	32687	32662	32645	32759	
101	0	32797	32708	32719	32775	32731	32663	32711	32791	
102	0	32758	32677	32759	32787	32663	32765	32638	32719	
103	0	32730	32719	32887	32671	32731	32658	32575	32671	
104	0	32721	32671	32589	32749	32646	32690	32633	32677	
105	0	32708	32678	32655	32745	32763	32681	32659	32681	
106	0	32702	32547	32796	32707	32790	32681	32615	32739	
107	0	32743	32711	32735	32770	32647	32637	32755	32790	
108	0	32697	32767	32733	32708	32786	32631	32615	32733	
109	0	32730	32719	32789	32766	32775	32711	32679	32767	
110	0	32743	32615	32617	32707	32775	32735	32607	32762	
111	0	32780	32647	32813	32775	32775	32730	32513	32725	
112	0	32806	32543	32727	32707	32803	32607	32763	32733	
113	0	32797	32698	32669	32807	32767	32701	32789	32773	
114	0	32782	32571	32679	32743	32759	32711	32719	32831	
115	0	32766	32703	32783	32874	32805	32751	32679	32844	
116	0	32734	32615	32693	32719	32698	32735	32799	32821	
117	0	32767	32775	32767	32797	32751	32755	32691	32775	
118	0	32766	32767	32775	32791	32703	32662	32589	32839	
119	0	32786	32531	32663	32735	32707	32690	32791	32931	
120	0	32775	32677	32644	32821	32691	32674	32638	32823	
121	0	32736	32675	32826	32743	32647	32636	32643	32695	
122	0	32738	32775	32717	32759	32731	32804	32599	32613	
123	0	32748	32748	32791	32758	32676	32724	32626	32625	
124	0	32743	32669	32659	32711	32673	32695	32663	32679	
125	0	32751	32695	32692	32798	32694	32695	32583	32623	
126	0	32767	32660	32771	32765	32709	32711	32764	32615	
127	0	32790	32734	32730	32807	32845	32634	32694	32617	
128	0	32755	32535	32808	32775	32847	32674	32647	32599	
129	0	32758	32749	32727	32731	32739	32698	32581	32751	
130	0	32775	32775	32622	32771	32738	32739	32671	32811	
131	0	32786	32671	32647	32733	32724	32766	32698	32791	
132	0	32742	32655	32821	32759	32698	32687	32607	32836	
133	0	32719	32543	32695	32723	32801	32703	32627	32867	
134	0	32764	32727	32847	32743	32695	32722	32559	32766	
135	0	32783	32701	32775	32817	32711	32743	32723	32599	
136	0	32786	32607	32711	32759	32759	32685	32731	32662	
137	0	32742	32803	32717	32809	32799	32625	32677	32626	
138	0	32692	32615	32789	32775	32740	32743	32799	32591	
139	0	32737	32685	32711	32735	32855	32767	32711	32637	
140	0	32751	32598	32787	32753	32775	32732	32723	32583	
141	0	32757	32775	32775	32709	32823	32687	32471	32611	
142	0	32731	32775	32694	32803	32792	32790	32679	32707	
143	0	32775	32731	32755	32733	32690	32671	32701	32719	
144	0	32747	32751	32803	32787	32701	32647	32507	32708	
145	0	32764	32575	32743	32747	32677	32619	32642	32743	
146	0	32731	32755	32719	32703	32638	32669	32647	32799	
147	0	32775	32675	32729	32754	32743	32645	32754	32767	
148	0	32809	32583	32775	32751	32756	32655	32609	32585	
149	0	32749	32753	32791	32687	32712	32693	32524	32555	
150	0	32775	32666	32839	32647	32705	32714	32626	32671	
151	0	32788	32551	32749	32786	32694	32707	32679	32767	
152	0	32690	32712	32607	32787	32700	32725	32543	32729	
153	0	32736	32671	32711	32796	32727	32713	32733	32799	
154	0	32698	32633	32903	32775	32790	32751	32679	32763	
155	0	32746	32642	32775	32719	32686	32743	32587	32820	
156	0	32805	32610	32807	32735	32833	32763	32644	32773	
157	0	32793	32738	32839	32739	32691	32674	32739	32749	
158	0	32786	32775	32684	32699	32611	32698	32557	32846	
159	0	32735	32487	32697	32756	32770	32632	32655	32703	
160	0	32766	32717	32683	32767	32727	32684	32647	32677	
161	0	32775	32679	32795	32771	32695	32735	32679	32692	
162	0	32751	32533	32769	32807	32767	32749	32679	32806	
163	0	32712	32666	32775	32739	32738	32693	32703	32799	
164	0	32767	32555	32797	32759	32687	32775	32538	32797	
165	0	32717	32711	32787	32759	32758	32698	32675	32795	
166	0	32710	32695	32687	32767	32775	32620	32701	32775	
167	0	32736	32621	32745	32738	32655	32631	32527	32723	
168	0	32806	32701	32743	32735	32767	32767	32623	32749	
169	0	32761	32571	32775	32791	32743	32694	32711	32780	
170	0	32773	32742	32845	32679	32645	32743	32631	32839	
171	0	32713	32647	32691	32773	32725	32791	32543	32811	
172	0	32724	32785	32815	32743	32671	32615	32775	32875	
173	0	32698	32735	32798	32834	32783	32647	32694	32874	
174	0	32732	32765	32823	32730	32679	32761	32735	32859	
175	0	32743	32807	32693	32821	32706	32687	32627	32823	
176	0	32735	32733	32818	32694	32639	32662	32635	32759	
177	0	32786	32775	32693	32807	32737	32639	32726	32750	
178	0	32798	32703	32797	32738	32739	32724	32719	32676	
179	0	32790	32734	32593	32775	32655	32687	32694	32795	
180	0	32755	32761	32765	32716	32715	32706	32548	32747	
181	0	32799	32682	32647	32753	32717	32655	32735	32736	
182	0	32773	32742	32730	32767	32703	32675	32679	32715	
183	0	32780	32715	32655	32838	32721	32690	32647	32823	
184	0	32743	32555	32634	32753	32647	32724	32501	32764	
185	0	32778	32743	32775	32786	32736	32687	32743	32775	
186	0	32748	32691	32759	32735	32674	32663	32761	32830	
187	0	32735	32775	32580	32759	32783	32717	32659	32719	
188	0	32753	32740	32807	32847	32698	32667	32691	32827	
189	0	32793	32799	32775	32822	32719	32703	32662	32765	
190	0	32766	32741	32733	32797	32703	32653	32535	32833	
191	0	32787	32771	32623	32757	32791	32647	32734	32663	
192	0	32799	32703	32695	32834	32679	32775	32715	32677	
193	0	32753	32647	32740	32815	32623	32727	32671	32845	
194	0	32794	32591	32775	32775	32719	32683	32687	32767	
195	0	32749	32751	32787	32854	32771	32765	32643	32743	
196	0	32790	32810	32647	32786	32674	32775	32717	32699	
197	0	32738	32694	32722	32715	32759	32607	32613	32771	
198	0	32771	32727	32759	32743	32722	32603	32707	32735	
199	0	32748	32543	32757	32726	32609	32702	32731	32830	
200	0	32829	32775	32797	32787	32775	32775	32631	32917	
201	0	32793	32642	32719	32743	32725	32706	32742	32873	
202	0	32786	32731	32758	32775	32718	32775	32699	32799	
203	0	32786	32663	32766	32647	32775	32629	32615	32839	
204	0	32754	32727	32795	32755	32731	32668	32647	32834	
205	0	32773	32677	32827	32679	32738	32733	32462	32819	
206	0	32756	32699	32686	32717	32635	32711	32719	32791	
207	0	32815	32735	32847	32662	32747	32769	32617	32761	
208	0	32726	32599	32679	32819	32775	32639	32591	32706	
209	0	32748	32679	32751	32762	32730	32633	32507	32685	
210	0	32785	32561	32596	32775	32748	32794	32687	32687	
211	0	32780	32767	32827	32743	32679	32698	32602	32729	
212	0	32755	32775	32711	32814	32765	32731	32690	32758	
213	0	32713	32645	32863	32775	32807	32775	32567	32831	
214	0	32724	32719	32804	32773	32683	32647	32851	32829	
215	0	32734	32566	32631	32726	32711	32623	32709	32774	
216	0	32765	32671	32787	32807	32715	32751	32735	32829	
217	0	32788	32591	32676	32807	32665	32717	32583	32787	
218	0	32764	32773	32766	32692	32719	32769	32763	32827	
219	0	32755	32738	32807	32801	32687	32786	32655	32804	
220	0	32748	32484	32775	32743	32755	32679	32541	32836	
221	0	32839	32685	32647	32829	32719	32597	32741	32850	
222	0	32796	32617	32850	32679	32645	32721	32647	32799	
223	0	32742	32757	32783	32807	32767	32769	32727	32879	
224	0	32796	32637	32755	32730	32686	32807	32653	32749	
225	0	32830	32706	32685	32831	32709	32786	32605	32739	
226	0	32844	32775	32659	32787	32709	32627	32741	32763	
227	0	32794	32735	32751	32790	32731	32715	32663	32703	
228	0	32728	32775	32775	32731	32810	32729	32647	32748	
229	0	32743	32743	32818	32775	32699	32711	32611	32734	
230	0	32717	32646	32668	32755	32767	32639	32582	32731	
231	0	32725	32757	32731	32790	32685	32663	32586	32773	
232	0	32679	32701	32678	32731	32742	32775	32630	32771	
233	0	32749	32687	32735	32775	32775	32706	32679	32834	
234	0	32730	32655	32803	32698	32675	32775	32580	32836	
235	0	32758	32566	32831	32743	32775	32715	32710	32829	
236	0	32766	32749	32679	32773	32756	32727	32690	32846	
237	0	32741	32775	32799	32772	32647	32655	32620	32859	
238	0	32738	32647	32855	32769	32799	32671	32773	32685	
239	0	32747	32732	32813	32695	32811	32738	32715	32802	
240	0	32740	32607	32757	32731	32643	32784	32711	32695	
241	0	32766	32668	32647	32711	32705	32679	32551	32678	
242	0	32752	32679	32751	32823	32751	32711	32703	32619	
243	0	32771	32775	32855	32711	32676	32659	32615	32587	
244	0	32774	32755	32705	32722	32735	32647	32681	32641	
245	0	32793	32603	32759	32767	32789	32605	32535	32700	
246	0	32751	32695	32751	32755	32707	32743	32773	32773	
247	0	32762	32581	32725	32766	32742	32756	32658	32683	
248	0	32779	32743	32818	32742	32711	32735	32711	32727	
249	0	32754	32742	32783	32783	32711	32788	32579	32742	
250	0	32767	32599	32759	32751	32887	32743	32735	32743	
251	0	32766	32673	32742	32751	32837	32687	32732	32731	
252	0	32792	32594	32783	32783	32690	32612	32575	32751	
253	0	32769	32687	32622	32727	32735	32743	32571	32775	
254	0	32790	32707	32710	32771	32711	32739	32703	32771	
255	0	32822	32715	32822	32759	32587	32755	32658	32845	
256	0	32799	32767	32759	32747	32694	32647	32603	32847	
257	0	32788	32607	32765	32729	32685	32613	32762	32823	
258	0	32802	32694	32658	32731	32791	32676	32646	32806	
259	0	32785	32591	32785	32787	32812	32677	32747	32837	
260	0	32748	32690	32730	32690	32668	32725	32550	32875	
261	0	32703	32642	32775	32810	32738	32741	32743	32865	
262	0	32783	32748	32789	32719	32743	32823	32695	32837	
263	0	32815	32721	32647	32772	32724	32678	32709	32846	
264	0	32829	32799	32759	32709	32767	32657	32535	32807	
265	0	32751	32775	32692	32755	32791	32747	32567	32746	
266	0	32745	32726	32815	32747	32722	32701	32767	32799	
267	0	32723	32742	32681	32738	32765	32735	32720	32821	
268	0	32763	32711	32703	32775	32682	32599	32679	32839	
269	0	32756	32695	32758	32722	32767	32676	32773	32961	
270	0	32811	32583	32714	32795	32834	32703	32627	32825	
271	0	32807	32639	32791	32697	32723	32717	32775	32695	
272	0	32750	32503	32775	32781	32703	32720	32647	32738	
273	0	32796	32694	32653	32718	32643	32683	32747	32775	
274	0	32765	32541	32798	32774	32725	32631	32629	32773	
275	0	32740	32705	32751	32759	32677	32743	32547	32820	
276	0	32792	32595	32787	32790	32775	32735	32795	32783	
277	0	32821	32761	32591	32717	32771	32662	32727	32863	
278	0	32817	32647	32691	32851	32679	32623	32732	32846	
279	0	32844	32787	32711	32775	32682	32599	32523	32855	
280	0	32908	32669	32707	32786	32567	32719	32629	32847	
281	0	32854	32795	32667	32773	32634	32645	32699	32871	
282	0	32874	32571	32647	32769	32594	32586	32645	32911	
283	0	32911	32682	32743	32694	32703	32605	32691	32894	
284	0	32815	32631	32711	32799	32719	32647	32655	32879	
285	0	32828	32749	32759	32685	32821	32677	32809	32861	
286	0	32878	32647	32597	32807	32731	32767	32807	32869	
287	0	32862	32733	32775	32749	32729	32633	32839	32799	
288	0	32846	32581	32805	32790	32726	32703	32631	32874	
289	0	32883	32745	32812	32787	32663	32772	32743	32808	
290	0	32890	32799	32839	32773	32833	32715	32815	32852	
291	0	32900	32759	32791	32677	32867	32801	32671	32839	
292	0	32908	32631	32871	32721	32766	32689	32915	32860	
293	0	32815	32642	32817	32633	32807	32765	32813	32837	
294	0	32728	32615	33007	32679	32775	32679	32831	32866	
295	0	32710	32639	32841	32582	32885	32748	32683	32794	
296	0	32691	32639	32945	32751	32843	32767	32642	32775	
297	0	32654	32418	33064	32711	32786	32793	32627	32775	
298	0	32592	32679	32956	32743	32919	32845	32639	32727	
299	0	32665	32590	33037	32739	32903	32717	32506	32767	
300	0	32628	32620	33047	32711	32791	32675	32627	32770	
301	0	32631	32575	32850	32697	32833	32806	32647	32703	
302	0	32564	32518	33035	32615	32827	32835	32685	32655	
303	0	32568	32620	32983	32690	32893	32860	32525	32683	
304	0	32518	32575	33041	32661	32863	32757	32671	32694	
305	0	32448	32589	32935	32732	32917	32708	32527	32679	
306	0	32456	32533	33133	32663	32955	32861	32663	32703	
307	0	32523	32543	33159	32727	32923	32859	32503	32681	
308	0	32500	32471	33199	32619	33006	32895	32605	32711	
309	0	32549	32495	33137	32655	33047	32961	32676	32731	
310	0	32580	32420	32999	32570	32917	32787	32676	32751	
311	0	32551	32535	32957	32643	32957	32887	32739	32751	
312	0	32519	32535	32915	32599	32805	32877	32451	32675	
313	0	32519	32534	32709	32703	32837	32819	32353	32667	
314	0	32528	32570	32603	32699	32666	32679	32455	32647	
315	0	32444	32478	32401	32829	32658	32669	32251	32534	
316	0	32422	32703	32319	32919	32635	32613	32093	32583	
317	0	32522	32671	32175	33013	32451	32527	31945	32566	
318	0	32624	32903	31952	32983	32419	32539	32025	32630	
319	0	32595	32865	31973	33036	32287	32386	32146	32706	
320	0	32679	32978	31967	33019	32350	32357	32159	32683	
321	0	32685	32946	31927	32965	32348	32487	32245	32703	
322	0	32641	32959	31906	33060	32217	32455	32131	32726	
323	0	32639	32975	31893	33019	32303	32507	32391	32803	
324	0	32647	32965	32055	33026	32276	32406	32375	32829	
325	0	32647	32978	32165	32959	32389	32433	32438	32875	
326	0	32670	32895	32227	32975	32463	32625	32466	32834	
327	0	32675	32834	32257	32862	32471	32701	32571	32876	
328	0	32683	32805	32363	32844	32639	32503	32549	32795	
329	0	32822	32715	32524	32775	32501	32575	32667	32755	
330	0	32841	32775	32495	32819	32654	32711	32756	32845	
331	0	32806	32647	32763	32743	32647	32686	32691	32931	
332	0	32914	32719	32839	32753	32771	32730	32978	33003	
333	0	32842	32751	32885	32694	32742	32771	32966	32935	
334	0	32879	32623	32959	32674	32751	32635	32756	32919	
335	0	32831	32745	32785	32723	32871	32731	32769	32871	
336	0	32728	32727	32978	32813	32679	32727	32932	32967	
337	0	32710	32698	32979	32781	32769	32661	32813	32875	
338	0	32660	32621	32993	32807	32710	32615	32786	32823	
339	0	32681	32739	32782	32758	32719	32695	32698	32856	
340	0	32747	32547	32914	32743	32749	32685	32959	32941	
341	0	32818	32775	32758	32764	32747	32677	32983	32973	
342	0	32991	32655	32883	32748	32737	32708	32955	33060	
343	0	32996	32813	32885	32799	32653	32635	33009	33007	
344	0	33106	32710	32835	32707	32773	32645	32879	33041	
345	0	33185	32711	32957	32705	32787	32599	33003	32995	
346	0	33180	32663	32902	32643	32738	32815	33005	32971	
347	0	33179	32732	33031	32629	32835	32841	33119	32918	
348	0	33183	32589	32871	32487	32831	32692	32987	32903	
349	0	33210	32695	32979	32630	32871	32775	32965	32964	
350	0	33203	32711	32941	32559	32851	32814	33079	32932	
351	0	33147	32663	33017	32567	32751	32797	33071	32921	
352	0	33151	32735	32903	32555	32893	32810	32959	32951	
353	0	33125	32743	32987	32693	32736	32783	32839	32761	
354	0	33170	32615	32903	32647	32807	32723	32903	32795	
355	0	33153	32789	33007	32699	32738	32791	32959	32783	
356	0	33060	32775	32851	32703	32834	32847	33003	32803	
357	0	33050	32659	32797	32627	32803	32817	33055	32887	
358	0	33003	32767	32971	32727	32783	32809	32941	32709	
359	0	32966	32725	32879	32646	32819	32723	32793	32679	
360	0	32844	32773	32927	32748	32765	32719	32847	32711	
361	0	32827	32658	32708	32727	32783	32795	32627	32655	
362	0	32825	32717	32802	32807	32759	32835	32831	32583	
363	0	32808	32671	32898	32711	32727	32711	32629	32727	
364	0	32800	32815	32757	32727	32738	32795	32500	32636	
365	0	32759	32773	32815	32755	32731	32818	32662	32687	
366	0	32708	32717	32769	32674	32683	32733	32559	32687	
367	0	32703	32694	32687	32765	32820	32711	32476	32647	
368	0	32727	32543	32791	32715	32871	32717	32661	32711	
369	0	32673	32766	32727	32759	32711	32711	32586	32729	
370	0	32679	32557	32783	32692	32749	32710	32577	32726	
371	0	32595	32695	32797	32763	32677	32662	32431	32687	
372	0	32647	32527	32533	32775	32727	32621	32486	32709	
373	0	32639	32609	32791	32757	32736	32647	32615	32733	
374	0	32644	32559	32751	32740	32766	32685	32573	32695	
375	0	32628	32726	32599	32775	32671	32742	32487	32738	
376	0	32655	32692	32713	32841	32734	32647	32481	32695	
377	0	32617	32703	32708	32732	32786	32647	32553	32677	
378	0	32631	32593	32786	32773	32662	32709	32590	32673	
379	0	32631	32617	32635	32739	32647	32707	32595	32716	
380	0	32636	32669	32765	32819	32637	32669	32671	32551	
381	0	32709	32749	32826	32775	32663	32623	32543	32557	
382	0	32722	32595	32791	32770	32685	32701	32717	32543	
383	0	32734	32647	32658	32703	32766	32722	32606	32551	
384	0	32679	32637	32761	32759	32755	32724	32569	32627	
385	0	32670	32743	32803	32742	32799	32647	32495	32795	
386	0	32643	32715	32687	32755	32737	32667	32694	32863	
387	0	32623	32722	32775	32797	32623	32747	32621	32828	
388	0	32655	32603	32727	32772	32751	32669	32517	32751	
389	0	32701	32775	32772	32710	32669	32704	32535	32759	
390	0	32745	32679	32615	32757	32762	32646	32575	32767	
391	0	32734	32701	32745	32815	32647	32673	32620	32813	
392	0	32761	32747	32703	32859	32766	32693	32626	32645	
393	0	32711	32735	32663	32710	32647	32719	32599	32590	
394	0	32684	32735	32734	32865	32719	32615	32625	32639	
395	0	32727	32763	32637	32751	32807	32629	32658	32631	
396	0	32757	32643	32734	32791	32676	32715	32639	32630	
397	0	32794	32719	32583	32736	32771	32729	32617	32738	
398	0	32725	32672	32737	32852	32647	32725	32660	32772	
399	0	32711	32769	32679	32795	32727	32647	32633	32791	
400	0	32758	32690	32748	32823	32634	32647	32581	32839	
401	0	32791	32711	32549	32770	32738	32791	32539	32809	
402	0	32666	32635	32817	32823	32631	32775	32691	32809	
403	0	32748	32710	32747	32715	32637	32775	32666	32791	
404	0	32724	32612	32759	32815	32700	32671	32726	32770	
405	0	32714	32743	32623	32775	32757	32611	32531	32831	
406	0	32720	32601	32759	32755	32859	32751	32791	32759	
407	0	32736	32683	32756	32727	32911	32741	32690	32829	
408	0	32761	32599	32685	32823	32919	32791	32660	32787	
409	0	32713	32647	32692	32679	32719	32765	32518	32911	
410	0	32709	32607	32730	32727	32767	32679	32647	32898	
411	0	32701	32671	32813	32755	32739	32631	32647	32891	
412	0	32695	32731	32766	32725	32622	32615	32519	32871	
413	0	32706	32647	32717	32762	32647	32755	32757	32807	
414	0	32739	32719	32685	32699	32609	32748	32677	32742	
415	0	32727	32735	32767	32747	32710	32703	32629	32727	
416	0	32802	32754	32821	32751	32675	32646	32727	32647	
417	0	32795	32733	32807	32732	32743	32743	32587	32615	
418	0	32759	32647	32631	32719	32719	32707	32773	32647	
419	0	32757	32692	32775	32738	32799	32731	32695	32748	
420	0	32764	32794	32831	32709	32751	32655	32601	32814	
421	0	32775	32641	32843	32765	32783	32647	32757	32811	
422	0	32809	32751	32793	32719	32747	32681	32617	32821	
423	0	32764	32529	32679	32770	32669	32694	32645	32782	
424	0	32807	32684	32753	32765	32765	32719	32487	32827	
425	0	32735	32540	32791	32785	32663	32791	32700	32839	
426	0	32708	32706	32743	32727	32770	32647	32663	32813	
427	0	32720	32647	32585	32787	32667	32647	32525	32807	
428	0	32793	32719	32742	32715	32756	32767	32789	32803	
429	0	32786	32567	32690	32815	32705	32719	32694	32815	
430	0	32780	32727	32774	32732	32775	32690	32610	32621	
431	0	32781	32578	32775	32770	32699	32793	32711	32631	
432	0	32739	32738	32727	32811	32767	32745	32647	32775	
433	0	32690	32562	32831	32823	32733	32775	32575	32759	
434	0	32729	32675	32603	32749	32815	32645	32679	32867	
435	0	32775	32557	32804	32756	32726	32716	32745	32791	
436	0	32792	32715	32678	32700	32675	32766	32511	32850	
437	0	32783	32607	32741	32735	32686	32735	32751	32847	
438	0	32814	32717	32643	32718	32655	32759	32635	32884	
439	0	32774	32547	32790	32797	32663	32603	32692	32855	
440	0	32784	32694	32783	32771	32655	32668	32567	32803	
441	0	32748	32775	32826	32759	32775	32743	32705	32767	
442	0	32723	32667	32801	32739	32809	32767	32671	32732	
443	0	32724	32741	32711	32823	32647	32699	32468	32711	
444	0	32763	32559	32674	32767	32723	32749	32661	32749	
445	0	32706	32707	32817	32751	32662	32629	32707	32815	
446	0	32802	32599	32709	32807	32739	32687	32615	32759	
447	0	32802	32742	32802	32732	32767	32753	32826	32787	
448	0	32783	32637	32673	32727	32717	32683	32692	32775	
449	0	32733	32703	32679	32733	32775	32703	32635	32753	
450	0	32775	32642	32775	32802	32699	32711	32607	32823	
451	0	32710	32751	32827	32741	32759	32671	32690	32831	
452	0	32825	32711	32867	32764	32705	32663	32601	32807	
453	0	32762	32554	32703	32738	32623	32671	32813	32823	
454	0	32789	32756	32723	32782	32711	32703	32715	32807	
455	0	32755	32551	32783	32735	32647	32710	32675	32823	
456	0	32739	32703	32767	32846	32733	32745	32621	32715	
457	0	32764	32603	32751	32775	32675	32732	32727	32764	
458	0	32728	32635	32797	32835	32707	32691	32645	32711	
459	0	32775	32466	32731	32743	32687	32690	32575	32717	
460	0	32790	32692	32743	32763	32751	32767	32731	32749	
461	0	32833	32605	32621	32687	32743	32783	32663	32721	
462	0	32779	32742	32586	32759	32679	32738	32498	32667	
463	0	32730	32695	32828	32739	32687	32703	32607	32755	
464	0	32710	32629	32787	32721	32706	32721	32610	32677	
465	0	32709	32643	32783	32812	32708	32734	32613	32743	
466	0	32749	32500	32799	32759	32730	32822	32699	32749	
467	0	32727	32719	32717	32807	32711	32714	32623	32733	
468	0	32773	32623	32655	32745	32799	32715	32639	32775	
469	0	32703	32739	32759	32689	32807	32727	32519	32703	
470	0	32785	32703	32765	32708	32671	32704	32674	32783	
471	0	32791	32775	32684	32775	32729	32757	32623	32673	
472	0	32786	32669	32690	32769	32722	32751	32630	32679	
473	0	32756	32799	32767	32725	32758	32719	32773	32647	
474	0	32818	32804	32823	32734	32751	32775	32711	32647	
475	0	32809	32765	32775	32797	32703	32751	32707	32615	
476	0	32748	32725	32647	32855	32721	32647	32579	32623	
477	0	32767	32726	32807	32765	32679	32671	32835	32631	
478	0	32775	32726	32727	32807	32739	32631	32679	32583	
479	0	32748	32509	32759	32711	32801	32633	32671	32594	
480	0	32756	32687	32775	32759	32705	32655	32759	32663	
481	0	32788	32543	32655	32711	32733	32671	32679	32590	
482	0	32726	32729	32799	32735	32671	32677	32679	32750	
483	0	32729	32547	32839	32722	32749	32613	32487	32647	
484	0	32760	32644	32800	32775	32621	32662	32761	32587	
485	0	32775	32583	32687	32695	32700	32738	32719	32610	
486	0	32748	32635	32798	32751	32671	32667	32671	32635	
487	0	32823	32595	32719	32739	32806	32675	32631	32583	
488	0	32718	32743	32775	32694	32805	32611	32729	32543	
489	0	32740	32684	32647	32799	32757	32613	32631	32579	
490	0	32704	32621	32719	32711	32765	32629	32646	32563	
491	0	32780	32655	32775	32810	32683	32663	32639	32751	
492	0	32767	32578	32809	32735	32794	32687	32583	32715	
493	0	32741	32791	32683	32727	32775	32635	32671	32750	
494	0	32738	32794	32719	32759	32673	32716	32447	32691	
495	0	32781	32763	32881	32703	32675	32715	32739	32721	
496	0	32740	32693	32722	32773	32692	32683	32631	32751	
497	0	32786	32581	32775	32757	32711	32730	32580	32871	
498	0	32763	32695	32807	32711	32773	32718	32575	32883	
499	0	32752	32539	32612	32831	32599	32677	32709	32877	
500	0	32775	32709	32827	32807	32708	32751	32717	32831	
501	0	32751	32567	32790	32810	32745	32751	32531	32807	
502	0	32806	32703	32831	32693	32657	32775	32767	32790	
503	0	32729	32503	32647	32759	32754	32735	32633	32857	
504	0	32732	32679	32683	32727	32705	32683	32623	32807	
505	0	32775	32615	32855	32703	32843	32644	32741	32801	
506	0	32772	32751	32782	32767	32758	32685	32668	32771	
507	0	32751	32719	32807	32759	32707	32642	32575	32722	
508	0	32743	32663	32736	32711	32711	32791	32671	32791	
509	0	32745	32757	32647	32775	32685	32647	32754	32811	
510	0	32780	32715	32810	32709	32775	32639	32692	32871	
511	0	32790	32668	32700	32795	32743	32836	32590	32852	
512	0	32747	32563	32813	32711	32799	32829	32819	32947	
513	0	32727	32699	32608	32755	32749	32753	32711	32855	
514	0	32730	32543	32721	32679	32701	32759	32612	32882	
515	0	32754	32630	32707	32685	32707	32804	32636	32837	
516	0	32800	32570	32766	32796	32702	32735	32735	32799	
517	0	32785	32701	32663	32739	32759	32791	32677	32749	
518	0	32797	32503	32725	32723	32784	32763	32677	32721	
519	0	32734	32679	32715	32692	32671	32762	32607	32743	
520	0	32738	32561	32671	32839	32692	32757	32671	32807	
521	0	32785	32758	32817	32751	32645	32721	32677	32799	
522	0	32773	32795	32813	32751	32733	32749	32535	32871	
523	0	32775	32542	32775	32789	32775	32598	32631	32695	
524	0	32762	32693	32660	32740	32708	32647	32621	32755	
525	0	32728	32571	32807	32719	32677	32647	32588	32647	
526	0	32789	32775	32775	32797	32774	32716	32665	32590	
527	0	32762	32715	32749	32706	32690	32759	32687	32615	
528	0	32703	32639	32761	32719	32759	32647	32569	32623	
529	0	32773	32759	32666	32703	32775	32653	32623	32574	
530	0	32805	32748	32873	32828	32754	32786	32726	32602	
531	0	32758	32734	32845	32742	32771	32747	32775	32647	
532	0	32780	32543	32825	32710	32647	32698	32657	32757	
533	0	32758	32686	32791	32796	32767	32735	32803	32754	
534	0	32818	32555	32717	32706	32769	32751	32763	32767	
535	0	32745	32679	32845	32755	32663	32710	32582	32797	
536	0	32748	32647	32751	32771	32727	32725	32847	32791	
537	0	32751	32743	32759	32683	32684	32727	32663	32787	
538	0	32775	32698	32783	32809	32615	32640	32583	32775	
539	0	32719	32761	32671	32775	32731	32674	32727	32846	
540	0	32770	32631	32646	32692	32795	32757	32643	32727	
541	0	32787	32740	32743	32685	32671	32679	32519	32575	
542	0	32790	32715	32823	32739	32671	32703	32711	32543	
543	0	32791	32671	32725	32743	32679	32727	32594	32591	
544	0	32744	32783	32762	32763	32741	32765	32551	32575	
545	0	32727	32710	32615	32742	32885	32791	32539	32535	
546	0	32724	32699	32639	32727	32847	32631	32667	32570	
547	0	32713	32613	32762	32817	32751	32658	32647	32732	
548	0	32738	32700	32726	32815	32742	32623	32627	32758	
549	0	32741	32701	32731	32758	32722	32694	32597	32749	
550	0	32771	32582	32748	32758	32698	32660	32700	32765	
551	0	32819	32730	32647	32751	32762	32669	32567	32765	
552	0	32826	32565	32658	32812	32662	32659	32773	32831	
553	0	32740	32735	32775	32743	32641	32751	32659	32790	
554	0	32791	32797	32660	32831	32671	32687	32703	32815	
555	0	32729	32709	32787	32759	32647	32679	32629	32845	
556	0	32762	32663	32743	32738	32692	32735	32635	32841	
557	0	32738	32563	32621	32833	32719	32781	32717	32813	
558	0	32688	32711	32807	32759	32679	32684	32639	32815	
559	0	32749	32791	32658	32739	32775	32717	32722	32701	
560	0	32749	32671	32807	32751	32764	32775	32643	32669	
561	0	32738	32694	32747	32733	32646	32719	32645	32621	
562	0	32713	32579	32655	32756	32711	32701	32519	32615	
563	0	32742	32647	32731	32679	32667	32727	32691	32699	
564	0	32724	32611	32798	32754	32775	32707	32680	32647	
565	0	32785	32740	32671	32735	32757	32711	32450	32722	
566	0	32775	32607	32596	32806	32631	32659	32727	32674	
567	0	32766	32735	32818	32758	32767	32671	32581	32662	
568	0	32773	32535	32755	32825	32711	32711	32655	32742	
569	0	32809	32670	32766	32722	32731	32639	32558	32875	
570	0	32802	32595	32623	32749	32743	32647	32743	32877	
571	0	32743	32682	32687	32775	32669	32636	32731	32775	
572	0	32729	32683	32818	32735	32720	32675	32743	32694	
573	0	32742	32559	32703	32790	32740	32730	32630	32615	
574	0	32775	32715	32775	32818	32749	32743	32596	32603	
575	0	32730	32637	32714	32695	32718	32705	32775	32559	
576	0	32790	32775	32647	32807	32690	32733	32647	32647	
577	0	32810	32771	32775	32773	32742	32791	32707	32518	
578	0	32792	32543	32829	32759	32614	32755	32827	32577	
579	0	32799	32755	32670	32827	32701	32661	32719	32735	
580	0	32812	32699	32763	32747	32714	32562	32573	32750	
581	0	32806	32660	32823	32722	32699	32694	32716	32773	
582	0	32820	32705	32665	32804	32735	32756	32655	32813	
583	0	32788	32551	32763	32749	32711	32738	32531	32783	
584	0	32783	32721	32774	32822	32698	32726	32755	32775	
585	0	32756	32771	32811	32807	32749	32735	32691	32809	
586	0	32770	32727	32759	32743	32733	32711	32591	32813	
587	0	32756	32745	32569	32791	32623	32679	32703	32771	
588	0	32698	32518	32668	32775	32750	32747	32687	32831	
589	0	32703	32788	32775	32739	32735	32772	32542	32799	
590	0	32647	32811	32661	32757	32679	32630	32708	32787	
591	0	32703	32607	32711	32759	32775	32594	32665	32804	
592	0	32757	32743	32741	32726	32702	32647	32655	32767	
593	0	32719	32586	32599	32839	32647	32641	32703	32689	
594	0	32764	32721	32749	32775	32775	32713	32589	32690	
595	0	32706	32794	32681	32807	32804	32615	32604	32709	
596	0	32756	32742	32775	32831	32687	32607	32533	32615	
597	0	32769	32743	32639	32815	32719	32706	32647	32641	
598	0	32769	32591	32751	32847	32661	32743	32677	32623	
599	0	32786	32691	32726	32797	32662	32695	32595	32717	
600	0	32768	32771	32711	32751	32711	32711	32668	32759	
601	0	32783	32587	32823	32771	32707	32647	32571	32767	
602	0	32745	32659	32751	32775	32627	32578	32719	32757	
603	0	32767	32578	32655	32729	32681	32647	32681	32748	
604	0	32743	32749	32791	32743	32791	32702	32578	32731	
605	0	32716	32719	32807	32739	32685	32775	32869	32797	
606	0	32754	32519	32771	32731	32759	32720	32751	32841	
607	0	32705	32716	32769	32760	32723	32827	32742	32743	
608	0	32726	32710	32815	32727	32645	32755	32599	32687	
609	0	32691	32535	32814	32702	32679	32663	32578	32599	
610	0	32718	32759	32711	32784	32767	32647	32719	32551	
611	0	32695	32739	32803	32751	32805	32679	32735	32586	
612	0	32727	32549	32841	32711	32764	32725	32775	32727	
613	0	32773	32756	32820	32754	32738	32708	32643	32749	
614	0	32764	32747	32822	32715	32775	32719	32797	32770	
615	0	32741	32667	32743	32735	32691	32713	32533	32787	
616	0	32732	32710	32633	32775	32818	32775	32671	32809	
617	0	32786	32612	32723	32719	32766	32789	32668	32795	
618	0	32810	32655	32758	32807	32657	32640	32555	32819	
619	0	32727	32543	32739	32737	32803	32637	32666	32786	
620	0	32712	32743	32742	32709	32751	32637	32663	32795	
621	0	32718	32759	32700	32775	32669	32783	32543	32759	
622	0	32695	32763	32683	32683	32796	32711	32743	32711	
623	0	32728	32817	32773	32711	32681	32791	32623	32721	
624	0	32769	32815	32775	32771	32771	32733	32669	32719	
625	0	32754	32754	32675	32770	32797	32679	32487	32732	
626	0	32822	32733	32730	32705	32742	32647	32717	32598	
627	0	32747	32711	32807	32732	32775	32751	32665	32562	
628	0	32718	32643	32751	32733	32668	32787	32667	32581	
629	0	32759	32727	32789	32757	32754	32751	32564	32666	
630	0	32759	32603	32790	32839	32815	32765	32841	32638	
631	0	32748	32771	32613	32751	32626	32739	32687	32606	
632	0	32812	32759	32826	32759	32711	32711	32685	32617	
633	0	32751	32746	32764	32766	32661	32769	32819	32658	
634	0	32758	32726	32863	32733	32687	32743	32701	32620	
635	0	32786	32567	32705	32775	32741	32735	32631	32643	
636	0	32790	32677	32855	32711	32671	32759	32807	32622	
637	0	32768	32583	32799	32775	32749	32775	32661	32606	
638	0	32774	32711	32870	32718	32743	32739	32749	32567	
639	0	32856	32773	32767	32845	32701	32772	32517	32545	
640	0	32751	32667	32671	32711	32775	32742	32749	32525	
641	0	32705	32703	32799	32850	32671	32799	32637	32563	
642	0	32702	32534	32727	32751	32701	32718	32739	32617	
643	0	32767	32663	32818	32769	32682	32684	32615	32757	
644	0	32722	32754	32835	32799	32677	32653	32598	32767	
645	0	32752	32575	32712	32719	32733	32663	32627	32835	
646	0	32793	32719	32819	32769	32711	32659	32743	32839	
647	0	32758	32647	32729	32754	32772	32610	32647	32839	
648	0	32765	32723	32783	32687	32775	32765	32773	32881	
649	0	32824	32725	32715	32775	32739	32839	32573	32825	
650	0	32822	32527	32687	32723	32775	32735	32811	32822	
651	0	32826	32678	32775	32743	32820	32705	32717	32865	
652	0	32805	32739	32739	32799	32708	32702	32587	32695	
653	0	32802	32485	32826	32717	32775	32732	32715	32594	
654	0	32764	32727	32831	32742	32731	32634	32655	32595	
655	0	32774	32685	32775	32775	32647	32643	32775	32662	
656	0	32738	32563	32641	32717	32797	32661	32719	32647	
657	0	32731	32733	32775	32706	32771	32630	32691	32695	
658	0	32758	32747	32715	32701	32667	32623	32493	32753	
659	0	32745	32662	32747	32699	32771	32633	32747	32798	
660	0	32752	32700	32631	32699	32749	32655	32639	32775	
661	0	32783	32596	32788	32679	32758	32607	32663	32799	
662	0	32806	32697	32699	32735	32749	32663	32543	32722	
663	0	32841	32687	32759	32690	32656	32695	32756	32593	
664	0	32708	32756	32751	32762	32743	32698	32628	32567	
665	0	32782	32683	32629	32727	32775	32719	32540	32750	
666	0	32716	32684	32647	32708	32694	32695	32761	32805	
667	0	32710	32647	32737	32813	32775	32731	32726	32799	
668	0	32748	32647	32763	32751	32727	32758	32671	32809	
669	0	32730	32671	32845	32751	32751	32743	32773	32831	
670	0	32781	32799	32708	32797	32822	32775	32665	32807	
671	0	32784	32773	32879	32812	32717	32727	32690	32775	
672	0	32824	32695	32775	32815	32743	32773	32693	32771	
673	0	32804	32727	32679	32743	32676	32767	32595	32731	
674	0	32757	32623	32745	32799	32663	32725	32647	32783	
675	0	32819	32691	32775	32803	32605	32793	32743	32599	
676	0	32807	32647	32719	32791	32679	32679	32659	32819	
677	0	32763	32765	32775	32755	32717	32684	32731	32834	
678	0	32756	32740	32685	32806	32671	32682	32583	32739	
679	0	32682	32593	32735	32804	32711	32662	32583	32787	
680	0	32754	32679	32775	32727	32703	32631	32687	32722	
681	0	32714	32759	32663	32789	32591	32686	32559	32831	
682	0	32705	32543	32743	32726	32671	32711	32711	32844	
683	0	32751	32699	32791	32725	32682	32719	32675	32855	
684	0	32794	32638	32607	32809	32615	32735	32524	32815	
685	0	32770	32735	32783	32743	32719	32733	32607	32795	
686	0	32820	32767	32796	32711	32691	32687	32703	32810	
687	0	32793	32621	32785	32709	32767	32679	32655	32775	
688	0	32759	32658	32741	32751	32723	32695	32635	32787	
689	0	32785	32485	32668	32739	32775	32711	32552	32759	
690	0	32768	32655	32722	32783	32826	32738	32639	32732	
691	0	32773	32771	32675	32807	32695	32762	32727	32796	
692	0	32775	32711	32711	32751	32759	32802	32590	32806	
693	0	32726	32719	32719	32771	32677	32742	32643	32823	
694	0	32759	32605	32815	32694	32804	32699	32673	32750	
695	0	32799	32721	32795	32673	32721	32647	32746	32791	
696	0	32775	32751	32671	32690	32715	32621	32585	32861	
697	0	32775	32543	32751	32669	32795	32619	32647	32866	
698	0	32775	32711	32867	32767	32767	32662	32749	32791	
699	0	32797	32759	32783	32743	32661	32741	32647	32685	
700	0	32781	32551	32815	32717	32719	32773	32684	32647	
701	0	32797	32679	32791	32803	32773	32742	32707	32647	
702	0	32739	32687	32677	32839	32694	32739	32773	32735	
703	0	32805	32733	32780	32823	32705	32702	32675	32692	
704	0	32713	32739	32791	32775	32815	32755	32708	32723	
705	0	32743	32635	32663	32787	32662	32738	32557	32723	
706	0	32734	32673	32663	32789	32735	32647	32775	32735	
707	0	32760	32799	32743	32739	32747	32677	32711	32775	
708	0	32756	32590	32735	32743	32700	32754	32604	32831	
709	0	32735	32687	32763	32763	32786	32727	32694	32937	
710	0	32743	32775	32735	32740	32731	32735	32707	32861	
711	0	32736	32640	32615	32861	32663	32753	32607	32759	
712	0	32820	32679	32788	32743	32751	32767	32773	32699	
713	0	32826	32771	32903	32711	32711	32679	32630	32619	
714	0	32850	32583	32783	32775	32687	32658	32565	32727	
715	0	32803	32691	32789	32773	32735	32631	32701	32754	
716	0	32738	32711	32851	32721	32759	32771	32639	32746	
717	0	32681	32554	32647	32813	32687	32732	32583	32813	
718	0	32695	32735	32787	32687	32703	32765	32658	32859	
719	0	32746	32799	32663	32791	32699	32749	32655	32822	
720	0	32732	32775	32727	32692	32665	32748	32615	32775	
721	0	32710	32742	32615	32735	32687	32749	32749	32866	
722	0	32739	32535	32773	32757	32782	32735	32701	32815	
723	0	32740	32726	32706	32691	32772	32718	32579	32881	
724	0	32767	32694	32819	32839	32708	32737	32747	32759	
725	0	32797	32546	32647	32775	32639	32689	32684	32707	
726	0	32775	32730	32741	32770	32741	32717	32607	32735	
727	0	32781	32537	32807	32727	32734	32695	32591	32745	
728	0	32794	32773	32669	32692	32822	32647	32669	32751	
729	0	32754	32587	32791	32775	32771	32641	32689	32756	
730	0	32737	32725	32695	32730	32684	32615	32517	32735	
731	0	32734	32711	32710	32765	32767	32643	32775	32737	
732	0	32784	32477	32615	32759	32734	32637	32578	32714	
733	0	32801	32695	32647	32679	32770	32627	32659	32572	
734	0	32735	32729	32751	32756	32749	32725	32582	32599	
735	0	32780	32507	32773	32726	32695	32695	32658	32742	
736	0	32695	32732	32751	32753	32730	32713	32711	32726	
737	0	32742	32806	32660	32791	32707	32721	32581	32783	
738	0	32787	32687	32731	32775	32583	32679	32725	32758	
739	0	32709	32679	32671	32823	32691	32789	32661	32723	
740	0	32807	32607	32819	32749	32647	32629	32679	32775	
741	0	32775	32727	32793	32683	32708	32635	32490	32739	
742	0	32728	32719	32623	32804	32747	32710	32717	32799	
743	0	32790	32589	32819	32730	32716	32735	32686	32838	
744	0	32788	32703	32834	32751	32773	32735	32631	32855	
745	0	32794	32687	32793	32751	32754	32790	32647	32901	
746	0	32762	32646	32669	32749	32717	32770	32707	32846	
747	0	32759	32735	32751	32775	32730	32775	32647	32743	
748	0	32753	32763	32818	32773	32770	32711	32754	32727	
749	0	32766	32543	32757	32733	32635	32611	32647	32612	
750	0	32733	32628	32815	32799	32757	32683	32711	32605	
751	0	32773	32484	32647	32805	32669	32738	32588	32647	
752	0	32782	32719	32766	32797	32739	32721	32615	32639	
753	0	32704	32759	32679	32762	32743	32751	32659	32607	
754	0	32713	32647	32824	32699	32747	32635	32657	32638	
755	0	32710	32695	32725	32762	32719	32669	32695	32739	
756	0	32780	32562	32699	32761	32838	32699	32639	32743	
757	0	32775	32727	32775	32807	32732	32659	32891	32899	
758	0	32748	32571	32646	32830	32802	32731	32812	32839	
759	0	32766	32703	32767	32847	32835	32673	32679	32914	
760	0	32783	32643	32868	32714	32773	32658	32725	32877	
761	0	32775	32739	32711	32738	32748	32781	32623	32885	
762	0	32740	32791	32903	32711	32563	32749	32747	32845	
763	0	32799	32530	32801	32743	32690	32741	32599	32823	
764	0	32871	32703	32767	32743	32775	32743	32708	32807	
765	0	32781	32687	32706	32711	32733	32743	32551	32791	
766	0	32815	32543	32754	32745	32703	32655	32724	32738	
767	0	32745	32663	32611	32671	32662	32679	32645	32719	
768	0	32750	32647	32658	32666	32762	32599	32628	32599	
769	0	32807	32663	32692	32745	32759	32671	32631	32549	
770	0	32796	32733	32583	32759	32658	32615	32725	32751	
771	0	32731	32765	32647	32665	32805	32623	32527	32756	
772	0	32765	32703	32781	32797	32751	32669	32727	32733	
773	0	32745	32622	32775	32775	32687	32731	32647	32775	
774	0	32738	32479	32703	32755	32711	32723	32641	32803	
775	0	32799	32749	32701	32791	32727	32774	32564	32759	
776	0	32745	32833	32702	32740	32724	32775	32722	32771	
777	0	32789	32755	32799	32857	32739	32679	32623	32715	
778	0	32756	32748	32695	32714	32740	32630	32630	32735	
779	0	32767	32662	32839	32791	32775	32727	32507	32743	
780	0	32723	32631	32749	32759	32663	32747	32658	32720	
781	0	32775	32583	32812	32727	32701	32734	32623	32762	
782	0	32769	32745	32731	32788	32755	32717	32691	32789	
783	0	32796	32731	32859	32751	32625	32765	32748	32791	
784	0	32796	32551	32738	32799	32745	32643	32733	32815	
785	0	32838	32662	32754	32751	32711	32615	32565	32815	
786	0	32793	32575	32669	32767	32802	32801	32789	32775	
787	0	32746	32727	32845	32771	32819	32679	32669	32725	
788	0	32743	32519	32751	32710	32742	32751	32720	32731	
789	0	32733	32690	32756	32714	32771	32623	32577	32749	
790	0	32735	32723	32667	32699	32707	32679	32698	32743	
791	0	32667	32551	32805	32808	32831	32662	32687	32815	
792	0	32706	32687	32822	32735	32754	32704	32527	32843	
793	0	32751	32598	32859	32763	32639	32765	32717	32887	
794	0	32790	32711	32854	32789	32695	32757	32711	32919	
795	0	32800	32693	32701	32743	32790	32757	32566	32719	
796	0	32844	32567	32869	32743	32743	32785	32795	32706	
797	0	32823	32693	32827	32765	32839	32647	32733	32727	
798	0	32722	32527	32783	32772	32659	32617	32663	32759	
799	0	32742	32703	32645	32750	32703	32733	32731	32711	
800	0	32759	32771	32749	32775	32705	32767	32559	32646	
801	0	32696	32701	32695	32807	32699	32719	32769	32643	
802	0	32771	32679	32743	32743	32730	32727	32727	32663	
803	0	32775	32487	32619	32737	32584	32657	32719	32631	
804	0	32748	32655	32741	32795	32711	32669	32675	32694	
805	0	32775	32615	32821	32731	32751	32698	32591	32635	
806	0	32769	32723	32797	32718	32757	32703	32729	32665	
807	0	32807	32726	32743	32761	32773	32693	32801	32615	
808	0	32773	32577	32691	32797	32669	32699	32619	32598	
809	0	32770	32679	32767	32783	32717	32655	32707	32621	
810	0	32743	32500	32823	32773	32698	32683	32694	32593	
811	0	32740	32687	32608	32775	32811	32739	32663	32719	
812	0	32745	32621	32751	32788	32788	32757	32501	32794	
813	0	32759	32739	32642	32692	32740	32773	32727	32775	
814	0	32743	32738	32823	32731	32763	32637	32589	32695	
815	0	32722	32525	32775	32831	32695	32674	32591	32638	
816	0	32727	32709	32647	32655	32743	32645	32500	32556	
817	0	32731	32599	32803	32731	32785	32747	32679	32571	
818	0	32804	32615	32757	32801	32676	32735	32709	32573	
819	0	32827	32643	32722	32703	32751	32709	32491	32700	
820	0	32796	32671	32679	32763	32743	32709	32674	32765	
821	0	32775	32753	32599	32735	32632	32775	32647	32798	
822	0	32809	32766	32631	32746	32771	32815	32581	32796	
823	0	32772	32615	32687	32743	32771	32711	32755	32846	
824	0	32847	32691	32694	32807	32711	32733	32749	32921	
825	0	32801	32695	32728	32726	32796	32587	32535	32859	
826	0	32738	32606	32717	32762	32775	32668	32727	32814	
827	0	32807	32669	32671	32823	32658	32679	32703	32719	
828	0	32711	32669	32687	32751	32763	32662	32575	32626	
829	0	32724	32583	32823	32869	32763	32685	32709	32573	
830	0	32719	32791	32695	32734	32725	32609	32735	32727	
831	0	32722	32739	32775	32788	32771	32751	32614	32739	
832	0	32761	32516	32679	32775	32771	32699	32805	32775	
833	0	32775	32693	32714	32703	32655	32771	32647	32786	
834	0	32791	32673	32775	32759	32711	32775	32635	32755	
835	0	32801	32668	32735	32754	32794	32761	32591	32734	
836	0	32801	32662	32827	32710	32703	32685	32662	32748	
837	0	32780	32589	32767	32738	32711	32647	32687	32743	
838	0	32793	32773	32757	32671	32634	32605	32541	32775	
839	0	32708	32802	32899	32695	32789	32739	32609	32807	
840	0	32767	32671	32799	32711	32723	32715	32620	32863	
841	0	32751	32663	32809	32726	32671	32787	32719	32783	
842	0	32775	32466	32739	32815	32715	32785	32598	32811	
843	0	32703	32683	32799	32758	32631	32666	32743	32865	
844	0	32785	32571	32805	32775	32709	32667	32709	32855	
845	0	32733	32743	32807	32733	32717	32783	32727	32811	
846	0	32801	32695	32799	32795	32751	32703	32499	32870	
847	0	32717	32595	32628	32852	32732	32679	32736	32903	
848	0	32772	32703	32817	32724	32659	32701	32735	32883	
849	0	32734	32591	32765	32845	32737	32617	32701	32812	
850	0	32753	32775	32703	32793	32739	32671	32594	32835	
851	0	32802	32755	32604	32772	32772	32687	32602	32738	
852	0	32790	32719	32747	32759	32711	32767	32744	32836	
853	0	32711	32719	32811	32724	32687	32753	32663	32855	
854	0	32695	32609	32727	32811	32756	32738	32541	32839	
855	0	32737	32675	32771	32703	32715	32721	32731	32794	
856	0	32695	32626	32679	32735	32644	32766	32730	32775	
857	0	32636	32571	32695	32770	32693	32620	32506	32828	
858	0	32759	32669	32706	32723	32751	32629	32698	32827	
859	0	32784	32739	32759	32825	32647	32742	32711	32852	
860	0	32708	32647	32806	32771	32695	32719	32527	32829	
861	0	32773	32671	32647	32727	32740	32694	32603	32833	
862	0	32841	32561	32607	32815	32679	32715	32669	32764	
863	0	32793	32740	32791	32791	32743	32807	32771	32749	
864	0	32704	32775	32743	32734	32698	32699	32685	32847	
865	0	32803	32743	32747	32751	32703	32654	32668	32856	
866	0	32732	32655	32615	32743	32741	32749	32547	32796	
867	0	32698	32515	32674	32775	32727	32835	32661	32787	
868	0	32786	32771	32795	32775	32767	32759	32595	32687	
869	0	32775	32765	32671	32722	32823	32729	32825	32690	
870	0	32745	32583	32767	32759	32813	32731	32647	32722	
871	0	32750	32717	32559	32773	32823	32671	32692	32767	
872	0	32807	32700	32791	32727	32719	32605	32540	32884	
873	0	32738	32788	32804	32767	32755	32694	32764	32859	
874	0	32759	32773	32807	32783	32727	32663	32667	32797	
875	0	32762	32645	32679	32758	32807	32759	32671	32775	
876	0	32754	32713	32807	32703	32719	32737	32485	32855	
877	0	32800	32519	32783	32785	32673	32675	32691	32775	
878	0	32758	32653	32759	32719	32762	32685	32613	32773	
879	0	32781	32590	32671	32751	32583	32788	32553	32817	
880	0	32735	32775	32799	32709	32660	32759	32751	32799	
881	0	32749	32797	32798	32723	32642	32747	32715	32836	
882	0	32738	32753	32679	32723	32751	32645	32676	32791	
883	0	32768	32789	32893	32711	32699	32615	32639	32609	
884	0	32790	32623	32827	32747	32708	32737	32799	32725	
885	0	32807	32658	32783	32743	32751	32725	32671	32717	
886	0	32747	32563	32823	32710	32719	32687	32775	32767	
887	0	32797	32691	32647	32687	32771	32755	32559	32738	
888	0	32769	32661	32767	32775	32823	32684	32743	32637	
889	0	32796	32769	32719	32738	32741	32759	32687	32646	
890	0	32773	32694	32655	32819	32715	32723	32615	32551	
891	0	32831	32695	32628	32685	32659	32734	32679	32582	
892	0	32741	32707	32834	32760	32759	32721	32807	32741	
893	0	32731	32579	32783	32701	32743	32743	32711	32687	
894	0	32743	32735	32775	32677	32703	32775	32563	32743	
895	0	32727	32762	32839	32818	32803	32631	32721	32775	
896	0	32726	32735	32662	32702	32751	32732	32745	32747	
897	0	32727	32731	32847	32863	32661	32738	32578	32767	
898	0	32767	32701	32759	32759	32751	32801	32748	32759	
899	0	32753	32757	32775	32823	32634	32615	32555	32774	
900	0	32781	32591	32717	32769	32743	32599	32772	32839	
901	0	32762	32731	32559	32775	32642	32647	32647	32804	
902	0	32772	32610	32751	32804	32723	32687	32731	32773	
903	0	32718	32647	32679	32700	32773	32723	32581	32786	
904	0	32775	32533	32752	32751	32763	32670	32615	32809	
905	0	32789	32683	32663	32713	32759	32615	32739	32775	
906	0	32757	32531	32711	32818	32679	32709	32631	32746	
907	0	32770	32663	32687	32659	32767	32690	32639	32743	
908	0	32763	32548	32807	32797	32685	32771	32545	32773	
909	0	32757	32711	32711	32771	32685	32647	32825	32823	
910	0	32816	32589	32831	32819	32695	32670	32775	32775	
911	0	32742	32751	32855	32710	32759	32775	32691	32783	
912	0	32771	32815	32884	32811	32743	32751	32719	32775	
913	0	32767	32722	32838	32757	32815	32775	32559	32738	
914	0	32775	32727	32751	32735	32770	32699	32583	32751	
915	0	32753	32647	32799	32775	32709	32593	32735	32799	
916	0	32714	32636	32783	32699	32707	32692	32711	32775	
917	0	32748	32587	32599	32791	32647	32789	32647	32752	
918	0	32749	32727	32691	32743	32759	32766	32599	32747	
919	0	32749	32727	32688	32845	32674	32727	32611	32759	
920	0	32761	32660	32581	32695	32775	32647	32727	32583	
921	0	32806	32645	32751	32811	32669	32741	32653	32598	
922	0	32764	32740	32711	32702	32742	32749	32588	32599	
923	0	32786	32775	32770	32775	32804	32783	32653	32563	
924	0	32755	32759	32711	32771	32733	32675	32455	32535	
925	0	32775	32711	32882	32819	32764	32711	32747	32583	
926	0	32806	32690	32807	32751	32639	32755	32711	32595	
927	0	32781	32754	32850	32742	32767	32687	32587	32569	
928	0	32770	32775	32698	32713	32631	32791	32699	32671	
929	0	32794	32821	32835	32815	32731	32635	32615	32771	
930	0	32773	32787	32758	32711	32644	32718	32514	32827	
931	0	32812	32787	32773	32827	32639	32679	32711	32825	
932	0	32727	32643	32683	32742	32686	32701	32623	32903	
933	0	32799	32685	32823	32749	32775	32636	32703	32843	
934	0	32762	32678	32819	32796	32823	32629	32567	32892	
935	0	32807	32718	32811	32727	32756	32647	32761	32851	
936	0	32806	32611	32623	32769	32747	32731	32715	32767	
937	0	32722	32725	32807	32755	32705	32775	32726	32761	
938	0	32806	32692	32739	32747	32775	32705	32617	32749	
939	0	32762	32695	32771	32711	32775	32767	32599	32795	
940	0	32790	32733	32679	32749	32671	32655	32751	32751	
941	0	32797	32623	32731	32739	32765	32700	32749	32782	
942	0	32726	32735	32834	32759	32627	32759	32703	32790	
943	0	32705	32591	32669	32767	32719	32787	32640	32804	
944	0	32723	32703	32775	32711	32626	32751	32658	32718	
945	0	32727	32738	32659	32823	32742	32674	32727	32643	
946	0	32742	32547	32758	32711	32717	32671	32539	32595	
947	0	32767	32742	32639	32841	32659	32695	32612	32593	
948	0	32814	32578	32717	32737	32732	32747	32669	32581	
949	0	32718	32642	32633	32791	32715	32725	32709	32551	
950	0	32793	32615	32733	32821	32743	32756	32469	32514	
951	0	32751	32738	32643	32787	32793	32679	32775	32615	
952	0	32711	32743	32825	32741	32668	32668	32647	32603	
953	0	32765	32679	32684	32723	32747	32675	32647	32694	
954	0	32755	32759	32735	32751	32679	32742	32698	32775	
955	0	32729	32625	32695	32767	32735	32690	32610	32823	
956	0	32759	32734	32711	32722	32705	32658	32595	32839	
957	0	32695	32685	32855	32818	32703	32626	32743	32853	
958	0	32715	32738	32685	32684	32681	32807	32661	32861	
959	0	32700	32545	32790	32748	32801	32791	32691	32775	
960	0	32807	32695	32731	32738	32787	32791	32687	32783	
961	0	32775	32647	32743	32791	32671	32631	32534	32801	
962	0	32738	32751	32597	32741	32755	32707	32719	32783	
963	0	32766	32757	32823	32799	32709	32727	32610	32743	
964	0	32771	32737	32767	32695	32735	32747	32601	32742	
965	0	32766	32683	32698	32767	32715	32629	32643	32711	
966	0	32784	32767	32783	32751	32707	32615	32559	32723	
967	0	32751	32811	32807	32775	32676	32775	32642	32582	
968	0	32762	32791	32678	32751	32731	32763	32735	32638	
969	0	32783	32676	32775	32775	32643	32821	32695	32602	
970	0	32706	32619	32735	32749	32743	32673	32478	32758	
971	0	32790	32701	32767	32775	32823	32711	32735	32754	
972	0	32701	32603	32694	32717	32757	32714	32737	32599	
973	0	32734	32749	32681	32791	32775	32709	32671	32587	
974	0	32767	32731	32675	32732	32731	32647	32607	32645	
975	0	32775	32735	32751	32766	32711	32605	32663	32679	
976	0	32830	32549	32791	32719	32716	32707	32572	32739	
977	0	32791	32687	32775	32754	32695	32755	32775	32613	
978	0	32791	32578	32749	32753	32663	32700	32683	32592	
979	0	32775	32707	32749	32799	32841	32773	32623	32571	
980	0	32795	32603	32739	32722	32687	32642	32740	32605	
981	0	32727	32749	32783	32723	32749	32569	32580	32563	
982	0	32726	32679	32749	32719	32711	32723	32754	32742	
983	0	32769	32559	32687	32697	32591	32759	32643	32763	
984	0	32775	32751	32847	32717	32711	32741	32623	32749	
985	0	32724	32737	32749	32681	32631	32683	32571	32772	
986	0	32780	32726	32771	32796	32769	32755	32762	32822	
987	0	32775	32647	32615	32702	32775	32647	32647	32815	
988	0	32759	32546	32831	32687	32751	32631	32691	32767	
989	0	32775	32775	32761	32748	32835	32579	32631	32783	
990	0	32742	32759	32719	32787	32831	32685	32715	32769	
991	0	32807	32607	32785	32755	32642	32621	32695	32868	
992	0	32799	32775	32745	32850	32811	32735	32557	32831	
993	0	32822	32687	32598	32745	32751	32711	32773	32767	
994	0	32808	32623	32621	32721	32671	32719	32647	32647	
995	0	32769	32719	32751	32775	32773	32766	32517	32647	
996	0	32727	32599	32749	32699	32738	32786	32737	32647	
997	0	32748	32775	32822	32813	32647	32647	32727	32767	
998	0	32762	32757	32643	32765	32749	32599	32743	32747	
999	0	32781	32527	32668	32742	32706	32660	32589	32711	
1000	0	32762	32615	32804	32793	32666	32647	32643	32769	
1001	0	32742	32586	32747	32755	32751	32596	32740	32839	
1002	0	32762	32727	32770	32759	32735	32641	32517	32747	
1003	0	32740	32767	32775	32836	32614	32699	32695	32716	
1004	0	32804	32699	32659	32727	32744	32743	32595	32647	
1005	0	32748	32694	32813	32719	32708	32711	32623	32695	
1006	0	32761	32553	32753	32849	32660	32706	32773	32641	
1007	0	32773	32722	32827	32732	32743	32759	32685	32639	
1008	0	32740	32767	32689	32740	32769	32852	32703	32591	
1009	0	32743	32786	32810	32797	32732	32655	32703	32627	
1010	0	32775	32603	32783	32783	32811	32715	32582	32583	
1011	0	32814	32668	32612	32735	32726	32742	32861	32687	
1012	0	32765	32582	32797	32771	32772	32767	32746	32655	
1013	0	32784	32659	32733	32679	32683	32675	32667	32685	
1014	0	32804	32535	32790	32787	32727	32658	32695	32655	
1015	0	32730	32645	32679	32773	32707	32687	32554	32567	
1016	0	32722	32567	32799	32727	32735	32729	32613	32534	
1017	0	32753	32640	32821	32798	32759	32709	32613	32551	
1018	0	32747	32550	32823	32731	32711	32753	32602	32543	
1019	0	32780	32647	32695	32815	32735	32703	32670	32546	
1020	0	32768	32579	32673	32727	32706	32630	32471	32583	
1021	0	32799	32683	32743	32763	32799	32751	32713	32525	
1022	0	32733	32563	32619	32722	32705	32794	32599	32578	
1023	0	32714	32757	32790	32799	32843	32772	32715	32583	
1024	0	32758	32759	32703	32762	32767	32787	32615	32615	
1025	0	32762	32759	32855	32828	32795	32722	32501	32670	
1026	0	32749	32647	32719	32741	32722	32743	32635	32751	
1027	0	32727	32732	32791	32751	32711	32739	32734	32767	
1028	0	32705	32621	32794	32710	32691	32711	32662	32795	
1029	0	32684	32731	32643	32755	32797	32671	32673	32756	
1030	0	32775	32775	32775	32647	32763	32607	32479	32730	
1031	0	32783	32719	32775	32715	32695	32615	32719	32647	
1032	0	32812	32735	32770	32715	32783	32739	32745	32687	
1033	0	32788	32687	32645	32775	32729	32679	32663	32594	
1034	0	32787	32717	32775	32699	32763	32689	32551	32626	
1035	0	32820	32599	32708	32669	32788	32802	32749	32578	
1036	0	32738	32717	32815	32793	32799	32681	32741	32666	
1037	0	32775	32567	32745	32763	32761	32695	32655	32659	
1038	0	32733	32671	32719	32795	32647	32695	32775	32703	
1039	0	32733	32541	32803	32691	32700	32699	32591	32742	
1040	0	32786	32663	32729	32738	32722	32631	32583	32819	
1041	0	32751	32639	32747	32786	32722	32647	32766	32870	
1042	0	32757	32783	32765	32810	32668	32702	32679	32850	
1043	0	32764	32735	32727	32834	32711	32723	32659	32833	
1044	0	32748	32727	32797	32751	32660	32735	32575	32799	
1045	0	32713	32714	32709	32717	32726	32643	32733	32805	
1046	0	32687	32691	32775	32791	32775	32659	32647	32855	
1047	0	32734	32735	32683	32647	32836	32734	32677	32850	
1048	0	32767	32771	32737	32799	32762	32743	32711	32873	
1049	0	32748	32734	32769	32725	32736	32751	32563	32871	
1050	0	32825	32563	32751	32727	32821	32694	32775	32830	
1051	0	32773	32743	32743	32723	32695	32655	32661	32870	
1052	0	32791	32690	32576	32871	32757	32635	32727	32799	
1053	0	32743	32807	32755	32830	32661	32695	32631	32770	
1054	0	32736	32658	32683	32743	32791	32747	32647	32738	
1055	0	32738	32771	32759	32767	32762	32698	32659	32759	
1056	0	32764	32715	32775	32727	32647	32711	32823	32817	
1057	0	32775	32718	32718	32758	32775	32615	32673	32838	
1058	0	32774	32653	32807	32751	32627	32683	32706	32845	
1059	0	32806	32703	32797	32775	32705	32790	32639	32803	
1060	0	32759	32608	32613	32715	32658	32694	32621	32775	
1061	0	32807	32722	32767	32813	32747	32734	32775	32863	
1062	0	32797	32766	32655	32799	32735	32700	32813	32802	
1063	0	32799	32694	32679	32761	32607	32621	32694	32814	
1064	0	32753	32721	32751	32799	32747	32575	32695	32836	
1065	0	32773	32583	32703	32790	32721	32634	32645	32839	
1066	0	32772	32711	32775	32743	32709	32639	32727	32799	
1067	0	32715	32735	32801	32783	32747	32711	32677	32866	
1068	0	32738	32710	32719	32767	32742	32735	32567	32843	
1069	0	32749	32719	32791	32738	32671	32754	32582	32829	
1070	0	32811	32587	32799	32833	32679	32745	32471	32743	
1071	0	32775	32739	32690	32731	32723	32722	32767	32695	
1072	0	32775	32599	32820	32759	32738	32773	32647	32717	
1073	0	32773	32703	32790	32799	32735	32790	32582	32606	
1074	0	32765	32739	32796	32755	32733	32679	32662	32608	
1075	0	32754	32535	32772	32743	32764	32662	32699	32538	
1076	0	32748	32706	32647	32767	32687	32715	32562	32709	
1077	0	32762	32786	32614	32758	32687	32686	32629	32689	
1078	0	32771	32698	32711	32727	32748	32678	32591	32799	
1079	0	32775	32739	32731	32731	32719	32634	32613	32788	
1080	0	32763	32831	32793	32815	32593	32691	32566	32740	
1081	0	32751	32615	32699	32746	32723	32643	32647	32558	
1082	0	32759	32647	32851	32685	32775	32709	32635	32571	
1083	0	32799	32583	32870	32711	32711	32643	32807	32613	
1084	0	32818	32773	32711	32735	32766	32647	32713	32790	
1085	0	32807	32641	32802	32759	32838	32767	32676	32775	
1086	0	32718	32819	32783	32747	32711	32724	32572	32769	
1087	0	32767	32746	32783	32754	32871	32769	32719	32731	
1088	0	32749	32761	32659	32757	32847	32695	32667	32770	
1089	0	32708	32763	32775	32763	32854	32621	32628	32751	
1090	0	32775	32701	32813	32823	32759	32647	32647	32754	
1091	0	32757	32703	32764	32785	32713	32750	32759	32703	
1092	0	32786	32703	32748	32775	32735	32711	32751	32741	
1093	0	32743	32755	32755	32747	32722	32795	32581	32802	
1094	0	32732	32751	32807	32802	32756	32699	32693	32703	
1095	0	32775	32721	32797	32788	32677	32670	32663	32797	
1096	0	32796	32503	32694	32703	32686	32655	32551	32751	
1097	0	32733	32719	32751	32759	32727	32669	32709	32805	
1098	0	32775	32599	32739	32691	32687	32663	32730	32819	
1099	0	32823	32660	32789	32787	32717	32749	32555	32739	
1100	0	32775	32551	32597	32747	32770	32725	32647	32758	
1101	0	32730	32702	32775	32701	32690	32743	32684	32818	
1102	0	32724	32717	32685	32826	32711	32718	32763	32871	
1103	0	32783	32727	32765	32743	32756	32643	32671	32823	
1104	0	32762	32731	32676	32771	32717	32631	32647	32810	
1105	0	32789	32687	32795	32767	32767	32679	32596	32819	
1106	0	32749	32620	32758	32751	32667	32763	32676	32804	
1107	0	32769	32767	32794	32831	32745	32750	32763	32691	
1108	0	32742	32826	32786	32730	32683	32695	32685	32645	
1109	0	32715	32733	32678	32719	32765	32754	32687	32580	
1110	0	32756	32732	32799	32735	32775	32679	32671	32605	
1111	0	32806	32726	32807	32758	32695	32630	32555	32639	
1112	0	32731	32805	32775	32743	32774	32695	32807	32604	
1113	0	32743	32745	32695	32671	32671	32758	32693	32669	
1114	0	32711	32671	32788	32754	32735	32726	32578	32646	
1115	0	32784	32725	32727	32722	32775	32751	32703	32764	
1116	0	32691	32738	32773	32667	32690	32767	32727	32732	
1117	0	32702	32543	32644	32767	32740	32639	32503	32735	
1118	0	32743	32719	32791	32685	32655	32637	32749	32755	
1119	0	32773	32564	32775	32780	32799	32669	32647	32754	
1120	0	32809	32638	32815	32771	32715	32726	32557	32775	
1121	0	32764	32524	32722	32869	32705	32707	32540	32807	
1122	0	32841	32725	32749	32749	32643	32775	32727	32765	
1123	0	32814	32591	32775	32743	32757	32639	32699	32757	
1124	0	32775	32727	32798	32783	32679	32671	32571	32791	
1125	0	32775	32647	32773	32739	32729	32669	32666	32810	
1126	0	32723	32725	32647	32789	32809	32663	32703	32821	
1127	0	32719	32730	32787	32679	32717	32685	32635	32831	
1128	0	32759	32571	32743	32759	32806	32702	32715	32671	
1129	0	32796	32631	32757	32754	32747	32751	32683	32623	
1130	0	32775	32683	32783	32783	32685	32677	32765	32621	
1131	0	32791	32655	32644	32775	32805	32722	32695	32765	
1132	0	32679	32658	32763	32729	32805	32716	32583	32759	
1133	0	32756	32559	32855	32720	32679	32726	32679	32775	
1134	0	32748	32677	32782	32772	32727	32711	32775	32819	
1135	0	32748	32598	32783	32823	32807	32751	32550	32794	
1136	0	32747	32724	32623	32831	32711	32741	32743	32790	
1137	0	32775	32703	32725	32784	32873	32727	32684	32903	
1138	0	32757	32635	32749	32717	32797	32615	32595	32719	
1139	0	32759	32699	32679	32773	32823	32647	32647	32647	
1140	0	32819	32725	32742	32821	32655	32679	32671	32611	
1141	0	32812	32679	32635	32767	32685	32615	32583	32611	
1142	0	32762	32740	32647	32749	32695	32626	32663	32763	
1143	0	32763	32633	32738	32775	32711	32743	32509	32767	
1144	0	32793	32641	32762	32716	32695	32711	32743	32773	
1145	0	32836	32711	32775	32820	32647	32749	32725	32831	
1146	0	32843	32835	32599	32807	32705	32762	32577	32887	
1147	0	32861	32811	32646	32839	32722	32699	32724	32961	
1148	0	32880	32647	32771	32807	32647	32692	32706	32953	
1149	0	32871	32797	32709	32799	32641	32709	32764	32775	
1150	0	32903	32914	32670	32738	32695	32747	32647	32680	
1151	0	32933	32621	32773	32703	32658	32631	32687	32699	
1152	0	32968	32753	32786	32804	32594	32692	32795	32859	
1153	0	32815	32731	32625	32749	32726	32675	32787	32847	
1154	0	32875	32671	32743	32761	32653	32654	32749	32826	
1155	0	32872	32720	32763	32783	32703	32748	32647	32811	
1156	0	32899	32607	32891	32723	32765	32703	32836	32740	
1157	0	32863	32687	32717	32735	32663	32656	32869	32775	
1158	0	32884	32567	32898	32701	32783	32791	32703	32796	
1159	0	32879	32646	32867	32733	32731	32719	32955	32868	
1160	0	32811	32559	32891	32722	32863	32647	32802	32844	
1161	0	32771	32699	32853	32642	32826	32759	32775	32831	
1162	0	32721	32703	32959	32727	32735	32822	32815	32742	
1163	0	32745	32663	32979	32679	32821	32803	32703	32743	
1164	0	32673	32605	32955	32741	32766	32854	32594	32687	
1165	0	32655	32391	32892	32738	32847	32855	32608	32722	
1166	0	32572	32519	33061	32662	32918	32735	32622	32663	
1167	0	32623	32436	33028	32711	32876	32727	32573	32647	
1168	0	32548	32567	33042	32611	32896	32772	32606	32738	
1169	0	32494	32415	32930	32655	32859	32811	32517	32669	
1170	0	32505	32541	33063	32645	32970	32855	32685	32559	
1171	0	32458	32539	33139	32647	32981	32813	32636	32511	
1172	0	32444	32389	33117	32758	32873	32805	32671	32475	
1173	0	32477	32437	33138	32667	32915	32826	32535	32469	
1174	0	32471	32326	33063	32631	32890	32786	32775	32503	
1175	0	32541	32500	33135	32596	32975	32803	32717	32493	
1176	0	32556	32361	33154	32551	32883	32859	32774	32551	
1177	0	32566	32510	33127	32684	32855	32929	32647	32677	
1178	0	32610	32583	32951	32541	32838	32828	32759	32643	
1179	0	32617	32455	32879	32573	32740	32843	32519	32639	
1180	0	32574	32469	32706	32717	32731	32811	32503	32627	
1181	0	32567	32446	32578	32679	32715	32687	32235	32591	
1182	0	32446	32677	32327	32863	32603	32566	32329	32498	
1183	0	32421	32599	32124	32895	32578	32571	32037	32390	
1184	0	32457	32799	32100	33067	32476	32517	32023	32391	
1185	0	32568	32725	32047	32967	32455	32495	31901	32455	
1186	0	32595	32967	31967	32999	32455	32481	32129	32507	
1187	0	32644	32855	31829	33039	32407	32413	32129	32587	
1188	0	32604	32955	31923	33042	32421	32391	32135	32621	
1189	0	32580	32903	31921	33131	32331	32379	32199	32610	
1190	0	32644	33023	31845	33011	32386	32551	32157	32735	
1191	0	32668	32829	31996	33079	32309	32493	32419	32767	
1192	0	32684	32935	32078	32985	32403	32599	32399	32775	
1193	0	32716	32786	32121	32945	32423	32531	32434	32591	
1194	0	32638	32767	32295	32841	32483	32620	32513	32533	
1195	0	32637	32647	32423	32943	32564	32526	32555	32633	
1196	0	32743	32785	32367	32810	32615	32713	32518	32694	
1197	0	32854	32642	32687	32820	32643	32551	32813	32775	
1198	0	32906	32767	32813	32783	32663	32692	32887	32900	
1199	0	32935	32583	32772	32759	32748	32738	32893	32935	
1200	0	32934	32673	32799	32756	32694	32709	32921	32981	
1201	0	32863	32527	32895	32786	32771	32818	32821	32948	
1202	0	32854	32703	32979	32726	32757	32687	33022	32998	
1203	0	32822	32671	32983	32799	32743	32708	32938	32959	
1204	0	32679	32678	32851	32665	32737	32751	32935	32903	
1205	0	32615	32534	32979	32711	32834	32771	32759	32869	
1206	0	32621	32711	32847	32745	32807	32643	32783	32903	
1207	0	32677	32815	32918	32847	32821	32695	32967	32903	
1208	0	32806	32836	32949	32843	32807	32735	32863	32929	
1209	0	32902	32716	32767	32759	32695	32751	32927	33050	
1210	0	33033	32797	32862	32805	32747	32675	32943	33071	
1211	0	33052	32639	32839	32757	32757	32727	33046	33067	
1212	0	33049	32831	32959	32695	32621	32737	32967	33003	
1213	0	33098	32662	33007	32711	32737	32785	33055	33015	
1214	0	33147	32535	32999	32671	32791	32773	32973	32895	
1215	0	33211	32626	32843	32623	32775	32845	32970	32916	
1216	0	33196	32621	33033	32599	32833	32718	33107	32852	
1217	0	33128	32575	33037	32545	32851	32747	32895	32785	
1218	0	33159	32647	32930	32495	32749	32821	32819	32787	
1219	0	33170	32594	33027	32550	32900	32727	32983	32783	
1220	0	33187	32707	33030	32534	32871	32765	32982	32918	
1221	0	33110	32743	32884	32591	32767	32845	32873	32926	
1222	0	33172	32667	33055	32603	32895	32883	33111	32962	
1223	0	33138	32757	32999	32621	32877	32819	32997	32967	
1224	0	33136	32577	32967	32703	32766	32811	32991	32943	
1225	0	33052	32754	32818	32667	32866	32807	33031	32895	
1226	0	32993	32775	32923	32715	32883	32750	32814	32969	
1227	0	32997	32645	32918	32738	32747	32827	32784	32823	
1228	0	32922	32775	32869	32725	32756	32698	32765	32610	
1229	0	32852	32774	32899	32617	32723	32727	32719	32548	
1230	0	32824	32631	32822	32711	32835	32678	32543	32694	
1231	0	32773	32711	32693	32711	32692	32677	32527	32658	
1232	0	32770	32605	32647	32738	32743	32666	32511	32690	
1233	0	32782	32751	32850	32775	32792	32693	32623	32711	
1234	0	32689	32735	32814	32733	32674	32655	32607	32791	
1235	0	32679	32583	32751	32717	32787	32703	32500	32742	
1236	0	32654	32702	32759	32743	32727	32762	32615	32639	
1237	0	32706	32723	32719	32761	32667	32759	32540	32551	
1238	0	32639	32559	32635	32707	32735	32735	32391	32543	
1239	0	32654	32722	32799	32775	32743	32722	32628	32694	
1240	0	32641	32637	32836	32794	32683	32731	32554	32666	
1241	0	32647	32620	32647	32727	32763	32685	32564	32703	
1242	0	32656	32655	32709	32783	32741	32763	32663	32647	
1243	0	32673	32596	32721	32829	32662	32647	32555	32734	
1244	0	32652	32670	32630	32815	32743	32634	32463	32775	
1245	0	32632	32701	32707	32799	32822	32653	32690	32715	
1246	0	32623	32503	32699	32748	32677	32647	32552	32764	
1247	0	32673	32703	32739	32730	32747	32636	32580	32643	
1248	0	32646	32631	32783	32860	32799	32719	32543	32603	
1249	0	32679	32747	32557	32821	32687	32713	32565	32567	
1250	0	32646	32754	32790	32829	32739	32706	32623	32713	
1251	0	32676	32534	32695	32869	32783	32647	32500	32691	
1252	0	32679	32733	32807	32793	32691	32729	32642	32756	
1253	0	32647	32713	32724	32723	32795	32751	32529	32794	
1254	0	32708	32509	32575	32775	32745	32703	32647	32815	
1255	0	32662	32659	32758	32771	32647	32775	32647	32805	
1256	0	32730	32647	32765	32732	32739	32767	32501	32733	
1257	0	32706	32735	32815	32775	32775	32607	32658	32737	
1258	0	32751	32615	32615	32687	32727	32615	32607	32790	
1259	0	32727	32677	32707	32771	32701	32727	32679	32839	
1260	0	32692	32755	32813	32790	32633	32669	32470	32870	
1261	0	32666	32767	32659	32814	32686	32655	32711	32785	
1262	0	32722	32717	32819	32775	32687	32663	32594	32743	
1263	0	32723	32726	32691	32775	32758	32703	32606	32719	
1264	0	32704	32703	32819	32755	32763	32679	32531	32698	
1265	0	32775	32534	32671	32703	32686	32765	32711	32695	
1266	0	32712	32639	32671	32807	32764	32711	32635	32553	
1267	0	32707	32700	32807	32751	32803	32739	32642	32583	
1268	0	32740	32701	32723	32719	32679	32735	32590	32598	
1269	0	32763	32687	32799	32775	32747	32727	32766	32574	
1270	0	32703	32647	32619	32803	32743	32772	32642	32569	
1271	0	32754	32615	32621	32757	32710	32679	32667	32572	
1272	0	32748	32535	32731	32790	32759	32679	32525	32583	
1273	0	32726	32668	32750	32775	32716	32615	32735	32615	
1274	0	32718	32791	32759	32775	32620	32639	32711	32575	
1275	0	32712	32647	32615	32714	32647	32701	32589	32591	
1276	0	32769	32682	32607	32735	32727	32759	32719	32775	
1277	0	32781	32644	32751	32837	32671	32695	32642	32788	
1278	0	32775	32695	32809	32775	32735	32706	32647	32703	
1279	0	32771	32719	32722	32775	32717	32739	32614	32790	
1280	0	32709	32673	32647	32739	32869	32661	32695	32815	
1281	0	32724	32679	32723	32767	32835	32683	32655	32797	
1282	0	32759	32555	32737	32775	32694	32643	32438	32791	
1283	0	32761	32711	32681	32764	32719	32660	32741	32775	
1284	0	32743	32627	32749	32723	32765	32743	32614	32773	
1285	0	32734	32723	32693	32807	32719	32743	32711	32703	
1286	0	32814	32767	32758	32734	32784	32785	32575	32749	
1287	0	32759	32675	32734	32767	32698	32743	32750	32725	
1288	0	32747	32663	32829	32829	32773	32676	32665	32767	
1289	0	32707	32564	32813	32730	32741	32599	32670	32811	
1290	0	32719	32751	32655	32743	32717	32645	32510	32791	
1291	0	32741	32807	32759	32743	32739	32662	32638	32611	
1292	0	32775	32549	32749	32757	32669	32643	32503	32596	
1293	0	32788	32719	32775	32733	32749	32646	32701	32773	
1294	0	32766	32766	32743	32809	32614	32630	32647	32699	
1295	0	32791	32663	32758	32773	32723	32675	32519	32743	
1296	0	32748	32735	32663	32759	32709	32703	32731	32763	
1297	0	32809	32623	32775	32733	32681	32695	32751	32783	
1298	0	32834	32734	32803	32722	32719	32687	32695	32731	
1299	0	32716	32639	32727	32799	32733	32783	32583	32783	
1300	0	32802	32671	32817	32767	32690	32757	32615	32802	
1301	0	32761	32740	32763	32822	32786	32655	32663	32768	
1302	0	32791	32759	32771	32726	32677	32685	32654	32767	
1303	0	32742	32723	32803	32789	32687	32727	32797	32877	
1304	0	32707	32673	32748	32803	32655	32701	32583	32842	
1305	0	32721	32727	32767	32735	32727	32711	32743	32866	
1306	0	32786	32773	32647	32759	32755	32749	32661	32823	
1307	0	32764	32775	32763	32809	32639	32646	32745	32869	
1308	0	32762	32559	32839	32772	32769	32655	32559	32835	
1309	0	32761	32647	32734	32771	32826	32625	32671	32775	
1310	0	32724	32567	32764	32751	32724	32685	32647	32732	
1311	0	32769	32709	32658	32710	32735	32715	32647	32791	
1312	0	32748	32667	32834	32739	32716	32751	32471	32835	
1313	0	32793	32698	32716	32790	32769	32611	32711	32805	
1314	0	32724	32599	32735	32757	32679	32566	32663	32853	
1315	0	32796	32658	32687	32687	32763	32699	32641	32725	
1316	0	32774	32609	32711	32775	32825	32767	32525	32647	
1317	0	32820	32775	32819	32687	32723	32759	32791	32639	
1318	0	32751	32731	32852	32695	32796	32706	32655	32775	
1319	0	32748	32559	32731	32811	32747	32838	32634	32775	
1320	0	32758	32674	32775	32785	32658	32711	32786	32734	
1321	0	32728	32587	32617	32764	32711	32690	32686	32671	
1322	0	32736	32707	32842	32763	32641	32663	32723	32717	
1323	0	32721	32559	32673	32767	32743	32623	32527	32687	
1324	0	32732	32738	32774	32841	32721	32574	32735	32709	
1325	0	32717	32775	32733	32743	32672	32647	32673	32754	
1326	0	32775	32605	32615	32749	32758	32783	32751	32811	
1327	0	32783	32681	32797	32695	32813	32711	32607	32757	
1328	0	32767	32559	32713	32711	32687	32843	32763	32785	
1329	0	32842	32711	32783	32799	32739	32707	32741	32805	
1330	0	32698	32573	32679	32723	32757	32633	32717	32751	
1331	0	32717	32755	32663	32767	32733	32675	32617	32803	
1332	0	32775	32783	32811	32799	32727	32751	32766	32743	
1333	0	32772	32671	32740	32735	32736	32751	32663	32762	
1334	0	32736	32715	32830	32801	32703	32722	32715	32743	
1335	0	32775	32687	32647	32732	32692	32743	32669	32756	
1336	0	32720	32749	32751	32775	32741	32647	32503	32811	
1337	0	32788	32576	32695	32775	32775	32647	32758	32803	
1338	0	32807	32703	32757	32743	32659	32719	32749	32719	
1339	0	32775	32631	32749	32743	32711	32751	32623	32786	
1340	0	32783	32674	32791	32743	32671	32759	32749	32879	
1341	0	32736	32619	32842	32775	32727	32643	32503	32756	
1342	0	32764	32659	32687	32705	32835	32644	32751	32775	
1343	0	32766	32639	32607	32775	32628	32695	32703	32775	
1344	0	32814	32727	32775	32775	32739	32647	32639	32736	
1345	0	32775	32743	32739	32731	32615	32691	32532	32765	
1346	0	32773	32701	32807	32807	32791	32735	32709	32845	
1347	0	32775	32702	32691	32706	32757	32743	32692	32846	
1348	0	32793	32579	32694	32725	32687	32733	32625	32839	
1349	0	32775	32783	32759	32807	32722	32726	32599	32775	
1350	0	32770	32767	32747	32775	32769	32775	32675	32871	
1351	0	32710	32737	32826	32717	32686	32637	32511	32820	
1352	0	32768	32799	32663	32799	32763	32594	32767	32791	
1353	0	32812	32641	32847	32754	32647	32615	32615	32671	
1354	0	32843	32771	32724	32775	32714	32731	32739	32703	
1355	0	32763	32525	32799	32711	32743	32727	32493	32679	
1356	0	32751	32675	32635	32713	32695	32759	32564	32719	
1357	0	32698	32575	32758	32743	32707	32703	32767	32683	
1358	0	32775	32646	32767	32695	32687	32642	32545	32590	
1359	0	32731	32645	32755	32796	32727	32663	32711	32579	
1360	0	32737	32775	32647	32795	32766	32689	32577	32634	
1361	0	32725	32755	32815	32794	32699	32711	32722	32663	
1362	0	32730	32655	32711	32775	32799	32759	32708	32615	
1363	0	32733	32719	32775	32711	32829	32727	32511	32641	
1364	0	32775	32497	32815	32775	32693	32767	32673	32626	
1365	0	32724	32735	32566	32755	32733	32767	32687	32605	
1366	0	32823	32766	32835	32708	32787	32726	32511	32582	
1367	0	32790	32647	32769	32839	32631	32791	32800	32591	
1368	0	32766	32679	32787	32709	32749	32667	32679	32603	
1369	0	32743	32593	32631	32789	32723	32717	32709	32583	
1370	0	32747	32798	32757	32725	32679	32727	32623	32595	
1371	0	32815	32589	32679	32739	32677	32775	32757	32621	
1372	0	32775	32663	32757	32775	32804	32719	32666	32644	
1373	0	32817	32583	32731	32715	32743	32727	32725	32775	
1374	0	32806	32750	32599	32803	32715	32820	32579	32698	
1375	0	32772	32735	32771	32774	32775	32715	32637	32727	
1376	0	32730	32547	32751	32759	32831	32613	32647	32687	
1377	0	32808	32701	32806	32831	32691	32625	32607	32793	
1378	0	32751	32591	32762	32754	32772	32709	32599	32793	
1379	0	32759	32667	32715	32799	32699	32703	32791	32767	
1380	0	32762	32555	32855	32673	32715	32718	32667	32711	
1381	0	32738	32674	32755	32701	32755	32734	32711	32743	
1382	0	32839	32578	32791	32735	32734	32699	32599	32823	
1383	0	32790	32695	32807	32789	32623	32607	32671	32827	
1384	0	32723	32751	32679	32677	32687	32669	32662	32799	
1385	0	32749	32612	32807	32775	32691	32735	32505	32772	
1386	0	32759	32716	32807	32731	32719	32773	32717	32767	
1387	0	32761	32566	32843	32810	32727	32690	32658	32727	
1388	0	32709	32751	32647	32754	32711	32759	32710	32755	
1389	0	32804	32769	32820	32743	32711	32743	32514	32775	
1390	0	32743	32617	32827	32807	32771	32695	32721	32859	
1391	0	32775	32684	32673	32783	32721	32668	32641	32815	
1392	0	32775	32723	32796	32791	32795	32647	32655	32894	
1393	0	32768	32722	32647	32823	32763	32722	32535	32797	
1394	0	32783	32765	32727	32719	32671	32719	32741	32775	
1395	0	32773	32711	32743	32727	32699	32734	32707	32639	
1396	0	32751	32718	32763	32758	32695	32681	32763	32647	
1397	0	32758	32599	32647	32702	32727	32675	32541	32719	
1398	0	32763	32747	32650	32763	32741	32647	32742	32627	
1399	0	32742	32743	32725	32833	32729	32655	32735	32647	
1400	0	32724	32668	32733	32724	32723	32615	32586	32647	
1401	0	32727	32754	32742	32841	32730	32663	32797	32658	
1402	0	32723	32629	32759	32743	32635	32693	32658	32599	
1403	0	32726	32769	32635	32687	32715	32714	32701	32769	
1404	0	32724	32551	32788	32749	32786	32692	32623	32788	
1405	0	32759	32733	32771	32685	32692	32775	32717	32739	
1406	0	32703	32694	32749	32782	32827	32645	32710	32768	
1407	0	32719	32599	32817	32829	32762	32639	32590	32758	
1408	0	32775	32711	32599	32707	32695	32647	32617	32791	
1409	0	32749	32674	32734	32829	32788	32733	32687	32743	
1410	0	32738	32799	32823	32764	32775	32693	32519	32759	
1411	0	32751	32756	32803	32738	32679	32763	32703	32775	
1412	0	32794	32756	32819	32767	32719	32781	32773	32775	
1413	0	32790	32633	32684	32719	32743	32663	32687	32775	
1414	0	32812	32715	32685	32797	32731	32805	32591	32739	
1415	0	32790	32549	32819	32758	32735	32730	32598	32766	
1416	0	32767	32677	32647	32783	32727	32751	32674	32743	
1417	0	32748	32798	32791	32687	32782	32775	32679	32743	
1418	0	32738	32603	32695	32858	32706	32603	32467	32787	
1419	0	32769	32738	32727	32701	32727	32631	32761	32767	
1420	0	32764	32644	32674	32813	32716	32725	32679	32751	
1421	0	32778	32679	32746	32790	32767	32689	32679	32773	
1422	0	32751	32567	32731	32775	32678	32719	32659	32782	
1423	0	32743	32681	32783	32711	32711	32732	32741	32767	
1424	0	32743	32525	32767	32707	32705	32647	32695	32711	
1425	0	32817	32675	32811	32705	32599	32705	32637	32634	
1426	0	32793	32634	32775	32773	32713	32789	32638	32615	
1427	0	32775	32727	32646	32810	32690	32775	32439	32551	
1428	0	32770	32611	32737	32743	32738	32703	32727	32571	
1429	0	32797	32722	32714	32820	32647	32698	32635	32595	
1430	0	32786	32615	32791	32751	32711	32728	32670	32618	
1431	0	32727	32739	32631	32711	32647	32673	32460	32643	
1432	0	32707	32725	32749	32767	32707	32695	32596	32843	
1433	0	32816	32739	32765	32722	32609	32625	32763	32850	
1434	0	32778	32711	32629	32742	32735	32723	32583	32841	
1435	0	32769	32795	32775	32740	32748	32775	32707	32852	
1436	0	32784	32669	32775	32727	32679	32709	32527	32845	
1437	0	32799	32740	32799	32816	32695	32741	32735	32871	
1438	0	32839	32565	32674	32756	32591	32765	32614	32879	
1439	0	32791	32647	32751	32823	32745	32679	32662	32839	
1440	0	32769	32631	32699	32735	32858	32647	32719	32811	
1441	0	32743	32731	32735	32721	32790	32642	32638	32805	
1442	0	32692	32685	32773	32833	32831	32734	32665	32659	
1443	0	32727	32633	32628	32727	32659	32675	32520	32751	
1444	0	32700	32667	32705	32817	32743	32742	32671	32805	
1445	0	32765	32615	32801	32751	32749	32667	32635	32858	
1446	0	32766	32739	32642	32787	32691	32698	32717	32820	
1447	0	32797	32727	32726	32714	32693	32727	32591	32775	
1448	0	32838	32743	32780	32797	32621	32673	32790	32773	
1449	0	32775	32796	32591	32711	32643	32655	32694	32805	
1450	0	32772	32677	32751	32786	32666	32639	32669	32727	
1451	0	32742	32839	32795	32775	32743	32591	32601	32759	
1452	0	32736	32797	32807	32775	32791	32658	32706	32743	
1453	0	32677	32643	32622	32747	32679	32719	32676	32745	
1454	0	32703	32803	32723	32686	32749	32719	32575	32788	
1455	0	32726	32563	32719	32789	32775	32719	32775	32797	
1456	0	32727	32796	32692	32747	32583	32701	32711	32863	
1457	0	32765	32645	32791	32726	32732	32751	32575	32853	
1458	0	32751	32799	32671	32799	32775	32621	32631	32863	
1459	0	32733	32804	32733	32775	32690	32663	32725	32886	
1460	0	32758	32775	32726	32807	32742	32703	32671	32895	
1461	0	32753	32603	32622	32775	32692	32682	32673	32895	
1462	0	32826	32748	32751	32821	32751	32786	32605	32886	
1463	0	32676	32743	32674	32730	32670	32694	32639	32815	
1464	0	32755	32647	32749	32821	32726	32675	32655	32797	
1465	0	32735	32741	32647	32739	32759	32655	32543	32751	
1466	0	32731	32662	32775	32815	32685	32745	32535	32719	
1467	0	32729	32679	32749	32743	32742	32687	32775	32687	
1468	0	32738	32655	32767	32791	32763	32734	32617	32727	
1469	0	32754	32715	32687	32757	32743	32639	32663	32799	
1470	0	32732	32727	32663	32787	32647	32740	32635	32775	
1471	0	32782	32647	32775	32698	32709	32751	32503	32782	
1472	0	32806	32722	32599	32791	32663	32767	32677	32773	
1473	0	32704	32527	32806	32751	32791	32662	32735	32749	
1474	0	32726	32655	32806	32822	32679	32635	32743	32735	
1475	0	32780	32634	32731	32775	32695	32735	32535	32815	
1476	0	32734	32784	32663	32734	32719	32767	32663	32770	
1477	0	32775	32735	32699	32784	32726	32769	32711	32755	
1478	0	32799	32683	32850	32757	32647	32695	32538	32827	
1479	0	32775	32785	32838	32755	32700	32725	32719	32791	
1480	0	32737	32639	32663	32743	32687	32687	32677	32815	
1481	0	32751	32635	32767	32791	32711	32639	32635	32818	
1482	0	32813	32671	32804	32839	32707	32815	32569	32775	
1483	0	32797	32538	32615	32863	32691	32755	32833	32783	
1484	0	32780	32717	32796	32743	32740	32645	32725	32764	
1485	0	32789	32647	32849	32807	32767	32660	32613	32786	
1486	0	32775	32765	32711	32729	32671	32743	32694	32644	
1487	0	32762	32612	32843	32737	32805	32734	32499	32623	
1488	0	32738	32738	32775	32642	32799	32727	32647	32749	
1489	0	32759	32605	32807	32719	32659	32730	32669	32687	
1490	0	32773	32679	32621	32719	32775	32775	32647	32706	
1491	0	32724	32498	32787	32786	32723	32644	32639	32747	
1492	0	32758	32647	32733	32797	32767	32699	32759	32743	
1493	0	32731	32559	32788	32719	32731	32647	32773	32787	
1494	0	32743	32677	32679	32815	32613	32735	32642	32839	
1495	0	32783	32551	32756	32695	32702	32719	32509	32879	
1496	0	32736	32703	32679	32775	32717	32773	32791	32711	
1497	0	32732	32567	32815	32642	32767	32707	32623	32769	
1498	0	32733	32677	32679	32771	32708	32613	32682	32551	
1499	0	32748	32631	32767	32743	32793	32775	32523	32600	
1500	0	32740	32743	32706	32854	32829	32765	32581	32595	
1501	0	32695	32713	32751	32705	32699	32700	32727	32599	
1502	0	32785	32707	32574	32789	32751	32623	32753	32571	
1503	0	32756	32707	32759	32719	32639	32753	32603	32591	
1504	0	32756	32751	32799	32735	32725	32702	32559	32647	
1505	0	32775	32719	32613	32711	32671	32771	32775	32717	
1506	0	32803	32695	32703	32806	32722	32631	32694	32694	
1507	0	32742	32679	32663	32717	32719	32591	32685	32670	
1508	0	32775	32739	32903	32763	32758	32756	32767	32784	
1509	0	32751	32762	32719	32642	32775	32765	32611	32815	
1510	0	32778	32594	32775	32749	32813	32669	32534	32885	
1511	0	32775	32693	32817	32693	32711	32589	32737	32831	
1512	0	32743	32559	32691	32775	32765	32725	32668	32849	
1513	0	32787	32733	32813	32790	32753	32766	32621	32839	
1514	0	32787	32727	32815	32745	32743	32762	32775	32783	
1515	0	32785	32695	32756	32771	32803	32761	32709	32725	
1516	0	32782	32717	32837	32743	32799	32730	32509	32686	
1517	0	32753	32543	32675	32813	32647	32711	32628	32605	
1518	0	32756	32756	32730	32759	32753	32723	32694	32626	
1519	0	32715	32775	32775	32676	32675	32727	32443	32624	
1520	0	32752	32707	32775	32751	32605	32700	32725	32647	
1521	0	32775	32703	32791	32746	32662	32615	32605	32645	
1522	0	32737	32575	32647	32786	32751	32596	32515	32533	
1523	0	32791	32711	32805	32711	32743	32717	32789	32540	
1524	0	32789	32558	32717	32687	32730	32770	32642	32570	
1525	0	32743	32749	32809	32833	32689	32758	32663	32567	
1526	0	32769	32831	32703	32723	32799	32775	32743	32548	
1527	0	32742	32607	32663	32773	32727	32743	32719	32743	
1528	0	32763	32679	32823	32815	32736	32751	32583	32751	
1529	0	32748	32587	32762	32790	32723	32742	32737	32703	
1530	0	32716	32751	32683	32795	32807	32616	32703	32740	
1531	0	32771	32745	32703	32710	32797	32676	32579	32786	
1532	0	32803	32555	32749	32711	32718	32711	32743	32862	
1533	0	32756	32722	32787	32661	32669	32661	32679	32851	
1534	0	32790	32711	32695	32761	32795	32639	32829	32825	
1535	0	32804	32693	32773	32754	32831	32633	32677	32855	
1536	0	32809	32699	32832	32687	32621	32679	32711	32865	
1537	0	32791	32615	32772	32795	32675	32757	32555	32791	
1538	0	32745	32726	32811	32735	32655	32724	32643	32775	
1539	0	32756	32578	32642	32775	32743	32727	32763	32799	
1540	0	32773	32682	32786	32725	32751	32589	32743	32791	
1541	0	32683	32631	32723	32731	32658	32687	32551	32797	
1542	0	32734	32692	32679	32787	32639	32639	32663	32845	
1543	0	32775	32673	32799	32735	32790	32675	32668	32871	
1544	0	32759	32587	32854	32719	32751	32607	32533	32813	
1545	0	32754	32719	32659	32815	32631	32655	32725	32791	
1546	0	32806	32775	32754	32751	32743	32711	32615	32797	
1547	0	32786	32755	32679	32739	32803	32787	32563	32759	
1548	0	32734	32725	32766	32799	32702	32775	32767	32683	
1549	0	32751	32599	32753	32732	32690	32695	32647	32723	
1550	0	32730	32710	32690	32772	32685	32802	32707	32815	
1551	0	32806	32535	32804	32765	32813	32658	32547	32813	
1552	0	32799	32727	32719	32745	32756	32615	32679	32896	
1553	0	32796	32759	32822	32773	32692	32671	32755	32775	
1554	0	32749	32637	32807	32742	32687	32673	32587	32633	
1555	0	32804	32691	32825	32763	32775	32679	32671	32607	
1556	0	32822	32791	32687	32807	32743	32692	32532	32575	
1557	0	32803	32607	32687	32755	32727	32639	32678	32633	
1558	0	32760	32706	32842	32727	32821	32623	32683	32585	
1559	0	32809	32639	32775	32759	32711	32628	32564	32841	
1560	0	32772	32687	32783	32762	32711	32669	32677	32735	
1561	0	32770	32667	32812	32791	32677	32619	32623	32815	
1562	0	32751	32707	32796	32789	32667	32647	32731	32757	
1563	0	32788	32685	32754	32791	32771	32685	32607	32784	
1564	0	32727	32663	32586	32711	32685	32743	32635	32748	
1565	0	32743	32546	32806	32811	32687	32723	32575	32815	
1566	0	32758	32733	32719	32741	32607	32758	32711	32903	
1567	0	32796	32730	32687	32655	32671	32775	32701	32775	
1568	0	32759	32529	32835	32783	32797	32763	32820	32687	
1569	0	32740	32738	32786	32787	32721	32729	32671	32582	
1570	0	32764	32763	32711	32731	32798	32702	32530	32599	
1571	0	32790	32571	32743	32703	32829	32757	32759	32743	
1572	0	32790	32727	32735	32691	32919	32757	32675	32769	
1573	0	32751	32609	32818	32684	32821	32659	32567	32773	
1574	0	32759	32747	32772	32759	32635	32738	32769	32711	
1575	0	32723	32707	32815	32815	32796	32685	32687	32773	
1576	0	32739	32767	32612	32757	32771	32691	32647	32755	
1577	0	32759	32735	32796	32767	32647	32613	32556	32758	
1578	0	32753	32694	32719	32773	32671	32729	32701	32756	
1579	0	32748	32709	32823	32727	32795	32767	32639	32767	
1580	0	32794	32567	32647	32741	32647	32773	32511	32795	
1581	0	32772	32742	32679	32714	32725	32727	32701	32799	
1582	0	32759	32692	32766	32807	32775	32740	32660	32843	
1583	0	32793	32639	32788	32751	32711	32695	32567	32830	
1584	0	32746	32667	32703	32722	32711	32647	32727	32822	
1585	0	32767	32562	32727	32793	32687	32617	32641	32838	
1586	0	32767	32718	32805	32795	32786	32679	32641	32823	
1587	0	32726	32631	32751	32837	32739	32765	32795	32749	
1588	0	32742	32647	32827	32813	32655	32679	32683	32815	
1589	0	32769	32551	32743	32751	32745	32597	32699	32895	
1590	0	32756	32695	32772	32711	32663	32689	32532	32773	
1591	0	32775	32693	32813	32746	32735	32620	32775	32853	
1592	0	32743	32784	32685	32765	32830	32717	32634	32812	
1593	0	32690	32748	32707	32702	32671	32751	32647	32811	
1594	0	32718	32703	32675	32755	32748	32676	32621	32849	
1595	0	32792	32765	32799	32743	32758	32699	32639	32855	
1596	0	32815	32669	32735	32727	32685	32804	32723	32895	
1597	0	32775	32738	32698	32771	32711	32775	32575	32771	
1598	0	32766	32535	32783	32735	32715	32676	32731	32839	
1599	0	32775	32773	32723	32767	32667	32672	32675	32701	
1600	0	32735	32731	32847	32771	32661	32685	32570	32599	
1601	0	32710	32533	32799	32748	32703	32706	32707	32587	
1602	0	32784	32711	32703	32742	32734	32587	32706	32742	
1603	0	32742	32615	32775	32746	32756	32759	32503	32751	
1604	0	32756	32751	32775	32739	32738	32771	32723	32795	
1605	0	32812	32717	32758	32763	32703	32754	32615	32753	
1606	0	32697	32463	32813	32726	32719	32742	32553	32789	
1607	0	32669	32711	32725	32743	32775	32735	32739	32748	
1608	0	32724	32671	32662	32805	32775	32738	32717	32763	
1609	0	32807	32655	32775	32695	32671	32719	32532	32759	
1610	0	32743	32677	32695	32734	32785	32749	32683	32797	
1611	0	32768	32431	32807	32775	32755	32791	32621	32866	
1612	0	32807	32663	32727	32698	32619	32647	32539	32887	
1613	0	32751	32647	32679	32814	32743	32623	32747	32851	
1614	0	32711	32758	32797	32812	32775	32623	32756	32797	
1615	0	32766	32767	32685	32720	32677	32735	32599	32775	
1616	0	32751	32647	32769	32839	32700	32759	32647	32671	
1617	0	32751	32747	32815	32761	32742	32742	32755	32661	
1618	0	32807	32563	32671	32695	32666	32729	32567	32701	
1619	0	32722	32694	32757	32733	32799	32751	32799	32813	
1620	0	32782	32541	32766	32711	32700	32587	32687	32835	
1621	0	32756	32679	32843	32683	32628	32611	32707	32846	
1622	0	32784	32583	32647	32775	32759	32611	32559	32692	
1623	0	32761	32724	32749	32791	32767	32715	32711	32743	
1624	0	32737	32673	32667	32775	32706	32759	32699	32807	
1625	0	32740	32745	32762	32804	32711	32695	32487	32671	
1626	0	32802	32791	32749	32841	32764	32733	32703	32603	
1627	0	32729	32643	32644	32775	32717	32627	32691	32655	
1628	0	32772	32775	32738	32811	32738	32630	32759	32718	
1629	0	32801	32763	32807	32690	32641	32692	32615	32764	
1630	0	32800	32765	32638	32813	32727	32679	32775	32805	
1631	0	32797	32707	32783	32685	32745	32767	32658	32863	
1632	0	32775	32742	32802	32759	32859	32699	32675	32831	
1633	0	32767	32589	32823	32693	32775	32715	32757	32739	
1634	0	32751	32647	32703	32719	32697	32677	32570	32773	
1635	0	32691	32583	32677	32757	32739	32699	32491	32655	
1636	0	32782	32831	32831	32754	32767	32797	32679	32607	
1637	0	32762	32711	32738	32679	32663	32735	32683	32605	
1638	0	32763	32517	32769	32819	32679	32711	32531	32607	
1639	0	32801	32733	32836	32773	32692	32690	32647	32826	
1640	0	32758	32788	32635	32719	32751	32711	32695	32740	
1641	0	32740	32623	32642	32745	32660	32795	32815	32753	
1642	0	32760	32677	32751	32711	32774	32835	32722	32786	
1643	0	32775	32595	32621	32730	32767	32767	32589	32851	
1644	0	32763	32631	32775	32775	32647	32741	32626	32819	
1645	0	32771	32630	32775	32791	32765	32775	32551	32819	
1646	0	32789	32647	32623	32775	32791	32733	32763	32791	
1647	0	32724	32724	32683	32783	32686	32661	32637	32732	
1648	0	32775	32719	32751	32780	32775	32647	32621	32644	
1649	0	32809	32567	32743	32759	32789	32627	32703	32623	
1650	0	32736	32685	32823	32739	32687	32679	32727	32645	
1651	0	32775	32642	32669	32749	32745	32775	32589	32613	
1652	0	32759	32749	32801	32711	32751	32694	32743	32635	
1653	0	32807	32817	32775	32775	32647	32727	32598	32619	
1654	0	32820	32755	32851	32709	32739	32759	32679	32551	
1655	0	32799	32759	32711	32711	32679	32655	32762	32603	
1656	0	32804	32567	32831	32775	32694	32607	32711	32631	
1657	0	32765	32703	32803	32767	32775	32738	32788	32702	
1658	0	32789	32543	32691	32775	32679	32723	32589	32637	
1659	0	32746	32687	32799	32807	32775	32731	32807	32661	
1660	0	32793	32583	32699	32841	32751	32735	32683	32707	
1661	0	32775	32719	32797	32758	32775	32759	32662	32631	
1662	0	32793	32593	32655	32799	32791	32615	32592	32615	
1663	0	32793	32727	32794	32775	32661	32659	32707	32631	
1664	0	32753	32594	32749	32751	32676	32758	32719	32590	
1665	0	32708	32731	32759	32751	32764	32767	32559	32685	
1666	0	32745	32727	32677	32689	32663	32787	32659	32729	
1667	0	32767	32647	32783	32751	32740	32775	32623	32711	
1668	0	32766	32801	32693	32698	32709	32695	32457	32706	
1669	0	32771	32761	32703	32755	32825	32607	32681	32714	
1670	0	32748	32756	32635	32735	32787	32683	32607	32742	
1671	0	32756	32711	32821	32683	32743	32692	32658	32541	
1672	0	32751	32658	32869	32751	32764	32711	32577	32731	
1673	0	32758	32507	32859	32663	32637	32722	32671	32711	
1674	0	32804	32713	32687	32745	32727	32709	32669	32748	
1675	0	32752	32564	32815	32679	32754	32738	32429	32727	
1676	0	32710	32639	32855	32759	32773	32658	32755	32621	
1677	0	32749	32598	32827	32739	32733	32647	32706	32751	
1678	0	32779	32731	32763	32743	32615	32665	32743	32627	
1679	0	32703	32583	32745	32775	32699	32723	32599	32801	
1680	0	32775	32743	32669	32799	32767	32731	32706	32814	
1681	0	32775	32711	32719	32743	32663	32647	32615	32791	
1682	0	32754	32647	32775	32902	32713	32714	32772	32839	
1683	0	32811	32689	32751	32843	32759	32691	32623	32887	
1684	0	32738	32711	32582	32746	32775	32771	32759	32863	
1685	0	32761	32541	32755	32811	32723	32724	32724	32833	
1686	0	32775	32663	32767	32679	32679	32759	32514	32845	
1687	0	32751	32567	32743	32703	32699	32703	32675	32679	
1688	0	32799	32729	32658	32811	32662	32767	32719	32663	
1689	0	32832	32738	32703	32662	32683	32754	32509	32655	
1690	0	32749	32643	32774	32731	32631	32677	32647	32647	
1691	0	32783	32678	32775	32731	32745	32647	32642	32606	
1692	0	32740	32660	32755	32723	32773	32622	32563	32607	
1693	0	32753	32659	32749	32727	32775	32617	32695	32775	
1694	0	32724	32684	32679	32797	32703	32655	32623	32742	
1695	0	32747	32647	32762	32727	32767	32679	32746	32707	
1696	0	32731	32791	32765	32679	32815	32678	32701	32709	
1697	0	32795	32751	32751	32758	32690	32644	32679	32759	
1698	0	32764	32615	32809	32767	32734	32581	32615	32749	
1699	0	32743	32679	32671	32701	32759	32687	32639	32794	
1700	0	32762	32535	32739	32827	32647	32739	32598	32813	
1701	0	32725	32604	32717	32758	32687	32775	32701	32859	
1702	0	32727	32550	32793	32759	32773	32799	32531	32867	
1703	0	32729	32715	32775	32805	32692	32759	32679	32706	
1704	0	32743	32677	32631	32797	32773	32703	32735	32598	
1705	0	32772	32563	32678	32762	32789	32821	32613	32603	
1706	0	32727	32719	32757	32775	32703	32748	32711	32755	
1707	0	32775	32775	32727	32807	32829	32775	32699	32745	
1708	0	32727	32671	32817	32803	32767	32747	32780	32785	
1709	0	32779	32743	32826	32789	32676	32642	32629	32882	
1710	0	32804	32578	32605	32806	32797	32711	32677	32868	
1711	0	32753	32719	32743	32730	32698	32693	32821	32900	
1712	0	32754	32767	32799	32653	32683	32722	32677	32927	
1713	0	32735	32759	32736	32721	32774	32711	32714	32863	
1714	0	32742	32730	32839	32694	32775	32773	32575	32789	
1715	0	32751	32661	32723	32771	32690	32675	32732	32787	
1716	0	32773	32751	32763	32667	32709	32640	32687	32803	
1717	0	32793	32703	32789	32756	32668	32725	32711	32775	
1718	0	32775	32738	32671	32724	32705	32721	32485	32735	
1719	0	32793	32563	32734	32715	32679	32759	32686	32773	
1720	0	32788	32737	32804	32775	32663	32735	32682	32793	
1721	0	32759	32609	32706	32684	32703	32735	32527	32775	
1722	0	32742	32775	32791	32819	32654	32679	32711	32818	
1723	0	32797	32596	32655	32775	32703	32637	32591	32759	
1724	0	32812	32734	32775	32895	32746	32643	32655	32791	
1725	0	32808	32791	32731	32805	32647	32615	32671	32876	
1726	0	32834	32598	32759	32775	32759	32627	32698	32743	
1727	0	32766	32775	32757	32797	32788	32794	32787	32591	
1728	0	32775	32711	32806	32765	32789	32702	32711	32810	
1729	0	32807	32567	32791	32788	32763	32631	32515	32823	
1730	0	32781	32735	32711	32711	32809	32668	32699	32798	
1731	0	32759	32717	32742	32724	32791	32639	32625	32759	
1732	0	32804	32685	32812	32806	32679	32663	32603	32823	
1733	0	32751	32726	32731	32705	32747	32687	32655	32823	
1734	0	32752	32519	32686	32822	32647	32727	32623	32804	
1735	0	32751	32655	32727	32742	32764	32730	32711	32797	
1736	0	32758	32583	32775	32723	32723	32753	32571	32879	
1737	0	32751	32799	32679	32847	32766	32711	32663	32799	
1738	0	32728	32743	32619	32757	32658	32731	32694	32809	
1739	0	32791	32579	32794	32734	32739	32719	32639	32663	
1740	0	32775	32711	32751	32743	32805	32711	32647	32639	
1741	0	32726	32623	32791	32756	32708	32713	32583	32615	
1742	0	32756	32599	32622	32711	32815	32767	32756	32769	
1743	0	32727	32674	32698	32775	32759	32707	32797	32815	
1744	0	32726	32587	32827	32772	32714	32757	32558	32794	
1745	0	32753	32699	32773	32751	32717	32719	32657	32756	
1746	0	32734	32749	32767	32770	32723	32671	32707	32820	
1747	0	32708	32707	32703	32719	32647	32745	32543	32839	
1748	0	32769	32707	32711	32690	32714	32679	32663	32799	
1749	0	32764	32551	32797	32831	32775	32687	32703	32711	
1750	0	32721	32770	32705	32725	32647	32644	32788	32687	
1751	0	32754	32727	32807	32740	32791	32642	32663	32638	
1752	0	32752	32678	32679	32783	32709	32667	32519	32627	
1753	0	32721	32700	32743	32705	32767	32683	32669	32578	
1754	0	32745	32515	32751	32714	32727	32733	32694	32573	
1755	0	32827	32711	32671	32845	32635	32683	32563	32583	
1756	0	32756	32717	32815	32759	32713	32731	32699	32762	
1757	0	32788	32733	32671	32807	32775	32723	32561	32799	
1758	0	32764	32799	32799	32731	32647	32735	32677	32827	
1759	0	32775	32550	32774	32691	32733	32738	32647	32817	
1760	0	32797	32647	32679	32791	32681	32748	32541	32743	
1761	0	32739	32669	32758	32775	32759	32711	32621	32879	
1762	0	32735	32535	32754	32738	32698	32679	32661	32895	
1763	0	32751	32667	32628	32819	32773	32783	32578	32864	
1764	0	32819	32589	32751	32698	32735	32759	32694	32861	
1765	0	32800	32695	32771	32703	32719	32623	32687	32919	
1766	0	32802	32676	32770	32692	32790	32695	32775	32795	
1767	0	32726	32775	32612	32692	32783	32671	32612	32759	
1768	0	32749	32707	32677	32631	32749	32644	32477	32717	
1769	0	32781	32615	32742	32711	32751	32655	32667	32621	
1770	0	32765	32775	32818	32726	32765	32738	32635	32545	
1771	0	32733	32767	32794	32782	32717	32676	32559	32581	
1772	0	32743	32690	32647	32807	32751	32711	32646	32635	
1773	0	32725	32751	32715	32759	32766	32739	32671	32591	
1774	0	32769	32671	32759	32827	32639	32759	32477	32589	
1775	0	32748	32677	32785	32799	32749	32727	32810	32617	
1776	0	32727	32535	32801	32871	32658	32698	32748	32530	
1777	0	32775	32703	32663	32875	32655	32683	32642	32687	
1778	0	32719	32738	32806	32773	32683	32739	32669	32611	
1779	0	32741	32673	32710	32715	32685	32741	32581	32756	
1780	0	32789	32743	32735	32695	32719	32642	32775	32789	
1781	0	32774	32715	32705	32645	32742	32604	32686	32791	
1782	0	32703	32757	32675	32671	32647	32765	32763	32615	
1783	0	32722	32658	32797	32647	32743	32775	32503	32829	
1784	0	32738	32719	32694	32769	32791	32709	32806	32831	
1785	0	32834	32713	32845	32734	32724	32706	32709	32815	
1786	0	32780	32789	32759	32819	32755	32661	32755	32789	
1787	0	32762	32723	32679	32835	32677	32687	32582	32855	
1788	0	32736	32775	32767	32871	32810	32631	32756	32754	
1789	0	32738	32567	32815	32836	32799	32695	32637	32631	
1790	0	32743	32679	32755	32647	32703	32689	32669	32791	
1791	0	32716	32565	32617	32503	32691	32773	32506	32867	
1792	0	32756	32725	32807	32389	32636	32663	32691	32790	
1793	0	32732	32535	32727	32263	32759	32738	32631	32707	
1794	0	32796	32646	32796	32183	32763	32775	32555	32724	
1795	0	32774	32532	32717	32148	32775	32807	32739	32679	
1796	0	32743	32663	32815	32007	32658	32767	32623	32769	
1797	0	32782	32637	32674	31909	32767	32775	32549	32839	
1798	0	32775	32679	32819	32247	32695	32654	32820	32875	
1799	0	32738	32711	32647	32551	32716	32631	32687	32830	
1800	0	32731	32695	32807	32903	32711	32647	32711	32847	
1801	0	32771	32731	32871	33394	32703	32642	32797	32796	
1802	0	32796	32565	32839	33583	32755	32639	32734	32743	
1803	0	32813	32729	32729	33791	32718	32714	32715	32735	
1804	0	32748	32535	32796	33796	32747	32647	32673	32719	
1805	0	32710	32747	32701	33863	32769	32743	32735	32623	
1806	0	32731	32647	32767	33591	32724	32743	32637	32605	
1807	0	32714	32749	32631	33455	32755	32738	32518	32559	
1808	0	32766	32662	32643	33313	32647	32745	32742	32617	
1809	0	32809	32838	32757	33119	32770	32765	32555	32581	
1810	0	32739	32671	32715	32822	32758	32675	32685	32555	
1811	0	32804	32695	32762	32715	32647	32596	32470	32626	
1812	0	32748	32570	32711	32635	32703	32719	32642	32647	
1813	0	32754	32671	32775	32719	32647	32721	32671	32647	
1814	0	32817	32582	32821	32676	32799	32683	32555	32671	
1815	0	32757	32743	32663	32759	32723	32747	32687	32644	
1816	0	32780	32594	32762	32807	32623	32751	32620	32543	
1817	0	32799	32671	32756	32811	32794	32775	32542	32724	
1818	0	32771	32549	32763	32831	32738	32671	32685	32706	
1819	0	32820	32620	32634	32684	32627	32646	32706	32742	
1820	0	32791	32581	32791	32767	32743	32703	32604	32765	
1821	0	32815	32735	32705	32660	32668	32731	32743	32771	
1822	0	32724	32666	32765	32634	32699	32751	32646	32721	
1823	0	32718	32611	32767	32626	32735	32735	32519	32662	
1824	0	32706	32662	32831	32621	32729	32721	32607	32847	
1825	0	32793	32587	32647	32551	32639	32775	32519	32821	
1826	0	32766	32715	32773	32599	32751	32735	32687	32614	
1827	0	32763	32658	32773	32585	32797	32727	32556	32541	
1828	0	32795	32583	32775	32542	32815	32742	32683	32775	
1829	0	32805	32711	32715	32617	32714	32745	32715	32821	
1830	0	32719	32694	32873	32645	32773	32811	32543	32863	
1831	0	32811	32645	32647	32553	32747	32747	32685	32769	
1832	0	32800	32751	32679	32619	32685	32703	32605	32743	
1833	0	32764	32639	32746	32567	32747	32815	32709	32716	
1834	0	32775	32763	32771	32539	32807	32755	32742	32731	
1835	0	32826	32563	32801	32519	32709	32675	32700	32755	
1836	0	32787	32711	32775	32613	32775	32681	32658	32871	
1837	0	32712	32567	32677	32583	32757	32615	32833	32876	
1838	0	32749	32711	32867	32683	32615	32663	32702	32852	
1839	0	32743	32565	32788	32733	32701	32675	32699	32887	
1840	0	32739	32621	32813	32815	32739	32583	32869	32821	
1841	0	32805	32527	32643	32647	32733	32687	32694	32878	
1842	0	32772	32683	32761	32724	32724	32631	32647	32733	
1843	0	32750	32599	32685	32811	32799	32677	32680	32647	
1844	0	32714	32709	32804	32775	32679	32677	32647	32679	
1845	0	32742	32699	32817	32807	32756	32701	32687	32732	
1846	0	32740	32579	32647	32903	32692	32645	32711	32714	
1847	0	32704	32723	32819	32875	32679	32717	32527	32727	
1848	0	32730	32567	32717	32815	32733	32703	32647	32775	
1849	0	32768	32767	32812	32916	32771	32707	32607	32789	
1850	0	32822	32771	32647	32798	32681	32751	32705	32858	
1851	0	32773	32765	32725	32927	32751	32659	32613	32804	
1852	0	32807	32751	32601	32803	32745	32695	32483	32847	
1853	0	32820	32734	32699	32685	32677	32715	32711	32851	
1854	0	32747	32748	32583	32703	32756	32830	32739	32863	
1855	0	32708	32623	32661	32598	32794	32701	32519	32703	
1856	0	32758	32639	32787	32623	32667	32647	32679	32566	
1857	0	32764	32501	32765	32655	32758	32614	32645	32597	
1858	0	32762	32675	32867	32583	32769	32685	32562	32606	
1859	0	32759	32533	32751	32724	32695	32710	32743	32566	
1860	0	32761	32638	32924	32694	32707	32775	32647	32619	
1861	0	32769	32578	32855	32635	32775	32748	32615	32700	
1862	0	32738	32733	32879	32763	32707	32783	32725	32659	
1863	0	32756	32718	32775	32879	32804	32699	32695	32770	
1864	0	32794	32543	32675	32855	32775	32676	32807	32993	
1865	0	32747	32665	32775	32927	32687	32695	32758	32999	
1866	0	32743	32615	32647	32871	32742	32721	32743	32831	
1867	0	32763	32749	32702	32839	32709	32647	32627	32791	
1868	0	32732	32795	32674	32898	32723	32711	32639	32775	
1869	0	32742	32644	32551	32827	32706	32721	32525	32902	
1870	0	32766	32706	32751	32855	32677	32679	32690	32903	
1871	0	32756	32551	32775	32839	32823	32658	32793	33039	
1872	0	32757	32733	32815	32834	32757	32647	32715	32773	
1873	0	32740	32775	32763	32847	32709	32709	32725	32583	
1874	0	32775	32831	32694	32799	32761	32718	32659	32583	
1875	0	32734	32757	32863	32733	32719	32711	32543	32571	
1876	0	32795	32539	32688	32759	32671	32795	32584	32621	
1877	0	32773	32743	32763	32607	32738	32813	32637	32647	
1878	0	32726	32745	32807	32418	32727	32763	32795	32724	
1879	0	32752	32571	32711	32274	32759	32834	32711	32749	
1880	0	32720	32772	32823	32375	32703	32693	32723	32723	
1881	0	32785	32703	32663	32487	32736	32518	32735	32826	
1882	0	32761	32519	32851	32612	32751	32674	32546	32798	
1883	0	32759	32679	32780	32763	32587	32685	32671	32689	
1884	0	32759	32635	32743	32990	32669	32635	32685	32668	
1885	0	32865	32627	32795	33025	32702	32727	32548	32612	
1886	0	32839	32720	32807	33071	32679	32663	32647	32775	
1887	0	32775	32674	32655	33083	32743	32669	32523	32823	
1888	0	32815	32694	32666	32869	32797	32787	32683	32807	
1889	0	32781	32707	32811	32628	32722	32723	32644	32763	
1890	0	32786	32543	32805	32499	32695	32690	32495	32827	
1891	0	32821	32645	32765	32405	32658	32719	32681	32773	
1892	0	32756	32709	32832	32391	32775	32708	32711	32903	
1893	0	32731	32590	32821	32597	32735	32735	32775	32807	
1894	0	32780	32734	32621	32763	32667	32850	32698	32839	
1895	0	32733	32677	32606	32839	32803	32797	32655	32715	
1896	0	32775	32761	32679	32759	32747	32823	32581	32602	
1897	0	32751	32724	32663	32831	32685	32822	32623	32731	
1898	0	32722	32535	32679	32772	32647	32731	32634	32719	
1899	0	32734	32726	32702	32788	32749	32815	32879	32623	
1900	0	32714	32739	32715	32783	32761	32747	32842	32383	
1901	0	32718	32640	32657	32834	32694	32719	32561	32039	
1902	0	32775	32683	32775	32875	32757	32807	32631	32047	
1903	0	32729	32631	32850	33052	32738	32724	32647	32407	
1904	0	32712	32631	32900	32949	32757	32699	32543	32727	
1905	0	32773	32599	32845	32805	32647	32647	32629	32695	
1906	0	32772	32615	32740	32861	32789	32605	32609	32743	
1907	0	32764	32765	32794	32799	32751	32675	32669	32938	
1908	0	32819	32773	32711	32663	32605	32719	32551	33315	
1909	0	32822	32511	32723	32620	32702	32645	32577	33197	
1910	0	32847	32743	32661	32691	32775	32691	32743	33524	
1911	0	32763	32735	32757	32817	32790	32625	32703	33350	
1912	0	32743	32583	32887	32752	32702	32523	32807	32786	
1913	0	32736	32762	32881	32671	32727	32719	32655	32584	
1914	0	32755	32711	32775	32883	32759	32876	32573	32709	
1915	0	32844	32564	32786	32935	32750	32916	32591	32298	
1916	0	32854	32757	32772	32954	32711	32847	32493	32300	
1917	0	32773	32629	32742	33169	32763	32997	32643	31916	
1918	0	32799	32738	32551	33095	32755	32887	32564	32237	
1919	0	32703	32683	32553	32815	32754	32887	32543	32735	
1920	0	32738	32615	32578	32429	32703	32674	32563	33172	
1921	0	32735	32685	32681	31940	32679	32580	32486	33323	
1922	0	32681	32694	32684	31279	32727	32579	32619	33031	
1923	0	32715	32623	32615	31149	32716	32565	32629	32635	
1924	0	32760	32639	32783	31329	32639	32559	32525	32711	
1925	0	32734	32527	32815	31893	32673	32607	32705	32871	
1926	0	32741	32519	32811	32118	32775	32667	32759	32950	
1927	0	32681	32621	32837	32075	32727	32668	32802	32871	
1928	0	32815	32625	32935	32223	32734	32757	32799	32955	
1929	0	32764	32456	32917	32368	32787	32829	32916	33061	
1930	0	32751	32692	32941	32775	32755	32877	32976	33207	
1931	0	32791	32709	32823	33504	32868	32663	32999	33071	
1932	0	32746	32661	32639	34333	32766	32657	32775	32569	
1933	0	32701	32643	32886	35170	32725	32711	32659	32791	
1934	0	32726	32553	32771	34914	32883	32743	32817	32766	
1935	0	32753	32711	32821	34949	32763	32431	32595	32319	
1936	0	32809	32683	32954	34951	32787	32564	32687	33019	
1937	0	32899	32863	32790	34981	32743	32810	32503	32842	
1938	0	32910	32943	32859	34887	32662	32388	32375	32376	
1939	0	32876	32761	32655	34378	32773	31977	32454	32595	
1940	0	32711	32903	32479	33533	32683	31991	32629	32975	
1941	0	32636	32955	32743	32482	32541	32379	32605	32295	
1942	0	32620	32959	32714	31791	32713	33093	32832	32663	
1943	0	32684	32967	32673	31650	32711	33551	32933	33108	
1944	0	32647	32913	32733	31606	32751	33475	32647	32763	
1945	0	32762	32887	32623	31839	32833	32918	32663	32587	
1946	0	32810	32741	32447	32157	32825	32351	32493	32519	
1947	0	32773	32685	32575	32361	32769	32763	32645	32631	
1948	0	32807	32487	32669	32543	32743	33051	32695	32783	
1949	0	32891	32590	32595	32676	32647	33247	32571	33229	
1950	0	32743	32720	32559	32773	32707	32989	32767	33159	
1951	0	32850	32669	32518	32887	32749	32671	32709	32887	
1952	0	32922	32715	32738	32991	32701	32679	32503	32551	
1953	0	32895	32569	32805	33187	32749	32391	32703	32617	
1954	0	32823	32731	32599	32983	32717	32214	32575	32739	
1955	0	32730	32635	32577	32741	32739	32343	32493	32815	
1956	0	32662	32615	32603	32598	32509	32771	32519	32598	
1957	0	32610	32679	32557	31994	32655	32821	32514	32579	
1958	0	32643	32508	32566	31817	32685	32721	32615	32957	
1959	0	32725	32655	32631	31887	32637	32714	32731	33263	
1960	0	32775	32703	32699	31951	32677	32675	32724	33126	
1961	0	32839	32549	33022	32019	32791	32692	32839	32695	
1962	0	32722	32768	33333	32175	32811	32562	32772	32575	
1963	0	32567	32754	33483	32391	32684	32586	32831	32354	
1964	0	32639	32602	33119	32572	32799	32683	32710	32397	
1965	0	32690	32647	33037	32589	32701	32903	32602	32486	
1966	0	32694	32599	33021	32583	32814	32891	32734	32791	
1967	0	32817	32591	33065	32631	32726	32733	32719	32783	
1968	0	33106	32702	33006	32687	32843	32679	32702	32715	
1969	0	33000	32790	32673	32767	32742	32326	32807	33077	
1970	0	32890	32647	32359	32879	32775	32351	32866	33313	
1971	0	32843	32658	32354	32898	32775	32659	32683	33107	
1972	0	32718	32598	32303	33039	32815	32743	32476	32709	
1973	0	32682	32741	32195	33097	32647	32859	32671	32737	
1974	0	32741	32751	32445	33181	32617	32900	32689	32685	
1975	0	32658	32535	32527	33106	32647	32775	32598	32303	
1976	0	32679	32719	32353	33004	32691	32822	32591	31943	
1977	0	32669	32775	32563	33023	32775	32794	32463	32043	
1978	0	32775	32611	32679	32767	32717	32667	32642	32487	
1979	0	32756	32771	32775	32533	32754	32639	32692	32701	
1980	0	32722	32772	32811	32375	32661	32615	32588	32719	
1981	0	32762	32557	32801	32405	32717	32611	32667	32775	
1982	0	32786	32669	32797	32435	32621	32727	32497	32839	
1983	0	32745	32667	32869	32518	32739	32679	32486	32850	
1984	0	32759	32757	32882	32687	32667	32775	32342	32647	
1985	0	32732	32647	32695	32773	32719	32687	32511	32556	
1986	0	32708	32733	32877	32799	32631	32695	32484	32623	
1987	0	32699	32591	32855	32866	32671	32775	32455	32671	
1988	0	32765	32703	32635	33007	32716	32743	32482	32647	
1989	0	32747	32719	32690	32893	32623	32727	32324	32801	
1990	0	32775	32679	32470	32895	32749	32647	32167	32725	
1991	0	32743	32743	32555	32903	32751	32684	32303	32749	
1992	0	32726	32531	32573	32871	32690	32759	32279	32819	
1993	0	32762	32715	32519	32791	32741	32679	32495	32807	
1994	0	32829	32771	32919	32713	32754	32681	32727	32799	
1995	0	32750	32623	33067	32687	32621	32743	32935	32841	
1996	0	32775	32663	32993	32769	32733	32757	33231	32854	
1997	0	32747	32508	32811	32727	32823	32679	33301	32903	
1998	0	32770	32659	32903	32690	32807	32662	32925	32933	
1999	0	32756	32535	32766	32647	32757	32687	32990	32797	
2000	0	32724	32679	32831	32661	32671	32759	32903	32807	
2001	0	32775	32695	33095	32715	32735	32747	32669	32647	
2002	0	32809	32583	33047	32747	32818	32687	33095	32883	
2003	0	32855	32701	32772	32683	32835	32695	33245	32858	
2004	0	32711	32775	32751	32734	32583	32718	33047	32671	
2005	0	32715	32669	32655	32710	32719	32742	32853	32739	
2006	0	32748	32703	32679	32711	32767	32739	32647	32772	
2007	0	32811	32663	32731	32754	32837	32782	32690	32854	
2008	0	32738	32711	32719	32808	32643	32751	32903	32959	
2009	0	32742	32719	32589	32759	32607	32767	32590	33287	
2010	0	32783	32575	32701	32743	32647	32773	32719	33901	
2011	0	32703	32711	32671	32765	32555	32961	32990	33967	
2012	0	32704	32621	32775	32699	32743	32732	32876	33623	
2013	0	32681	32647	32783	32701	32808	32811	32699	32263	
2014	0	32730	32725	32698	32733	32669	32757	32263	31963	
2015	0	32834	32748	32767	32669	32713	32635	32179	32230	
2016	0	32826	32642	32882	32679	32769	32587	32323	32465	
2017	0	32816	32625	32903	32695	32703	32549	32871	32655	
2018	0	32786	32715	32988	32802	32656	32583	32943	32755	
2019	0	32815	32534	32875	32795	32699	32627	32690	32413	
2020	0	32837	32791	32900	32759	32803	32647	32275	32082	
2021	0	32811	32757	32858	32797	32927	32711	31943	32147	
2022	0	32784	32547	32619	32794	32647	32869	32151	32303	
2023	0	32748	32716	32487	32738	32717	32716	32233	32187	
2024	0	32733	32807	32621	32783	32766	32775	32525	32277	
2025	0	32751	32594	32727	32815	32718	32871	32659	32219	
2026	0	32733	32647	32679	32755	32683	33095	32964	32055	
2027	0	32731	32743	32738	32802	32636	33071	32932	32386	
2028	0	32745	32676	32807	32815	32591	32818	32804	33180	
2029	0	32794	32735	32876	32756	32581	32867	32830	33259	
2030	0	32826	32647	32671	32739	32605	32901	32871	33175	
2031	0	32845	32742	32675	32687	32773	32793	32690	32899	
2032	0	32830	32705	32798	32805	32807	32683	32466	32839	
2033	0	32701	32512	32685	32852	32910	32471	32380	32871	
2034	0	32726	32710	32775	32875	32643	32503	32454	32762	
2035	0	32733	32775	32806	32807	32797	32380	32495	32679	
2036	0	32732	32493	32771	32773	32743	32615	32807	32859	
2037	0	32743	32695	32647	32726	32951	32647	32743	32858	
2038	0	32738	32698	32627	32863	32795	32841	32511	32869	
2039	0	32772	32533	32707	32853	32862	32765	32583	32845	
2040	0	32773	32756	32738	32829	32797	32677	32571	32809	
2041	0	32700	32751	32751	32823	32775	32694	32595	32759	
2042	0	32732	32633	32647	32775	32789	32703	32686	32683	
2043	0	32829	32723	32663	32740	32639	32761	32581	32783	
2044	0	32786	32772	32659	32754	32691	32713	32633	32925	
2045	0	32796	32595	32703	32763	32754	32663	32553	32935	
2046	0	32738	32775	32775	32766	32717	32711	32838	32935	
2047	0	32807	32790	32823	32719	32714	32773	32809	32867	
2048	0	32811	32807	32559	32837	32711	32679	32609	32858	
2049	0	32809	32807	32711	32762	32663	32691	32919	32722	
2050	0	32835	32569	32645	32695	32614	32667	32967	32591	
2051	0	32886	32775	32671	32847	32733	32615	32959	32619	
2052	0	32831	32682	32799	32818	32722	32691	32802	32833	
2053	0	32926	32758	32749	32767	32603	32703	32643	32863	
2054	0	32855	32731	32663	32789	32711	32734	32636	32839	
2055	0	32868	32638	32647	32727	32765	32766	32783	32903	
2056	0	32911	32703	32708	32747	32743	32743	32615	32767	
2057	0	32912	32761	32743	32679	32625	32670	32597	32742	
2058	0	32920	32611	32843	32775	32719	32834	32510	32770	
2059	0	32838	32759	32775	32757	32681	32788	32505	32883	
2060	0	32867	32735	32826	32677	32791	32815	32647	32868	
2061	0	32804	32531	32925	32679	32671	32829	32531	32785	
2062	0	32759	32647	32903	32695	32787	32852	32725	32764	
2063	0	32827	32582	32940	32667	32839	32815	32739	32853	
2064	0	32727	32637	32859	32647	32791	32807	32578	32786	
2065	0	32748	32636	33056	32655	32863	32805	32681	32687	
2066	0	32704	32635	32859	32647	32863	32887	32527	32591	
2067	0	32655	32662	32936	32695	32678	32831	32441	32639	
2068	0	32646	32647	32846	32743	32820	32727	32455	32583	
2069	0	32647	32711	32929	32747	32767	32717	32635	32694	
2070	0	32615	32637	32975	32699	32870	32679	32855	32711	
2071	0	32628	32581	32975	32743	32891	32806	32848	32695	
2072	0	32622	32597	33071	32714	32811	32897	33095	32675	
2073	0	32527	32613	32926	32670	32821	32823	32991	32727	
2074	0	32487	32365	33134	32719	32830	32811	32775	32775	
2075	0	32550	32591	32922	32606	32804	32807	32621	32685	
2076	0	32524	32501	33142	32675	32903	32770	32657	32822	
2077	0	32549	32525	33155	32717	32983	32833	32743	32727	
2078	0	32548	32535	32981	32551	33139	32861	32604	32663	
2079	0	32594	32303	33058	32613	32894	32863	32662	32639	
2080	0	32603	32577	33055	32598	33028	32903	32711	32495	
2081	0	32602	32583	32935	32629	32939	32874	32635	32607	
2082	0	32615	32455	32831	32603	32791	32962	32738	32671	
2083	0	32607	32559	32804	32711	32827	32899	32642	32539	
2084	0	32562	32662	32607	32775	32771	32970	32483	32509	
2085	0	32501	32647	32431	32798	32739	32540	32351	32491	
2086	0	32483	32711	32293	32987	32581	32399	32060	32427	
2087	0	32431	32677	32171	32951	32519	32301	31767	32539	
2088	0	32516	32839	31929	33014	32429	32403	31829	32515	
2089	0	32517	32732	32047	33037	32483	32391	31879	32621	
2090	0	32466	32969	31999	33005	32391	32352	31935	32607	
2091	0	32605	32747	31878	33015	32295	32431	32220	32719	
2092	0	32640	32903	32023	32987	32339	32455	32246	32775	
2093	0	32579	32847	32104	33037	32343	32493	32413	32823	
2094	0	32587	32955	32155	32935	32338	32543	32463	32819	
2095	0	32647	32903	32097	32875	32407	32639	32295	32739	
2096	0	32678	32902	32239	32867	32371	32543	32567	32807	
2097	0	32638	32741	32297	32791	32471	32588	32498	32802	
2098	0	32693	32727	32459	32870	32428	32631	32491	32807	
2099	0	32658	32711	32570	32831	32463	32635	32755	32829	
2100	0	32775	32754	32551	32769	32663	32684	32845	32822	
2101	0	32854	32804	32669	32775	32705	32683	32726	32788	
2102	0	32839	32759	32925	32719	32741	32713	32986	32751	
2103	0	32871	32534	32855	32731	32793	32751	32911	32820	
2104	0	32848	32742	32867	32771	32775	32751	32881	32843	
2105	0	32802	32769	32948	32787	32811	32765	32799	32829	
2106	0	32733	32635	32878	32660	32725	32740	32538	32831	
2107	0	32673	32664	32775	32706	32726	32854	32819	32807	
2108	0	32708	32474	32948	32759	32669	32759	32839	32781	
2109	0	32727	32723	32797	32730	32745	32726	32679	32852	
2110	0	32813	32691	32853	32766	32789	32647	32903	33003	
2111	0	32948	32763	32941	32723	32727	32669	32901	33106	
2112	0	33005	32866	32891	32663	32775	32658	32839	33095	
2113	0	33065	32611	32975	32671	32769	32639	33029	33031	
2114	0	33164	32675	32892	32615	32718	32663	33069	32999	
2115	0	33190	32532	32953	32647	32739	32759	32887	33034	
2116	0	33188	32670	32791	32595	32759	32732	32943	33026	
2117	0	33191	32495	32967	32617	32631	32796	32991	32863	
2118	0	33193	32705	32929	32643	32737	32733	32818	32903	
2119	0	33170	32599	32981	32559	32700	32775	32950	32918	
2120	0	33176	32734	32813	32717	32716	32775	32895	32871	
2121	0	33239	32711	32796	32607	32829	32773	32767	32855	
2122	0	33179	32531	32987	32578	32859	32790	32914	32860	
2123	0	33142	32759	33003	32633	32745	32758	32895	33027	
2124	0	33124	32747	32951	32615	32903	32775	33052	33069	
2125	0	33127	32551	32996	32559	32917	32903	33082	32963	
2126	0	33102	32831	32950	32604	32767	32897	32948	32999	
2127	0	33095	32835	32894	32742	32747	32852	32999	32867	
2128	0	33012	32698	32895	32703	32855	32879	32933	32738	
2129	0	32940	32813	32757	32667	32893	32823	32877	32717	
2130	0	32901	32739	32823	32759	32734	32714	32794	32738	
2131	0	32841	32731	32827	32695	32759	32695	32735	32646	
2132	0	32868	32731	32819	32715	32801	32695	32839	32791	
2133	0	32831	32603	32878	32759	32743	32673	32647	32706	
2134	0	32793	32738	32846	32671	32815	32642	32643	32599	
2135	0	32775	32549	32791	32711	32717	32795	32526	32557	
2136	0	32782	32679	32741	32654	32765	32775	32839	32535	
2137	0	32727	32551	32821	32775	32735	32775	32663	32555	
2138	0	32679	32666	32851	32765	32772	32757	32493	32539	
2139	0	32642	32537	32764	32686	32738	32769	32603	32671	
2140	0	32679	32723	32722	32764	32702	32622	32511	32612	
2141	0	32695	32683	32725	32743	32613	32732	32342	32607	
2142	0	32676	32511	32770	32743	32771	32635	32454	32659	
2143	0	32636	32679	32739	32823	32815	32687	32418	32582	
2144	0	32623	32598	32647	32715	32689	32623	32359	32589	
2145	0	32687	32709	32628	32789	32707	32733	32323	32690	
2146	0	32599	32594	32732	32724	32633	32706	32551	32773	
2147	0	32580	32723	32698	32795	32765	32685	32556	32715	
