# OpenSignals Text File Format
# {"00:07:80:64:6D:DA": {"sensor": ["CUSTOM/0.5/1.0/V", "CUSTOM/0.5/1.0/V", "CUSTOM/0.5/1.0/V", "CUSTOM/0.5/1.0/V"], "device name": "Plataforma", "column": ["nSeq", "DI", "CH1", "CH2", "CH3", "CH4"], "sync interval": 2, "time": "10:52:23.855", "comments": "", "device connection": "BTH00:07:80:64:6D:DA", "channels": [1, 2, 3, 4], "date": "2017-6-2", "mode": 0, "digital IO": [0, 1], "firmware version": 772, "device": "biosignalsplux", "position": 0, "sampling rate": 1000, "label": ["CH1", "CH2", "CH3", "CH4"], "resolution": [16, 16, 16, 16], "special": [{}, {}, {}, {}]}, "00:07:80:3B:46:38": {"sensor": ["CUSTOM/0.5/1.0/V", "CUSTOM/0.5/1.0/V", "CUSTOM/0.5/1.0/V", "CUSTOM/0.5/1.0/V", "CUSTOM/0.5/1.0/V", "CUSTOM/0.5/1.0/V", "CUSTOM/0.5/1.0/V", "CUSTOM/0.5/1.0/V"], "device name": "EMGs", "column": ["nSeq", "DI", "RA_L", "RA_R", "OE_L", "OE:R", "IL_L", "IL_R", "MF_L", "MF_R"], "sync interval": 2, "time": "10:52:23.855", "comments": "", "device connection": "BTH00:07:80:3B:46:38", "channels": [1, 2, 3, 4, 5, 6, 7, 8], "date": "2017-6-2", "mode": 0, "digital IO": [0, 1], "firmware version": 772, "device": "biosignalsplux", "position": 1, "sampling rate": 1000, "label": ["RA_L", "RA_R", "OE_L", "OE:R", "IL_L", "IL_R", "MF_L", "MF_R"], "resolution": [16, 16, 16, 16, 16, 16, 16, 16], "special": [{}, {}, {}, {}, {}, {}, {}, {}]}}
# EndOfHeader
429	0	106	1241	28	1978	0	0	32973	32446	32751	31886	32555	32997	32933	31906	
430	0	157	1273	28	1955	1	0	33104	32543	32984	32447	32379	33471	32662	32180	
431	0	135	1234	28	1940	2	0	33087	32812	33363	32762	32470	33343	32835	32423	
432	0	122	1232	29	1961	3	0	33015	32628	34079	32706	32301	33505	32823	31997	
433	0	118	1235	29	1980	4	0	32967	32820	34113	32676	32369	33519	32765	32131	
434	0	132	1237	28	1982	5	0	32951	32924	34139	32943	32498	33007	32566	32595	
435	0	132	1244	28	1956	6	0	33276	32869	34172	32924	32619	32703	32594	33063	
436	0	117	1195	29	1987	7	0	33479	32871	34029	33207	32541	32263	32525	33753	
437	0	64	1252	29	2010	8	0	33154	33071	33524	33413	32353	31483	32367	34015	
438	0	121	1232	29	1927	9	0	32622	33223	33123	33676	32367	31279	32013	34231	
439	0	122	1252	29	1993	10	0	32357	33119	33159	33607	32660	31203	32263	34217	
440	0	151	1219	29	1945	11	0	32402	33053	33046	33449	33122	31287	32670	33637	
441	0	154	1277	28	1964	12	0	32554	32933	32543	33071	33585	31927	32927	33436	
442	0	125	1222	29	1982	13	0	33166	32623	32573	32689	33615	32758	33223	33407	
443	0	136	1213	30	1962	14	0	33145	32481	32306	32295	33271	32860	33047	33129	
444	0	158	1239	27	1975	15	0	32844	32567	32277	31983	32911	32902	32929	32711	
445	0	101	1251	29	2026	16	0	32543	32684	32611	31977	32583	32962	32769	32413	
446	0	142	1258	28	1973	17	0	31879	32703	32580	32199	32529	32967	32839	32295	
447	0	125	1254	28	2006	18	0	31735	32612	32692	32335	32229	33307	32809	32466	
448	0	119	1270	29	1944	19	0	31991	32711	32708	32628	32339	33526	32698	32545	
449	0	139	1266	28	1987	20	0	32473	32685	32371	32899	32533	33511	32711	32519	
450	0	151	1276	27	1962	21	0	32900	32629	32031	32879	32589	33220	32549	32479	
451	0	99	1224	27	1966	22	0	33127	32501	31905	32837	32423	33070	32471	32401	
452	0	157	1155	29	1917	23	0	33264	32383	31679	32699	32396	32993	32439	32155	
453	0	131	1267	30	1979	24	0	33209	32341	31663	32671	32348	32775	32749	32107	
454	0	89	1212	28	1954	25	0	33133	32460	31660	32567	32531	32681	32983	32109	
455	0	129	1202	28	1976	26	0	32799	32615	31671	32775	32547	32519	32958	32227	
456	0	111	1239	29	1954	27	0	32399	32821	31871	32873	32732	32703	32935	32447	
457	0	102	1248	28	1971	28	0	32252	32847	32135	33018	32901	32465	32613	32461	
458	0	116	1220	27	2000	29	0	32233	32895	32329	32875	32626	32463	32451	32583	
459	0	133	1235	29	2014	30	0	32564	32775	32745	32867	32387	32988	32431	32951	
460	0	156	1192	28	1998	31	0	32996	32621	33239	32727	32370	33823	32757	33439	
461	0	121	1241	28	1961	32	0	33375	32429	33531	32663	32463	34043	32983	33623	
462	0	126	1221	28	1986	33	0	33483	32239	33827	32485	32796	33767	33190	33463	
463	0	155	1210	29	1960	34	0	32720	32598	33242	32673	32733	32613	32719	33147	
464	0	105	1219	29	1948	35	0	32065	33159	32724	32887	33086	32073	32423	32762	
465	0	80	1165	29	1983	36	0	31991	33390	32703	33133	33479	31922	32509	32711	
466	0	144	1246	29	1966	37	0	32432	33053	32994	33171	33303	32287	32687	32513	
467	0	118	1259	28	2015	38	0	32887	33087	33099	33174	32883	33077	32759	32407	
468	0	82	1228	29	1944	39	0	32999	32791	32836	33222	32246	33287	32699	32471	
469	0	131	1311	29	1980	40	0	33052	32734	32935	32927	32045	33343	32564	32543	
470	0	141	1234	29	1948	41	0	32735	32668	32971	32911	32425	32938	32642	32801	
471	0	115	1244	29	1958	42	0	32625	32898	32903	32978	32547	32455	32743	33113	
472	0	135	1242	28	1969	43	0	32529	32925	32895	32892	32967	32133	32831	33004	
473	0	118	1204	28	1955	44	0	32519	33087	32806	32838	33043	32091	32879	32769	
474	0	104	1247	30	1986	45	0	32793	32875	32955	32767	32621	32223	32725	32582	
475	0	104	1288	29	1988	46	0	32982	32687	32989	32866	32523	32669	32694	32623	
476	0	122	1237	28	1966	47	0	33203	32611	33261	32873	32356	33755	32584	32627	
477	0	137	1206	29	1973	48	0	33102	32787	33543	32963	32582	33701	32687	32671	
478	0	134	1245	28	1976	49	0	33071	32423	33989	32871	32564	33324	32619	32839	
479	0	124	1243	29	1956	50	0	33215	32675	34077	32643	32445	33107	32615	32669	
480	0	184	1261	28	2002	51	0	33349	32607	34130	32419	32423	33082	32790	32513	
481	0	105	1229	29	1966	52	0	33383	32356	33777	31983	32727	32932	33065	32763	
482	0	90	1251	29	1972	53	0	32884	32764	33143	32119	32479	32684	33013	32713	
483	0	117	1248	29	1963	54	0	32167	32775	32287	32483	32528	32135	32635	32595	
484	0	149	1261	28	1970	55	0	31484	33174	31179	32903	32700	31863	32284	32726	
485	0	126	1209	30	1978	56	0	31732	32802	31213	32814	32967	32213	32170	32832	
486	0	145	1203	28	1947	57	0	32372	32807	31599	32477	32876	32659	32407	32939	
487	0	125	1231	29	1999	58	0	32199	32791	31695	32540	32575	32796	32700	32660	
488	0	132	1206	29	1974	59	0	32152	32875	31731	32455	32483	33038	32573	32847	
489	0	125	1251	29	1962	60	0	32462	32100	31718	32421	32286	33303	32594	33143	
490	0	112	1221	29	1952	61	0	32765	32335	31682	32295	32834	33381	32807	33063	
491	0	136	1250	28	1974	62	0	32675	32350	31673	32434	32929	33350	32583	33159	
492	0	90	1235	29	1996	63	0	32126	32799	31375	32685	32850	32647	32327	33065	
493	0	123	1217	28	1938	64	0	31922	32756	31181	32943	32892	32516	32159	33146	
494	0	87	1258	28	1974	65	0	32414	32551	31309	32607	32887	32477	32351	32903	
495	0	123	1258	29	1956	66	0	32774	32383	31941	32437	32901	32381	32350	32818	
496	0	131	1294	28	1968	67	0	33060	32341	32346	32447	32767	32563	32540	32572	
497	0	119	1224	29	1997	68	0	33456	32243	32796	32389	32375	32639	32667	32447	
498	0	133	1262	27	1997	69	0	33619	32164	33283	32369	32479	32661	32719	32583	
499	0	133	1200	29	1988	70	0	33445	32391	33398	32621	32575	32787	32718	32759	
500	0	103	1220	29	1994	71	0	33172	32470	33311	32773	32447	32671	32829	32551	
501	0	115	1198	28	1996	72	0	33078	32815	33215	32939	32717	32529	32931	32507	
502	0	91	1261	28	2011	73	0	32850	32951	33190	32849	32623	32715	33126	32492	
503	0	100	1250	28	1993	74	0	32662	33058	33069	32803	32663	32819	32918	32773	
504	0	142	1275	29	1925	75	0	32635	33066	32989	32775	32423	32687	33063	32565	
505	0	143	1209	28	1984	76	0	32681	32799	33037	32775	32516	32939	33155	32439	
506	0	87	1220	28	1953	77	0	32655	32935	33100	32965	32455	32692	32987	32438	
507	0	147	1236	29	1959	78	0	32684	32855	32873	33151	32511	32069	32823	32301	
508	0	144	1213	29	1981	79	0	32732	33223	32827	33415	32775	31909	32863	32222	
509	0	114	1234	28	1968	80	0	33126	32855	33053	33406	32599	32336	32993	32370	
510	0	82	1261	29	1976	81	0	33524	32903	33135	33375	32771	32781	33274	32217	
511	0	164	1249	29	1973	82	0	33986	32473	33718	33007	32899	33658	34034	32310	
512	0	140	1255	29	1956	83	0	34582	32263	34301	32567	33059	34461	34485	32631	
513	0	129	1244	28	1974	84	0	33983	32437	33911	32679	33181	34099	34067	33095	
514	0	170	1252	29	1979	85	0	32981	33190	33330	33146	33111	33063	33445	33135	
515	0	155	1234	29	1963	86	0	32217	33293	32556	33447	33483	32287	32903	33167	
516	0	126	1246	29	1941	87	0	31943	33494	32117	33370	33279	32003	32359	33116	
517	0	112	1250	30	1952	88	0	32535	32997	32357	33133	33199	32367	32647	33135	
518	0	125	1235	29	1999	89	0	32871	33046	32679	32959	33234	32687	32877	33181	
519	0	138	1266	29	1948	90	0	32808	32755	32463	32871	32675	32647	32501	33071	
520	0	106	1201	29	1983	91	0	32668	33079	32131	33041	32486	32219	32293	32719	
521	0	131	1274	28	1946	92	0	32583	32983	32230	33117	32461	31867	32132	32438	
522	0	118	1213	29	1946	93	0	32705	32775	32295	32949	32515	31761	32180	32327	
523	0	119	1259	29	1968	94	0	32775	32743	32437	32529	32262	32303	32471	32270	
524	0	106	1238	29	1948	95	0	32967	32497	32557	32322	32274	32835	32684	32437	
525	0	87	1259	30	1980	96	0	33308	32324	33124	31933	32581	33383	32797	33120	
526	0	146	1239	29	1944	97	0	33415	32074	33287	31822	32340	33775	32479	33367	
527	0	128	1198	29	1983	98	0	33011	32535	33018	32134	32713	33911	32469	33463	
528	0	63	1253	28	1972	99	0	32181	32891	32159	32647	33091	33261	32637	32995	
529	0	112	1205	29	1991	100	0	31814	33279	31730	33023	32947	32894	32511	32613	
530	0	147	1185	28	1989	101	0	31895	33103	31852	32902	33055	32791	32487	32677	
531	0	109	1216	29	1970	102	0	32096	33325	32147	33149	32914	32361	32439	33007	
532	0	98	1237	29	1944	103	0	32445	32965	32291	33119	32647	32595	32271	32839	
533	0	97	1220	29	1961	104	0	32764	32831	32640	32789	32559	32967	32413	32700	
534	0	118	1216	29	1947	105	0	32773	32471	32895	32611	32411	33043	32423	32679	
535	0	162	1227	30	1961	106	0	33028	32706	32933	32615	32327	32963	32319	32813	
536	0	90	1224	29	1935	107	0	33225	32531	33056	32659	31919	32858	32543	33028	
537	0	149	1236	30	1943	108	0	33307	32615	32987	32615	31924	32679	32442	32978	
538	0	114	1206	28	1950	109	0	32875	32751	32818	32694	32327	32179	32643	32834	
539	0	139	1212	28	1955	110	0	32650	32543	32716	32669	32703	32086	32813	32739	
540	0	116	1265	27	1955	111	0	32711	32543	32805	32499	32494	32447	32851	32731	
541	0	156	1239	27	1932	112	0	32736	32546	32319	32941	32799	32903	32919	32784	
542	0	104	1269	29	2015	113	0	32647	32751	32203	33063	32863	33319	32887	32755	
543	0	114	1279	30	1950	114	0	32732	32711	32245	32941	32854	33391	32943	32727	
544	0	92	1233	30	1987	115	0	32642	32855	32111	32775	32847	33147	32890	32551	
545	0	154	1251	28	1978	116	0	32409	32821	31835	32815	32827	32519	32885	32357	
546	0	130	1245	29	1984	117	0	32660	32642	32041	32415	32578	32693	32594	32230	
547	0	96	1234	29	1957	118	0	32827	32551	32191	32229	32671	33229	32604	32146	
548	0	112	1215	29	1987	119	0	32814	32769	32423	32283	32643	33197	32869	31867	
549	0	132	1211	27	1992	120	0	32902	32898	32844	32314	32540	32971	33103	31706	
550	0	41	1221	27	1946	121	0	32848	32883	33287	32535	32613	33107	33121	32299	
551	0	94	1234	30	1922	122	0	32516	33135	33415	33039	32711	32985	32991	32323	
552	0	153	1221	29	1935	123	0	32183	33239	33266	33436	32533	32855	32687	32719	
553	0	136	1268	30	1985	124	0	32372	33159	33269	33389	32467	32974	32439	32999	
554	0	128	1210	29	1973	125	0	32726	33063	33285	33380	32443	32914	32299	33207	
555	0	103	1253	29	1977	126	0	33092	32852	33173	33319	32439	32863	32642	33507	
556	0	75	1213	30	1964	127	0	33159	32822	32891	32847	32548	32359	32815	34183	
557	0	102	1234	29	2009	128	0	33159	32603	32754	32546	32834	31583	32798	34609	
558	0	77	1233	28	1995	129	0	33049	32479	32518	32429	33281	31709	32941	34471	
559	0	109	1246	28	1989	130	0	32744	32613	31996	32551	33423	31909	32819	33846	
560	0	127	1220	28	1951	131	0	32213	32871	31533	32733	33119	32177	32551	33391	
561	0	97	1216	29	1927	132	0	31975	32998	31663	32746	33159	32471	32511	33045	
562	0	116	1249	28	1949	133	0	32044	33143	31977	32862	33119	32623	32647	32463	
563	0	139	1274	28	1995	134	0	32647	33014	32486	32809	32945	32647	32930	32308	
564	0	128	1262	30	1978	135	0	33220	32768	32930	32887	32647	32979	32791	32359	
565	0	123	1228	28	1974	136	0	33493	32493	33254	32308	32107	32883	32519	31207	
566	0	124	1160	30	1941	137	0	33342	32668	33271	32498	32411	33293	32626	30375	
567	0	63	1244	30	1950	138	0	32873	32975	32999	32809	32549	33388	32903	29319	
568	0	92	1213	28	2016	139	0	32389	33230	32638	33215	32619	33559	32757	29606	
569	0	126	1237	29	1964	140	0	32452	33293	32603	33231	32815	33813	32714	29795	
570	0	140	1209	28	2003	141	0	32630	33095	32727	33079	32799	34178	32379	30047	
571	0	119	1280	29	1934	142	0	32886	32852	32942	32669	32896	33697	31420	32151	
572	0	119	1267	30	1970	143	0	33021	32686	33189	32259	33178	32731	31821	33750	
573	0	123	1226	29	1951	144	0	33167	32431	33508	32107	32959	32278	32372	35865	
574	0	98	1258	29	1957	145	0	32868	32445	33319	32063	32607	32093	32125	38007	
575	0	119	1279	28	1974	146	0	32856	32519	33350	32068	32167	31949	32439	38667	
576	0	114	1233	29	1971	147	0	33053	32443	33318	32215	32209	32242	32461	38225	
577	0	127	1257	29	1982	148	0	33341	32451	33329	32320	32365	32455	33069	36487	
578	0	140	1266	29	1979	149	0	33151	32563	33213	32543	32471	30959	33443	34595	
579	0	114	1278	28	1960	150	0	32740	32661	32935	32855	32775	29703	33959	32943	
580	0	119	1272	29	2007	151	0	32274	32793	32699	33055	32730	29234	33751	31129	
581	0	136	1223	28	1982	152	0	31787	33420	32679	33641	32515	31255	33493	29615	
582	0	104	1203	29	1971	153	0	31900	33271	32738	33783	32049	34787	33167	29636	
583	0	83	1247	28	1979	154	0	32697	33089	32842	33695	31746	36303	32692	30902	
584	0	143	1238	30	1988	155	0	33403	32695	32940	32943	32007	35671	32640	31795	
585	0	114	1230	30	2004	156	0	33352	32427	32474	32564	32412	34427	32474	32563	
586	0	160	1213	28	1982	157	0	33052	32443	31860	32343	32578	33923	32619	33149	
587	0	127	1255	29	1973	158	0	32839	32359	31663	32371	32807	33766	32743	33397	
588	0	103	1229	29	1951	159	0	32124	32711	31207	32642	32747	33276	32420	33254	
589	0	140	1238	30	1921	160	0	31759	33143	30945	33159	33074	32685	32517	32956	
590	0	114	1240	29	1986	161	0	31963	33364	31169	33051	33174	32215	32793	32647	
591	0	129	1221	28	1955	162	0	32311	33324	31578	32764	33415	32045	32589	32571	
592	0	131	1250	28	1957	163	0	32535	33007	31730	32621	33527	32070	32701	32593	
593	0	97	1239	29	1964	164	0	32641	32957	32003	32504	33255	32262	32583	32471	
594	0	154	1195	29	1976	165	0	32682	32764	32125	32391	32701	32471	32511	32603	
595	0	116	1196	29	1950	166	0	32879	32641	32631	32475	32307	32445	32431	32679	
596	0	99	1260	28	1956	167	0	32897	32676	32741	32548	32399	32337	32530	32635	
597	0	149	1243	29	1953	168	0	32931	32541	32867	32635	32694	32373	32586	32485	
598	0	122	1244	29	1947	169	0	33346	32415	33159	32460	32359	32507	32619	32132	
599	0	118	1241	28	1973	170	0	33574	32333	33078	32386	32301	33204	32877	31803	
600	0	113	1219	29	1962	171	0	33616	32292	33143	32358	32964	33620	33081	31862	
601	0	112	1242	29	1924	172	0	33330	32475	32999	32490	32963	33267	32926	31559	
602	0	123	1245	29	1990	173	0	32932	32753	32805	32602	32678	32931	32825	31271	
603	0	90	1228	28	1993	174	0	32700	32920	32791	32541	32635	32875	32948	31727	
604	0	133	1244	28	1976	175	0	32745	32967	32662	32747	32903	33275	33107	32363	
605	0	76	1237	28	1940	176	0	32452	32948	32599	32945	32869	33333	32927	32599	
606	0	128	1224	28	1967	177	0	32237	32978	32423	32845	32847	33295	32515	33159	
607	0	107	1232	29	1965	178	0	32292	33121	32323	33095	32914	32900	32503	33119	
608	0	76	1211	30	1962	179	0	32557	33067	32487	32988	32844	32483	32551	32956	
609	0	116	1222	29	1965	180	0	32708	33108	32642	33063	32914	32474	32457	33385	
610	0	108	1265	29	1976	181	0	32766	33234	32814	33186	32945	32609	32335	33844	
611	0	95	1221	29	1969	182	0	32949	32963	32788	32970	32738	32871	32175	33939	
612	0	120	1238	28	1955	183	0	32982	32783	32719	32870	32429	32867	32389	33659	
613	0	119	1216	30	1956	184	0	32828	32869	32709	32863	32543	32702	32663	33223	
614	0	98	1209	29	2005	185	0	32867	32883	32975	32876	32839	32361	32807	32927	
615	0	120	1225	30	2015	186	0	32822	32895	33126	32887	32647	32189	32895	32893	
616	0	88	1213	29	1991	187	0	32780	32775	32903	32961	32549	32143	32767	33071	
617	0	104	1237	30	1977	188	0	32884	32631	32637	32839	32447	32357	32530	32957	
618	0	106	1222	29	1985	189	0	33091	32591	32439	32775	32251	32453	32349	32843	
619	0	118	1212	28	1952	190	0	33069	32589	32499	32719	31869	32565	32361	33185	
620	0	122	1191	30	1948	191	0	32925	32518	32287	32543	31822	32891	32563	33204	
621	0	94	1239	27	1972	192	0	33078	32391	32391	32401	32103	33199	32933	33263	
622	0	114	1259	29	1959	193	0	32870	32403	32362	32527	32743	33023	33309	33055	
623	0	55	1252	27	1909	194	0	32492	32647	32260	32647	33039	32775	33220	32903	
624	0	163	1253	28	1941	195	0	32242	32852	32061	32647	33471	32639	33206	32803	
625	0	122	1183	29	1969	196	0	32077	33014	31860	32467	33551	32535	33144	32495	
626	0	105	1289	27	1950	197	0	32319	33019	32163	32557	33150	32351	32799	32267	
627	0	126	1250	30	1995	198	0	32599	33047	32148	32706	32939	32286	32611	32236	
628	0	117	1221	28	1973	199	0	32822	32821	32285	32439	32391	32372	32359	32101	
629	0	116	1203	29	1952	200	0	32769	32479	32367	32517	32215	32584	32475	32259	
630	0	104	1207	31	1948	201	0	32613	32419	32555	32671	32122	32963	32679	32532	
631	0	123	1258	28	1963	202	0	32719	32503	32260	32940	32361	32815	32455	32513	
632	0	103	1252	29	1964	203	0	33011	32335	32420	32965	32327	32933	32527	32460	
633	0	85	1224	29	1957	204	0	33241	32341	32630	32879	32568	33601	32766	32576	
634	0	129	1223	29	1985	205	0	32845	32519	32539	33067	32967	34071	33127	32775	
635	0	73	1260	29	1966	206	0	32591	32655	32335	33031	33175	33604	32934	32671	
636	0	98	1226	28	1943	207	0	32604	32941	32339	32903	33186	33013	32945	32339	
637	0	91	1236	29	1946	208	0	32548	32979	32071	32770	33023	32620	32853	32359	
638	0	106	1237	27	1985	209	0	32428	33287	31933	32967	32992	32190	32795	32467	
639	0	86	1205	29	1977	210	0	32477	33425	32022	33109	32712	32162	32635	32485	
640	0	143	1246	30	2020	211	0	32602	32951	32454	32845	32619	32615	32595	32391	
641	0	115	1217	28	1958	212	0	32799	32684	32671	32374	32407	33055	32593	32135	
642	0	123	1237	29	1938	213	0	33104	32180	32757	32087	32181	33261	32491	32647	
643	0	125	1275	27	1955	214	0	33140	32113	32956	32111	32166	33119	32533	32383	
644	0	137	1256	29	1952	215	0	33283	32183	33056	32131	32429	33061	32663	32335	
645	0	122	1237	29	1991	216	0	33325	32231	33141	32013	32583	32763	32695	32559	
646	0	119	1237	28	1989	217	0	33043	32677	32961	32530	32487	32743	32693	32527	
647	0	134	1250	30	1971	218	0	32993	32715	32982	32999	32663	32911	32803	32978	
648	0	100	1264	27	1964	219	0	32817	32708	32820	33211	32935	32327	33191	33477	
649	0	91	1199	29	1974	220	0	32742	32683	32711	33083	33031	32091	33327	33667	
650	0	96	1226	30	1942	221	0	32447	32950	32643	33143	32991	32410	32992	33551	
651	0	97	1255	28	1961	222	0	32595	32855	32679	32937	33171	32879	32799	33407	
652	0	126	1217	28	1928	223	0	32583	32806	32585	32927	33018	32647	32806	33038	
653	0	122	1255	28	1983	224	0	32302	33268	32431	33146	33174	32295	32451	32884	
654	0	120	1202	30	1972	225	0	32311	33154	32215	33503	33061	32474	32405	32799	
655	0	115	1230	29	1967	226	0	32473	33039	32143	33575	32633	32933	32434	33117	
656	0	91	1222	29	1981	227	0	32620	32575	32677	33351	32290	33147	32391	33223	
657	0	153	1255	29	1968	228	0	32767	32527	32877	33095	32169	33007	32559	33270	
658	0	99	1230	29	1958	229	0	32822	32559	32948	32923	32093	32865	32343	33351	
659	0	89	1230	27	1966	230	0	32796	32788	32731	33117	32481	32417	32553	32991	
660	0	132	1221	28	1966	231	0	32969	32629	32703	33062	32839	32491	32773	32861	
661	0	57	1239	28	1964	232	0	33018	32603	32799	32815	32871	32556	33095	32686	
662	0	160	1236	27	1943	233	0	32846	32747	32829	32843	32787	32663	32839	32599	
663	0	133	1224	29	1926	234	0	32719	32507	32647	32687	32579	33077	32738	32371	
664	0	86	1251	28	1959	235	0	32636	32821	32711	32653	32554	32847	32679	31951	
665	0	111	1244	28	1946	236	0	32705	32513	32807	32349	32271	33039	32845	30354	
666	0	149	1288	29	1954	237	0	32554	32789	32806	32146	32230	33991	32959	29566	
667	0	150	1246	28	2000	238	0	32625	32747	32679	32318	32587	34247	32807	29487	
668	0	138	1252	29	1959	239	0	32715	33223	32723	32589	32864	33715	32620	30125	
669	0	96	1195	29	1973	240	0	32846	33067	32614	32598	32655	32815	32407	30915	
670	0	112	1251	30	1973	241	0	32799	33003	32371	32467	32271	32771	32437	31911	
671	0	111	1251	28	1971	242	0	32891	32383	32548	32175	31799	33223	32081	33167	
672	0	47	1257	29	1980	243	0	32893	32569	32631	32297	32096	32875	32255	34225	
673	0	132	1227	29	1997	244	0	32991	32442	32951	32175	32244	32617	32503	34754	
674	0	108	1190	29	2005	245	0	33291	32375	33266	32031	32627	32935	33254	35442	
675	0	113	1252	30	1960	246	0	33316	32402	33499	32079	33037	32375	33671	35943	
676	0	146	1236	29	2003	247	0	33073	32483	33351	32391	33295	31455	33270	36065	
677	0	95	1237	29	1952	248	0	32902	32641	33215	32615	33227	30180	32775	36335	
678	0	108	1240	28	1973	249	0	32742	32639	33014	32794	33015	29940	32284	36023	
679	0	115	1216	28	1957	250	0	32493	33121	32694	33067	32974	30791	32183	35278	
680	0	124	1237	29	1977	251	0	32320	32887	32383	33188	33193	32019	32479	34209	
681	0	120	1257	28	1942	252	0	32135	32884	32199	33115	33136	32923	32706	33543	
682	0	119	1198	28	1964	253	0	32054	32834	31751	33095	33455	32944	32710	33039	
683	0	95	1201	29	1956	254	0	32061	33149	31727	33012	33174	33147	32823	32388	
684	0	84	1224	28	1966	255	0	32375	33013	31975	32663	32873	33015	32567	32059	
685	0	97	1239	28	1961	256	0	32767	32675	32227	32655	32517	32971	32351	32235	
686	0	148	1258	27	1991	257	0	32751	32761	32428	32675	32198	32598	32434	32039	
687	0	130	1246	29	1938	258	0	33010	32695	32493	32501	32025	32500	32343	31999	
688	0	109	1279	28	1988	259	0	33073	32710	32539	32463	32235	32849	32347	31983	
689	0	102	1234	29	1980	260	0	32799	32935	32303	32583	32505	33423	32519	31773	
690	0	116	1210	29	1989	261	0	32749	32871	32263	32951	32451	33807	32818	31644	
691	0	83	1219	29	1967	262	0	32743	32745	32455	32935	32453	33971	32819	31635	
692	0	104	1242	28	2004	263	0	32678	32754	32806	32839	32306	33645	32758	31747	
693	0	117	1232	28	1970	264	0	32671	32883	33095	33122	32405	33231	32515	31898	
694	0	73	1229	28	1946	265	0	32684	33087	33255	33254	32977	32860	32818	31830	
695	0	109	1224	28	1972	266	0	32770	32866	33261	33342	33308	32639	33139	31703	
696	0	112	1217	29	1982	267	0	32881	32831	32791	33261	33287	32663	33082	31874	
697	0	91	1202	28	2003	268	0	33401	32743	32812	32898	33175	32875	33159	31980	
698	0	100	1234	28	2007	269	0	33871	32327	33100	32387	32713	33180	33082	32402	
699	0	107	1215	29	2008	270	0	34139	31865	33619	32175	31827	33129	32951	32666	
700	0	123	1236	30	1934	271	0	33576	32391	33483	32487	31700	33155	32685	32659	
701	0	108	1252	29	1940	272	0	32619	32674	33203	32902	31879	32979	32578	32855	
702	0	124	1216	29	1971	273	0	31966	32710	33147	33177	32428	33227	32852	32975	
703	0	163	1224	29	1967	274	0	31594	33159	32877	33549	33215	33519	32950	32947	
704	0	132	1180	29	1983	275	0	32073	33249	33063	33925	33531	33063	32895	32719	
705	0	151	1231	27	1940	276	0	32811	33239	33266	33743	33447	32630	32931	32465	
706	0	147	1280	29	1971	277	0	33766	32911	33439	33329	32995	32407	32684	32415	
707	0	114	1238	29	1965	278	0	33995	32805	33119	32871	32543	32207	32489	32410	
708	0	91	1259	30	1926	279	0	33094	32757	32391	32297	32295	32057	32301	32300	
709	0	62	1220	28	1982	280	0	31910	32579	31561	31775	32179	32349	32145	32359	
710	0	139	1212	28	1956	281	0	31716	32756	31364	31411	31911	32623	32205	32711	
711	0	108	1258	28	1989	282	0	31762	32466	31333	31263	32023	33205	32386	33047	
712	0	131	1221	29	1918	283	0	32135	32545	31667	31506	32375	33415	33183	33005	
713	0	101	1221	29	1960	284	0	32169	32775	31807	31863	32503	33423	33223	33111	
714	0	97	1238	29	1943	285	0	32367	32605	32723	32007	32721	33339	33047	33409	
715	0	66	1294	28	1949	286	0	32464	32669	33346	32486	33109	32962	33159	33503	
716	0	112	1248	30	1969	287	0	32146	33195	33131	33006	33183	32519	32895	33319	
717	0	165	1226	28	1989	288	0	32220	33685	33181	33159	33263	32335	32751	33189	
718	0	169	1250	29	1958	289	0	32485	33447	33367	33359	33213	32033	32566	33045	
719	0	143	1278	29	1886	290	0	32824	32491	33671	32935	32806	32340	32373	32799	
720	0	117	1210	30	1986	291	0	33041	32079	33866	32711	32627	32677	32455	32663	
721	0	122	1225	29	1952	292	0	32980	31954	33639	32831	32747	32391	32567	32607	
722	0	128	1275	29	1970	293	0	33287	31949	33719	33213	32582	32671	32655	32431	
723	0	108	1258	29	1960	294	0	33480	32199	33555	33666	32575	32775	32681	32333	
724	0	92	1256	29	1970	295	0	33442	32511	33551	33595	32461	33029	32718	32583	
725	0	139	1233	29	2011	296	0	33532	32383	33382	33055	32039	33215	32599	32799	
726	0	91	1272	29	1992	297	0	33467	32543	33186	32987	31911	33223	32643	32831	
727	0	103	1244	30	1959	298	0	33177	32674	33036	33218	32089	33055	32769	32826	
728	0	94	1240	29	1959	299	0	32597	32935	32879	33199	32247	32887	32726	32770	
729	0	86	1241	28	2009	300	0	32500	33215	32959	32715	32950	32858	32820	32766	
730	0	150	1218	29	1956	301	0	32326	33495	32882	32047	33382	32799	32747	33014	
731	0	109	1194	28	1972	302	0	32074	33607	32599	32181	33619	32254	32835	32685	
732	0	131	1242	28	1994	303	0	32444	33236	32551	32347	33435	32351	32758	32604	
733	0	80	1232	29	1968	304	0	32815	32774	32491	32207	33363	32403	32748	32629	
734	0	88	1215	28	1993	305	0	32763	32531	32668	32511	32811	32239	32503	32787	
735	0	122	1204	28	1968	306	0	33096	32217	33317	32253	31719	32439	32655	32845	
736	0	106	1207	29	2020	307	0	33241	32229	33687	32315	31570	32629	32609	32671	
737	0	114	1205	29	1961	308	0	33250	32377	34029	32354	31895	32751	32802	32457	
738	0	83	1237	29	2002	309	0	33184	32647	33875	32577	31927	32901	32590	32570	
739	0	103	1195	29	1993	310	0	33017	32884	33579	32679	32055	32930	32555	32546	
740	0	95	1261	29	1969	311	0	33038	32864	33515	32583	32358	33283	32738	32735	
741	0	125	1216	30	1969	312	0	33398	32627	33811	32607	32989	33735	33426	32933	
742	0	82	1269	28	1961	313	0	33574	32476	33639	32583	33189	33911	33751	33415	
743	0	135	1217	29	1999	314	0	32929	32687	33057	32694	32691	33594	33245	33508	
744	0	127	1262	28	1958	315	0	31985	33307	32297	33095	32763	33287	32545	33279	
745	0	127	1216	28	1952	316	0	31508	33811	31796	33551	33110	32941	32471	32498	
746	0	99	1257	29	1969	317	0	31734	33670	31551	33337	33111	32387	32519	32147	
747	0	124	1246	29	1969	318	0	32165	33223	31835	32893	33159	32109	32558	32135	
748	0	153	1250	28	1968	319	0	32343	33095	31993	32735	32895	32271	32374	32407	
749	0	85	1280	28	1995	320	0	32622	33045	32367	32963	32615	32285	32295	32525	
750	0	122	1218	28	1969	321	0	32824	32895	32703	33095	32617	32423	32221	32388	
751	0	95	1183	29	1980	322	0	32916	32735	32991	33080	32338	32813	32228	32391	
752	0	120	1221	29	1950	323	0	33228	32604	33415	32874	32399	32979	32484	32599	
753	0	108	1169	28	1999	324	0	33374	32231	33682	32710	32491	32939	32980	32698	
754	0	143	1252	28	1956	325	0	33415	32355	33706	32559	32740	32873	33127	33059	
755	0	124	1221	30	1961	326	0	33062	32357	33317	32671	32932	32586	32918	33079	
756	0	121	1244	29	1916	327	0	32912	32692	33135	32874	33015	32370	33565	33067	
757	0	112	1241	29	1952	328	0	32978	32837	33110	32919	33350	32775	33847	33317	
758	0	96	1239	29	1957	329	0	32677	33213	32804	33095	33681	32463	33183	33474	
759	0	107	1236	29	1969	330	0	32508	33004	32751	33189	33415	32216	32678	33334	
760	0	112	1232	28	1971	331	0	32322	33204	32236	32955	33083	32205	32273	32775	
761	0	119	1225	27	1963	332	0	32462	32775	31809	32694	32543	32755	32071	32755	
762	0	137	1262	29	1981	333	0	32845	32410	32131	32330	31943	32962	31226	33295	
763	0	130	1246	28	1955	334	0	32805	32349	32263	32295	31911	33225	31271	33257	
764	0	100	1239	27	1948	335	0	32310	32669	32414	32695	32142	32959	31770	32797	
765	0	132	1235	29	1939	336	0	31991	33129	32806	32967	32547	32388	32055	32620	
766	0	136	1251	28	1977	337	0	32142	33172	32867	32971	32711	32354	32551	32486	
767	0	113	1245	29	1986	338	0	32481	33055	32813	33020	32830	32692	33335	32457	
768	0	102	1229	28	1998	339	0	32947	32658	33311	32860	33071	33223	34144	32277	
769	0	140	1232	29	1934	340	0	33401	32317	33494	32519	33055	34070	34469	32347	
770	0	119	1224	28	1958	341	0	33570	32373	33390	32370	33086	33927	33951	32411	
771	0	69	1252	28	1990	342	0	33143	32725	32903	32685	33054	33298	33399	32455	
772	0	97	1201	28	1960	343	0	32713	33091	32502	32743	33079	32589	33050	32439	
773	0	78	1224	28	1968	344	0	32398	33389	32348	33124	33477	32063	32982	32391	
774	0	122	1216	28	1984	345	0	32375	33063	32437	32822	33495	31815	33026	32347	
775	0	137	1218	29	1952	346	0	32898	32623	32503	32631	33139	31581	33060	32165	
776	0	100	1262	28	1953	347	0	32993	32507	32609	32550	32743	32084	32612	32470	
777	0	142	1210	29	1968	348	0	33017	32465	32663	32443	31967	32455	32335	32903	
778	0	117	1214	28	1952	349	0	33092	32480	32893	32487	31235	32783	32163	33082	
779	0	143	1268	28	1991	350	0	33184	32411	32964	32655	31125	33103	31821	33181	
780	0	100	1248	27	1999	351	0	33374	32375	32841	32238	31404	33503	31831	33223	
781	0	100	1211	29	1955	352	0	33474	32082	33049	31911	31835	33731	32167	33102	
782	0	124	1225	29	2002	353	0	33256	32143	32903	31955	32782	33687	32915	33047	
783	0	131	1246	29	1945	354	0	32669	32367	32743	32375	33431	33443	33058	32643	
784	0	117	1203	28	1985	355	0	32204	32903	32250	32831	33255	32816	32735	32791	
785	0	103	1218	27	1975	356	0	31821	33258	32075	33383	33372	32262	32660	32471	
786	0	129	1272	29	1941	357	0	31999	33375	31979	33506	33277	32399	32679	32247	
787	0	141	1242	29	1975	358	0	32405	33031	31971	33511	33069	32727	32645	32468	
788	0	139	1218	28	1950	359	0	32710	33077	32022	33387	32773	32735	32671	32875	
789	0	133	1238	30	1951	360	0	32579	32959	32033	33423	32873	33018	32615	33471	
790	0	132	1229	29	1914	361	0	32707	32675	32045	33151	32543	32927	32501	33375	
791	0	146	1232	29	2003	362	0	32804	32727	32293	32668	32403	33211	32413	33099	
792	0	123	1232	29	1988	363	0	32962	32626	32327	32831	32591	32417	32517	33091	
793	0	100	1246	29	1967	364	0	33112	32587	32363	32935	32927	32014	32625	32749	
794	0	98	1254	28	1998	365	0	33087	32587	32633	32783	32831	31879	32668	32647	
795	0	108	1224	29	1963	366	0	33094	32524	32949	32850	33141	32574	33020	32419	
796	0	112	1242	29	1973	367	0	33270	32855	33078	32573	32898	33127	33295	32338	
797	0	124	1217	27	1981	368	0	33257	32643	33268	32495	32593	33709	33095	32271	
798	0	143	1232	28	1959	369	0	33240	32337	33423	32415	31479	33941	32839	32527	
799	0	122	1233	29	1971	370	0	32700	32605	32999	32527	31343	33501	32655	32351	
800	0	131	1206	29	2021	371	0	32219	32859	32754	32692	32028	32871	32556	32026	
801	0	90	1231	28	1985	372	0	32163	33084	32481	32943	32815	32635	32620	32210	
802	0	97	1220	29	1964	373	0	32150	32959	32479	33084	33055	32747	32517	32583	
803	0	78	1236	29	1980	374	0	32273	32939	32487	32918	32887	32412	32622	32501	
804	0	132	1249	30	1967	375	0	32769	32599	32663	32601	32877	32807	32678	32475	
805	0	119	1257	28	2001	376	0	33128	32633	32943	32388	32903	32839	32603	32839	
806	0	108	1279	29	2006	377	0	33053	32452	33202	32057	32671	31780	32663	33323	
807	0	148	1229	29	1954	378	0	32896	32583	33151	31647	32886	30914	32725	33766	
808	0	112	1184	29	1959	379	0	32937	32388	33357	31508	32807	31611	32871	34107	
809	0	141	1198	28	1966	380	0	32820	32487	33239	31725	33155	32316	32646	33967	
810	0	107	1229	29	1972	381	0	32507	32751	32891	32161	32915	32087	32335	33783	
811	0	107	1198	29	1966	382	0	32361	32751	32786	32487	32749	31671	32454	33319	
812	0	144	1243	28	1976	383	0	32359	32956	32813	32762	32587	31717	32622	32935	
813	0	124	1220	28	1977	384	0	32594	33154	32797	33159	32575	32381	32627	32469	
814	0	113	1224	28	1995	385	0	32719	33285	32693	33315	32527	33053	32591	32628	
815	0	147	1249	28	1954	386	0	32636	33205	32694	33707	32355	33575	32479	32805	
816	0	101	1236	29	2012	387	0	32732	33319	32949	33593	32463	33499	32673	32557	
817	0	128	1211	30	1976	388	0	32935	32765	33170	33639	32603	33481	32929	32534	
818	0	162	1247	29	1964	389	0	33111	32470	33167	33319	32735	33351	33051	32603	
819	0	56	1247	29	1955	390	0	33708	31796	33414	33095	32966	33174	33031	32711	
820	0	101	1214	28	1970	391	0	34352	31684	33695	33111	32919	32850	32981	32771	
821	0	92	1224	29	1969	392	0	33823	32549	33755	33255	32543	32621	32525	32523	
822	0	107	1250	29	1979	393	0	33026	32865	33149	33363	32279	32826	31903	32733	
823	0	119	1251	30	1955	394	0	32796	32989	32620	33386	32615	32863	31692	32623	
824	0	97	1240	29	1961	395	0	32999	32899	32598	32998	32255	33074	32503	32335	
825	0	111	1256	28	1949	396	0	32887	32551	32807	32881	32388	33799	33431	32574	
826	0	118	1316	28	1970	397	0	32063	33093	32397	33415	32612	33953	33652	32733	
827	0	70	1249	28	1988	398	0	30836	33306	31851	33374	32212	33687	32897	32921	
828	0	89	1225	29	1993	399	0	30253	33254	31461	33152	32273	33003	32572	32867	
829	0	115	1278	28	1976	400	0	31110	33459	31287	32859	33268	32701	32802	32463	
830	0	119	1253	29	1916	401	0	32146	33181	31417	32399	33556	32647	32903	32342	
831	0	101	1221	28	1982	402	0	32871	32703	31963	31989	33319	32813	33131	32295	
832	0	113	1197	30	1986	403	0	33458	32542	32559	31719	33119	32951	33188	32359	
833	0	148	1220	30	1995	404	0	33477	32229	32692	31649	32887	33078	33267	32565	
834	0	106	1197	29	2008	405	0	33069	32284	32215	31939	32606	32875	32903	32813	
835	0	111	1262	27	1978	406	0	32646	32660	31783	32323	32357	32635	32218	32918	
836	0	99	1248	30	1968	407	0	32326	32687	31717	32471	32371	32547	32118	33133	
837	0	142	1240	30	1970	408	0	32188	32695	31563	32677	32463	32503	32330	33127	
838	0	97	1204	29	1971	409	0	32253	32909	31750	32711	33027	32455	32503	33030	
839	0	165	1260	30	1982	410	0	32475	32717	32193	32578	32944	32253	32637	32683	
840	0	133	1230	28	1956	411	0	32743	32483	32595	32422	32582	32850	32575	32543	
841	0	170	1249	29	1985	412	0	33013	32603	33351	32347	32519	32586	32503	32722	
842	0	127	1251	28	1980	413	0	33146	32599	33895	32359	32340	32588	32463	32687	
843	0	130	1235	29	1974	414	0	33306	32659	34229	32506	32383	32329	32379	32562	
844	0	121	1252	28	2004	415	0	33282	32836	34211	32742	32295	32100	32314	32451	
845	0	101	1285	29	1967	416	0	33181	32957	34094	32971	32541	31931	32519	32487	
846	0	111	1256	28	1995	417	0	33260	32725	34011	32979	32775	32007	32839	32743	
847	0	62	1236	30	1989	418	0	33476	32786	34093	33003	32771	32883	33148	32817	
848	0	103	1256	29	1957	419	0	33700	32535	34027	33245	32569	33850	33234	32487	
849	0	147	1222	29	2026	420	0	33494	32493	33551	33255	31989	34311	32851	32307	
850	0	104	1218	30	2004	421	0	33426	32598	33383	32935	32491	33975	32935	32425	
851	0	133	1209	29	1972	422	0	32819	32683	32787	32703	32794	33319	32958	32494	
852	0	113	1238	29	1962	423	0	32423	32747	32380	32594	33179	32895	33024	32487	
853	0	157	1259	28	1986	424	0	32436	32879	32454	32445	33151	32857	33031	32628	
854	0	145	1189	29	2002	425	0	32391	32851	32339	32585	33357	32677	33006	32615	
855	0	110	1237	29	1914	426	0	32233	33181	32207	32818	33173	32509	32823	32723	
856	0	93	1296	28	1980	427	0	32304	33095	32167	32858	32500	32128	32519	32811	
857	0	127	1218	28	1975	428	0	32479	32669	32135	32879	32391	32015	32263	32932	
858	0	150	1266	29	1959	429	0	32580	32743	32419	32723	32364	31807	32415	33021	
859	0	178	1235	29	1956	430	0	32718	32743	32711	32903	32679	31634	32484	32949	
860	0	127	1267	30	1978	431	0	32804	32694	32919	33179	32879	32157	32711	33001	
861	0	125	1232	29	1942	432	0	32902	32575	33455	32886	33079	33125	32983	33276	
862	0	134	1241	28	1945	433	0	32549	32365	33277	32711	32340	33095	32641	33455	
863	0	148	1211	29	2013	434	0	31852	32862	33353	33035	32594	33178	32481	33087	
864	0	96	1268	27	1970	435	0	31492	33117	33413	33106	32671	32887	32243	32769	
865	0	108	1220	29	1975	436	0	32658	33031	33060	32887	32607	33020	32475	32774	
866	0	132	1276	28	1957	437	0	34813	32859	32295	32591	32454	33004	32675	32703	
867	0	92	1214	29	1956	438	0	35887	32549	31266	32095	32569	33015	32391	32761	
868	0	129	1298	29	2004	439	0	34956	32583	30717	31979	32077	33087	32095	33125	
869	0	140	1249	29	1993	440	0	32934	32599	30257	32297	31986	32739	32025	33129	
870	0	123	1247	28	1987	441	0	31070	33031	30229	32590	32585	32495	32359	32993	
871	0	138	1215	29	2006	442	0	30662	32919	30351	32562	32767	32673	32914	32769	
872	0	182	1236	29	2001	443	0	31478	32412	31067	32423	32659	33136	33415	32802	
873	0	100	1280	28	1940	444	0	32199	32517	31788	32231	32956	33270	33581	32794	
874	0	129	1214	30	1943	445	0	32163	32735	31815	32367	33143	32954	33620	32838	
875	0	105	1236	29	1953	446	0	31919	32957	31869	32679	33159	32692	33687	32724	
876	0	146	1199	30	1952	447	0	31858	33061	32039	32935	32962	32609	33383	32567	
877	0	116	1258	29	1936	448	0	32199	32966	32339	33037	33065	32805	33223	32583	
878	0	67	1220	29	2003	449	0	32491	32986	32815	33116	32967	32875	33235	32363	
879	0	92	1258	29	1979	450	0	32775	32847	33295	33106	32871	32727	33037	32349	
880	0	129	1221	29	2028	451	0	33023	33083	33503	33063	32966	32578	32676	32429	
881	0	143	1242	29	1954	452	0	32996	32975	33517	33015	32709	32731	32567	32553	
882	0	117	1279	29	1956	453	0	33014	32701	33509	32805	32439	32977	32199	32751	
883	0	117	1233	29	1951	454	0	33025	32623	33285	32563	32453	32844	32019	32935	
884	0	148	1195	28	2011	455	0	33225	32311	33693	32451	32359	32502	32054	32935	
885	0	106	1236	31	2014	456	0	33238	32791	33779	32879	32259	32263	32069	32765	
886	0	105	1255	29	1992	457	0	33361	32745	33739	33004	32405	31971	32175	32479	
887	0	124	1203	27	1940	458	0	33335	32607	33718	32963	31982	31987	32217	32263	
888	0	132	1204	30	1972	459	0	33317	32681	33633	33065	32119	32471	32347	32543	
889	0	159	1238	29	1944	460	0	33325	32419	33463	32871	32342	33025	32711	32732	
890	0	96	1218	29	1928	461	0	33287	32567	33350	32806	32231	33407	32903	32769	
891	0	58	1270	28	2003	462	0	33140	32391	33207	32735	32039	33468	32807	32874	
892	0	72	1189	29	1998	463	0	32862	32575	33039	32519	32175	33526	32903	32789	
893	0	104	1237	28	1957	464	0	32836	32399	33083	32197	32975	33452	33397	32607	
894	0	121	1252	29	1962	465	0	32669	32487	33039	32053	33267	33115	33236	32574	
895	0	122	1235	28	1966	466	0	32388	32935	32963	32175	33503	32470	32885	32787	
896	0	138	1198	29	1949	467	0	32375	32940	32843	32183	33519	32535	32995	33027	
897	0	162	1250	28	1996	468	0	32231	33407	32535	32583	33551	32564	32790	32939	
898	0	131	1230	29	1957	469	0	31834	33303	32175	32863	33341	32467	32598	32727	
899	0	128	1222	29	1932	470	0	32006	33399	32068	32861	33219	32943	32491	32820	
900	0	139	1267	28	1998	471	0	32182	33031	32031	32887	33010	32574	32572	32755	
901	0	117	1245	28	1984	472	0	32423	32471	32250	32705	33055	32327	32627	32445	
902	0	123	1232	30	1991	473	0	32813	32351	32425	32479	32673	31894	32759	32327	
903	0	134	1239	29	1962	474	0	33086	32213	32871	32550	32479	31775	32647	32199	
904	0	110	1239	30	1964	475	0	33240	32149	33140	32391	32309	31765	32486	32513	
905	0	111	1247	28	1991	476	0	33453	32198	32951	32043	32244	32413	32439	32759	
906	0	105	1252	28	2011	477	0	33742	32281	33159	31983	32493	33319	32636	32978	
907	0	115	1244	29	2003	478	0	33743	32732	33281	32445	32239	34011	32283	33489	
908	0	126	1227	29	1953	479	0	33428	32887	33147	32825	32072	34323	32295	33521	
909	0	86	1207	28	1977	480	0	32854	33703	32647	33350	32215	34130	32677	33043	
910	0	102	1216	27	1969	481	0	32281	33935	32325	33734	32788	33325	32666	33159	
911	0	135	1263	29	1943	482	0	31817	33603	31695	33858	33029	32274	32475	33223	
912	0	155	1240	29	1950	483	0	31583	33045	31417	33923	33387	31870	32559	32599	
913	0	128	1274	29	1954	484	0	31617	32223	31515	33925	33179	32103	32747	32647	
914	0	114	1218	28	1956	485	0	32088	31804	31929	33447	32835	32743	32749	32964	
915	0	105	1240	29	1994	486	0	32525	31687	32414	33274	32071	33381	32626	32924	
916	0	115	1214	29	1970	487	0	32997	32271	32799	33041	32003	33709	32775	32629	
917	0	112	1267	28	1971	488	0	33215	32625	33156	32813	31898	33479	32517	32474	
918	0	128	1223	29	1965	489	0	33108	33025	33151	32970	32331	33167	32578	32370	
919	0	131	1230	28	2006	490	0	33025	33275	33049	33111	32707	32775	32614	32015	
920	0	111	1276	29	1979	491	0	33103	32999	32959	32943	32903	32935	32982	31465	
921	0	108	1241	28	2012	492	0	33271	32812	33030	32436	32679	32940	33135	31387	
922	0	104	1232	30	1966	493	0	33439	32489	33079	32300	32647	33229	33462	31846	
923	0	117	1275	29	1980	494	0	33397	32613	33199	32687	32871	33429	33435	32340	
924	0	110	1236	29	1977	495	0	33318	32723	33095	32871	33031	33111	33581	32977	
925	0	140	1256	28	1988	496	0	32733	32757	32642	33125	33316	32612	33042	33601	
926	0	110	1229	28	1948	497	0	32093	33175	32151	33622	33010	32231	32463	33972	
927	0	122	1238	29	1996	498	0	32109	33030	32116	33319	32775	31990	32421	33791	
928	0	100	1288	28	2006	499	0	32308	33429	32263	33011	32839	31553	32451	33567	
929	0	123	1251	28	1984	500	0	32451	33378	32531	33015	32981	31556	32407	33559	
930	0	133	1244	29	1959	501	0	32727	32975	32690	32691	32947	31397	32407	33949	
931	0	124	1241	28	1989	502	0	33089	32819	32639	32205	32675	31489	32517	34004	
932	0	111	1225	30	1978	503	0	33042	32125	32519	31671	32621	32244	32362	33207	
933	0	96	1264	28	1978	504	0	32804	32119	32511	31359	32295	32775	32358	32291	
934	0	130	1225	27	1989	505	0	32543	32519	32275	31463	32485	32663	32583	31535	
935	0	129	1219	29	1951	506	0	32601	32681	32321	31539	32413	32939	32575	31542	
936	0	116	1209	30	1978	507	0	32772	32297	32581	31698	32625	33398	32631	32039	
937	0	155	1281	30	1989	508	0	33102	32195	32903	32046	32738	33403	33055	32372	
938	0	142	1255	28	1979	509	0	33155	32263	32947	32436	32699	33319	33357	32554	
939	0	99	1242	28	2009	510	0	33044	32647	33067	33022	32984	33377	33444	32658	
940	0	78	1184	29	1995	511	0	32929	32775	33011	33529	32757	32647	33173	32509	
941	0	120	1206	28	1966	512	0	32842	32972	32994	33799	32423	32519	32534	32538	
942	0	141	1216	29	1977	513	0	32887	33110	32873	33870	32298	32319	32289	32999	
943	0	110	1223	30	1973	514	0	32909	32963	32959	33607	31925	32583	31847	33884	
944	0	147	1264	28	1959	515	0	32873	32786	32987	32871	31927	32738	31797	34053	
945	0	93	1228	30	1962	516	0	32594	32598	33147	32647	31935	32795	31890	34311	
946	0	120	1194	29	1966	517	0	32297	32994	33475	32607	32647	33256	32551	34239	
947	0	101	1223	29	1957	518	0	32091	33068	33455	32698	33191	33255	33255	33593	
948	0	102	1215	29	1974	519	0	32016	32967	33491	32795	33842	33049	33470	33012	
949	0	134	1220	29	1957	520	0	31905	33287	32989	32826	33495	32421	32885	32460	
950	0	147	1226	29	1975	521	0	32270	33447	32284	32853	33399	31952	32537	32093	
951	0	130	1186	29	1998	522	0	32996	32954	31988	32699	32820	32098	32885	31948	
952	0	140	1206	29	1974	523	0	33144	32895	32251	32681	32670	32207	32903	31851	
953	0	151	1265	29	1977	524	0	32794	32679	32230	32666	32250	32407	32575	31971	
954	0	79	1223	29	2040	525	0	32581	32843	32155	32517	32299	32579	32740	31943	
955	0	108	1258	29	1971	526	0	33743	32315	32468	32322	32215	32807	32807	31996	
956	0	132	1231	29	2002	527	0	34865	32439	32413	32413	31823	33343	33014	32199	
957	0	148	1234	28	1955	528	0	34921	32206	32375	32310	32279	33603	32857	32518	
958	0	77	1269	30	1978	529	0	33988	32301	32013	32325	32375	33967	33095	32828	
959	0	104	1280	28	1971	530	0	31942	32540	31631	32378	32687	33877	33137	32931	
960	0	114	1212	28	1988	531	0	30959	32815	31467	32343	32951	33607	32973	32935	
961	0	169	1256	29	2000	532	0	30977	32927	31587	32428	32934	33447	32861	33145	
962	0	134	1252	29	1968	533	0	30917	33037	31618	32611	32995	32630	32590	32980	
963	0	84	1227	28	1990	534	0	31270	33100	31553	32810	32975	32127	32391	32845	
964	0	87	1286	29	1968	535	0	31787	33091	31703	33035	33383	31821	32582	32637	
965	0	95	1213	28	2019	536	0	32095	33213	31831	33012	33396	32053	32636	32515	
966	0	126	1197	30	1995	537	0	32444	32739	32355	32739	33047	32186	32382	32545	
967	0	124	1188	28	1993	538	0	32791	32830	32785	32983	32785	32391	32641	32583	
968	0	138	1231	28	1979	539	0	33031	32655	33366	33205	32605	32343	32701	32575	
969	0	145	1243	29	1937	540	0	33138	32749	33559	33463	32722	32647	32595	32691	
970	0	129	1240	29	1966	541	0	33281	32836	33618	33305	32439	32917	32724	32599	
971	0	106	1221	30	1955	542	0	33341	32690	33826	33221	32486	32885	32749	32414	
972	0	149	1288	28	2032	543	0	33381	32583	33847	32931	32379	32950	32811	32198	
973	0	129	1238	28	1968	544	0	33570	32331	33638	32691	32418	33335	32841	31975	
974	0	129	1248	29	2012	545	0	33314	32557	33307	32470	32543	33059	32703	32151	
975	0	103	1210	29	1981	546	0	33159	32645	33263	32631	32732	33011	32941	32320	
976	0	164	1254	29	1968	547	0	32894	32903	33071	32799	32899	33243	32807	32646	
977	0	120	1218	29	1998	548	0	33006	32679	33196	32955	32227	32933	32575	32891	
978	0	136	1228	27	1980	549	0	33411	32679	33492	32957	31950	33047	32525	32951	
979	0	123	1211	28	1987	550	0	33757	32756	33351	32996	32037	32867	32292	32957	
980	0	127	1243	28	2013	551	0	33414	32675	32855	33159	32358	32775	32445	33047	
981	0	108	1248	29	1988	552	0	32749	32634	32694	32946	32853	32548	32927	33031	
982	0	133	1217	28	1971	553	0	32370	32722	32702	32765	32813	32438	33007	32823	
983	0	139	1202	29	1989	554	0	32383	32855	32334	32437	32727	32564	32847	32855	
984	0	136	1217	29	1974	555	0	32793	32615	32459	32143	32385	32899	32839	33155	
985	0	139	1253	29	1993	556	0	32723	32911	32411	32135	32239	33102	32876	33157	
986	0	153	1221	30	1994	557	0	32864	32783	32556	32084	32199	33415	33044	33403	
987	0	108	1252	29	1943	558	0	32785	32739	32224	32095	32479	33379	32863	33403	
988	0	103	1273	28	2023	559	0	32242	33012	31979	32447	32732	32718	32247	33322	
989	0	117	1251	29	1949	560	0	32093	32827	31931	32514	33246	32743	32201	33213	
990	0	111	1223	29	1968	561	0	32304	32795	32105	32215	33254	32759	32850	32032	
991	0	135	1284	30	1980	562	0	32636	32331	32674	32085	32951	33415	32891	32156	
992	0	143	1252	28	2001	563	0	32457	32726	32638	32353	32970	33303	33174	31159	
993	0	128	1214	29	1932	564	0	32327	32929	32549	32813	33043	32403	33026	31179	
994	0	133	1184	30	1968	565	0	32511	33181	32503	32959	33117	32203	32741	31764	
995	0	122	1221	29	1984	566	0	32660	33107	32767	33275	33423	31999	32734	32335	
996	0	140	1197	29	1984	567	0	32669	33177	32819	33588	33127	32238	32733	32967	
997	0	98	1224	28	1944	568	0	32588	33143	32743	33733	32895	32829	32375	33135	
998	0	82	1198	28	2014	569	0	32736	32900	32835	33559	32211	33859	32332	33138	
999	0	116	1240	29	2000	570	0	33032	32711	33155	33223	32359	33632	32295	33767	
1000	0	135	1257	29	1937	571	0	33138	32487	33342	33007	32641	31852	32357	34311	
1001	0	125	1213	28	1926	572	0	33287	32717	33403	32788	32719	30364	32514	34738	
1002	0	122	1206	29	1986	573	0	33364	32433	33637	32636	32719	30539	32647	34477	
1003	0	130	1285	29	2005	574	0	33134	32361	33474	32705	32903	30631	32486	33862	
1004	0	144	1225	28	1986	575	0	32571	32579	32891	32687	32466	32191	32579	32902	
1005	0	73	1300	29	1954	576	0	32473	32634	32975	32703	32203	33543	32719	32342	
1006	0	125	1228	28	1981	577	0	32711	32935	33007	32691	32599	33556	32961	31911	
1007	0	127	1228	29	1971	578	0	32840	32707	32983	32647	32812	33585	33158	32114	
1008	0	98	1288	28	1996	579	0	32958	32683	32818	32749	32927	33589	33063	32375	
1009	0	121	1278	29	1950	580	0	33071	32263	32852	32461	32933	33249	33079	32187	
1010	0	149	1263	29	1937	581	0	32903	32557	32871	32339	32739	32839	32827	32455	
1011	0	135	1267	28	1937	582	0	32577	32754	32971	32679	32815	33034	32570	32710	
1012	0	146	1240	28	1987	583	0	32790	32695	33409	32603	32305	33269	32717	32431	
1013	0	107	1240	27	1970	584	0	32910	32666	33917	32436	32403	33189	32903	32148	
1014	0	97	1236	28	1953	585	0	32844	32687	34182	32686	32263	33429	32583	32269	
1015	0	81	1263	29	2026	586	0	32791	32826	34207	32919	32511	33766	32711	31727	
1016	0	103	1238	29	1969	587	0	32551	32815	33959	33156	32809	33527	32858	30948	
1017	0	139	1240	29	1974	588	0	32540	32844	33607	32962	32687	33637	32669	31777	
1018	0	117	1231	29	1970	589	0	32474	32743	33372	32770	32901	33669	32571	31777	
1019	0	117	1261	29	1948	590	0	32269	33135	33302	32950	32725	33412	32594	31564	
1020	0	139	1266	28	1970	591	0	32263	33167	33407	32945	32819	33415	32599	31727	
1021	0	102	1238	29	1935	592	0	32471	32935	33399	32891	32738	33494	32566	32187	
1022	0	111	1329	29	1951	593	0	32692	32991	33399	32711	32810	33357	32505	32965	
1023	0	136	1260	28	1947	594	0	32900	32786	33565	32561	32784	32391	32615	33958	
1024	0	95	1227	28	1956	595	0	32868	32701	33495	32775	32863	31205	32935	34303	
1025	0	126	1260	29	1971	596	0	32919	32935	33705	33037	32813	30371	32927	34461	
1026	0	107	1219	28	1980	597	0	32937	32833	33462	33175	32934	30607	32695	34415	
1027	0	99	1249	29	1955	598	0	33060	32679	33245	33115	32735	31364	32743	34517	
1028	0	106	1239	30	1968	599	0	33159	32434	33143	33199	32757	31659	32815	34403	
1029	0	121	1272	28	1980	600	0	33287	32549	32935	33191	32372	31810	32586	34157	
1030	0	138	1269	29	1966	601	0	33287	32493	32791	32979	31919	32083	32210	34271	
1031	0	98	1287	30	1976	602	0	33471	32384	33185	32589	31937	32241	32335	34213	
1032	0	91	1220	28	1978	603	0	33243	32547	33212	32383	31985	32579	32221	33914	
1033	0	120	1263	27	1932	604	0	33094	32805	32975	32439	32705	32551	32271	33467	
1034	0	118	1220	30	1968	605	0	32430	33063	32903	32503	33207	32423	32502	32993	
1035	0	129	1243	29	1954	606	0	32088	33164	33043	32339	33287	32442	32708	32461	
1036	0	139	1224	28	1944	607	0	32457	33015	33287	32427	33077	32999	33019	32015	
1037	0	108	1255	28	1975	608	0	32811	33159	33364	32431	33042	33615	33311	31942	
1038	0	130	1240	29	1963	609	0	32436	32850	32871	32421	32615	34482	33111	32359	
1039	0	109	1267	29	1958	610	0	32147	32695	32412	32567	32543	34459	32773	32599	
1040	0	131	1195	29	1930	611	0	31735	32887	31879	32559	32613	33895	32995	32492	
1041	0	143	1248	28	2032	612	0	31772	33074	31394	32739	32703	33185	32721	32430	
1042	0	110	1265	29	1963	613	0	31664	33206	30964	32989	32726	32543	32332	32134	
1043	0	96	1274	29	1961	614	0	31879	33359	31079	33127	32877	32103	32250	31915	
1044	0	110	1274	30	1934	615	0	32295	32983	31111	32902	32597	32255	32315	31907	
1045	0	100	1219	29	2004	616	0	32708	32887	31346	32611	32147	32343	32079	31963	
1046	0	119	1218	30	1960	617	0	32869	32468	31699	32643	32119	32698	32115	32099	
1047	0	92	1199	27	1977	618	0	33012	32431	32135	32525	32833	32895	32637	32231	
1048	0	132	1211	29	1946	619	0	32984	32291	32455	32370	32745	33174	32853	32578	
1049	0	97	1208	29	1955	620	0	32922	32077	32851	32191	32683	33335	32802	32445	
1050	0	68	1217	29	1966	621	0	32900	32322	33069	32340	32655	34151	32948	32638	
1051	0	112	1259	29	1994	622	0	32801	32185	33139	32170	32677	33919	33059	32825	
1052	0	139	1227	29	1997	623	0	32505	32409	34110	32383	32211	33375	32665	32927	
1053	0	120	1236	29	2007	624	0	32473	32717	34482	32695	32563	32859	32658	32724	
1054	0	116	1218	30	1986	625	0	33076	32879	34069	32941	32871	32391	32477	32539	
1055	0	135	1257	30	1950	626	0	33341	32714	34291	33086	32822	31997	32612	32263	
1056	0	89	1230	30	1983	627	0	33385	32827	33927	33108	32991	31721	32719	32178	
1057	0	128	1220	29	1998	628	0	32466	32943	33414	33133	32903	31941	32652	32402	
1058	0	126	1279	30	1949	629	0	31634	32717	32902	32993	32865	32183	32855	32500	
1059	0	161	1243	27	1961	630	0	32115	32709	32529	32759	32668	32813	33104	32534	
1060	0	106	1253	29	1989	631	0	33705	32167	32135	32444	32385	33399	32775	33103	
1061	0	129	1190	28	1936	632	0	34413	31644	32235	32086	31634	33775	32809	33555	
1062	0	111	1236	27	1960	633	0	33141	32263	31606	31955	31255	33487	32308	33519	
1063	0	117	1249	29	1948	634	0	31642	32940	31351	32348	32123	32875	32215	33037	
1064	0	81	1237	29	2005	635	0	31001	33584	31751	32791	32690	32582	32419	32683	
1065	0	70	1253	29	1992	636	0	31802	33413	32399	32966	33007	32461	32959	32691	
1066	0	110	1216	28	2018	637	0	32503	33265	32987	33069	33317	32863	33439	32870	
1067	0	114	1258	28	1947	638	0	32684	32947	33243	33173	33259	32711	33373	32989	
1068	0	52	1231	29	1984	639	0	32506	32973	33093	33188	33460	32647	33127	32903	
1069	0	88	1234	29	1949	640	0	32177	32955	33399	33170	33239	32469	32949	32815	
1070	0	119	1253	29	1968	641	0	32588	32711	34287	33156	33044	32519	32827	32738	
1071	0	129	1223	30	1995	642	0	33468	32473	35612	32919	32637	32529	32901	32589	
1072	0	138	1211	28	1984	643	0	33890	32391	35772	32804	32513	32830	33133	32493	
1073	0	95	1220	29	1983	644	0	34043	32386	35429	32631	32646	32740	33359	32429	
1074	0	149	1283	28	1950	645	0	34414	32775	34949	32525	32943	32741	33407	32287	
1075	0	130	1256	29	1955	646	0	34370	32815	34370	32526	33041	32667	33428	32293	
1076	0	80	1235	28	1957	647	0	33949	32701	33645	32615	33159	32362	33276	32170	
1077	0	147	1269	28	1985	648	0	33498	32730	33192	32639	33023	31735	32895	32255	
1078	0	131	1248	29	1963	649	0	33190	32561	32727	32815	32927	31687	32647	32173	
1079	0	111	1245	27	1990	650	0	33245	33011	32095	33287	32927	31975	32489	32275	
1080	0	111	1254	29	1994	651	0	33388	33206	32069	33733	33239	32623	32727	32523	
1081	0	121	1258	30	1966	652	0	33320	33503	31978	33858	33062	33138	32807	32707	
1082	0	103	1244	27	1960	653	0	33039	33336	31967	33587	32902	33511	32449	32863	
1083	0	115	1269	28	1990	654	0	33059	32626	32164	32725	32214	33927	32631	33143	
1084	0	106	1244	29	1968	655	0	33108	32135	32615	32181	31255	34080	32775	33412	
1085	0	128	1218	29	2016	656	0	32962	32167	33019	32175	31413	33799	32830	33324	
1086	0	110	1210	28	2020	657	0	32417	32670	32207	32438	32299	33159	32749	33014	
1087	0	137	1235	28	1979	658	0	32317	32671	31963	32617	33063	32845	32531	33074	
1088	0	91	1224	28	2000	659	0	32414	32951	32035	32714	32668	32807	32039	33065	
1089	0	120	1277	29	1964	660	0	32324	32893	32029	33018	32671	32589	32025	33135	
1090	0	164	1231	29	1976	661	0	32287	33071	32011	33170	32571	32577	32053	33189	
1091	0	103	1259	28	2021	662	0	32551	32853	32199	32956	32335	32631	32479	33087	
1092	0	105	1259	28	1995	663	0	32997	32756	32442	32735	32303	32738	32868	32655	
1093	0	148	1221	28	1964	664	0	33305	32482	32743	32571	32183	32799	32999	32543	
1094	0	125	1229	29	1929	665	0	32966	32499	32822	32701	32621	32473	33093	32588	
1095	0	144	1167	29	1971	666	0	32327	33043	32675	32903	32687	32355	32903	32631	
1096	0	129	1283	29	1971	667	0	31999	33108	32357	33010	32895	32765	32583	32466	
1097	0	111	1231	29	1963	668	0	31900	32970	32566	32970	32719	32921	32402	32639	
1098	0	104	1268	29	1945	669	0	32069	33015	32856	32941	32827	32445	32571	32678	
1099	0	130	1226	28	1984	670	0	32588	32635	32775	32819	32663	32063	32711	32405	
1100	0	121	1260	29	1930	671	0	33153	32770	33358	32835	32968	32423	32646	32484	
1101	0	141	1239	29	1952	672	0	33571	32443	33940	32677	32717	33159	32690	32863	
1102	0	81	1233	30	1992	673	0	33359	32566	33600	32965	32724	33301	32628	32894	
1103	0	113	1242	30	1976	674	0	32443	33023	32999	33109	32487	33133	32439	32718	
1104	0	120	1219	28	1997	675	0	32116	32838	32677	33069	32435	33066	32303	32845	
1105	0	74	1226	30	1971	676	0	32721	32871	32557	32815	32279	33399	32705	33010	
1106	0	102	1267	28	2001	677	0	33200	32383	32807	32303	32236	33895	33095	33047	
1107	0	153	1259	29	1969	678	0	32715	32501	32522	32301	32763	33542	32951	33264	
1108	0	100	1223	29	1917	679	0	31824	32839	32099	32659	33119	32409	32262	33615	
1109	0	96	1263	28	1963	680	0	30841	33191	31870	32974	33159	32031	32333	33175	
1110	0	140	1218	29	1995	681	0	31223	33532	31650	32826	33251	32191	32682	32733	
1111	0	100	1261	29	1971	682	0	32407	33328	31827	32533	33271	32309	33105	32337	
1112	0	132	1266	28	1958	683	0	33530	32743	31987	32229	33287	32567	33139	32206	
1113	0	113	1204	29	1979	684	0	33799	32668	31858	32399	33095	32855	32955	32163	
1114	0	129	1239	29	1971	685	0	33569	32448	31963	32348	32999	32525	32893	32122	
1115	0	146	1276	28	1994	686	0	33388	32439	32033	32237	32711	32231	32647	32293	
1116	0	119	1283	28	1975	687	0	32831	32461	32078	32231	32662	32343	32402	32627	
1117	0	138	1190	28	2000	688	0	32095	32631	31773	32473	32132	32479	32085	32727	
1118	0	175	1256	28	1996	689	0	32017	32775	31707	32485	32390	32476	32371	32621	
1119	0	145	1242	28	1970	690	0	32534	32903	31830	32639	32239	33254	32711	33126	
1120	0	113	1248	30	1956	691	0	32763	32543	31851	32430	32057	33733	33113	33366	
1121	0	95	1218	29	1993	692	0	32746	32471	31387	32301	32047	33367	33396	33259	
1122	0	141	1223	28	1988	693	0	32703	32335	31407	32487	32211	33023	33119	32966	
1123	0	110	1255	29	1996	694	0	32828	32471	31703	32686	31996	32669	32669	32745	
1124	0	131	1245	28	1929	695	0	32640	33053	31356	32975	32184	32455	32499	32830	
1125	0	69	1231	28	1931	696	0	32676	33227	31517	33139	32810	32219	32803	32562	
1126	0	145	1208	28	1970	697	0	32925	32895	32111	33047	33019	32470	32961	32485	
1127	0	124	1258	30	1962	698	0	32669	33119	32663	33142	33447	32411	32934	32489	
1128	0	106	1246	29	1969	699	0	32194	33018	33415	33257	33357	32405	32715	32615	
1129	0	86	1178	29	1967	700	0	31903	32609	33743	33030	33146	32479	32690	32502	
1130	0	122	1201	28	1987	701	0	32605	32359	34157	32679	32519	32609	32450	32284	
1131	0	152	1213	30	1970	702	0	34695	32066	34231	32285	31971	32719	32326	32198	
1132	0	141	1204	28	1954	703	0	36204	31899	33967	32023	31482	32991	32461	32495	
1133	0	137	1215	28	1980	704	0	35670	31998	34183	32404	31837	33915	32619	32971	
1134	0	143	1268	28	1990	705	0	33848	32719	33373	32979	32210	34182	32655	33325	
1135	0	111	1268	30	1946	706	0	31588	33083	32423	33579	32595	33735	32547	33287	
1136	0	141	1206	27	1962	707	0	30633	33511	31550	33542	33538	33493	32890	33379	
1137	0	104	1229	29	1960	708	0	30511	33494	31438	33413	33972	33050	33213	33270	
1138	0	126	1295	28	1944	709	0	30806	33287	31583	33182	33709	32407	32722	32982	
1139	0	154	1258	29	1972	710	0	31734	33167	31834	33099	33447	32066	32535	32919	
1140	0	94	1203	29	1985	711	0	32464	32991	31963	32991	33087	31902	32519	32822	
1141	0	102	1214	30	1976	712	0	32564	33255	32049	33067	33114	31863	32567	32563	
1142	0	117	1254	29	1985	713	0	32356	33023	32105	32851	33095	31985	32647	32530	
1143	0	127	1261	28	1985	714	0	32482	32529	32228	32391	32617	32110	32695	32775	
1144	0	133	1236	28	1994	715	0	32530	32733	32241	32455	32757	31927	32727	32729	
1145	0	95	1278	29	1937	716	0	32604	32555	32297	32427	33015	31831	32668	32614	
1146	0	107	1267	27	1976	717	0	33193	31887	32916	31894	32000	32258	32233	32713	
1147	0	133	1207	30	2004	718	0	33782	31467	33548	31598	31474	33195	32556	32903	
1148	0	122	1245	29	2000	719	0	34112	31403	33583	31170	31610	33449	32723	32612	
1149	0	162	1242	28	1986	720	0	33813	31900	33287	31933	32065	33593	32693	32482	
1150	0	122	1228	30	1944	721	0	33603	32111	33283	31895	32151	33798	32813	32126	
1151	0	163	1256	29	1966	722	0	33471	32511	33323	32443	32233	33362	32903	32531	
1152	0	147	1236	28	1946	723	0	33231	32947	33207	32299	32642	33138	33010	32991	
1153	0	93	1232	29	1996	724	0	33053	33079	32977	32085	33331	32871	33275	33351	
1154	0	116	1223	26	1968	725	0	32638	33427	32679	32293	33703	32757	33125	33435	
1155	0	133	1255	28	1988	726	0	32058	33398	32455	32786	33431	32463	32831	32948	
1156	0	139	1238	28	1951	727	0	32078	33339	32581	32932	33007	32466	32959	32617	
1157	0	129	1234	28	1956	728	0	32272	33248	32903	33217	32527	32453	32903	32742	
1158	0	84	1258	29	1977	729	0	32140	33431	32603	33656	32435	32423	32597	32479	
1159	0	84	1228	29	1952	730	0	32153	33263	32603	33863	32686	32444	32571	32503	
1160	0	108	1266	29	2005	731	0	32532	32671	32591	33854	32659	32889	32543	32767	
1161	0	128	1231	29	1978	732	0	32647	32199	32602	33790	32799	33223	32495	32879	
1162	0	111	1191	29	2010	733	0	32599	31967	32381	33863	32775	33069	32499	32591	
1163	0	116	1226	28	1965	734	0	32497	32143	32173	34134	32915	32487	32497	32431	
1164	0	107	1197	28	1952	735	0	32519	32295	32135	34017	32692	32567	32490	32293	
1165	0	134	1206	29	1961	736	0	32756	32439	32125	33771	32355	32927	32375	32483	
1166	0	162	1230	27	1980	737	0	32967	32642	32055	33527	32333	33207	32535	32903	
1167	0	132	1289	29	2002	738	0	33354	32586	32303	33510	32318	33430	32710	32985	
1168	0	134	1268	29	1970	739	0	33519	32551	32316	33121	32462	33045	32703	33007	
1169	0	90	1233	30	1991	740	0	33147	32599	31879	32812	32631	32697	32655	32919	
1170	0	136	1202	29	1952	741	0	32756	32698	31311	32838	32423	32771	32549	32887	
1171	0	140	1213	29	1952	742	0	32615	32943	31419	32887	32372	32983	32431	33024	
1172	0	112	1252	29	1940	743	0	32705	32917	31348	32470	32659	32775	32671	32631	
1173	0	160	1218	28	1988	744	0	32514	33009	31111	32525	32925	32720	32545	32741	
1174	0	108	1227	28	1975	745	0	32516	33077	31031	32567	32711	32598	32564	32742	
1175	0	146	1240	28	1972	746	0	32779	32817	31383	32347	32453	32684	32658	32594	
1176	0	146	1231	29	1978	747	0	32986	32673	31772	32269	32621	32991	32775	32786	
1177	0	104	1247	28	1945	748	0	32926	32667	31957	32383	32751	32998	32743	32891	
1178	0	109	1235	29	1975	749	0	33058	32329	32231	32055	33223	33167	33101	32783	
1179	0	126	1228	29	1954	750	0	33261	32218	32575	31893	33695	32956	33879	32221	
1180	0	90	1260	28	2000	751	0	33156	32407	32215	31603	33197	32741	33561	32004	
1181	0	87	1281	27	1991	752	0	32615	32852	29991	31938	32439	33102	32820	31529	
1182	0	130	1221	28	1955	753	0	32223	33191	30191	32043	32543	33319	32375	31383	
1183	0	101	1202	30	1963	754	0	32359	33383	30815	32391	33061	33303	32420	31965	
1184	0	135	1247	30	1954	755	0	32499	33143	31191	32373	32937	32903	32600	32167	
1185	0	110	1256	29	2035	756	0	32471	32995	31419	32563	32866	32655	32578	32331	
1186	0	132	1241	28	1942	757	0	32487	32844	31717	32443	32660	32609	32605	32567	
1187	0	159	1233	30	1977	758	0	32525	32668	32251	32491	32247	32978	32385	32913	
1188	0	118	1231	28	1985	759	0	32935	32359	33533	32327	31621	33565	32479	32837	
1189	0	113	1246	29	2005	760	0	33250	32315	34288	32340	31834	33303	32943	33627	
1190	0	148	1255	28	1939	761	0	32921	32669	34431	32589	32880	31390	33206	33573	
1191	0	109	1254	28	1994	762	0	32526	32945	34259	32718	33099	29799	32794	33643	
1192	0	87	1231	29	1940	763	0	32491	32955	34123	32720	33122	30375	32566	33701	
1193	0	99	1268	29	1953	764	0	32660	32852	34422	32641	32855	31659	32501	33731	
1194	0	110	1222	29	1936	765	0	32665	32839	34471	32749	32803	32287	32399	33795	
1195	0	139	1244	27	1985	766	0	32707	32735	35021	33045	32855	32738	32389	33461	
1196	0	95	1254	27	1962	767	0	32644	32737	34514	33063	32860	32807	32399	33172	
1197	0	45	1247	29	1936	768	0	32647	32852	32725	33203	32659	32637	32246	33159	
1198	0	108	1219	29	1952	769	0	32681	32902	32895	33113	32535	32679	32108	33159	
1199	0	133	1224	26	1947	770	0	32727	33114	32985	33285	32507	32575	32151	33405	
1200	0	113	1286	28	1971	771	0	33085	32775	33159	33039	32495	32501	32559	33453	
1201	0	91	1208	28	1976	772	0	33671	32423	33701	32863	32563	33441	33093	33632	
1202	0	135	1199	29	1958	773	0	34455	32060	34124	32957	32373	34155	33551	34030	
1203	0	157	1250	29	1982	774	0	34178	32412	34631	33155	32575	33655	33229	33847	
1204	0	160	1261	28	1935	775	0	33349	32765	34861	33279	32914	33383	32543	33605	
1205	0	124	1263	29	2004	776	0	32644	32903	34271	33255	32874	32870	32420	32935	
1206	0	152	1227	28	1965	777	0	31732	33133	33859	33079	32526	32186	32029	32590	
1207	0	143	1212	28	2002	778	0	31162	33439	32977	32986	32567	31943	31869	32607	
1208	0	117	1213	29	1962	779	0	31628	33182	32749	32677	32647	32099	32519	32295	
1209	0	111	1215	29	1930	780	0	32169	32679	32599	32206	32717	32567	32954	32006	
1210	0	130	1253	28	1988	781	0	32585	32647	32769	32021	33231	33257	33271	31849	
1211	0	141	1209	29	1984	782	0	32790	32306	33296	31837	33363	33388	33519	32007	
1212	0	113	1260	28	1933	783	0	32850	32511	33773	31978	33015	33299	33423	32061	
1213	0	133	1226	29	1957	784	0	32550	32707	33519	32143	32977	32884	33005	31918	
1214	0	153	1244	27	1933	785	0	32434	32951	33275	32301	32639	32775	32933	31924	
1215	0	115	1216	29	1971	786	0	32642	32715	32975	32223	32673	32863	32924	32126	
1216	0	88	1220	28	1987	787	0	32758	32679	32759	32238	32435	33159	32964	32154	
1217	0	162	1234	28	1974	788	0	32951	32724	32630	32391	32491	33229	32971	32299	
1218	0	125	1251	31	1976	789	0	32740	32690	32271	32431	32549	32927	32799	32039	
1219	0	82	1227	28	1964	790	0	32466	33117	31983	32819	33024	32659	32734	32075	
1220	0	136	1185	29	1961	791	0	32444	32732	31611	32900	33159	32345	32682	32151	
1221	0	170	1219	27	1931	792	0	32679	32734	31979	32943	32823	32431	32615	32187	
1222	0	132	1254	29	1978	793	0	32924	32571	32611	33054	32747	32165	32437	32385	
1223	0	143	1258	28	1972	794	0	33007	32775	33127	33199	32277	32617	32242	32735	
1224	0	135	1252	29	1950	795	0	32933	32609	33295	33401	32101	33249	32279	32966	
1225	0	92	1236	29	1961	796	0	33215	32471	33851	33463	31750	33655	32263	33367	
1226	0	109	1207	28	1956	797	0	33423	32367	34070	33159	32047	33628	32310	33589	
1227	0	114	1244	29	1955	798	0	33280	32255	33763	32637	32245	33511	32427	33693	
1228	0	124	1213	29	1962	799	0	32943	32597	33513	32517	32524	32996	32468	33319	
1229	0	72	1237	28	1993	800	0	32956	32647	33605	32535	33062	32463	32580	33135	
1230	0	131	1220	29	1990	801	0	33422	33146	33343	32861	33385	32378	32999	32749	
1231	0	95	1242	28	1931	802	0	33135	33235	32979	33023	33247	32494	33287	32351	
1232	0	110	1243	29	1988	803	0	32936	33043	32775	32941	32930	32807	32978	32435	
1233	0	143	1246	27	1959	804	0	33154	32991	32107	32843	32615	32679	32647	32543	
1234	0	129	1248	29	1954	805	0	32871	32991	31711	33159	32667	32424	33087	32343	
1235	0	100	1281	29	1957	806	0	32084	33191	32302	33129	32492	32503	33143	32301	
1236	0	136	1268	30	1949	807	0	31977	32807	32583	32799	32687	32347	32903	32474	
1237	0	112	1205	29	1960	808	0	31976	32445	31938	32735	32497	32743	32683	32775	
1238	0	99	1235	28	1960	809	0	31879	32867	31293	32843	32539	33124	32818	33203	
1239	0	112	1253	30	1972	810	0	32135	32543	31405	32495	32571	33133	32622	33261	
1240	0	108	1235	30	1944	811	0	32861	32795	31979	32443	32903	32991	32474	33135	
1241	0	90	1235	28	1943	812	0	32864	32708	31931	32508	33103	32871	32495	33143	
1242	0	153	1229	29	1962	813	0	33018	32670	31751	32548	33038	33027	32739	33173	
1243	0	111	1224	29	2003	814	0	33102	32636	31811	32578	32815	33074	32767	32918	
1244	0	115	1215	29	1982	815	0	32487	32628	31879	32530	32683	32903	32818	32791	
1245	0	117	1225	29	1994	816	0	32024	32656	30109	32407	32665	32902	32738	32615	
1246	0	159	1212	28	1967	817	0	32343	32517	28222	32391	32391	32775	32643	32421	
1247	0	107	1207	28	1995	818	0	32980	32717	29687	32568	32524	32833	32611	32479	
1248	0	134	1252	28	1954	819	0	33479	32677	30621	32579	32751	32628	32487	32412	
1249	0	128	1275	28	1974	820	0	33497	32991	31358	32681	32823	32308	32415	32447	
1250	0	108	1238	29	1974	821	0	33255	32867	31887	32589	32858	32459	32417	32485	
1251	0	104	1289	29	1967	822	0	33052	32751	32237	32613	32551	32231	32391	32343	
1252	0	124	1234	29	1958	823	0	32903	32789	32511	32287	32559	32103	32359	32371	
1253	0	110	1215	29	1956	824	0	33064	32487	32673	32165	32009	32263	32489	32560	
1254	0	119	1240	28	1937	825	0	32734	32411	33047	32583	32359	32366	32991	32781	
1255	0	111	1240	27	1974	826	0	32669	32543	33389	32837	32815	32511	33482	33083	
1256	0	119	1227	28	1957	827	0	32391	32347	33223	32681	33028	32731	33302	32967	
1257	0	100	1257	29	1942	828	0	32043	32421	32514	32700	32413	33265	32694	32493	
1258	0	144	1258	28	1982	829	0	31994	32818	32250	32989	32319	33765	32679	32477	
1259	0	106	1222	28	1985	830	0	32298	32875	31878	33527	32572	34259	32991	32583	
1260	0	157	1240	27	1963	831	0	32749	33188	32151	33933	32991	33791	33203	32763	
1261	0	130	1192	30	1942	832	0	32741	33140	32171	33989	32563	33415	32924	32895	
1262	0	162	1248	29	1964	833	0	32858	33257	32215	34146	32578	33117	32671	32767	
1263	0	125	1222	27	1989	834	0	32953	33287	32387	33978	33145	33014	32747	32825	
1264	0	103	1211	29	1960	835	0	32837	32658	32527	33595	32885	33012	32644	33069	
1265	0	136	1236	28	1989	836	0	32639	32807	32937	33071	32604	32381	32683	33215	
1266	0	128	1279	29	1981	837	0	32514	32751	32647	32692	32687	31827	32566	33151	
1267	0	119	1245	28	1987	838	0	32705	32465	33404	32070	33018	31726	32775	33115	
1268	0	152	1222	29	1976	839	0	33126	32543	33575	31548	32775	31338	32614	32991	
1269	0	134	1205	28	1979	840	0	33281	32398	33707	31619	32583	31833	32055	32971	
1270	0	136	1260	27	1974	841	0	33320	32309	33577	31879	32255	32123	32214	32620	
1271	0	141	1225	28	1930	842	0	33236	32563	33667	31983	32461	32775	32614	32583	
1272	0	109	1235	29	1989	843	0	33254	32450	33471	32255	32175	33174	32759	32813	
1273	0	122	1272	29	1930	844	0	33071	32775	32996	32431	32167	33590	32534	32875	
1274	0	125	1221	29	1988	845	0	32933	32671	32837	32485	32093	33713	32391	33190	
1275	0	127	1225	29	1974	846	0	32951	32476	32711	32478	32635	33701	32791	33251	
1276	0	106	1245	29	1985	847	0	32751	32799	32854	32669	32765	33413	33133	33179	
1277	0	117	1271	29	1949	848	0	32253	32959	32659	32871	32985	33015	32791	32933	
1278	0	113	1280	30	1976	849	0	31873	33584	32231	33122	33143	32391	32911	32659	
1279	0	116	1274	28	1976	850	0	31743	33567	32215	33127	33407	32186	32775	32482	
1280	0	116	1247	29	1932	851	0	32025	33077	32143	33053	33066	32223	32487	32525	
1281	0	126	1210	30	1945	852	0	32450	32830	32455	32796	32875	32575	32847	32436	
1282	0	142	1240	29	1956	853	0	32836	32407	32617	32543	32658	33073	32882	31462	
1283	0	143	1238	29	1942	854	0	32992	32535	32815	32349	32165	33793	32647	31125	
1284	0	69	1248	28	1956	855	0	33016	32479	32935	32143	32221	34174	32692	30874	
1285	0	117	1242	29	1963	856	0	32854	32451	33383	32135	32165	34011	33051	30487	
1286	0	122	1201	28	1964	857	0	32998	32678	33884	32335	32092	33799	32983	30615	
1287	0	178	1241	28	1988	858	0	33102	32429	34207	32461	32007	33623	33077	31221	
1288	0	122	1237	30	1972	859	0	33176	32549	34367	32481	32445	33036	32991	31851	
1289	0	104	1190	29	1977	860	0	33250	32686	34463	32842	32871	33607	33229	32615	
1290	0	128	1168	29	1982	861	0	33126	32617	34201	33309	33147	33595	32815	33583	
1291	0	127	1273	28	2016	862	0	32969	32935	34255	33575	33189	33002	32743	34687	
1292	0	120	1268	29	1995	863	0	32692	32914	33943	33683	32993	31449	32389	35763	
1293	0	107	1285	27	1986	864	0	32428	32871	33602	33598	32845	29595	31861	36271	
1294	0	144	1261	28	1937	865	0	32340	33155	33556	33556	32691	28622	31605	36100	
1295	0	106	1220	28	1969	866	0	32442	32997	33183	33463	32575	28815	31822	35407	
1296	0	90	1216	29	1973	867	0	32548	32805	33113	33159	32743	29637	32103	34541	
1297	0	114	1235	29	1943	868	0	32775	32935	33159	32903	32803	30978	32182	33859	
1298	0	99	1267	29	1966	869	0	33117	32594	33223	32739	32530	32735	32727	33525	
1299	0	120	1251	29	1948	870	0	33614	32095	33735	32279	32973	34111	33363	33415	
1300	0	139	1259	29	1998	871	0	33306	32253	33663	32039	32915	34515	33379	33053	
1301	0	110	1227	28	1956	872	0	32007	32815	32939	32279	32925	33615	33010	32318	
1302	0	129	1235	28	1979	873	0	31698	33215	32807	32669	33137	33325	32759	31834	
1303	0	144	1227	28	2006	874	0	32385	33055	33965	33089	33635	33371	33095	31715	
1304	0	126	1266	29	1987	875	0	32743	33010	34717	33185	33687	33477	33389	31687	
1305	0	142	1238	29	2002	876	0	32398	32647	34804	33397	33270	33590	33406	31735	
1306	0	125	1271	29	1907	877	0	32796	32851	34931	33415	32957	33106	33287	31711	
1307	0	81	1250	28	2020	878	0	33010	32933	34311	33182	32687	32735	33193	31709	
1308	0	106	1231	30	1988	879	0	33316	32722	33467	32955	32287	32766	32759	31950	
1309	0	104	1229	29	1993	880	0	33590	32989	32835	32679	31745	32889	32206	32218	
1310	0	136	1252	28	1968	881	0	33029	32802	32351	32615	31284	33134	31759	32500	
1311	0	122	1270	28	2010	882	0	32495	32639	31991	32436	31075	33513	31284	32917	
1312	0	143	1232	29	1964	883	0	32709	32743	31911	32375	31143	34178	31547	33357	
1313	0	183	1231	29	1988	884	0	32364	32695	31884	32346	31645	34009	32413	33311	
1314	0	119	1261	28	1994	885	0	32199	32819	31723	32329	32719	33587	32695	33105	
1315	0	102	1229	28	2002	886	0	33018	32835	32079	32263	33429	33055	33287	32713	
1316	0	96	1189	29	2014	887	0	32879	32615	32231	32415	33111	32771	33125	32535	
1317	0	110	1234	29	1979	888	0	32501	32977	32311	32689	33119	32527	32962	32335	
1318	0	142	1226	27	1974	889	0	32501	32767	32199	32551	33317	32563	32989	32209	
1319	0	151	1228	28	2013	890	0	32903	32734	32203	32302	33364	32581	33317	32151	
1320	0	140	1267	28	1956	891	0	33175	32318	32540	31985	33255	32799	33506	32359	
1321	0	98	1204	28	1989	892	0	33140	32383	32701	31607	33094	32666	33461	32189	
1322	0	116	1266	30	1974	893	0	32783	32444	32532	31602	32998	32455	33326	32061	
1323	0	124	1255	29	1979	894	0	32578	32623	32303	31927	32869	32327	33071	32321	
1324	0	123	1233	29	1984	895	0	32420	32903	32175	32391	32879	32327	32758	32675	
1325	0	140	1250	29	1970	896	0	32475	32787	32436	32573	32847	32189	32647	32843	
1326	0	112	1260	28	1975	897	0	32783	32738	32711	32871	32829	32391	32583	32660	
1327	0	134	1241	29	1990	898	0	33159	33127	32815	33517	32663	32367	32587	32583	
1328	0	98	1252	29	1959	899	0	33303	33092	32917	33983	32391	32333	32560	32363	
1329	0	99	1253	29	1982	900	0	33268	32892	33000	33991	32359	32951	32550	32567	
1330	0	119	1239	28	1965	901	0	33221	32751	33215	33999	32164	33287	32403	32850	
1331	0	104	1198	29	1971	902	0	32906	32443	32751	34040	32214	33223	32003	33287	
1332	0	124	1231	29	1956	903	0	32933	32629	32805	33863	32135	33266	32215	33363	
1333	0	66	1244	29	1971	904	0	33100	32686	32751	33579	32507	33619	32937	33123	
1334	0	101	1245	29	1970	905	0	33017	32658	32999	33335	32567	33695	32807	33059	
1335	0	101	1247	29	2005	906	0	32780	32756	32789	33019	32879	33399	32887	33027	
1336	0	117	1212	30	1988	907	0	32795	32821	32567	32941	33303	33081	33221	32903	
1337	0	121	1244	28	1963	908	0	32663	32783	32548	32772	33940	32714	33335	32772	
1338	0	128	1244	29	1941	909	0	31795	33402	32103	32866	33721	31981	33104	32380	
1339	0	98	1261	29	1979	910	0	31260	33543	31746	32695	33415	31802	32948	32447	
1340	0	122	1221	28	1971	911	0	31531	33069	32017	32451	32525	31893	32375	32707	
1341	0	139	1204	29	1969	912	0	32067	32514	32593	32093	31468	32239	32303	32975	
1342	0	112	1239	28	2000	913	0	32740	32391	33085	31943	31479	32532	32303	32997	
1343	0	108	1204	28	1982	914	0	33340	32578	32989	32129	32629	32561	32774	32697	
1344	0	115	1239	29	1930	915	0	33693	32695	32999	32343	32690	32871	32838	32685	
1345	0	145	1229	28	1993	916	0	33359	32588	33609	32473	32786	32663	32497	32391	
1346	0	114	1232	29	1946	917	0	32911	32467	33519	32587	32454	32703	32187	32642	
1347	0	132	1246	28	1945	918	0	32607	32309	33499	32539	32383	32415	32175	32639	
1348	0	143	1230	29	1966	919	0	32341	32263	33381	32391	32387	32281	32231	32621	
1349	0	143	1265	28	1988	920	0	32231	32876	32825	32555	32836	32371	32460	32727	
1350	0	131	1261	28	1954	921	0	32496	32910	33151	32647	33177	32764	33024	33043	
1351	0	118	1200	29	1940	922	0	32576	32887	33473	32662	33089	33671	33129	33066	
1352	0	120	1248	27	1998	923	0	32596	32711	33074	32591	32842	34431	33071	32823	
1353	0	129	1253	29	1981	924	0	32832	32271	32903	32591	32516	34212	33062	32847	
1354	0	136	1207	28	1970	925	0	33009	32420	33191	32548	31863	33479	32926	32993	
1355	0	158	1238	29	1961	926	0	32775	32782	32909	32812	32148	32803	32834	32812	
1356	0	121	1236	29	1994	927	0	32554	33219	32468	33069	32604	32573	32957	32637	
1357	0	108	1212	29	1980	928	0	32976	33223	32683	33142	32732	32527	32763	32623	
1358	0	120	1262	29	1971	929	0	33142	32865	32854	33319	32943	32415	32695	32675	
1359	0	107	1226	29	1976	930	0	33130	32614	32811	32773	32815	32217	32715	32594	
1360	0	76	1228	29	1991	931	0	33191	32539	32823	32071	32590	32559	32517	32747	
1361	0	115	1242	28	1932	932	0	33053	32559	32617	31614	32487	32615	32479	32839	
1362	0	97	1229	30	1944	933	0	32903	32556	32367	32015	32539	32391	32511	32715	
1363	0	84	1225	28	2000	934	0	32778	32710	32037	32263	32577	32169	32487	32710	
1364	0	133	1206	30	2004	935	0	32924	32691	32391	31994	32543	32575	32487	32935	
1365	0	126	1259	29	1976	936	0	33250	32374	33522	31623	32463	32553	32548	32892	
1366	0	104	1254	29	1938	937	0	33255	32391	34310	31983	32548	32143	32930	32766	
1367	0	115	1234	29	1956	938	0	33099	32621	33533	32463	32782	32515	33115	32466	
1368	0	151	1277	29	1988	939	0	32615	32923	33044	32999	33127	32580	32951	32543	
1369	0	117	1211	28	1995	940	0	32357	33019	32743	32983	33005	33031	32917	32740	
1370	0	154	1245	29	1958	941	0	32487	32852	32787	33037	32726	33573	32679	32623	
1371	0	106	1228	29	1947	942	0	32500	32775	33098	33270	32183	33513	32375	32711	
1372	0	105	1237	28	1951	943	0	32468	33076	32807	33589	32538	33043	32509	32499	
1373	0	121	1263	29	1999	944	0	32766	32903	32591	33791	32897	33111	32807	32647	
1374	0	78	1261	29	1956	945	0	32623	32876	32445	33794	32983	32862	32763	33007	
1375	0	98	1220	29	1959	946	0	32592	32797	32015	33784	32895	32922	32471	32999	
1376	0	102	1277	29	1983	947	0	32410	32647	31897	33635	32747	33035	32724	32845	
1377	0	89	1250	29	1998	948	0	32287	33071	32073	33607	32829	33423	32841	32697	
1378	0	149	1214	29	1989	949	0	32294	32919	32121	33089	32689	33077	32609	32798	
1379	0	114	1176	29	1945	950	0	32535	32731	32231	33082	32824	32821	32511	32994	
1380	0	183	1251	30	1969	951	0	32748	32887	32291	32817	32415	32903	32935	32061	
1381	0	51	1236	28	1953	952	0	32834	32539	32358	32469	32391	33599	32619	31797	
1382	0	126	1241	29	1950	953	0	32656	33057	32295	32551	32603	33399	32479	32092	
1383	0	144	1223	28	1992	954	0	32641	32959	32435	32308	32501	32871	32531	32215	
1384	0	126	1247	28	1972	955	0	32775	32675	32407	32102	32551	32604	32645	31929	
1385	0	127	1235	29	1974	956	0	32836	32889	32757	31990	32471	32377	32679	32189	
1386	0	118	1219	28	1971	957	0	32737	32891	32995	32404	32885	32511	32901	32841	
1387	0	133	1257	28	1993	958	0	32970	32709	33156	32637	32967	32864	32681	33243	
1388	0	77	1210	29	1938	959	0	33298	32775	33020	32821	32686	32525	32607	33727	
1389	0	114	1222	29	1903	960	0	33239	32797	33295	33045	32767	32047	32609	34139	
1390	0	125	1202	29	1990	961	0	33129	32749	33234	32989	32559	31099	32810	34365	
1391	0	110	1229	29	1982	962	0	33455	32635	33438	32845	32511	30460	32877	34027	
1392	0	121	1271	29	1970	963	0	33641	32391	35431	32764	32366	30803	32903	33479	
1393	0	139	1275	29	1940	964	0	33137	32749	35030	32834	32551	31301	32861	33215	
1394	0	104	1228	30	1952	965	0	32666	33018	34642	32931	32738	31383	32622	32867	
1395	0	118	1251	30	1970	966	0	32665	32785	34667	32895	33059	32277	32495	32813	
1396	0	117	1246	28	1982	967	0	32810	33054	34387	32827	32963	32855	32123	32839	
1397	0	118	1233	29	2014	968	0	33838	32456	34343	32321	32935	33831	32387	33279	
1398	0	120	1278	28	1956	969	0	33979	31821	33618	31927	32535	34945	32775	33607	
1399	0	92	1233	29	1996	970	0	32647	32074	32597	31847	31540	35389	33126	33546	
1400	0	126	1237	28	1989	971	0	31319	32846	31111	32623	32212	34062	33023	33009	
1401	0	97	1238	28	1953	972	0	30638	33349	30087	33021	33389	33032	32969	32619	
1402	0	113	1269	29	2018	973	0	30511	33671	29409	33254	33600	32445	32692	32375	
1403	0	102	1270	30	1924	974	0	31081	33623	29166	33029	33327	32389	32795	32054	
1404	0	76	1225	28	1981	975	0	31890	33063	29749	32367	32980	32836	32719	32007	
1405	0	124	1209	30	1986	976	0	32097	32707	30371	32127	32875	33007	32743	32135	
1406	0	95	1272	29	1994	977	0	32231	32861	31039	32081	32967	32931	32697	32148	
1407	0	89	1255	29	1958	978	0	32621	32759	31403	32326	33045	32761	32725	32075	
1408	0	98	1218	28	1966	979	0	33110	32509	32105	32527	33391	32582	32958	32002	
1409	0	134	1221	30	1966	980	0	33328	32607	32399	32669	33167	32593	32805	32129	
1410	0	164	1250	29	1946	981	0	33117	32567	32627	32738	32927	32645	32472	32194	
1411	0	93	1230	29	1983	982	0	33164	32243	32979	32639	32087	32667	32345	32338	
1412	0	131	1218	28	1994	983	0	33453	32325	33684	32646	31359	32935	32519	32692	
1413	0	124	1265	29	1975	984	0	33733	32431	33900	32806	31223	33023	32459	32835	
1414	0	110	1243	29	1955	985	0	34301	32188	33876	32630	31847	33063	32967	33055	
1415	0	120	1211	30	1942	986	0	34610	32093	34089	32167	32471	33413	33367	33147	
1416	0	75	1218	29	1935	987	0	33953	32447	33823	32467	32931	32662	33255	32951	
1417	0	90	1222	29	1942	988	0	32644	32833	33317	32864	32903	31897	32775	32583	
1418	0	129	1255	29	1996	989	0	31878	33641	32762	33207	33135	31811	32551	32387	
1419	0	136	1226	29	1984	990	0	31924	33647	32695	33292	33513	32010	32954	32319	
1420	0	122	1252	29	1965	991	0	32512	33079	32791	33079	33479	32615	33047	32114	
1421	0	124	1261	28	1962	992	0	32802	32669	33012	32765	32931	32679	32791	32081	
1422	0	144	1253	28	1920	993	0	32525	32903	32611	32724	32885	33051	32531	32279	
1423	0	113	1222	29	1968	994	0	32402	32569	32191	32787	32323	32597	32341	32761	
1424	0	73	1234	29	1966	995	0	32762	32311	32486	32866	31879	32615	32351	32972	
1425	0	96	1222	28	1986	996	0	32874	32605	32723	32860	31611	33351	32287	33158	
1426	0	109	1245	29	1985	997	0	32831	32286	32879	32509	31875	34342	32538	33423	
1427	0	115	1231	27	1962	998	0	32993	32307	33153	32647	31789	34959	32892	33668	
1428	0	135	1237	28	1999	999	0	33174	32582	33228	32989	31949	34174	32758	33659	
1429	0	130	1227	29	1960	1000	0	32289	33303	32836	33111	32621	33182	32679	33231	
1430	0	127	1200	28	1987	1001	0	31719	33473	32431	33071	33063	32472	32615	33050	
1431	0	148	1256	29	1969	1002	0	32059	33666	31935	33141	33647	31995	32919	32769	
1432	0	162	1253	28	1956	1003	0	33132	33239	31747	32987	33583	32003	32837	32583	
1433	0	92	1261	29	1984	1004	0	33356	33170	31651	32671	33447	32150	32855	32540	
1434	0	54	1221	29	1947	1005	0	32999	32599	31879	32466	32804	32548	32893	32463	
1435	0	109	1260	28	1988	1006	0	32389	32147	31851	32574	32875	32643	32899	32607	
1436	0	122	1228	28	2020	1007	0	32105	32338	31949	32793	32931	32870	32582	32815	
1437	0	120	1260	29	1984	1008	0	32477	32426	32291	32807	32876	32556	32527	32743	
1438	0	109	1248	29	1963	1009	0	32781	32367	32349	32883	32711	32485	32735	32685	
1439	0	129	1262	28	2012	1010	0	32932	32719	32456	32830	32711	32557	32870	32679	
1440	0	88	1213	29	1973	1011	0	33121	32703	32892	32798	32564	32557	32687	32611	
1441	0	110	1238	29	1979	1012	0	33318	32646	33237	32860	32567	32535	32447	32667	
1442	0	123	1248	30	1984	1013	0	33706	32693	33155	32801	32519	32287	32371	32542	
1443	0	140	1265	29	1930	1014	0	33991	32612	33007	32810	32621	32298	32293	32545	
1444	0	73	1241	28	1999	1015	0	34045	32735	32697	32751	32373	32647	32103	32692	
1445	0	105	1246	29	1935	1016	0	33718	32724	32642	32741	32100	32762	32391	32402	
1446	0	162	1278	29	1985	1017	0	32707	32844	32327	32647	32375	32751	32471	32760	
1447	0	132	1261	28	1952	1018	0	32184	32783	32247	32774	32399	32923	32692	32967	
1448	0	104	1236	28	1966	1019	0	31750	33230	32383	32775	32415	32835	32599	33031	
1449	0	109	1237	30	1940	1020	0	31215	33140	32542	32823	32365	32759	32831	32815	
1450	0	163	1230	30	1954	1021	0	31082	33007	32821	32767	32638	32903	33001	32469	
1451	0	114	1256	28	1940	1022	0	32028	32550	34263	32654	32734	33485	33574	32591	
1452	0	97	1263	28	1942	1023	0	33042	32215	34869	32565	33692	34391	34167	32869	
1453	0	119	1257	30	1965	1024	0	33044	32655	34366	32598	33630	33959	33695	33145	
1454	0	86	1239	28	1980	1025	0	32475	33003	33671	32869	33585	32759	32809	33211	
1455	0	126	1244	28	1970	1026	0	32177	33137	32959	32830	33339	32429	32370	32941	
1456	0	113	1224	29	1935	1027	0	32175	32951	32571	32647	33123	32198	32511	32807	
1457	0	137	1237	29	2005	1028	0	32484	32239	32635	32219	32493	32587	32463	32673	
1458	0	123	1244	29	1977	1029	0	32647	32293	32579	32263	31996	33235	32413	32012	
1459	0	98	1243	28	1934	1030	0	32853	32399	32437	32591	32337	33887	32447	32610	
1460	0	165	1239	28	1950	1031	0	32984	32903	32851	32580	32631	33511	32879	31811	
1461	0	69	1203	28	1982	1032	0	33063	32749	32839	32583	32788	33335	32775	31334	
1462	0	88	1226	29	1996	1033	0	33040	32982	32845	32714	32615	32927	32723	31155	
1463	0	142	1242	28	1932	1034	0	33033	32863	32711	32766	32699	32647	32767	31748	
1464	0	122	1202	29	1958	1035	0	32983	32767	32747	32639	32679	32679	32727	32455	
1465	0	113	1248	28	1952	1036	0	33047	32765	32755	32635	32434	32833	32677	32877	
1466	0	124	1226	29	1971	1037	0	33106	32815	32804	32899	32639	32662	32684	33001	
1467	0	156	1230	28	1973	1038	0	33223	32710	32755	32973	32597	31899	32615	33743	
1468	0	107	1240	28	1980	1039	0	33156	32675	32484	33015	32782	31557	32521	34335	
1469	0	113	1240	27	1981	1040	0	33027	33031	32619	33194	32902	30771	32245	34845	
1470	0	147	1267	30	1960	1041	0	32806	32811	32391	33261	33046	30335	32341	34511	
1471	0	130	1220	29	1953	1042	0	32711	32926	32293	32991	32803	30865	32191	34071	
1472	0	107	1269	28	1930	1043	0	32821	32661	32391	32871	32244	31785	32022	33795	
1473	0	109	1215	29	1964	1044	0	32880	32599	32535	32887	32295	32421	32252	33551	
1474	0	83	1253	28	1990	1045	0	32788	32895	32383	32924	32075	32524	32575	33220	
1475	0	106	1217	28	1941	1046	0	32660	32845	32482	32829	32278	32839	32791	33037	
1476	0	132	1224	29	1920	1047	0	32820	32717	32236	32995	32239	33052	32763	32761	
1477	0	85	1207	28	1975	1048	0	32831	32847	32147	33185	32399	33423	32916	32607	
1478	0	116	1208	29	1967	1049	0	32775	32615	32156	33005	32451	33629	33204	32540	
1479	0	115	1240	29	1985	1050	0	33039	32593	32364	32645	32788	34311	33255	32610	
1480	0	157	1248	29	1962	1051	0	32997	32431	32279	32283	33047	34103	33413	32884	
1481	0	114	1201	29	1963	1052	0	32214	33020	32092	32319	33559	33089	33271	32997	
1482	0	95	1206	29	1933	1053	0	31748	33215	31887	32239	33463	32270	32763	32617	
1483	0	112	1235	28	1975	1054	0	31982	32871	31891	32371	33103	31709	32535	32083	
1484	0	128	1258	29	1997	1055	0	32159	33079	31907	32451	32755	32020	32441	31793	
1485	0	138	1237	29	1920	1056	0	32439	32903	31878	32775	32756	32823	32767	31655	
1486	0	144	1272	27	1973	1057	0	32762	32557	32237	32665	32506	33372	32805	31775	
1487	0	105	1252	29	1953	1058	0	33047	32535	32279	32415	32535	33668	32982	31879	
1488	0	144	1250	29	1974	1059	0	33305	32383	32663	32415	32687	33693	33074	31823	
1489	0	92	1257	30	1980	1060	0	33133	32391	32783	32551	32622	33598	32679	31535	
1490	0	149	1236	28	1955	1061	0	32862	32839	32739	32759	32431	33111	32415	31657	
1491	0	129	1217	28	1995	1062	0	32571	32971	32771	32932	32775	32999	32290	31991	
1492	0	110	1227	28	1944	1063	0	32548	33039	32591	32863	33027	32829	32262	32247	
1493	0	90	1266	28	1934	1064	0	32695	33121	32575	32919	32695	32795	32351	32527	
1494	0	103	1201	29	1966	1065	0	33006	32660	32794	32791	32756	33015	32639	32670	
1495	0	96	1267	29	2029	1066	0	33273	32439	32894	32519	32468	33245	32899	32903	
1496	0	115	1242	28	1990	1067	0	33272	32293	33039	32527	32018	32838	32543	32871	
1497	0	144	1246	30	2009	1068	0	33319	32159	33295	32297	31543	32468	32511	32807	
1498	0	136	1256	27	1963	1069	0	33350	32391	33325	32263	32239	33159	32711	33611	
1499	0	146	1214	28	1934	1070	0	33180	32469	33215	32583	32742	33307	32975	34039	
1500	0	158	1224	30	1982	1071	0	32637	32751	33136	32978	32775	32793	32966	33875	
1501	0	119	1208	29	1959	1072	0	32463	33167	33329	33470	32807	32527	33026	33958	
1502	0	120	1220	29	1972	1073	0	32578	33087	33367	33619	33215	32552	33175	33829	
1503	0	119	1224	29	2025	1074	0	33010	32997	33009	33551	33403	32442	33127	33795	
1504	0	145	1205	29	1998	1075	0	32972	33207	32391	33650	33415	32037	32941	33563	
1505	0	137	1283	29	1956	1076	0	32833	32919	32059	33428	33039	31527	32863	33435	
1506	0	101	1252	28	1971	1077	0	32790	32723	31803	33383	33238	30955	32903	33060	
1507	0	152	1237	29	1988	1078	0	32919	32903	31623	33399	33031	31231	32696	32775	
1508	0	130	1227	29	1989	1079	0	32506	32695	31279	32986	32644	31667	32151	32666	
1509	0	122	1232	28	1960	1080	0	31910	32534	31463	32686	32189	32327	31807	32583	
1510	0	142	1254	29	1952	1081	0	31804	32668	31399	32263	31791	33095	31717	32694	
1511	0	148	1233	29	1987	1082	0	32166	32391	32105	31860	31200	33823	31695	32903	
1512	0	104	1177	29	1927	1083	0	32680	32301	32764	31680	30870	34198	32055	32887	
1513	0	102	1239	30	1929	1084	0	33338	32075	33086	31443	31690	34552	33318	32983	
1514	0	112	1223	28	1963	1085	0	33622	32343	33073	31700	33183	34053	33759	33049	
1515	0	123	1242	29	1930	1086	0	32415	33111	32342	32462	33791	32703	33259	32753	
1516	0	125	1235	29	1996	1087	0	31478	33687	32076	33053	34085	31958	32712	32437	
1517	0	147	1235	29	1996	1088	0	31448	34129	31674	33436	33821	31783	32551	32157	
1518	0	149	1195	29	1935	1089	0	31811	33955	31843	33744	33735	32031	32860	31935	
1519	0	105	1232	28	1945	1090	0	32151	33370	32507	33557	33045	32196	32897	31802	
1520	0	122	1251	28	1948	1091	0	32689	33041	32732	33263	32575	32999	32719	31743	
1521	0	113	1188	28	2008	1092	0	33334	32312	32915	32561	32179	33699	32930	31476	
1522	0	165	1225	29	1991	1093	0	33250	32263	32871	32087	32311	33967	32935	31045	
1523	0	80	1198	29	1924	1094	0	32950	32366	32503	31986	32022	33571	32807	31363	
1524	0	119	1259	29	1969	1095	0	32971	32060	32892	31975	31645	33943	32747	31094	
1525	0	159	1220	28	2000	1096	0	33054	32367	33095	32263	32246	33687	32667	31439	
1526	0	124	1239	29	2041	1097	0	33173	32535	33309	32790	32562	33671	32887	32031	
1527	0	116	1226	29	1989	1098	0	33145	32751	33755	33067	32447	33964	32859	32527	
1528	0	126	1195	29	1991	1099	0	33030	32815	33667	33035	32341	33479	32645	33085	
1529	0	127	1269	28	1985	1100	0	33186	32495	33703	33063	32235	33158	32732	33306	
1530	0	119	1211	30	1981	1101	0	33170	32695	33627	33013	32671	32114	32815	34123	
1531	0	130	1212	28	1989	1102	0	33100	32613	33262	33194	33230	31407	32842	34830	
1532	0	80	1241	29	1956	1103	0	33010	32639	32947	33495	33223	31031	32985	35015	
1533	0	105	1248	29	2022	1104	0	33060	32663	32716	33383	33182	30990	32783	34819	
1534	0	133	1262	29	1940	1105	0	32929	32583	32615	33242	33093	30935	32558	34338	
1535	0	125	1186	29	1979	1106	0	32692	32899	32411	33287	32886	31228	32647	33979	
1536	0	126	1250	28	1950	1107	0	32696	32695	32512	32999	32947	31689	32599	33455	
1537	0	107	1225	29	1970	1108	0	32779	32743	32450	32647	32775	31997	32539	32902	
1538	0	121	1216	30	1954	1109	0	32754	32759	32327	32283	32487	31974	32159	32635	
1539	0	123	1200	30	2022	1110	0	32645	32711	32287	32241	32391	32247	32128	32263	
1540	0	70	1227	29	1969	1111	0	32636	32815	32089	32333	32172	32207	32131	31991	
1541	0	120	1237	28	1978	1112	0	32935	32551	32537	32484	32182	33254	32319	32300	
1542	0	107	1259	29	2014	1113	0	33507	32510	33037	32221	32503	35335	33060	32762	
1543	0	110	1181	28	1965	1114	0	33508	32483	33423	32535	32871	35858	33693	32893	
1544	0	104	1207	29	1932	1115	0	32743	32895	32959	32812	32551	35302	33215	32982	
1545	0	101	1240	29	1946	1116	0	31876	33517	32715	33006	32725	33927	32843	32749	
1546	0	134	1223	28	1948	1117	0	31694	33458	32683	33022	33199	32910	32691	32399	
1547	0	141	1235	27	1969	1118	0	31777	33507	32473	33198	33531	32082	32855	32254	
1548	0	123	1267	30	1938	1119	0	32061	33207	32742	33233	33099	32070	33031	32154	
1549	0	122	1221	29	1956	1120	0	32771	32879	32903	33199	33103	31847	33010	32145	
1550	0	74	1230	29	1945	1121	0	33196	32871	32742	32845	32887	31739	32735	32449	
1551	0	121	1233	27	1964	1122	0	33540	32598	32610	32611	32647	31587	32493	32620	
1552	0	151	1234	28	1974	1123	0	34064	32293	32719	32487	32515	32071	32367	32662	
1553	0	117	1252	28	1941	1124	0	33695	32485	32577	32261	32279	32823	32545	32647	
1554	0	135	1287	29	1943	1125	0	33188	32279	32227	32047	32151	33159	32559	32874	
1555	0	95	1218	29	2014	1126	0	32485	32284	32362	32279	32343	33217	32605	32895	
1556	0	139	1250	29	2008	1127	0	31903	32871	32275	32512	32831	33215	32717	32611	
1557	0	108	1221	29	1936	1128	0	32030	32901	32559	32461	32591	33783	32583	32879	
1558	0	96	1230	28	1969	1129	0	32321	32595	32775	32291	32413	33579	32594	32735	
1559	0	127	1268	30	1951	1130	0	32224	32703	32595	32326	32346	33078	32751	32343	
1560	0	100	1175	28	1995	1131	0	32421	32579	32679	32287	32631	32845	33044	32051	
1561	0	77	1212	29	1959	1132	0	32476	32431	32903	32297	32174	32967	33115	31717	
1562	0	153	1222	29	1946	1133	0	32421	32517	32623	32538	32239	33234	33015	31609	
1563	0	97	1198	29	1987	1134	0	32309	33023	32293	32995	32551	33015	32841	31483	
1564	0	132	1233	29	1983	1135	0	32426	33155	32300	32937	33171	32733	32946	31570	
1565	0	168	1250	29	2000	1136	0	32685	33194	32559	32917	33185	32807	32781	32348	
1566	0	115	1259	28	1965	1137	0	32946	32902	32742	33008	32935	32361	32423	32991	
1567	0	91	1213	30	1985	1138	0	33020	32609	32887	33264	32871	32062	32413	33259	
1568	0	111	1240	28	1959	1139	0	33077	32865	33127	33511	32703	31693	32253	33439	
1569	0	83	1246	29	1988	1140	0	32977	32837	33159	33455	32605	31543	32402	33549	
1570	0	136	1233	29	1950	1141	0	32774	32982	33439	33415	32503	32215	32527	33557	
1571	0	138	1224	28	1951	1142	0	33069	32628	33743	32806	32127	33138	32495	33575	
1572	0	133	1214	30	1963	1143	0	33714	32191	33886	32207	32449	33354	32861	33706	
1573	0	107	1195	29	1953	1144	0	33482	32326	33871	32180	32871	33137	33094	34101	
1574	0	91	1242	29	1969	1145	0	32714	32389	33601	32121	33195	32983	32995	34123	
1575	0	137	1195	29	1989	1146	0	32687	32877	33153	32532	33217	32813	32475	33857	
1576	0	125	1208	29	1992	1147	0	32934	33309	32505	33126	33025	32607	32297	33525	
1577	0	99	1261	29	1935	1148	0	33316	33375	32237	33175	32895	32375	32447	32823	
1578	0	137	1192	29	1936	1149	0	32936	33218	32131	33037	32399	32555	32715	32526	
1579	0	97	1217	29	1962	1150	0	32175	32699	32098	32861	32290	32827	32900	32323	
1580	0	87	1241	29	1952	1151	0	31796	33151	31835	32711	32876	33215	32687	32483	
1581	0	128	1293	29	1958	1152	0	31865	32971	31764	32551	32903	33135	32663	32293	
1582	0	118	1240	28	1972	1153	0	31769	32867	31429	32621	32773	32918	32519	32269	
1583	0	115	1242	29	2007	1154	0	32289	32679	31666	32634	32451	32675	32593	32081	
1584	0	176	1233	28	1953	1155	0	32922	32159	32146	32459	31668	32918	32634	32247	
1585	0	110	1227	28	1999	1156	0	33250	32348	32921	32591	31821	33101	32895	32159	
1586	0	57	1231	27	1977	1157	0	33380	32389	33006	32551	32724	33563	33436	31860	
1587	0	134	1215	29	1935	1158	0	33355	32169	33230	32323	32903	33739	33222	31900	
1588	0	84	1183	28	1985	1159	0	32988	32607	33221	32387	32623	33607	32801	32070	
1589	0	93	1214	29	1998	1160	0	32957	32669	33098	32433	32835	33199	32481	32643	
1590	0	117	1268	28	1991	1161	0	33017	32612	32863	32629	32909	32499	32479	33037	
1591	0	126	1245	29	1968	1162	0	32865	32914	32827	32991	32844	31793	32476	32979	
1592	0	93	1244	28	1978	1163	0	32930	32791	32691	32966	32845	31773	32489	33062	
1593	0	86	1245	29	1980	1164	0	32827	32685	32575	33042	32879	31614	32621	33079	
1594	0	103	1228	28	1968	1165	0	32706	32871	32563	33201	32642	31660	32413	32749	
1595	0	107	1251	28	1921	1166	0	32805	32773	32635	33326	32595	32096	32219	32871	
1596	0	94	1232	30	1995	1167	0	32777	32751	32721	33595	32572	32567	32724	32535	
1597	0	126	1240	27	1964	1168	0	33010	32873	32999	33551	32647	32845	33095	32646	
1598	0	117	1259	28	2004	1169	0	33046	32769	33258	33383	32423	33581	33195	32315	
1599	0	109	1271	28	1986	1170	0	33083	32639	33483	33116	32418	34366	33389	32093	
1600	0	139	1208	29	1916	1171	0	32640	33036	33383	32900	33120	34054	33305	32410	
1601	0	121	1287	27	1978	1172	0	32172	33012	33003	32557	33641	32959	32718	32586	
1602	0	96	1209	30	2005	1173	0	31817	33174	33318	32399	33541	32183	32711	32269	
1603	0	162	1250	29	1996	1174	0	31947	33575	33667	32470	33350	31961	32903	32740	
1604	0	102	1208	29	1980	1175	0	32615	33386	34476	32563	33541	32325	33142	33099	
1605	0	134	1257	30	1984	1176	0	33530	32898	34287	32470	33061	32483	32925	33261	
1606	0	120	1219	28	1927	1177	0	33594	32671	33518	32191	32642	32593	32551	33487	
1607	0	131	1272	28	1962	1178	0	33533	32565	32621	32436	32191	32213	32411	33839	
1608	0	111	1227	28	1966	1179	0	33380	32687	30967	32959	31815	31903	32099	34255	
1609	0	164	1234	28	1961	1180	0	32982	32764	30113	33033	31782	31981	31879	34484	
1610	0	132	1242	29	1996	1181	0	31862	32827	29819	33241	31901	32356	31799	34498	
1611	0	138	1270	30	1949	1182	0	31162	33243	29858	33059	32357	33140	31927	34191	
1612	0	150	1213	31	1972	1183	0	31529	32831	30477	32669	32309	33531	32178	33922	
1613	0	69	1201	28	1999	1184	0	32157	32455	31019	32511	32446	33754	32343	33748	
1614	0	117	1240	27	1953	1185	0	32125	32683	31359	32337	32590	33233	32527	33551	
1615	0	120	1190	28	1976	1186	0	32036	32531	31732	32205	32661	33113	32551	33383	
1616	0	130	1281	28	1994	1187	0	32116	32383	32356	32237	32309	32662	32423	32845	
1617	0	119	1229	28	1980	1188	0	32189	32495	32182	32255	32641	32607	32527	32438	
1618	0	122	1250	28	1943	1189	0	32316	32591	32295	32148	32595	32655	32543	32141	
1619	0	138	1258	28	1994	1190	0	32430	32455	32423	32013	32717	32519	32655	31671	
1620	0	102	1229	28	1972	1191	0	32584	32007	32903	31954	32631	32386	32687	31669	
1621	0	85	1251	28	1956	1192	0	33124	32069	33107	32083	32827	32489	32723	31663	
1622	0	112	1227	28	2000	1193	0	33362	31995	33335	31991	32442	32559	32674	31182	
1623	0	113	1203	29	1965	1194	0	33378	32091	33717	32130	32391	32557	32690	31119	
1624	0	101	1216	29	2005	1195	0	33444	32375	33762	32277	32489	32553	32764	31367	
1625	0	126	1205	29	1972	1196	0	33407	32237	33857	32379	32623	32885	32539	31663	
1626	0	122	1208	28	2015	1197	0	33351	32507	34345	32687	32527	32957	32567	31919	
1627	0	149	1252	29	1931	1198	0	33532	32695	35143	33383	32655	32831	32751	32197	
1628	0	124	1216	29	1950	1199	0	33452	32807	35028	33918	32415	33089	32955	32479	
1629	0	134	1234	28	1944	1200	0	33010	32799	34468	33971	32513	33597	32748	32941	
1630	0	124	1254	29	1952	1201	0	33093	33196	33877	33860	32245	33483	32811	33367	
1631	0	86	1247	29	1987	1202	0	32986	33231	33719	33619	32250	33465	32987	33634	
1632	0	144	1228	29	1952	1203	0	32559	33222	33351	33430	32575	33410	33138	33627	
1633	0	123	1207	29	1974	1204	0	32482	33277	33409	33218	33149	33267	33461	33586	
1634	0	107	1242	29	1956	1205	0	32460	32931	33215	33146	33595	32487	33775	33167	
1635	0	116	1243	29	1943	1206	0	32057	33039	32790	32986	33631	32154	33451	32634	
1636	0	115	1217	29	1992	1207	0	32080	33091	32473	32919	33399	32175	33055	32535	
1637	0	149	1237	29	1998	1208	0	32540	33035	32495	32887	32925	32363	33062	32371	
1638	0	124	1205	29	1976	1209	0	32758	33191	32655	32797	33071	32715	33466	32314	
1639	0	133	1218	28	1968	1210	0	33006	32980	33068	32513	33331	32471	33644	32399	
1640	0	77	1249	30	1987	1211	0	33102	32635	33855	32255	33087	32644	33652	32531	
1641	0	136	1284	30	1982	1212	0	32946	32863	33601	32130	32958	32894	33258	32647	
1642	0	127	1234	29	1952	1213	0	33022	32807	33343	32263	32391	32997	33015	32447	
1643	0	93	1226	28	1959	1214	0	33032	32891	33855	32615	32557	32937	32927	32062	
1644	0	122	1214	30	1973	1215	0	32964	33250	34041	33126	32903	32628	32820	32151	
1645	0	76	1218	28	1956	1216	0	33058	33407	34113	33303	33658	32086	32947	31943	
1646	0	134	1252	30	1937	1217	0	33299	33217	34033	33351	33623	32018	32915	32094	
1647	0	101	1285	29	2015	1218	0	33359	32805	33463	33325	33245	32340	32749	32070	
1648	0	132	1235	28	1995	1219	0	33366	32433	32861	33415	32743	32753	32479	32157	
1649	0	117	1167	29	1933	1220	0	33234	32599	32919	33375	32135	33222	32263	32655	
1650	0	97	1232	28	1950	1221	0	33625	32127	33537	32887	30598	33625	31887	33482	
1651	0	137	1188	28	1965	1222	0	33573	31842	33431	32548	30429	33485	32007	33175	
1652	0	118	1205	29	2009	1223	0	33224	32355	33042	32439	31511	33595	32229	33071	
1653	0	149	1210	29	1970	1224	0	32791	32444	32693	32370	32221	32967	32323	33142	
1654	0	113	1233	30	2009	1225	0	32356	32527	32379	32230	32355	32658	32367	33031	
1655	0	141	1277	29	1944	1226	0	32211	32979	32231	32436	32711	32691	32375	33211	
1656	0	119	1241	28	1955	1227	0	32191	33173	32101	33031	32951	33063	32463	33351	
1657	0	112	1279	29	2000	1228	0	32332	33051	32073	33187	33102	32825	32445	33275	
1658	0	106	1241	29	1964	1229	0	32663	33123	32173	33254	32772	32643	32773	33119	
1659	0	151	1254	29	1982	1230	0	32796	32903	32443	33101	33063	32479	33095	32858	
1660	0	106	1246	29	1994	1231	0	33207	32812	32839	33018	33135	32961	33221	32274	
1661	0	82	1233	30	1923	1232	0	33380	32533	33183	32666	32967	33213	33089	32015	
1662	0	123	1245	28	1959	1233	0	32911	32735	32758	32518	32545	32633	32701	32003	
1663	0	107	1269	28	1972	1234	0	32219	33203	32197	33199	32690	33159	32691	32515	
1664	0	110	1234	28	1981	1235	0	32135	33415	32091	33331	32903	33175	32606	32563	
1665	0	115	1231	28	1979	1236	0	32503	33188	32105	33117	33181	32758	32540	32851	
1666	0	102	1249	29	1931	1237	0	32692	32716	32095	32759	32839	32122	32364	33317	
1667	0	113	1241	28	1987	1238	0	32604	32742	31827	32601	32699	32469	32247	33609	
1668	0	90	1229	28	1978	1239	0	32768	32475	31947	32239	32402	32149	32263	34391	
1669	0	105	1196	29	1921	1240	0	33047	32199	32390	32063	32308	32045	31983	34997	
1670	0	149	1211	28	1941	1241	0	33081	32183	32191	32173	32164	32263	31943	34823	
1671	0	137	1262	30	1972	1242	0	32823	32647	32183	32370	32606	32237	32455	34191	
1672	0	132	1195	29	1957	1243	0	31972	32820	31855	32545	33054	31870	32479	33759	
1673	0	95	1250	29	1955	1244	0	31770	33115	31783	32631	32860	32127	32612	33070	
1674	0	91	1207	29	1931	1245	0	31852	33055	31829	32532	32775	32559	32822	32287	
1675	0	114	1221	28	2005	1246	0	32263	32999	32351	32587	32810	32925	33014	31847	
1676	0	112	1281	28	2006	1247	0	32530	32839	32303	32480	33143	32969	33031	31270	
1677	0	124	1235	28	1992	1248	0	32598	32775	32335	32229	32843	33103	33046	30265	
1678	0	129	1230	28	1962	1249	0	32761	32679	32593	32263	32854	33174	33127	29435	
1679	0	129	1228	29	1974	1250	0	32839	32479	32570	32197	32501	33375	33067	29539	
1680	0	111	1294	29	1936	1251	0	32942	32524	32485	32335	32671	33195	33023	30247	
1681	0	117	1262	29	1987	1252	0	32959	32607	32668	32725	32463	33381	32830	31023	
1682	0	104	1223	30	1973	1253	0	32985	32550	32642	32783	32207	33523	32934	31943	
1683	0	117	1231	28	1970	1254	0	33103	32706	32852	32687	32171	33592	33058	32838	
1684	0	93	1255	28	1989	1255	0	32954	32565	32930	32591	32603	33402	33179	33101	
1685	0	45	1256	29	1957	1256	0	32725	32713	32642	32663	32703	33063	32698	33879	
1686	0	119	1225	28	1960	1257	0	32634	32633	32657	32711	32661	32975	32567	34291	
1687	0	143	1210	29	1955	1258	0	32644	32717	32621	32825	32511	31657	32763	34631	
1688	0	147	1253	28	1956	1259	0	32680	32853	32662	32967	32740	31047	32805	34741	
1689	0	137	1199	29	1946	1260	0	32646	32791	32631	33170	32837	30735	32607	34855	
1690	0	121	1266	28	1966	1261	0	32767	32975	32806	33207	33257	30927	32259	34859	
1691	0	96	1253	28	2011	1262	0	33081	32755	32903	33287	32815	32092	32596	34653	
1692	0	114	1200	29	1995	1263	0	33420	32714	32813	33223	32793	32716	32549	34303	
1693	0	146	1234	29	1949	1264	0	33526	32691	32791	33174	32547	32743	32604	33671	
1694	0	131	1214	28	1972	1265	0	33492	32455	32710	32895	32359	32559	32759	33005	
1695	0	74	1222	29	1988	1266	0	33281	32270	32519	32551	31942	32629	32570	33179	
1696	0	102	1228	28	1988	1267	0	32965	32579	32639	32415	31822	33063	32098	33135	
1697	0	74	1244	29	1955	1268	0	32791	32427	32602	32383	31559	33125	31847	32730	
1698	0	139	1261	29	1975	1269	0	32943	32319	32881	32323	31649	33687	32237	32973	
1699	0	91	1227	29	1943	1270	0	32549	32455	32685	32431	31953	34521	32287	33055	
1700	0	140	1267	29	1985	1271	0	32067	32949	32647	32657	32895	34521	32713	33007	
1701	0	132	1212	28	1970	1272	0	31608	33278	32421	32937	33747	33924	33159	33037	
1702	0	129	1207	30	2002	1273	0	31325	33692	32647	33079	33665	33519	33253	32903	
1703	0	98	1217	29	1966	1274	0	31389	33709	32759	33175	33654	32879	33059	32338	
1704	0	100	1211	28	1975	1275	0	31866	33426	32858	33159	33632	32467	32967	32119	
1705	0	115	1252	29	1957	1276	0	32370	33407	32915	33039	33389	32228	32791	32167	
1706	0	112	1181	28	1988	1277	0	32873	32767	33010	32643	32898	32410	32831	32093	
1707	0	121	1250	29	1960	1278	0	33012	32399	32822	32494	32709	32610	32578	32247	
1708	0	128	1260	28	1973	1279	0	32948	32623	33091	32567	32631	32711	32711	32259	
1709	0	110	1253	28	1974	1280	0	32995	32537	34031	32748	32543	32717	32751	32255	
1710	0	101	1237	28	1930	1281	0	33116	32507	34575	32843	32814	32487	32963	32144	
1711	0	101	1235	28	1980	1282	0	33482	32703	34473	32915	32829	32447	33026	32276	
1712	0	141	1253	29	1983	1283	0	33704	32639	34695	33044	32915	32330	32734	32211	
1713	0	103	1269	29	1990	1284	0	34401	32519	34355	33087	32735	32503	32559	32061	
1714	0	101	1225	30	1940	1285	0	34543	32559	33463	32789	32199	32245	32573	31907	
1715	0	126	1164	28	1976	1286	0	33193	32505	32467	32509	32081	32446	32307	31911	
1716	0	160	1219	29	1978	1287	0	32111	32263	31487	32316	31823	32889	32261	32195	
1717	0	119	1189	29	1997	1288	0	32406	32236	31124	31906	31823	33359	32799	32257	
1718	0	97	1230	28	2001	1289	0	33303	31911	31463	31847	31607	33463	33019	32623	
1719	0	83	1255	29	1982	1290	0	33245	32135	31545	32100	32303	33687	33305	32767	
1720	0	136	1239	29	1975	1291	0	32261	32875	31201	32775	32941	33769	33687	32877	
1721	0	152	1250	28	1980	1292	0	31405	33255	31458	33299	33388	33571	33221	32903	
1722	0	116	1205	29	1996	1293	0	30956	33749	31678	33466	33510	32983	32828	32870	
1723	0	99	1221	29	1979	1294	0	31158	33829	31733	33319	33302	32026	32471	32692	
1724	0	132	1276	29	1961	1295	0	32108	33671	31967	33125	32835	31933	32099	32709	
1725	0	137	1241	29	1945	1296	0	32790	33298	32278	32851	32508	32262	31997	32719	
1726	0	125	1233	28	1970	1297	0	33053	33095	32575	32831	32447	32631	32293	32669	
1727	0	142	1250	29	1967	1298	0	33062	32829	32719	32916	32521	32799	32412	32506	
1728	0	133	1187	30	1979	1299	0	32967	32893	32759	33097	32603	32923	32646	32647	
1729	0	113	1215	28	1951	1300	0	33127	32611	32837	32831	32924	33085	32919	32903	
1730	0	81	1244	29	1969	1301	0	33180	32295	32870	32717	33023	32859	32783	33172	
1731	0	116	1215	28	1955	1302	0	33070	32639	32743	32719	33061	32245	32582	32979	
1732	0	113	1199	31	1980	1303	0	32979	32660	32587	32685	33215	32031	32763	32987	
1733	0	116	1227	28	1974	1304	0	32807	32518	32431	32527	32995	32162	32773	32887	
1734	0	131	1221	28	1946	1305	0	32795	32319	32351	32119	32686	32391	32525	32614	
1735	0	131	1286	29	2015	1306	0	32552	32519	32306	32087	32291	32733	32562	32599	
1736	0	108	1243	28	1956	1307	0	32645	32543	32623	32183	32359	33063	32607	32845	
1737	0	139	1218	29	1960	1308	0	32783	32549	32747	32263	32292	33206	32530	32924	
1738	0	134	1252	28	1987	1309	0	32865	32587	32539	32539	32343	33133	32683	32737	
1739	0	128	1230	29	1979	1310	0	33307	32287	32667	32522	32511	33207	32999	32591	
1740	0	123	1230	28	1998	1311	0	33405	32453	32647	32460	32204	32975	32802	32819	
1741	0	119	1238	28	1973	1312	0	32642	32724	33127	32723	32175	32767	32869	32927	
1742	0	105	1214	28	1966	1313	0	31974	33140	32388	33165	32639	32868	33167	32845	
1743	0	94	1250	29	2005	1314	0	32083	33131	32414	33261	33047	33268	33015	32758	
1744	0	127	1251	30	2045	1315	0	32399	32935	32595	32970	32751	33637	32927	32834	
1745	0	95	1222	29	1993	1316	0	32687	32801	32775	33001	33008	33363	32917	32479	
1746	0	159	1167	28	2009	1317	0	32855	32625	33095	33063	32993	32976	32806	32578	
1747	0	133	1226	29	1970	1318	0	32932	32631	33047	32815	33062	32763	32581	32957	
1748	0	110	1264	28	1994	1319	0	32786	32709	33109	32797	32835	32719	32599	33011	
1749	0	98	1267	29	1956	1320	0	32882	32895	33186	33082	32943	32401	32677	33015	
1750	0	166	1206	29	1956	1321	0	33224	32948	33415	33227	33055	32109	32674	32729	
1751	0	83	1238	29	1949	1322	0	33124	32855	33362	33439	32955	31911	32717	32503	
1752	0	137	1226	29	1938	1323	0	33039	33026	33093	33447	33059	32198	32588	32679	
1753	0	125	1239	29	2007	1324	0	32868	33005	32633	33479	32823	32491	32547	32575	
1754	0	139	1272	28	1938	1325	0	32535	32831	32347	33375	32602	32556	32295	32941	
1755	0	77	1230	29	1949	1326	0	32406	32919	32279	33134	32703	32447	32429	33031	
1756	0	97	1213	28	2020	1327	0	32391	32839	32404	32863	32347	32647	32439	32983	
1757	0	154	1226	28	1967	1328	0	32589	32762	32798	32852	32167	32967	32518	32877	
1758	0	115	1265	30	1988	1329	0	32935	32671	32959	32468	31879	33263	32521	32927	
1759	0	101	1228	29	1970	1330	0	33552	32252	33287	32205	32111	33575	32855	33071	
1760	0	98	1197	29	1928	1331	0	33695	32431	33430	32315	32411	33526	32930	32765	
1761	0	114	1212	28	1929	1332	0	33203	32901	32935	32871	32762	33364	32795	32568	
1762	0	113	1210	29	1959	1333	0	32855	33039	32839	32937	32962	32819	32775	32492	
1763	0	157	1254	28	1973	1334	0	32799	32993	33183	32727	32551	32767	32775	32421	
1764	0	119	1226	28	1958	1335	0	32929	32773	33099	32647	32515	32660	32704	32487	
1765	0	132	1224	28	2010	1336	0	32932	32327	33063	32452	32455	32726	32951	32543	
1766	0	102	1283	29	1961	1337	0	33000	32276	33127	32118	32295	32636	32845	32623	
1767	0	129	1252	28	1980	1338	0	32967	32451	33099	32195	32231	32816	32553	32941	
1768	0	114	1209	29	1975	1339	0	32703	32590	32735	32275	32573	32879	32775	33079	
1769	0	102	1238	28	1964	1340	0	32314	32515	32775	32220	32641	32917	32727	33222	
1770	0	136	1274	29	1947	1341	0	32148	32931	32871	32275	32871	32833	32719	33227	
1771	0	125	1245	27	1963	1342	0	32196	33053	32895	32711	33055	32679	32887	33149	
1772	0	136	1218	28	2008	1343	0	32257	32903	32981	32893	33191	32664	32935	32739	
1773	0	148	1208	28	1956	1344	0	32126	33245	32615	33268	32927	32348	32508	32474	
1774	0	123	1223	29	1968	1345	0	32059	33287	32591	33398	33004	32133	32178	32538	
1775	0	119	1256	28	1983	1346	0	32380	33250	32655	33747	32903	32447	32491	32114	
1776	0	139	1242	29	1956	1347	0	32604	33123	32861	33762	33211	32769	32859	31945	
1777	0	138	1257	31	1939	1348	0	32853	32789	33055	33287	33463	33137	33086	32125	
1778	0	135	1215	29	1984	1349	0	32932	32355	33055	32385	33071	33365	32863	31927	
1779	0	104	1263	28	1960	1350	0	32817	31875	33146	31607	32425	33300	32375	31594	
1780	0	126	1186	29	1988	1351	0	32932	32183	33071	31283	32189	33012	32289	30959	
1781	0	159	1255	27	2012	1352	0	33002	32647	32911	31651	32335	32830	32543	30735	
1782	0	127	1213	29	1927	1353	0	33049	32547	33221	32081	31589	33708	32815	31383	
1783	0	97	1248	28	1960	1354	0	33097	32763	33000	32532	32058	34554	33060	32574	
1784	0	110	1238	28	1954	1355	0	32946	32619	33342	32757	32599	34499	33015	33709	
1785	0	110	1248	28	1973	1356	0	32687	32511	33463	32807	32932	33367	32911	34171	
1786	0	129	1232	30	1978	1357	0	32503	32679	33415	32601	32829	32863	32706	33925	
1787	0	146	1217	29	1986	1358	0	32291	33079	33236	32518	33079	31750	32459	33706	
1788	0	113	1202	27	1956	1359	0	32338	33181	32869	32739	32931	30907	32343	34141	
1789	0	101	1181	29	1996	1360	0	32509	32873	32631	32823	33087	30107	32411	34759	
1790	0	154	1242	30	1992	1361	0	32863	32882	32895	32893	32749	30332	32391	34875	
1791	0	104	1249	30	1964	1362	0	33028	32694	32663	32725	32751	30591	32431	34159	
1792	0	133	1256	27	1934	1363	0	33159	32389	32667	32818	32463	30798	32305	34041	
1793	0	160	1252	28	1989	1364	0	33126	32637	33263	32891	32417	31524	32278	33583	
1794	0	130	1253	29	2012	1365	0	33100	32709	33375	32967	32131	32306	32410	33238	
1795	0	120	1220	28	1959	1366	0	33083	32614	33235	32871	32390	32999	32767	33261	
1796	0	114	1236	29	1910	1367	0	33317	32615	33191	32732	32388	33655	33138	32967	
1797	0	156	1224	29	1953	1368	0	33464	32423	33255	32663	32911	34099	33717	32887	
1798	0	154	1220	30	1979	1369	0	33157	32191	35357	32639	32703	34127	33698	32980	
1799	0	92	1252	30	1975	1370	0	32863	32513	35319	32769	32669	34451	33287	33095	
1800	0	109	1213	28	1949	1371	0	32365	32862	34687	33076	32690	34049	32825	32927	
1801	0	91	1213	29	1987	1372	0	31777	33300	33861	33255	32621	33003	32369	32775	
1802	0	145	1277	28	1927	1373	0	31642	33382	33411	33383	32983	32423	32351	32660	
1803	0	118	1268	29	1970	1374	0	31687	33236	32877	33316	33092	32187	32662	32439	
1804	0	135	1228	28	1932	1375	0	32103	33405	32919	33211	33298	32370	33199	32009	
1805	0	132	1261	29	1962	1376	0	32756	33148	32899	33179	32959	32594	33327	31814	
1806	0	99	1229	28	1996	1377	0	32980	32679	33013	33007	32802	32934	33239	31759	
1807	0	133	1235	30	1946	1378	0	33130	32822	32954	32975	32735	32769	33464	31647	
1808	0	114	1259	30	1988	1379	0	33260	32719	32828	33076	32866	32903	33114	31795	
1809	0	92	1192	28	1926	1380	0	33268	32581	32452	33343	32639	33038	32455	32193	
1810	0	162	1230	30	1964	1381	0	33584	32647	32413	33191	32359	33185	31855	32498	
1811	0	144	1240	28	1932	1382	0	33150	32515	32060	32775	31939	33077	31639	32575	
1812	0	134	1229	29	1961	1383	0	32775	32366	31668	32085	31687	33035	31653	32589	
1813	0	145	1252	28	1956	1384	0	32851	32135	31732	31565	31862	33415	32107	32614	
1814	0	78	1248	29	1989	1385	0	32743	32215	32085	30951	32068	33767	32899	32978	
1815	0	104	1179	29	1978	1386	0	32617	32235	32787	30665	32671	33279	32921	32950	
1816	0	113	1228	29	1968	1387	0	32173	32439	32212	30735	32901	32507	32575	32999	
1817	0	131	1210	29	2010	1388	0	31969	32746	31830	31151	33373	32341	32860	33060	
1818	0	100	1229	29	1956	1389	0	32049	32579	31723	31751	33274	32371	33055	32663	
1819	0	99	1230	28	1946	1390	0	32353	32655	31650	32447	33295	32263	32884	32449	
1820	0	68	1230	29	1982	1391	0	32564	33095	31702	33143	33095	32485	32799	32569	
1821	0	165	1192	28	1937	1392	0	32633	33563	31666	33223	33031	32287	32641	32491	
1822	0	124	1237	28	1911	1393	0	32835	33263	31751	32799	32804	32556	32639	32531	
1823	0	108	1217	30	1984	1394	0	33158	32839	31926	32479	32735	32681	32567	32351	
1824	0	119	1230	28	1976	1395	0	33372	32724	32025	32541	32359	32671	32444	32063	
1825	0	113	1270	29	1968	1396	0	33399	32373	31877	32551	32215	32813	32327	32191	
1826	0	112	1209	28	1981	1397	0	33364	32237	32097	32791	32106	32699	32581	32287	
1827	0	131	1264	29	1976	1398	0	33395	32491	32375	33142	32199	33015	32767	32591	
1828	0	134	1227	28	1988	1399	0	33189	32839	32135	33479	32327	33680	32786	32868	
1829	0	133	1233	30	1986	1400	0	32803	32723	32166	33843	32541	33494	32869	33207	
1830	0	124	1197	30	1965	1401	0	32500	32607	31934	33815	32438	33239	32953	33139	
1831	0	128	1219	27	1986	1402	0	32135	32814	32161	34215	32797	32882	32813	33155	
1832	0	106	1248	28	1920	1403	0	32033	33407	32123	34363	33343	32386	32811	33086	
1833	0	79	1233	28	1979	1404	0	32473	33266	32239	34157	33363	32495	32989	32573	
1834	0	119	1220	29	2016	1405	0	32543	33315	32007	34134	33308	33793	32860	32723	
1835	0	102	1285	28	1934	1406	0	32494	33037	32433	33567	33443	33817	32531	32877	
1836	0	141	1252	28	1969	1407	0	32614	32726	32463	32887	33053	33003	32375	32859	
1837	0	113	1268	29	1966	1408	0	32454	33103	32960	32893	33095	32670	32681	32902	
1838	0	94	1229	28	2027	1409	0	32623	32863	33058	32737	32375	32503	32750	33105	
1839	0	88	1220	29	1979	1410	0	33453	32530	33835	32784	31610	32189	32593	32967	
1840	0	128	1249	29	1937	1411	0	33419	32839	33662	33110	31391	32013	32633	32775	
1841	0	127	1185	28	1926	1412	0	32984	32903	33054	33198	32217	32007	32707	32647	
1842	0	111	1228	30	1961	1413	0	32583	32727	33121	32919	32599	32276	32423	32674	
1843	0	142	1251	29	1963	1414	0	32832	32984	32735	32873	32447	32484	32239	32623	
1844	0	101	1244	28	1966	1415	0	33395	32734	32322	32557	32439	32827	32711	32685	
1845	0	173	1260	27	1991	1416	0	33588	32247	32274	32271	32323	33445	33139	32895	
1846	0	111	1240	29	1984	1417	0	33190	32449	31654	32095	32837	33654	33198	33057	
1847	0	101	1234	29	1946	1418	0	32692	32455	31334	32135	33093	33379	33012	33132	
1848	0	162	1218	29	1932	1419	0	32464	32713	31061	32181	33324	32743	32879	33063	
1849	0	111	1259	28	1951	1420	0	32200	32895	31165	32227	33378	32263	32629	32869	
1850	0	82	1294	29	1954	1421	0	32215	32773	31255	32059	32962	31713	32661	32380	
1851	0	136	1222	28	2002	1422	0	32252	32911	31433	31869	32838	31900	32599	32234	
1852	0	111	1249	29	1994	1423	0	32334	32753	31647	32135	32845	32255	32575	32559	
1853	0	110	1279	29	2016	1424	0	32644	32485	32135	32374	32821	32803	32810	32667	
1854	0	173	1212	29	1963	1425	0	32911	32564	32974	32587	32503	33247	32693	32701	
1855	0	126	1239	30	2010	1426	0	32964	32529	33115	32647	32535	33396	32311	33053	
1856	0	94	1249	28	1954	1427	0	32954	32615	33180	32687	32540	33535	32421	32669	
1857	0	159	1273	27	1997	1428	0	32966	32903	33349	32847	32467	33438	32619	32086	
1858	0	80	1260	27	1960	1429	0	32877	32959	33339	33214	32621	33359	32786	32026	
1859	0	97	1226	29	1988	1430	0	32870	32804	33087	33239	32567	33365	32722	32263	
1860	0	110	1244	28	1982	1431	0	32726	33093	32975	33190	32739	33011	33075	32079	
1861	0	123	1228	27	2000	1432	0	32571	33117	32869	32991	33138	33263	33230	32167	
1862	0	100	1235	30	1934	1433	0	32512	33018	32923	32873	32996	33399	32863	32695	
1863	0	103	1242	29	2001	1434	0	32406	32973	32993	32735	32831	32767	32855	33031	
1864	0	139	1227	28	1965	1435	0	32647	32707	32978	32757	32759	32639	32960	33031	
1865	0	99	1263	28	1991	1436	0	33069	32223	33439	32293	32351	31839	32935	33098	
1866	0	112	1186	29	1973	1437	0	33553	32305	34012	32443	32447	30335	33027	33431	
1867	0	132	1217	27	1970	1438	0	33472	32551	33238	32903	32751	29967	32751	33735	
1868	0	109	1198	30	1984	1439	0	33422	32666	32775	33117	32796	30976	32387	33575	
1869	0	90	1220	28	1979	1440	0	33492	32687	32893	32791	32434	32295	32212	33441	
1870	0	117	1208	29	1945	1441	0	33262	32807	32769	32799	32127	33170	32117	33430	
1871	0	102	1233	28	1988	1442	0	33041	32667	32903	32638	32156	33774	32213	33517	
1872	0	138	1217	30	2015	1443	0	32708	32786	32711	32548	32351	33989	32743	33091	
1873	0	134	1226	29	1964	1444	0	32231	33009	32466	32562	32701	33483	32824	32751	
1874	0	135	1236	28	1993	1445	0	31824	33127	32421	32539	33079	33329	32619	32679	
1875	0	140	1232	28	1972	1446	0	32162	32799	32759	32386	33271	33479	33037	32839	
1876	0	123	1235	29	1993	1447	0	32361	32972	32715	32230	33373	33383	33429	32742	
1877	0	118	1228	28	1995	1448	0	31994	33011	32559	32342	33283	32685	33146	32771	
1878	0	99	1288	30	1942	1449	0	31698	32916	32151	32727	32966	32229	32391	32681	
1879	0	133	1264	28	1940	1450	0	31871	33271	32221	32987	32885	32119	32515	32459	
1880	0	132	1201	28	1954	1451	0	32308	33103	32475	33100	33143	32327	32847	32231	
1881	0	153	1220	28	1938	1452	0	32718	32786	32578	32989	33227	32188	32903	32187	
1882	0	139	1271	28	1982	1453	0	33070	32615	32999	32793	32943	32503	32947	32055	
1883	0	108	1196	30	1983	1454	0	33236	32310	33199	32743	32526	32915	32772	31999	
1884	0	130	1263	28	2007	1455	0	33390	32699	32943	32902	32255	33671	32888	31925	
1885	0	99	1240	29	1956	1456	0	33439	32685	33204	32951	32391	33615	32967	31967	
1886	0	105	1279	29	1984	1457	0	33345	32525	33223	33031	31911	33583	32501	32364	
1887	0	81	1226	29	1990	1458	0	33178	32733	32868	33119	31583	33255	32101	32115	
1888	0	119	1272	28	1964	1459	0	32868	32861	32802	33239	31595	32919	32116	32303	
1889	0	83	1222	28	2002	1460	0	32644	32883	32593	33283	32045	33125	32119	32261	
1890	0	119	1264	28	1979	1461	0	32644	32679	32583	33083	32203	33257	32255	32531	
1891	0	106	1199	29	1949	1462	0	32978	32527	32631	32797	32631	33820	32559	33027	
1892	0	132	1222	29	1997	1463	0	33568	32094	33079	32303	32884	34399	33339	33336	
1893	0	110	1224	29	1953	1464	0	33086	32359	33093	32170	33196	33679	33481	33595	
1894	0	88	1202	29	1949	1465	0	32436	32647	32579	32335	33285	32619	33275	33529	
1895	0	169	1225	28	1917	1466	0	31839	33041	32507	32404	33393	31463	32821	33551	
1896	0	145	1253	28	1981	1467	0	31986	33122	32455	32527	33151	30831	32886	34039	
1897	0	92	1261	27	1975	1468	0	32441	32889	32259	32647	33159	30903	33038	33807	
1898	0	154	1251	29	1959	1469	0	32712	32914	32463	32431	33171	31143	32751	33571	
1899	0	103	1270	29	1994	1470	0	33062	33205	32223	32679	32917	31615	32639	33563	
1900	0	90	1217	29	1983	1471	0	32710	32827	32263	32887	32839	32167	32437	33159	
1901	0	114	1222	29	1977	1472	0	32333	32607	32159	33107	32903	32790	32524	32995	
1902	0	133	1207	29	1941	1473	0	32420	32881	32131	33030	32978	32854	32692	32767	
1903	0	134	1233	30	1977	1474	0	32537	32725	32095	32918	32757	32962	32639	32514	
1904	0	123	1256	29	1966	1475	0	32754	32446	32229	32900	32483	33157	32640	32501	
1905	0	125	1241	28	1981	1476	0	33012	32519	32340	32877	32463	33279	32439	32605	
1906	0	110	1221	28	1945	1477	0	33036	32463	32363	32667	32364	33468	32525	32559	
1907	0	89	1281	28	1993	1478	0	32918	32469	32398	32629	32468	33358	32590	32495	
1908	0	118	1244	29	1972	1479	0	32956	32403	32469	32575	32492	33143	32723	31869	
1909	0	128	1213	28	1972	1480	0	32983	32669	32557	32628	32549	33055	32891	31377	
1910	0	105	1202	28	1912	1481	0	32914	32783	32427	32609	32461	32847	33007	31325	
1911	0	147	1252	28	1984	1482	0	32794	32919	32721	32579	32685	32675	32931	31623	
1912	0	120	1242	28	1971	1483	0	32855	32929	32799	32413	32668	32668	32805	31890	
1913	0	123	1221	29	1944	1484	0	32964	32921	32791	32842	32683	32773	32517	32289	
1914	0	129	1236	29	1974	1485	0	32923	33383	32935	33557	32851	33031	32623	32431	
1915	0	115	1228	28	1917	1486	0	32949	33285	33191	33867	32767	32879	32647	32703	
1916	0	117	1218	28	1998	1487	0	33082	32686	33287	33444	32719	32713	32491	33122	
1917	0	124	1255	29	1935	1488	0	33223	32559	33579	32935	32430	33117	32431	33357	
1918	0	126	1243	29	1922	1489	0	33159	32363	33695	32621	32407	33047	32545	33215	
1919	0	124	1237	29	1980	1490	0	33156	32243	33862	32309	31925	33285	32583	33319	
1920	0	137	1232	29	1959	1491	0	33317	32191	34231	32039	31974	33307	32726	33703	
1921	0	165	1208	28	1991	1492	0	33348	32305	33790	31927	32528	33391	33023	33829	
1922	0	121	1257	28	1961	1493	0	32985	32471	33227	32019	33061	32815	33223	33715	
1923	0	114	1226	29	1970	1494	0	32628	32845	33129	32131	33319	32067	33479	33354	
1924	0	153	1236	29	1931	1495	0	32175	33047	32866	32431	33285	31628	33227	32810	
1925	0	131	1200	28	1959	1496	0	31980	33255	32599	32789	33334	31199	32859	32578	
1926	0	165	1215	28	1982	1497	0	32092	33483	32203	33069	33309	31746	33008	32557	
1927	0	141	1233	28	1977	1498	0	32218	33181	31934	32935	33077	32575	32882	32419	
1928	0	110	1231	29	1958	1499	0	32421	32587	31846	32903	32806	32951	32391	32873	
1929	0	135	1285	28	2000	1500	0	32840	32525	32103	32839	32367	33381	31767	33490	
1930	0	150	1240	30	1928	1501	0	32655	32799	31623	33127	32377	33363	31975	33466	
1931	0	133	1219	29	1965	1502	0	32357	32876	31575	33174	32222	33485	32086	33223	
1932	0	149	1228	28	1940	1503	0	31948	33231	31799	33140	32207	33234	32203	33089	
1933	0	101	1253	28	2007	1504	0	31714	33154	31783	33031	32271	33105	32310	32581	
1934	0	111	1206	28	1985	1505	0	32118	32743	32013	33001	32599	33113	32663	32308	
1935	0	105	1254	29	1966	1506	0	32919	32568	32371	32845	32623	33014	32697	32576	
