# OpenSignals Text File Format
# {"00:07:80:3B:46:38": {"sensor": ["CUSTOM/0.5/1.0/V", "CUSTOM/0.5/1.0/V", "CUSTOM/0.5/1.0/V", "CUSTOM/0.5/1.0/V", "CUSTOM/0.5/1.0/V", "CUSTOM/0.5/1.0/V", "CUSTOM/0.5/1.0/V", "CUSTOM/0.5/1.0/V"], "device name": "EMGs", "column": ["nSeq", "DI", "RA_L", "RA_R", "OE_L", "OE:R", "IL_L", "IL_R", "MF_L", "MF_R"], "sync interval": 2, "time": "10:11:55.466", "comments": "", "device connection": "BTH00:07:80:3B:46:38", "channels": [1, 2, 3, 4, 5, 6, 7, 8], "date": "2017-6-2", "mode": 0, "digital IO": [0, 1], "firmware version": 772, "device": "biosignalsplux", "position": 0, "sampling rate": 1000, "label": ["RA_L", "RA_R", "OE_L", "OE:R", "IL_L", "IL_R", "MF_L", "MF_R"], "resolution": [16, 16, 16, 16, 16, 16, 16, 16], "special": [{}, {}, {}, {}, {}, {}, {}, {}]}}
# EndOfHeader
0	0	32729	32730	32543	32639	32715	32645	32797	32581	
1	0	32692	32775	32498	32719	32775	32807	32839	32735	
2	0	32690	32724	32567	32707	32749	32718	32687	32755	
3	0	32772	32671	32547	32759	32807	32757	32794	32550	
4	0	32786	32811	32643	32774	32759	32663	32734	32685	
5	0	32771	32812	32691	32711	32701	32645	32748	32587	
6	0	32734	32788	32690	32775	32751	32682	32699	32765	
7	0	32763	32847	32764	32749	32855	32679	32836	32683	
8	0	32755	32945	32533	32706	32696	32647	32818	32671	
9	0	32761	32713	32635	32795	32803	32677	32722	32598	
10	0	32729	32612	32594	32841	32791	32791	32789	32639	
11	0	32749	32775	32627	32799	32679	32711	32765	32655	
12	0	32790	32825	32660	32630	32794	32807	32793	32583	
13	0	32747	32839	32681	32785	32839	32723	32703	32679	
14	0	32760	32601	32679	32797	32815	32631	32799	32667	
15	0	32748	32759	32487	32793	32835	32755	32735	32719	
16	0	32754	32767	32605	32647	32699	32757	32767	32698	
17	0	32710	32819	32687	32804	32775	32679	32699	32747	
18	0	32775	32783	32695	32719	32799	32749	32739	32559	
19	0	32759	32803	32471	32711	32755	32673	32731	32677	
20	0	32775	32837	32723	32794	32805	32643	32807	32556	
21	0	32713	32783	32591	32775	32788	32595	32783	32711	
22	0	32728	32607	32630	32639	32679	32647	32831	32567	
23	0	32748	32807	32726	32733	32815	32767	32697	32687	
24	0	32773	32797	32532	32767	32787	32775	32719	32567	
25	0	32764	32834	32521	32671	32775	32735	32711	32738	
26	0	32791	32853	32615	32775	32767	32711	32703	32609	
27	0	32769	32775	32578	32795	32775	32695	32765	32747	
28	0	32767	32591	32671	32637	32815	32678	32839	32706	
29	0	32769	32549	32595	32745	32743	32719	32743	32731	
30	0	32772	32743	32543	32807	32855	32694	32773	32663	
31	0	32709	32767	32679	32679	32834	32730	32767	32730	
32	0	32753	32811	32788	32787	32847	32759	32729	32763	
33	0	32751	32877	32628	32819	32723	32775	32764	32739	
34	0	32679	32903	32559	32647	32775	32742	32854	32740	
35	0	32754	32703	32599	32808	32807	32758	32745	32739	
36	0	32749	32643	32742	32809	32823	32817	32803	32731	
37	0	32727	32615	32727	32811	32703	32799	32801	32647	
38	0	32688	32575	32636	32747	32791	32742	32663	32701	
39	0	32748	32759	32631	32715	32827	32748	32775	32551	
40	0	32793	32751	32691	32775	32711	32815	32772	32655	
41	0	32763	32815	32655	32799	32831	32690	32795	32598	
42	0	32775	32815	32605	32607	32835	32678	32775	32655	
43	0	32702	32709	32701	32775	32828	32583	32682	32551	
44	0	32749	32635	32543	32693	32722	32670	32751	32745	
45	0	32662	32607	32621	32626	32815	32742	32807	32782	
46	0	32742	32805	32681	32735	32797	32679	32743	32727	
47	0	32775	32847	32742	32759	32726	32679	32791	32647	
48	0	32775	32831	32628	32817	32769	32685	32751	32693	
49	0	32811	32815	32590	32628	32793	32687	32806	32607	
50	0	32826	32835	32710	32679	32749	32647	32763	32670	
51	0	32827	32726	32619	32692	32767	32614	32734	32679	
52	0	32801	32662	32667	32787	32823	32647	32767	32669	
53	0	32729	32613	32663	32821	32821	32719	32820	32770	
54	0	32766	32709	32530	32654	32775	32801	32733	32586	
55	0	32828	32775	32525	32695	32663	32770	32775	32709	
56	0	32772	32903	32615	32845	32751	32758	32701	32743	
57	0	32777	32867	32647	32775	32805	32767	32727	32775	
58	0	32762	32719	32603	32711	32751	32769	32823	32602	
59	0	32772	32638	32731	32767	32795	32703	32713	32710	
60	0	32800	32755	32550	32837	32799	32725	32775	32551	
61	0	32773	32807	32639	32719	32815	32708	32821	32678	
62	0	32745	32759	32683	32893	32701	32717	32771	32561	
63	0	32789	32813	32607	32823	32803	32715	32795	32673	
64	0	32821	32847	32685	32705	32799	32730	32767	32623	
65	0	32817	32815	32538	32719	32839	32807	32719	32715	
66	0	32804	32751	32511	32797	32755	32726	32785	32543	
67	0	32808	32685	32639	32631	32783	32699	32791	32675	
68	0	32724	32567	32707	32655	32791	32723	32733	32692	
69	0	32773	32799	32685	32647	32839	32679	32713	32687	
70	0	32754	32821	32509	32769	32743	32629	32775	32713	
71	0	32761	32818	32681	32789	32751	32631	32676	32726	
72	0	32756	32825	32681	32623	32791	32687	32811	32677	
73	0	32753	32860	32739	32730	32813	32710	32832	32487	
74	0	32711	32819	32639	32671	32719	32641	32706	32722	
75	0	32671	32614	32481	32790	32765	32617	32774	32598	
76	0	32699	32771	32558	32801	32775	32684	32793	32658	
77	0	32736	32827	32661	32692	32751	32660	32715	32623	
78	0	32785	32836	32647	32855	32771	32693	32796	32719	
79	0	32750	32807	32716	32706	32786	32679	32751	32583	
80	0	32780	32630	32481	32775	32677	32775	32807	32695	
81	0	32723	32799	32647	32807	32655	32791	32807	32607	
82	0	32705	32855	32671	32759	32799	32738	32810	32694	
83	0	32727	32825	32759	32790	32933	32751	32730	32663	
84	0	32781	32713	32621	32695	32831	32740	32667	32701	
85	0	32779	32563	32591	32743	32884	32759	32739	32709	
86	0	32738	32821	32722	32823	32782	32775	32718	32575	
87	0	32786	32767	32621	32641	32724	32754	32685	32713	
88	0	32767	32859	32711	32707	32815	32703	32742	32645	
89	0	32775	32626	32571	32812	32763	32747	32711	32727	
90	0	32751	32571	32535	32631	32842	32657	32775	32606	
91	0	32703	32827	32695	32815	32692	32607	32727	32653	
92	0	32742	32852	32605	32739	32803	32666	32711	32638	
93	0	32764	32823	32647	32586	32887	32695	32807	32717	
94	0	32782	32679	32519	32791	32762	32667	32751	32727	
95	0	32781	32612	32642	32836	32692	32647	32735	32791	
96	0	32734	32587	32666	32820	32740	32647	32774	32775	
97	0	32733	32735	32820	32700	32791	32671	32751	32564	
98	0	32756	32759	32529	32662	32813	32679	32791	32647	
99	0	32775	32839	32719	32755	32785	32647	32756	32581	
100	0	32788	32786	32583	32786	32717	32637	32849	32710	
101	0	32774	32699	32679	32669	32823	32667	32663	32634	
102	0	32786	32623	32467	32804	32879	32689	32722	32751	
103	0	32833	32735	32567	32855	32815	32706	32751	32630	
104	0	32750	32799	32579	32811	32739	32711	32671	32711	
105	0	32742	32845	32607	32839	32727	32691	32759	32742	
106	0	32831	32943	32555	32727	32815	32695	32839	32629	
107	0	32797	32903	32611	32669	32795	32717	32751	32735	
108	0	32804	32805	32629	32799	32823	32706	32783	32535	
109	0	32745	32677	32669	32831	32789	32695	32846	32666	
110	0	32756	32621	32495	32763	32775	32716	32775	32627	
111	0	32732	32739	32639	32725	32759	32694	32743	32731	
112	0	32691	32742	32673	32775	32850	32614	32789	32742	
113	0	32717	32749	32759	32867	32823	32656	32765	32711	
114	0	32826	32851	32461	32701	32701	32635	32735	32759	
115	0	32818	32797	32642	32742	32727	32683	32807	32623	
116	0	32724	32599	32660	32711	32735	32711	32743	32751	
117	0	32758	32743	32655	32795	32815	32775	32733	32797	
118	0	32762	32735	32791	32749	32751	32769	32733	32767	
119	0	32765	32815	32559	32767	32739	32724	32759	32819	
120	0	32780	32740	32647	32828	32751	32723	32796	32711	
121	0	32718	32798	32734	32662	32667	32715	32706	32749	
122	0	32762	32797	32698	32743	32743	32786	32815	32711	
123	0	32790	32803	32655	32751	32807	32687	32756	32639	
124	0	32767	32835	32727	32761	32787	32763	32763	32683	
125	0	32709	32747	32551	32605	32855	32711	32743	32535	
126	0	32707	32683	32647	32807	32731	32683	32767	32695	
127	0	32784	32679	32711	32735	32770	32695	32794	32519	
128	0	32748	32827	32623	32609	32795	32765	32722	32647	
129	0	32716	32763	32503	32763	32807	32769	32751	32531	
130	0	32813	32815	32514	32743	32829	32692	32701	32679	
131	0	32692	32605	32647	32647	32783	32609	32800	32534	
132	0	32771	32538	32611	32738	32775	32687	32804	32671	
133	0	32722	32775	32726	32759	32732	32668	32743	32686	
134	0	32828	32787	32477	32623	32743	32675	32759	32707	
135	0	32745	32841	32566	32751	32769	32655	32701	32663	
136	0	32759	32775	32707	32831	32863	32687	32797	32707	
137	0	32757	32695	32623	32795	32789	32637	32813	32687	
138	0	32742	32631	32677	32727	32735	32711	32731	32583	
139	0	32828	32797	32455	32643	32839	32763	32771	32723	
140	0	32806	32796	32530	32791	32818	32735	32678	32614	
141	0	32783	32837	32662	32764	32861	32726	32807	32799	
142	0	32769	32615	32677	32830	32775	32748	32863	32695	
143	0	32779	32751	32714	32811	32767	32702	32811	32531	
144	0	32841	32821	32759	32797	32647	32661	32735	32614	
145	0	32836	32803	32647	32635	32806	32623	32751	32563	
146	0	32754	32607	32742	32748	32812	32681	32771	32662	
147	0	32784	32831	32783	32668	32783	32823	32775	32647	
148	0	32664	32775	32445	32739	32692	32758	32774	32706	
149	0	32677	32783	32701	32743	32803	32740	32839	32485	
150	0	32711	32699	32627	32691	32857	32775	32741	32623	
151	0	32789	32608	32763	32687	32655	32775	32783	32494	
152	0	32733	32759	32557	32727	32775	32668	32769	32638	
153	0	32740	32854	32663	32729	32851	32735	32747	32559	
154	0	32787	32847	32663	32809	32727	32735	32775	32703	
155	0	32794	32674	32599	32903	32817	32663	32731	32623	
156	0	32743	32591	32765	32659	32823	32738	32805	32745	
157	0	32798	32741	32551	32723	32858	32730	32821	32623	
158	0	32793	32745	32756	32771	32731	32758	32771	32659	
159	0	32716	32791	32679	32775	32738	32726	32727	32631	
160	0	32790	32927	32735	32739	32775	32741	32820	32713	
161	0	32813	32655	32695	32785	32855	32802	32751	32535	
162	0	32751	32683	32479	32809	32772	32825	32765	32694	
163	0	32752	32611	32595	32708	32719	32805	32815	32733	
164	0	32786	32775	32687	32831	32767	32783	32747	32724	
165	0	32758	32799	32607	32668	32807	32677	32833	32629	
166	0	32774	32887	32791	32694	32719	32667	32679	32711	
167	0	32791	32727	32559	32739	32702	32706	32679	32690	
168	0	32790	32591	32692	32822	32743	32751	32754	32604	
169	0	32793	32791	32583	32763	32751	32717	32759	32695	
170	0	32799	32818	32711	32759	32749	32687	32787	32751	
171	0	32835	32839	32747	32615	32687	32591	32758	32708	
172	0	32724	32635	32743	32751	32845	32647	32755	32647	
173	0	32724	32599	32612	32735	32849	32685	32799	32575	
174	0	32751	32772	32560	32647	32775	32647	32721	32702	
175	0	32758	32815	32761	32815	32711	32631	32743	32679	
176	0	32773	32766	32666	32877	32772	32679	32773	32726	
177	0	32782	32893	32717	32687	32811	32714	32775	32663	
178	0	32735	32852	32517	32748	32827	32636	32829	32787	
179	0	32775	32643	32513	32801	32699	32659	32765	32715	
180	0	32773	32799	32693	32716	32764	32671	32762	32703	
181	0	32762	32859	32695	32869	32806	32757	32727	32563	
182	0	32815	32815	32663	32709	32771	32748	32831	32706	
183	0	32846	32590	32642	32720	32750	32739	32764	32646	
184	0	32813	32821	32690	32692	32773	32749	32757	32763	
185	0	32791	32847	32715	32775	32685	32815	32785	32763	
186	0	32721	32683	32784	32753	32790	32699	32799	32643	
187	0	32711	32635	32563	32756	32821	32657	32821	32721	
188	0	32766	32757	32660	32843	32722	32663	32823	32647	
189	0	32738	32766	32695	32802	32783	32681	32819	32727	
190	0	32786	32823	32655	32692	32783	32695	32763	32591	
191	0	32740	32703	32687	32821	32674	32806	32729	32647	
192	0	32718	32585	32755	32711	32743	32795	32732	32519	
193	0	32741	32791	32537	32807	32877	32711	32799	32711	
194	0	32793	32775	32491	32738	32765	32734	32870	32519	
195	0	32771	32821	32673	32836	32719	32755	32724	32698	
196	0	32796	32847	32635	32662	32775	32773	32757	32522	
197	0	32751	32622	32673	32825	32806	32655	32686	32722	
198	0	32739	32605	32732	32843	32604	32749	32759	32562	
199	0	32750	32743	32561	32575	32798	32797	32855	32708	
200	0	32723	32775	32711	32747	32783	32756	32763	32701	
201	0	32725	32826	32719	32807	32783	32705	32765	32703	
202	0	32782	32571	32703	32711	32855	32771	32747	32543	
203	0	32808	32751	32727	32775	32892	32804	32797	32647	
204	0	32772	32787	32716	32733	32775	32775	32711	32573	
205	0	32782	32691	32711	32839	32831	32663	32795	32775	
206	0	32719	32583	32671	32619	32903	32630	32751	32647	
207	0	32738	32759	32771	32798	32791	32631	32767	32722	
208	0	32789	32791	32471	32807	32734	32693	32775	32599	
209	0	32773	32862	32487	32703	32815	32703	32746	32695	
210	0	32761	32733	32557	32826	32775	32689	32799	32563	
211	0	32748	32611	32615	32791	32739	32607	32754	32711	
212	0	32746	32823	32549	32631	32775	32717	32763	32519	
213	0	32763	32837	32615	32775	32851	32691	32827	32747	
214	0	32846	32894	32703	32771	32663	32743	32775	32773	
215	0	32839	32636	32771	32799	32761	32727	32765	32683	
216	0	32793	32827	32575	32673	32831	32727	32758	32671	
217	0	32745	32811	32607	32805	32772	32727	32786	32662	
218	0	32750	32871	32663	32725	32762	32750	32691	32711	
219	0	32698	32807	32637	32699	32822	32743	32755	32791	
220	0	32790	32678	32391	32743	32859	32711	32775	32615	
221	0	32807	32573	32591	32677	32735	32719	32731	32677	
222	0	32743	32806	32695	32763	32705	32767	32775	32541	
223	0	32783	32813	32711	32789	32813	32820	32806	32667	
224	0	32686	32803	32613	32663	32823	32700	32774	32611	
225	0	32700	32825	32567	32807	32785	32727	32775	32695	
226	0	32759	32695	32527	32787	32709	32751	32773	32549	
227	0	32756	32623	32711	32839	32829	32683	32719	32713	
228	0	32732	32825	32791	32745	32817	32738	32741	32541	
229	0	32735	32788	32631	32663	32743	32727	32764	32671	
230	0	32692	32771	32673	32775	32783	32668	32775	32511	
231	0	32749	32603	32700	32711	32789	32631	32734	32706	
232	0	32718	32742	32630	32775	32731	32631	32819	32681	
233	0	32683	32773	32535	32628	32775	32717	32710	32663	
234	0	32684	32814	32543	32713	32855	32735	32725	32727	
235	0	32687	32583	32683	32749	32723	32757	32727	32698	
236	0	32727	32532	32599	32730	32783	32730	32755	32701	
237	0	32708	32797	32763	32731	32832	32766	32797	32671	
238	0	32740	32855	32543	32647	32775	32757	32706	32673	
239	0	32813	32894	32671	32655	32771	32769	32795	32666	
240	0	32743	32862	32631	32607	32727	32789	32743	32759	
241	0	32762	32655	32687	32730	32831	32775	32699	32719	
242	0	32830	32621	32631	32717	32758	32775	32799	32698	
243	0	32804	32663	32607	32803	32877	32767	32709	32698	
244	0	32793	32855	32592	32839	32685	32691	32783	32742	
245	0	32742	32799	32667	32825	32775	32759	32771	32710	
246	0	32713	32863	32631	32782	32751	32809	32775	32669	
247	0	32760	32806	32555	32751	32805	32783	32791	32764	
248	0	32713	32623	32663	32845	32797	32811	32743	32667	
249	0	32751	32577	32673	32726	32707	32757	32739	32717	
250	0	32809	32733	32679	32839	32713	32754	32805	32690	
251	0	32817	32767	32534	32807	32814	32759	32755	32679	
252	0	32804	32791	32531	32739	32783	32695	32783	32530	
253	0	32785	32866	32685	32791	32691	32775	32866	32703	
254	0	32785	32791	32671	32635	32804	32643	32775	32647	
255	0	32823	32594	32767	32727	32786	32654	32766	32685	
256	0	32754	32565	32545	32767	32812	32716	32775	32587	
257	0	32677	32773	32759	32669	32686	32745	32743	32723	
258	0	32717	32803	32751	32660	32823	32762	32793	32647	
259	0	32716	32791	32775	32551	32828	32682	32745	32739	
260	0	32783	32878	32807	32647	32863	32655	32765	32727	
261	0	32775	32870	32567	32647	32719	32679	32813	32566	
262	0	32808	32657	32617	32809	32749	32623	32789	32647	
263	0	32742	32599	32647	32749	32739	32636	32756	32551	
264	0	32789	32754	32493	32751	32847	32685	32786	32723	
265	0	32773	32775	32535	32827	32782	32754	32803	32751	
266	0	32814	32811	32591	32775	32812	32807	32789	32621	
267	0	32803	32831	32717	32925	32677	32775	32679	32658	
268	0	32769	32762	32607	32869	32667	32759	32702	32599	
269	0	32775	32775	32647	32873	32765	32747	32793	32775	
270	0	32725	32833	32626	32679	32839	32727	32727	32795	
271	0	32756	32926	32623	32803	32929	32763	32737	32587	
272	0	32759	32919	32625	32679	32917	32703	32791	32663	
273	0	32670	32694	32707	32725	32766	32695	32716	32562	
274	0	32717	32698	32635	32647	32691	32681	32709	32769	
275	0	32749	32655	32705	32767	32754	32695	32831	32727	
276	0	32729	32599	32545	32727	32734	32703	32839	32823	
277	0	32799	32775	32719	32823	32783	32657	32726	32748	
278	0	32743	32763	32647	32751	32770	32663	32775	32631	
279	0	32753	32781	32775	32677	32727	32692	32759	32639	
280	0	32741	32807	32543	32763	32805	32695	32787	32539	
281	0	32735	32815	32634	32754	32799	32679	32819	32662	
282	0	32783	32707	32573	32645	32862	32671	32813	32519	
283	0	32700	32698	32722	32725	32823	32631	32772	32753	
284	0	32748	32599	32670	32663	32749	32701	32759	32775	
285	0	32791	32603	32692	32820	32658	32726	32847	32615	
286	0	32793	32811	32802	32821	32673	32783	32775	32695	
287	0	32884	32831	32703	32786	32679	32785	32724	32743	
288	0	32826	32775	32639	32775	32797	32709	32765	32643	
289	0	32749	32819	32751	32679	32745	32732	32843	32684	
290	0	32727	32847	32561	32743	32775	32739	32809	32598	
291	0	32784	32903	32629	32681	32796	32675	32742	32647	
292	0	32763	32973	32769	32787	32769	32766	32775	32583	
293	0	32745	32887	32606	32783	32673	32729	32769	32739	
294	0	32725	32683	32643	32763	32775	32715	32705	32661	
295	0	32732	32571	32655	32791	32903	32757	32759	32714	
296	0	32708	32803	32687	32809	32810	32736	32703	32657	
297	0	32797	32775	32703	32831	32756	32830	32742	32675	
298	0	32745	32775	32511	32839	32838	32745	32755	32666	
299	0	32721	32738	32547	32738	32833	32647	32801	32583	
300	0	32756	32839	32719	32747	32797	32642	32748	32699	
301	0	32721	32750	32821	32733	32823	32698	32773	32567	
302	0	32735	32564	32581	32791	32706	32679	32735	32620	
303	0	32780	32767	32775	32739	32773	32669	32771	32594	
304	0	32775	32795	32631	32646	32799	32711	32756	32756	
305	0	32756	32771	32663	32795	32903	32706	32749	32686	
306	0	32702	32687	32733	32740	32724	32751	32839	32751	
307	0	32746	32579	32479	32775	32775	32743	32753	32551	
308	0	32799	32748	32699	32647	32775	32727	32786	32678	
309	0	32775	32799	32607	32786	32726	32775	32826	32617	
310	0	32768	32823	32708	32823	32805	32719	32689	32695	
311	0	32767	32804	32747	32684	32892	32679	32837	32535	
312	0	32826	32603	32455	32775	32706	32767	32725	32682	
313	0	32795	32823	32449	32743	32771	32775	32806	32613	
314	0	32781	32756	32647	32761	32845	32743	32743	32720	
315	0	32775	32820	32666	32830	32747	32774	32739	32614	
316	0	32721	32797	32548	32767	32747	32743	32799	32691	
317	0	32732	32610	32642	32757	32805	32732	32754	32599	
318	0	32737	32791	32703	32660	32867	32663	32855	32731	
319	0	32742	32884	32731	32764	32737	32621	32731	32717	
320	0	32703	32762	32663	32743	32797	32683	32757	32615	
321	0	32775	32667	32540	32593	32807	32607	32743	32769	
322	0	32831	32610	32751	32634	32790	32667	32749	32775	
323	0	32757	32783	32854	32695	32807	32719	32839	32647	
324	0	32749	32749	32775	32647	32745	32655	32839	32679	
325	0	32735	32791	32977	32707	32647	32727	32723	32574	
326	0	32709	32828	32895	32583	32820	32727	32743	32738	
327	0	32691	32811	32831	32815	32767	32695	32739	32595	
328	0	32742	32629	32476	32789	32751	32677	32713	32618	
329	0	32796	32783	32317	32671	32675	32630	32813	32535	
330	0	32756	32830	32441	32841	32783	32586	32811	32687	
331	0	32775	32917	32245	32827	32843	32604	32759	32515	
332	0	32798	32669	32170	32695	32819	32659	32759	32706	
333	0	32743	32595	32391	32831	32807	32675	32722	32587	
334	0	32710	32727	32290	32775	32835	32783	32799	32755	
335	0	32773	32747	32388	32623	32856	32714	32805	32615	
336	0	32791	32816	32511	32791	32783	32638	32775	32711	
337	0	32804	32677	32639	32823	32692	32677	32791	32510	
338	0	32798	32579	32532	32718	32671	32715	32759	32587	
339	0	32775	32732	32667	32853	32743	32715	32802	32503	
340	0	32794	32731	32749	32857	32867	32765	32801	32669	
341	0	32789	32791	32695	32722	32847	32724	32804	32569	
342	0	32710	32930	32805	32719	32749	32708	32823	32751	
343	0	32742	32738	32925	32753	32765	32647	32773	32572	
344	0	32752	32618	32587	32703	32835	32801	32749	32671	
345	0	32700	32647	32796	32839	32831	32701	32803	32535	
346	0	32736	32771	32694	32667	32745	32710	32745	32671	
347	0	32730	32791	32765	32783	32663	32658	32759	32554	
348	0	32725	32789	32609	32819	32775	32623	32797	32611	
349	0	32791	32854	32743	32711	32821	32679	32717	32543	
350	0	32809	32879	32719	32722	32839	32667	32743	32666	
351	0	32773	32895	32643	32631	32803	32647	32747	32735	
352	0	32759	32871	32692	32749	32695	32635	32759	32662	
353	0	32747	32839	32667	32789	32738	32741	32759	32693	
354	0	32775	32641	32597	32709	32845	32615	32796	32669	
355	0	32791	32567	32749	32765	32876	32675	32722	32695	
356	0	32784	32635	32611	32747	32821	32698	32735	32577	
357	0	32775	32781	32543	32615	32796	32743	32815	32693	
358	0	32775	32797	32666	32765	32797	32711	32732	32559	
359	0	32744	32971	32715	32733	32794	32699	32771	32683	
360	0	32706	32767	32597	32635	32829	32719	32726	32558	
361	0	32820	32775	32571	32756	32804	32702	32690	32743	
362	0	32804	32826	32639	32658	32751	32767	32679	32722	
363	0	32748	32621	32735	32739	32725	32797	32805	32635	
364	0	32769	32583	32595	32763	32799	32783	32713	32703	
365	0	32820	32719	32534	32810	32775	32734	32775	32609	
366	0	32709	32767	32775	32775	32683	32787	32770	32695	
367	0	32774	32775	32663	32687	32751	32784	32743	32589	
368	0	32700	32795	32775	32763	32794	32703	32786	32687	
369	0	32707	32875	32581	32802	32759	32756	32805	32531	
370	0	32799	32732	32555	32759	32869	32743	32735	32671	
371	0	32757	32663	32606	32775	32762	32729	32775	32542	
372	0	32721	32623	32595	32695	32787	32669	32679	32699	
373	0	32718	32609	32623	32799	32838	32765	32794	32610	
374	0	32743	32861	32455	32716	32737	32735	32795	32685	
375	0	32732	32796	32695	32602	32729	32767	32713	32605	
376	0	32723	32791	32757	32815	32732	32647	32770	32695	
377	0	32848	32775	32548	32673	32735	32715	32828	32673	
378	0	32793	32775	32737	32713	32787	32719	32743	32535	
379	0	32822	32815	32708	32733	32830	32705	32707	32715	
380	0	32784	32879	32599	32812	32828	32739	32850	32511	
381	0	32764	32757	32583	32767	32831	32670	32767	32687	
382	0	32732	32647	32623	32647	32695	32636	32739	32583	
383	0	32708	32823	32663	32825	32823	32669	32727	32775	
384	0	32807	32807	32647	32807	32813	32677	32712	32562	
385	0	32783	32863	32677	32843	32822	32782	32797	32734	
386	0	32715	32833	32643	32690	32681	32732	32799	32735	
387	0	32727	32684	32535	32775	32756	32735	32751	32689	
388	0	32764	32631	32551	32766	32839	32695	32759	32733	
389	0	32783	32787	32685	32601	32790	32695	32815	32711	
390	0	32806	32851	32647	32725	32711	32707	32759	32720	
391	0	32773	32851	32670	32774	32787	32731	32814	32593	
392	0	32751	32607	32623	32675	32787	32699	32713	32647	
393	0	32788	32807	32647	32684	32807	32647	32679	32711	
394	0	32829	32838	32675	32815	32830	32775	32700	32677	
395	0	32775	32668	32679	32809	32738	32747	32663	32723	
396	0	32806	32811	32804	32727	32687	32725	32741	32639	
397	0	32801	32775	32586	32806	32756	32723	32806	32748	
398	0	32790	32733	32709	32759	32795	32791	32806	32707	
399	0	32794	32838	32694	32643	32775	32723	32838	32623	
400	0	32814	32859	32749	32679	32831	32699	32754	32722	
401	0	32810	32636	32703	32763	32692	32735	32770	32764	
402	0	32781	32786	32501	32717	32727	32713	32797	32709	
403	0	32741	32716	32578	32807	32775	32701	32811	32773	
404	0	32666	32855	32639	32753	32851	32715	32775	32581	
405	0	32659	32655	32553	32647	32803	32767	32735	32630	
406	0	32775	32586	32631	32713	32735	32767	32759	32609	
407	0	32769	32791	32748	32787	32839	32817	32711	32726	
408	0	32728	32749	32587	32759	32805	32746	32798	32647	
409	0	32748	32885	32719	32749	32861	32755	32699	32743	
410	0	32738	32701	32631	32762	32751	32751	32772	32551	
411	0	32772	32583	32735	32759	32735	32742	32769	32722	
412	0	32766	32847	32695	32787	32812	32683	32735	32623	
413	0	32711	32767	32595	32705	32813	32703	32871	32764	
414	0	32738	32860	32682	32839	32731	32724	32751	32687	
415	0	32725	32799	32641	32789	32695	32691	32711	32722	
416	0	32764	32635	32647	32621	32811	32660	32751	32674	
417	0	32826	32798	32758	32771	32830	32695	32805	32719	
418	0	32782	32759	32595	32801	32806	32706	32843	32726	
419	0	32785	32757	32546	32809	32775	32692	32749	32644	
420	0	32801	32839	32655	32775	32763	32627	32751	32737	
421	0	32782	32743	32687	32828	32741	32662	32783	32738	
422	0	32815	32676	32703	32796	32775	32687	32743	32713	
423	0	32841	32839	32590	32724	32743	32685	32775	32605	
424	0	32806	32771	32485	32775	32790	32711	32709	32751	
425	0	32775	32854	32703	32679	32852	32749	32767	32732	
426	0	32729	32623	32718	32757	32762	32682	32762	32671	
427	0	32774	32647	32598	32815	32823	32717	32839	32682	
428	0	32745	32763	32684	32699	32783	32790	32759	32682	
429	0	32791	32797	32797	32725	32724	32740	32755	32695	
430	0	32743	32775	32591	32711	32839	32755	32720	32514	
431	0	32689	32525	32541	32770	32807	32703	32783	32708	
432	0	32728	32802	32717	32647	32727	32699	32829	32567	
433	0	32751	32803	32570	32711	32711	32660	32691	32679	
434	0	32678	32822	32589	32831	32819	32633	32788	32612	
435	0	32679	32839	32503	32815	32871	32742	32799	32709	
436	0	32659	32799	32631	32751	32735	32739	32738	32711	
437	0	32681	32699	32542	32602	32703	32785	32775	32615	
438	0	32717	32646	32679	32829	32811	32746	32775	32671	
439	0	32714	32759	32451	32823	32795	32711	32759	32594	
440	0	32789	32791	32626	32671	32852	32731	32791	32714	
441	0	32804	32826	32647	32698	32847	32676	32785	32557	
442	0	32775	32845	32607	32767	32719	32684	32735	32687	
443	0	32790	32723	32714	32743	32719	32728	32767	32545	
444	0	32757	32573	32563	32743	32799	32787	32703	32717	
445	0	32725	32783	32719	32734	32791	32759	32807	32622	
446	0	32749	32743	32686	32767	32807	32765	32801	32687	
447	0	32793	32786	32647	32707	32719	32775	32739	32745	
448	0	32802	32851	32699	32711	32783	32738	32775	32739	
449	0	32813	32760	32548	32789	32767	32711	32791	32772	
450	0	32774	32615	32642	32751	32805	32839	32759	32743	
451	0	32791	32549	32621	32706	32897	32775	32813	32745	
452	0	32775	32767	32717	32755	32767	32743	32734	32690	
453	0	32791	32861	32767	32719	32710	32711	32759	32677	
454	0	32749	32707	32511	32775	32765	32607	32711	32630	
455	0	32797	32590	32606	32682	32730	32635	32735	32595	
456	0	32756	32791	32633	32759	32791	32703	32705	32711	
457	0	32745	32854	32645	32823	32717	32671	32845	32570	
458	0	32736	32855	32607	32743	32747	32647	32695	32675	
459	0	32727	32719	32630	32739	32767	32734	32762	32559	
460	0	32725	32653	32591	32797	32771	32762	32709	32662	
461	0	32753	32797	32699	32723	32815	32795	32703	32534	
462	0	32790	32834	32555	32701	32699	32671	32755	32707	
463	0	32758	32789	32715	32662	32729	32637	32801	32758	
464	0	32762	32895	32647	32671	32639	32591	32735	32681	
465	0	32772	32823	32639	32647	32758	32630	32819	32709	
466	0	32797	32687	32557	32787	32785	32691	32759	32542	
467	0	32742	32823	32643	32775	32806	32705	32739	32595	
468	0	32700	32757	32633	32662	32812	32647	32819	32495	
469	0	32745	32773	32591	32807	32814	32585	32751	32667	
470	0	32696	32862	32687	32802	32838	32647	32767	32695	
471	0	32722	32903	32647	32683	32748	32636	32807	32719	
472	0	32712	32815	32671	32720	32898	32737	32743	32724	
473	0	32739	32639	32667	32785	32845	32655	32769	32715	
474	0	32743	32815	32519	32639	32809	32639	32793	32661	
475	0	32812	32833	32615	32790	32775	32585	32711	32737	
476	0	32786	32817	32684	32804	32693	32638	32719	32751	
477	0	32798	32870	32700	32711	32743	32667	32763	32733	
478	0	32760	32865	32519	32707	32741	32711	32740	32715	
479	0	32774	32659	32677	32695	32887	32737	32839	32530	
480	0	32764	32604	32766	32743	32829	32767	32807	32729	
481	0	32745	32553	32603	32756	32820	32737	32703	32735	
482	0	32783	32751	32683	32718	32823	32773	32749	32639	
483	0	32786	32727	32655	32787	32811	32760	32820	32743	
484	0	32775	32819	32717	32685	32711	32775	32738	32627	
485	0	32826	32817	32527	32807	32679	32702	32711	32663	
486	0	32807	32711	32635	32799	32803	32689	32763	32543	
487	0	32743	32614	32613	32625	32719	32707	32773	32673	
488	0	32730	32583	32543	32694	32748	32811	32756	32723	
489	0	32711	32543	32647	32595	32677	32735	32796	32621	
490	0	32738	32739	32629	32631	32692	32641	32818	32685	
491	0	32760	32715	32523	32727	32842	32660	32775	32645	
492	0	32741	32769	32607	32714	32823	32660	32775	32687	
493	0	32742	32839	32597	32783	32799	32747	32805	32526	
494	0	32775	32700	32467	32789	32739	32675	32807	32670	
495	0	32734	32643	32711	32887	32697	32695	32775	32579	
496	0	32708	32775	32719	32873	32743	32679	32754	32701	
497	0	32768	32798	32674	32659	32806	32671	32785	32554	
498	0	32742	32855	32694	32775	32887	32699	32791	32714	
499	0	32775	32839	32720	32759	32839	32627	32759	32535	
500	0	32775	32795	32642	32817	32803	32623	32679	32647	
501	0	32813	32735	32634	32775	32727	32756	32723	32679	
502	0	32759	32743	32690	32758	32682	32725	32764	32559	
503	0	32726	32575	32499	32755	32679	32773	32727	32647	
504	0	32791	32605	32639	32711	32745	32708	32745	32566	
505	0	32762	32749	32559	32689	32789	32723	32899	32722	
506	0	32775	32771	32691	32551	32791	32735	32826	32644	
507	0	32786	32803	32432	32706	32858	32733	32764	32707	
508	0	32793	32885	32682	32733	32814	32700	32807	32671	
509	0	32775	32914	32628	32819	32671	32701	32745	32713	
510	0	32786	32765	32713	32775	32687	32738	32715	32715	
511	0	32763	32667	32611	32810	32711	32743	32743	32611	
512	0	32749	32591	32583	32789	32738	32755	32775	32741	
513	0	32771	32775	32637	32687	32828	32759	32743	32519	
514	0	32668	32775	32644	32727	32766	32730	32804	32741	
515	0	32775	32775	32674	32711	32785	32669	32767	32587	
516	0	32780	32851	32589	32775	32818	32699	32759	32679	
517	0	32738	32951	32500	32703	32838	32646	32775	32703	
518	0	32766	32921	32667	32786	33007	32716	32755	32599	
519	0	32711	32879	32757	32647	32941	32711	32772	32683	
520	0	32740	32727	32457	32747	32716	32711	32764	32660	
521	0	32711	32639	32647	32703	32711	32693	32767	32745	
522	0	32816	32661	32687	32702	32788	32775	32724	32725	
523	0	32757	32607	32571	32611	32735	32711	32783	32607	
524	0	32743	32611	32694	32759	32764	32703	32791	32687	
525	0	32808	32747	32663	32775	32679	32687	32758	32802	
526	0	32763	32796	32567	32789	32724	32703	32722	32581	
527	0	32791	32869	32719	32710	32710	32737	32763	32767	
528	0	32708	32742	32686	32793	32827	32803	32751	32671	
529	0	32739	32854	32637	32821	32843	32775	32719	32775	
530	0	32717	32823	32785	32827	32822	32759	32727	32767	
531	0	32680	32662	32534	32791	32759	32724	32815	32595	
532	0	32722	32615	32727	32825	32790	32775	32775	32722	
533	0	32730	32703	32607	32699	32823	32726	32739	32737	
534	0	32759	32749	32375	32693	32859	32746	32647	32550	
535	0	32797	32735	32647	32737	32820	32714	32757	32727	
536	0	32775	32727	32623	32740	32861	32710	32775	32674	
537	0	32740	32647	32471	32655	32847	32685	32821	32519	
538	0	32742	32601	32583	32757	32839	32785	32717	32687	
539	0	32791	32602	32615	32679	32862	32767	32687	32703	
540	0	32791	32613	32771	32790	32815	32705	32742	32571	
541	0	32751	32743	32553	32775	32660	32692	32835	32739	
542	0	32775	32764	32739	32759	32683	32623	32815	32603	
543	0	32744	32751	32615	32797	32719	32697	32749	32627	
544	0	32775	32827	32711	32797	32723	32682	32801	32655	
545	0	32706	32775	32495	32782	32738	32703	32742	32519	
546	0	32663	32589	32621	32726	32775	32711	32765	32683	
547	0	32797	32601	32679	32673	32743	32756	32836	32699	
548	0	32821	32579	32493	32705	32763	32765	32813	32555	
549	0	32834	32590	32685	32732	32831	32821	32801	32742	
550	0	32727	32743	32696	32724	32846	32767	32748	32738	
551	0	32775	32791	32741	32775	32767	32745	32809	32653	
552	0	32782	32843	32599	32662	32671	32766	32733	32718	
553	0	32807	32911	32613	32734	32679	32709	32731	32556	
554	0	32790	32865	32691	32724	32693	32687	32751	32767	
555	0	32775	32754	32535	32775	32861	32661	32775	32746	
556	0	32735	32647	32723	32863	32855	32631	32751	32647	
557	0	32758	32591	32659	32803	32903	32682	32847	32719	
558	0	32718	32813	32663	32818	32847	32607	32783	32567	
559	0	32774	32759	32727	32708	32732	32562	32690	32675	
560	0	32797	32871	32775	32734	32709	32699	32875	32565	
561	0	32791	32911	32503	32637	32782	32663	32738	32670	
562	0	32796	32757	32666	32695	32789	32685	32761	32613	
563	0	32772	32789	32613	32655	32788	32662	32814	32699	
564	0	32765	32739	32702	32698	32839	32751	32835	32799	
565	0	32743	32663	32537	32695	32871	32771	32743	32623	
566	0	32784	32697	32662	32799	32791	32739	32685	32694	
567	0	32738	32646	32655	32818	32823	32742	32827	32607	
568	0	32807	32599	32559	32847	32775	32749	32711	32761	
569	0	32692	32783	32714	32742	32770	32629	32657	32685	
570	0	32725	32770	32532	32620	32709	32700	32799	32735	
571	0	32730	32839	32662	32794	32821	32743	32739	32609	
572	0	32658	32845	32690	32795	32807	32731	32727	32706	
573	0	32636	32839	32549	32775	32801	32753	32811	32669	
574	0	32699	32819	32470	32823	32793	32722	32735	32594	
575	0	32698	32583	32563	32691	32839	32725	32735	32662	
576	0	32740	32595	32545	32839	32679	32757	32775	32562	
577	0	32743	32723	32709	32815	32795	32769	32797	32677	
578	0	32784	32743	32519	32695	32791	32755	32783	32567	
579	0	32791	32758	32745	32727	32791	32687	32786	32719	
580	0	32807	32775	32669	32690	32783	32655	32719	32723	
581	0	32734	32895	32822	32721	32759	32647	32775	32679	
582	0	32748	32834	32549	32821	32789	32662	32775	32765	
583	0	32756	32703	32738	32765	32695	32695	32743	32759	
584	0	32834	32634	32642	32727	32789	32655	32831	32735	
585	0	32816	32807	32639	32703	32831	32647	32749	32623	
586	0	32749	32775	32587	32835	32791	32625	32831	32695	
587	0	32796	32863	32663	32759	32745	32631	32799	32562	
588	0	32746	32816	32633	32727	32799	32631	32679	32675	
589	0	32764	32879	32667	32703	32703	32676	32770	32596	
590	0	32843	32735	32739	32823	32690	32647	32759	32749	
591	0	32759	32672	32527	32775	32709	32660	32708	32563	
592	0	32838	32631	32705	32807	32797	32663	32797	32719	
593	0	32850	32557	32615	32646	32739	32679	32799	32550	
594	0	32812	32751	32775	32737	32807	32690	32739	32659	
595	0	32790	32771	32491	32815	32919	32647	32741	32559	
596	0	32737	32855	32599	32807	32785	32756	32823	32747	
597	0	32764	32751	32685	32767	32754	32788	32723	32703	
598	0	32746	32887	32739	32742	32679	32751	32769	32717	
599	0	32798	32839	32775	32727	32820	32727	32815	32788	
600	0	32703	32661	32626	32695	32837	32783	32749	32723	
601	0	32791	32615	32519	32683	32842	32797	32797	32719	
602	0	32809	32579	32679	32811	32804	32753	32843	32498	
603	0	32842	32811	32731	32809	32729	32785	32775	32646	
604	0	32785	32807	32590	32751	32683	32749	32791	32575	
605	0	32751	32773	32586	32600	32833	32747	32773	32787	
606	0	32742	32759	32566	32803	32855	32765	32741	32797	
607	0	32722	32871	32634	32775	32805	32775	32751	32660	
608	0	32755	32821	32539	32639	32846	32763	32757	32687	
609	0	32727	32743	32679	32754	32821	32775	32773	32577	
610	0	32726	32722	32594	32628	32818	32783	32710	32658	
611	0	32730	32841	32527	32785	32850	32701	32775	32655	
612	0	32738	32734	32668	32647	32847	32665	32784	32711	
613	0	32679	32791	32655	32795	32831	32703	32743	32614	
614	0	32722	32644	32767	32647	32783	32748	32711	32745	
615	0	32751	32621	32603	32815	32743	32765	32685	32662	
616	0	32751	32597	32626	32765	32815	32695	32746	32767	
617	0	32743	32613	32797	32815	32766	32738	32695	32674	
618	0	32742	32727	32663	32771	32783	32789	32743	32583	
619	0	32767	32706	32615	32695	32727	32766	32825	32727	
620	0	32794	32727	32759	32723	32756	32711	32823	32751	
621	0	32761	32775	32540	32823	32723	32668	32749	32627	
622	0	32756	32813	32666	32849	32791	32629	32797	32679	
623	0	32743	32877	32684	32786	32767	32671	32811	32587	
624	0	32746	32873	32575	32711	32703	32631	32730	32751	
625	0	32713	32835	32655	32687	32834	32703	32695	32647	
626	0	32743	32893	32549	32621	32765	32767	32767	32619	
627	0	32707	32683	32603	32831	32852	32770	32787	32722	
628	0	32719	32595	32505	32839	32727	32754	32722	32534	
629	0	32801	32775	32530	32732	32723	32720	32762	32623	
630	0	32799	32806	32695	32769	32754	32703	32749	32647	
631	0	32815	32842	32671	32732	32811	32706	32775	32769	
632	0	32775	32794	32706	32702	32865	32794	32791	32695	
633	0	32798	32767	32509	32815	32879	32730	32759	32555	
634	0	32717	32823	32631	32830	32775	32717	32786	32751	
635	0	32788	32685	32759	32687	32810	32712	32733	32605	
636	0	32788	32759	32690	32816	32798	32716	32773	32775	
637	0	32754	32743	32708	32799	32791	32711	32809	32628	
638	0	32803	32759	32851	32684	32751	32679	32707	32698	
639	0	32749	32871	32583	32881	32827	32719	32771	32595	
640	0	32728	32756	32543	32730	32805	32647	32799	32791	
641	0	32766	32605	32647	32743	32851	32663	32843	32773	
642	0	32790	32743	32582	32757	32695	32668	32775	32804	
643	0	32806	32799	32706	32769	32693	32625	32767	32706	
644	0	32745	32848	32647	32661	32711	32640	32743	32679	
645	0	32749	32805	32559	32671	32811	32687	32719	32519	
646	0	32783	32815	32623	32647	32763	32690	32724	32711	
647	0	32736	32859	32647	32773	32748	32695	32775	32690	
648	0	32677	32798	32703	32773	32839	32639	32713	32734	
649	0	32706	32623	32519	32671	32713	32694	32793	32735	
650	0	32758	32591	32687	32711	32733	32690	32765	32695	
651	0	32742	32817	32681	32735	32836	32667	32791	32671	
652	0	32769	32919	32641	32771	32807	32647	32793	32791	
653	0	32728	32823	32716	32786	32927	32643	32711	32805	
654	0	32729	32709	32611	32795	32823	32691	32747	32685	
655	0	32775	32663	32595	32735	32732	32711	32763	32743	
656	0	32743	32766	32665	32860	32758	32666	32687	32594	
657	0	32794	32825	32647	32797	32786	32679	32753	32717	
658	0	32756	32898	32635	32789	32827	32739	32719	32663	
659	0	32761	32681	32730	32691	32734	32751	32722	32805	
660	0	32834	32623	32531	32837	32769	32707	32691	32703	
661	0	32775	32821	32575	32759	32796	32743	32722	32815	
662	0	32748	32862	32595	32767	32785	32794	32707	32717	
663	0	32793	32619	32647	32548	32754	32743	32647	32607	
664	0	32755	32725	32543	32699	32842	32727	32634	32671	
665	0	32783	32767	32671	32717	32855	32738	32703	32498	
666	0	32674	32838	32518	32590	32818	32767	32615	32685	
667	0	32679	32538	32335	32751	32759	32775	32567	32647	
668	0	32687	32659	32359	32662	32734	32707	32663	32594	
669	0	32640	32687	32514	32722	32775	32718	32621	32518	
670	0	32600	32751	32404	32519	32764	32647	32711	32683	
671	0	32659	32765	32453	32740	32903	32631	32663	32639	
672	0	32738	32559	32535	32647	32818	32637	32691	32693	
673	0	32763	32495	32319	32615	32746	32691	32592	32579	
674	0	32743	32687	32459	32643	32807	32643	32631	32667	
675	0	32715	32767	32419	32610	32809	32668	32647	32477	
676	0	32705	32727	32567	32627	32757	32647	32659	32525	
677	0	32722	32583	32405	32599	32789	32743	32775	32413	
678	0	32738	32759	32407	32783	32647	32720	32775	32619	
679	0	32673	32775	32543	32661	32677	32679	32805	32698	
680	0	32713	32751	32633	32695	32735	32775	32747	32708	
681	0	32735	32567	32587	32546	32695	32617	32791	32659	
682	0	32729	32719	32543	32727	32691	32583	32727	32495	
683	0	32790	32707	32671	32711	32883	32566	32799	32635	
684	0	32775	32759	32700	32607	32927	32600	32765	32524	
685	0	32751	32831	32503	32822	32805	32689	32759	32702	
686	0	32710	32611	32591	32823	32877	32711	32751	32563	
687	0	32765	32751	32594	32871	32815	32747	32841	32641	
688	0	32724	32820	32751	32730	32828	32775	32898	32637	
689	0	32799	32808	32806	32903	32827	32745	33023	32573	
690	0	32773	32671	32807	32959	32719	32737	32999	32748	
691	0	32837	32893	32959	32935	32637	32661	33071	32615	
692	0	32920	32921	33087	33063	32730	32633	33109	32694	
693	0	33015	33075	32999	33181	32713	32663	33279	32527	
694	0	33154	33099	33140	33222	32631	32543	33431	32599	
695	0	33223	32983	33391	33235	32576	32543	33486	32420	
696	0	33215	32839	33267	33199	32542	32519	33494	32519	
697	0	33168	32967	33159	33181	32487	32647	33399	32559	
698	0	33108	33031	33083	32995	32543	32612	33193	32493	
699	0	33043	32830	33055	32985	32673	32661	33083	32615	
700	0	32918	32667	32681	32847	32708	32709	32999	32527	
701	0	32775	32823	32719	32838	32647	32719	32839	32681	
702	0	32674	32771	32646	32769	32726	32729	32687	32555	
703	0	32679	32885	32605	32665	32854	32775	32527	32717	
704	0	32639	32675	32479	32751	32871	32807	32573	32641	
705	0	32606	32623	32439	32468	32839	32797	32530	32740	
706	0	32617	32759	32541	32623	32799	32807	32467	32663	
707	0	32586	32698	32318	32647	32871	32815	32492	32749	
708	0	32598	32829	32436	32525	32915	32783	32479	32615	
709	0	32551	32823	32503	32621	32903	32831	32514	32743	
710	0	32584	32629	32419	32722	32857	32740	32527	32579	
711	0	32638	32532	32524	32599	32804	32621	32565	32695	
712	0	32745	32738	32587	32639	32851	32743	32627	32577	
713	0	32771	32711	32471	32634	32865	32687	32566	32823	
714	0	32708	32725	32480	32631	32835	32706	32571	32598	
715	0	32751	32861	32677	32673	32839	32686	32673	32743	
716	0	32800	32734	32609	32823	32839	32725	32659	32575	
717	0	32772	32691	32701	32807	32887	32773	32647	32773	
718	0	32735	32645	32489	32831	32853	32767	32723	32739	
719	0	32758	32669	32575	32747	32876	32804	32690	32607	
720	0	32761	32615	32519	32734	32749	32719	32731	32723	
721	0	32772	32583	32687	32564	32804	32692	32663	32745	
722	0	32742	32617	32631	32671	32794	32740	32743	32636	
723	0	32808	32551	32656	32602	32753	32659	32709	32707	
724	0	32732	32726	32691	32747	32702	32711	32733	32564	
725	0	32775	32743	32775	32735	32775	32692	32767	32694	
726	0	32687	32847	32583	32647	32775	32739	32743	32581	
727	0	32647	32839	32451	32758	32775	32706	32814	32679	
728	0	32685	32724	32607	32711	32821	32699	32742	32581	
729	0	32703	32565	32669	32615	32683	32803	32787	32703	
730	0	32705	32612	32530	32702	32709	32719	32818	32791	
731	0	32764	32812	32631	32722	32775	32682	32735	32743	
732	0	32722	32827	32562	32687	32827	32663	32823	32679	
733	0	32709	32870	32632	32722	32751	32679	32759	32674	
734	0	32726	32804	32626	32543	32807	32631	32698	32522	
735	0	32733	32811	32647	32735	32759	32615	32734	32666	
736	0	32747	32699	32679	32787	32807	32659	32687	32534	
737	0	32735	32549	32735	32713	32811	32775	32791	32615	
738	0	32711	32749	32535	32804	32827	32805	32773	32602	
739	0	32761	32773	32545	32835	32775	32731	32739	32673	
740	0	32731	32823	32683	32699	32797	32751	32807	32535	
741	0	32793	32797	32694	32773	32866	32760	32755	32714	
742	0	32730	32903	32733	32852	32740	32807	32734	32539	
743	0	32827	32823	32517	32791	32767	32783	32743	32735	
744	0	32823	32687	32642	32714	32759	32802	32679	32615	
745	0	32796	32615	32621	32791	32739	32711	32799	32740	
746	0	32810	32771	32642	32745	32773	32699	32751	32675	
747	0	32772	32807	32693	32751	32769	32761	32820	32767	
748	0	32738	32923	32606	32747	32871	32723	32707	32591	
749	0	32803	32647	32647	32647	32687	32751	32775	32691	
750	0	32783	32604	32697	32795	32775	32743	32815	32519	
751	0	32797	32763	32647	32839	32798	32731	32707	32692	
752	0	32773	32735	32534	32691	32771	32738	32746	32764	
753	0	32751	32836	32599	32723	32809	32731	32821	32703	
754	0	32717	32919	32571	32614	32877	32695	32741	32689	
755	0	32755	32767	32666	32803	32751	32742	32769	32551	
756	0	32793	32631	32497	32810	32655	32783	32830	32615	
757	0	32788	32567	32687	32677	32716	32695	32767	32498	
758	0	32809	32590	32679	32708	32753	32743	32770	32655	
759	0	32727	32839	32571	32741	32761	32719	32799	32595	
760	0	32712	32879	32595	32747	32837	32727	32723	32743	
761	0	32708	32863	32653	32743	32806	32695	32771	32763	
762	0	32763	32775	32637	32751	32790	32677	32721	32738	
763	0	32767	32679	32660	32790	32702	32653	32775	32763	
764	0	32743	32590	32615	32763	32724	32701	32819	32679	
765	0	32818	32759	32579	32615	32831	32725	32743	32727	
766	0	32713	32775	32658	32775	32795	32755	32692	32597	
767	0	32740	32775	32684	32803	32799	32705	32775	32707	
768	0	32744	32831	32737	32615	32775	32663	32722	32575	
769	0	32710	32682	32579	32818	32749	32695	32726	32667	
770	0	32710	32575	32631	32797	32767	32721	32826	32607	
771	0	32733	32727	32621	32667	32863	32698	32740	32738	
772	0	32748	32754	32642	32789	32811	32703	32771	32767	
773	0	32721	32743	32519	32731	32740	32723	32791	32815	
774	0	32748	32854	32663	32806	32775	32798	32742	32677	
775	0	32787	32851	32637	32839	32734	32789	32773	32527	
776	0	32805	32615	32692	32771	32761	32719	32775	32666	
777	0	32730	32594	32575	32727	32771	32759	32747	32622	
778	0	32764	32742	32543	32647	32863	32767	32775	32719	
779	0	32782	32732	32647	32742	32735	32767	32743	32565	
780	0	32765	32810	32599	32621	32765	32783	32786	32751	
781	0	32745	32903	32703	32753	32791	32730	32705	32707	
782	0	32767	32805	32582	32765	32843	32711	32703	32790	
783	0	32764	32757	32707	32871	32804	32749	32747	32745	
784	0	32804	32679	32763	32819	32807	32750	32749	32543	
785	0	32844	32548	32519	32804	32775	32775	32837	32703	
786	0	32760	32735	32660	32825	32757	32787	32723	32543	
787	0	32780	32775	32643	32620	32775	32717	32719	32662	
788	0	32759	32771	32711	32748	32743	32783	32775	32599	
789	0	32732	32834	32581	32647	32795	32757	32783	32687	
790	0	32755	32835	32674	32719	32772	32679	32815	32746	
791	0	32758	32668	32644	32740	32799	32668	32798	32755	
792	0	32736	32595	32693	32731	32718	32710	32727	32719	
793	0	32755	32809	32543	32763	32861	32741	32766	32687	
794	0	32749	32803	32422	32759	32811	32705	32711	32542	
795	0	32720	32775	32575	32775	32829	32668	32791	32662	
796	0	32730	32711	32711	32759	32727	32783	32852	32599	
797	0	32743	32630	32683	32667	32708	32692	32743	32695	
798	0	32751	32655	32743	32727	32783	32686	32775	32699	
799	0	32751	32775	32511	32647	32801	32708	32819	32718	
800	0	32730	32854	32557	32827	32795	32775	32683	32661	
801	0	32773	32879	32511	32740	32733	32726	32767	32692	
802	0	32772	32639	32615	32814	32815	32749	32751	32647	
803	0	32841	32615	32642	32775	32831	32725	32717	32743	
804	0	32765	32743	32614	32747	32826	32751	32806	32623	
805	0	32720	32783	32562	32751	32818	32708	32771	32733	
806	0	32703	32793	32492	32783	32759	32660	32791	32713	
807	0	32749	32819	32759	32641	32703	32686	32823	32628	
808	0	32738	32855	32692	32759	32847	32703	32795	32701	
809	0	32775	32701	32803	32783	32819	32711	32741	32643	
810	0	32803	32561	32583	32775	32843	32745	32787	32715	
811	0	32771	32799	32563	32727	32719	32735	32683	32645	
812	0	32782	32854	32711	32799	32813	32756	32747	32746	
813	0	32757	32919	32679	32772	32810	32823	32735	32772	
814	0	32831	32791	32623	32796	32871	32749	32796	32711	
815	0	32846	32578	32703	32706	32711	32775	32775	32647	
816	0	32775	32631	32537	32791	32695	32756	32687	32754	
817	0	32708	32775	32717	32771	32751	32719	32685	32489	
818	0	32838	32735	32679	32717	32759	32764	32743	32749	
819	0	32724	32751	32710	32769	32803	32759	32707	32519	
820	0	32729	32879	32698	32832	32663	32647	32759	32647	
821	0	32738	32770	32546	32815	32775	32694	32735	32498	
822	0	32785	32666	32551	32767	32815	32709	32770	32715	
823	0	32799	32589	32710	32685	32844	32757	32839	32587	
824	0	32836	32827	32671	32770	32861	32706	32742	32679	
825	0	32822	32867	32575	32679	32791	32813	32719	32578	
826	0	32754	32854	32470	32797	32671	32759	32812	32715	
827	0	32744	32844	32691	32788	32759	32751	32767	32623	
828	0	32728	32706	32615	32733	32823	32795	32738	32719	
829	0	32794	32671	32647	32799	32823	32767	32827	32673	
830	0	32702	32790	32439	32686	32855	32789	32678	32727	
831	0	32743	32767	32587	32727	32844	32743	32687	32747	
832	0	32749	32871	32669	32727	32733	32721	32797	32743	
833	0	32768	32854	32718	32823	32719	32703	32730	32631	
834	0	32759	32815	32578	32775	32811	32727	32767	32529	
835	0	32745	32629	32695	32843	32759	32769	32791	32647	
836	0	32809	32573	32679	32775	32807	32811	32727	32581	
837	0	32769	32783	32559	32679	32831	32723	32769	32713	
838	0	32763	32743	32703	32759	32709	32731	32775	32735	
839	0	32743	32719	32671	32759	32759	32759	32756	32583	
840	0	32772	32807	32583	32821	32773	32804	32735	32757	
841	0	32692	32813	32703	32787	32687	32692	32811	32738	
842	0	32710	32817	32658	32762	32826	32755	32787	32762	
843	0	32673	32559	32599	32669	32809	32711	32695	32643	
844	0	32736	32607	32702	32763	32775	32724	32749	32711	
845	0	32764	32847	32518	32759	32711	32819	32707	32575	
846	0	32752	32871	32551	32687	32793	32734	32705	32677	
847	0	32720	32855	32607	32666	32775	32763	32772	32677	
848	0	32759	32866	32701	32689	32775	32758	32842	32775	
849	0	32763	32690	32555	32821	32838	32745	32775	32763	
850	0	32815	32807	32501	32751	32782	32799	32790	32748	
851	0	32709	32743	32497	32647	32863	32775	32713	32653	
852	0	32711	32831	32633	32847	32799	32755	32791	32682	
853	0	32738	32675	32677	32861	32858	32773	32695	32527	
854	0	32705	32586	32742	32695	32676	32731	32757	32671	
855	0	32729	32813	32735	32791	32718	32718	32799	32587	
856	0	32784	32742	32740	32813	32730	32719	32686	32647	
857	0	32803	32867	32577	32759	32761	32720	32762	32703	
858	0	32767	32751	32518	32805	32775	32735	32815	32686	
859	0	32775	32643	32687	32687	32755	32727	32739	32757	
860	0	32761	32599	32615	32719	32850	32711	32773	32702	
861	0	32815	32716	32698	32791	32759	32763	32892	32743	
862	0	32775	32826	32485	32791	32714	32767	32771	32707	
863	0	32817	32822	32647	32723	32708	32683	32725	32721	
864	0	32771	32822	32686	32647	32695	32719	32805	32555	
865	0	32708	32775	32748	32755	32759	32680	32749	32694	
866	0	32734	32615	32507	32645	32827	32729	32799	32631	
867	0	32699	32601	32623	32802	32845	32715	32775	32703	
868	0	32745	32745	32610	32807	32775	32731	32743	32471	
869	0	32775	32769	32755	32695	32706	32718	32791	32718	
870	0	32794	32823	32543	32687	32717	32753	32795	32549	
871	0	32799	32871	32690	32735	32723	32719	32689	32707	
872	0	32837	32763	32639	32863	32851	32741	32775	32535	
873	0	32775	32630	32668	32804	32807	32730	32754	32668	
874	0	32708	32581	32587	32638	32806	32746	32733	32530	
875	0	32759	32743	32533	32706	32716	32741	32775	32720	
876	0	32701	32767	32679	32804	32675	32805	32733	32634	
877	0	32738	32871	32695	32695	32787	32759	32690	32683	
878	0	32718	32563	32613	32763	32807	32694	32763	32564	
879	0	32692	32627	32702	32801	32771	32681	32743	32725	
880	0	32806	32813	32708	32667	32683	32621	32807	32694	
881	0	32775	32871	32607	32711	32822	32703	32799	32775	
882	0	32757	32775	32564	32775	32751	32647	32834	32683	
883	0	32789	32565	32655	32645	32834	32743	32757	32701	
884	0	32764	32774	32647	32647	32748	32723	32807	32603	
885	0	32759	32799	32815	32764	32685	32841	32821	32615	
886	0	32775	32796	32609	32791	32678	32685	32819	32550	
887	0	32775	32809	32681	32740	32722	32671	32743	32671	
888	0	32799	32871	32754	32647	32791	32607	32811	32699	
889	0	32815	32895	32489	32600	32813	32639	32815	32663	
890	0	32775	32679	32581	32775	32809	32644	32757	32636	
891	0	32764	32623	32546	32801	32815	32611	32799	32699	
892	0	32767	32799	32630	32827	32719	32647	32795	32701	
893	0	32784	32799	32555	32732	32803	32646	32786	32703	
894	0	32743	32811	32615	32836	32835	32615	32791	32647	
895	0	32703	32885	32711	32822	32860	32662	32754	32573	
896	0	32772	32749	32665	32859	32815	32685	32759	32690	
897	0	32807	32671	32727	32806	32797	32663	32758	32527	
898	0	32814	32763	32553	32662	32717	32642	32718	32705	
899	0	32766	32797	32658	32827	32809	32654	32775	32595	
900	0	32800	32823	32611	32871	32773	32703	32749	32727	
901	0	32753	32919	32741	32821	32819	32663	32721	32715	
902	0	32703	32727	32567	32844	32823	32653	32767	32771	
903	0	32805	32695	32700	32743	32899	32749	32731	32743	
904	0	32838	32714	32623	32735	32827	32835	32722	32545	
905	0	32782	32655	32666	32647	32751	32749	32675	32691	
906	0	32832	32557	32587	32711	32759	32735	32743	32598	
907	0	32745	32807	32749	32719	32681	32703	32756	32703	
908	0	32804	32775	32574	32762	32767	32738	32805	32717	
909	0	32744	32815	32740	32761	32784	32775	32813	32775	
910	0	32741	32811	32687	32685	32727	32721	32775	32663	
911	0	32799	32833	32549	32775	32748	32706	32799	32613	
912	0	32717	32870	32658	32637	32831	32775	32789	32759	
913	0	32745	32705	32551	32725	32815	32709	32811	32731	
914	0	32731	32605	32647	32775	32795	32685	32754	32742	
915	0	32775	32635	32511	32813	32766	32679	32773	32675	
916	0	32839	32767	32575	32735	32707	32729	32821	32615	
917	0	32782	32757	32595	32659	32811	32733	32727	32713	
918	0	32796	32838	32676	32797	32808	32713	32762	32639	
919	0	32775	32727	32722	32789	32895	32759	32733	32694	
920	0	32734	32613	32487	32717	32855	32709	32719	32615	
921	0	32684	32595	32655	32732	32755	32742	32815	32677	
922	0	32694	32758	32713	32838	32790	32692	32759	32546	
923	0	32728	32775	32647	32679	32775	32707	32798	32719	
924	0	32734	32757	32695	32692	32743	32743	32815	32559	
925	0	32724	32859	32547	32773	32765	32723	32736	32742	
926	0	32737	32723	32585	32738	32850	32790	32788	32583	
927	0	32786	32628	32659	32775	32802	32749	32749	32698	
928	0	32773	32679	32647	32706	32705	32740	32756	32567	
929	0	32713	32813	32687	32810	32853	32735	32854	32635	
930	0	32741	32863	32759	32735	32811	32743	32726	32555	
931	0	32807	32887	32772	32631	32743	32638	32772	32775	
932	0	32711	32655	32505	32805	32775	32602	32771	32594	
933	0	32692	32534	32583	32759	32690	32655	32736	32674	
934	0	32690	32775	32731	32757	32923	32818	32771	32583	
935	0	32733	32822	32594	32799	32823	32751	32723	32711	
936	0	32789	32822	32769	32767	32837	32775	32738	32583	
937	0	32769	32815	32628	32691	32793	32775	32751	32626	
938	0	32811	32655	32511	32707	32715	32775	32690	32512	
939	0	32812	32642	32691	32731	32758	32799	32751	32663	
940	0	32788	32594	32615	32686	32817	32725	32790	32727	
941	0	32764	32816	32719	32767	32869	32721	32733	32767	
942	0	32799	32748	32500	32814	32775	32802	32775	32715	
943	0	32745	32849	32627	32789	32669	32711	32717	32722	
944	0	32753	32787	32643	32783	32767	32685	32699	32745	
945	0	32759	32679	32775	32844	32799	32683	32807	32643	
946	0	32799	32619	32567	32775	32763	32708	32819	32671	
947	0	32795	32629	32611	32775	32837	32662	32711	32607	
948	0	32805	32775	32727	32831	32809	32663	32751	32758	
949	0	32701	32839	32487	32617	32822	32679	32863	32775	
950	0	32788	32811	32767	32751	32738	32647	32719	32647	
951	0	32790	32815	32615	32754	32734	32666	32759	32727	
952	0	32771	32863	32791	32811	32789	32689	32775	32590	
953	0	32767	32903	32628	32843	32797	32755	32818	32710	
954	0	32757	32753	32607	32674	32843	32743	32703	32735	
955	0	32730	32717	32719	32798	32852	32735	32683	32631	
956	0	32751	32755	32639	32690	32759	32727	32687	32711	
957	0	32713	32659	32661	32798	32790	32747	32806	32700	
958	0	32726	32715	32583	32711	32771	32743	32847	32581	
959	0	32701	32691	32715	32813	32785	32683	32748	32693	
960	0	32756	32621	32658	32647	32869	32686	32683	32597	
961	0	32757	32601	32551	32687	32803	32727	32796	32721	
962	0	32790	32606	32635	32567	32839	32769	32771	32603	
963	0	32775	32582	32535	32707	32771	32791	32791	32566	
964	0	32775	32623	32646	32614	32747	32717	32847	32667	
965	0	32797	32663	32519	32694	32692	32700	32848	32743	
966	0	32871	32641	32627	32715	32705	32719	32839	32533	
967	0	32775	32583	32645	32715	32766	32739	32805	32647	
968	0	32714	32571	32699	32759	32830	32743	32715	32711	
969	0	32726	32775	32485	32775	32827	32663	32803	32735	
970	0	32698	32763	32655	32767	32822	32623	32757	32679	
971	0	32751	32735	32626	32762	32813	32647	32711	32571	
972	0	32727	32815	32655	32743	32671	32767	32791	32687	
973	0	32775	32807	32687	32807	32711	32679	32727	32607	
974	0	32663	32803	32519	32839	32709	32690	32715	32660	
975	0	32745	32871	32617	32822	32819	32711	32749	32721	
976	0	32745	32809	32665	32647	32743	32683	32756	32647	
977	0	32740	32837	32711	32783	32788	32701	32711	32671	
978	0	32765	32853	32539	32699	32827	32663	32707	32617	
979	0	32804	32754	32673	32729	32919	32703	32775	32742	
980	0	32769	32668	32683	32797	32795	32687	32643	32797	
981	0	32735	32622	32579	32765	32717	32695	32724	32583	
982	0	32724	32759	32548	32791	32805	32695	32775	32707	
983	0	32775	32815	32501	32639	32823	32643	32689	32525	
984	0	32775	32773	32717	32676	32811	32695	32759	32747	
985	0	32751	32751	32655	32679	32814	32702	32803	32643	
986	0	32813	32827	32743	32773	32798	32747	32807	32679	
987	0	32846	32879	32559	32773	32729	32735	32773	32715	
988	0	32822	32695	32717	32735	32673	32703	32804	32545	
989	0	32769	32673	32658	32743	32716	32703	32759	32806	
990	0	32799	32674	32585	32871	32733	32732	32743	32642	
991	0	32733	32627	32629	32765	32775	32751	32811	32530	
992	0	32758	32683	32631	32855	32789	32647	32850	32748	
993	0	32770	32671	32567	32839	32761	32647	32772	32639	
994	0	32803	32599	32701	32775	32775	32679	32715	32559	
995	0	32775	32775	32620	32831	32795	32735	32773	32727	
996	0	32780	32793	32679	32803	32867	32705	32833	32708	
997	0	32779	32775	32462	32809	32839	32774	32756	32519	
998	0	32754	32791	32676	32773	32819	32765	32710	32803	
999	0	32705	32859	32621	32839	32703	32721	32786	32659	
1000	0	32735	32893	32634	32737	32815	32708	32749	32775	
1001	0	32753	32773	32530	32727	32839	32773	32683	32743	
1002	0	32743	32671	32705	32660	32839	32756	32700	32561	
1003	0	32717	32553	32647	32749	32811	32751	32805	32740	
1004	0	32724	32543	32543	32747	32835	32745	32685	32704	
1005	0	32786	32615	32560	32735	32787	32669	32689	32628	
1006	0	32816	32775	32563	32759	32699	32756	32831	32691	
1007	0	32820	32759	32705	32719	32762	32733	32724	32541	
1008	0	32837	32765	32631	32775	32723	32643	32749	32679	
1009	0	32790	32865	32723	32791	32812	32671	32837	32639	
1010	0	32806	32743	32471	32769	32796	32615	32799	32717	
1011	0	32734	32583	32507	32557	32725	32638	32775	32668	
1012	0	32775	32805	32703	32685	32726	32638	32827	32703	
1013	0	32712	32795	32663	32797	32807	32687	32821	32678	
1014	0	32734	32875	32695	32719	32870	32786	32839	32708	
1015	0	32793	32687	32687	32766	32771	32739	32755	32707	
1016	0	32771	32617	32565	32638	32743	32717	32751	32679	
1017	0	32695	32843	32534	32775	32802	32727	32834	32647	
1018	0	32742	32767	32535	32713	32811	32749	32758	32711	
1019	0	32750	32850	32675	32613	32821	32708	32799	32791	
1020	0	32768	32797	32569	32687	32833	32722	32799	32701	
1021	0	32774	32607	32670	32796	32709	32773	32711	32775	
1022	0	32775	32534	32559	32755	32711	32765	32711	32567	
1023	0	32797	32605	32685	32708	32743	32683	32790	32723	
1024	0	32800	32629	32708	32813	32740	32751	32727	32711	
1025	0	32795	32655	32559	32823	32807	32775	32702	32647	
1026	0	32791	32775	32703	32783	32803	32733	32751	32719	
1027	0	32764	32810	32662	32836	32804	32747	32823	32615	
1028	0	32716	32807	32747	32783	32765	32642	32804	32719	
1029	0	32743	32883	32609	32742	32735	32806	32757	32615	
1030	0	32747	32887	32562	32647	32707	32690	32819	32759	
1031	0	32769	32903	32615	32782	32729	32715	32739	32761	
1032	0	32775	32775	32722	32706	32751	32588	32804	32578	
1033	0	32716	32655	32559	32809	32787	32723	32804	32619	
1034	0	32756	32583	32495	32771	32828	32699	32703	32543	
1035	0	32743	32791	32634	32711	32898	32646	32738	32690	
1036	0	32749	32768	32671	32739	32890	32713	32821	32737	
1037	0	32714	32765	32647	32747	32797	32783	32708	32750	
1038	0	32740	32883	32791	32862	32773	32747	32783	32725	
1039	0	32726	32722	32478	32799	32852	32681	32820	32683	
1040	0	32760	32647	32636	32623	32827	32679	32809	32775	
1041	0	32738	32559	32694	32813	32814	32641	32789	32527	
1042	0	32730	32612	32700	32647	32839	32715	32813	32711	
1043	0	32775	32821	32723	32809	32715	32679	32783	32562	
1044	0	32809	32812	32721	32722	32668	32667	32810	32663	
1045	0	32775	32799	32594	32734	32719	32711	32802	32667	
1046	0	32724	32797	32638	32751	32677	32723	32775	32623	
1047	0	32720	32882	32731	32801	32727	32748	32736	32695	
1048	0	32734	32887	32567	32775	32775	32707	32807	32646	
1049	0	32785	32895	32711	32775	32775	32743	32766	32747	
1050	0	32751	32797	32647	32831	32806	32763	32683	32693	
1051	0	32733	32695	32673	32694	32739	32743	32679	32559	
1052	0	32797	32631	32711	32743	32801	32803	32767	32706	
1053	0	32742	32759	32543	32803	32759	32772	32708	32617	
1054	0	32727	32751	32683	32845	32732	32703	32731	32783	
1055	0	32813	32783	32638	32733	32671	32679	32739	32716	
1056	0	32760	32723	32710	32855	32699	32687	32791	32499	
1057	0	32756	32775	32567	32794	32738	32630	32660	32727	
1058	0	32770	32789	32612	32711	32810	32743	32751	32743	
1059	0	32777	32818	32583	32735	32789	32749	32837	32598	
1060	0	32690	32795	32681	32647	32809	32773	32803	32655	
1061	0	32688	32839	32487	32668	32833	32696	32735	32493	
1062	0	32752	32820	32666	32647	32833	32721	32801	32667	
1063	0	32757	32708	32614	32741	32807	32726	32767	32739	
1064	0	32730	32636	32727	32789	32782	32719	32775	32702	
1065	0	32810	32607	32537	32767	32799	32705	32719	32707	
1066	0	32751	32591	32701	32699	32767	32734	32706	32623	
1067	0	32811	32671	32679	32758	32828	32689	32711	32743	
1068	0	32820	32798	32804	32866	32799	32743	32749	32733	
1069	0	32793	32801	32578	32791	32854	32773	32729	32623	
1070	0	32773	32775	32688	32815	32823	32703	32798	32647	
1071	0	32810	32839	32719	32791	32799	32665	32815	32577	
1072	0	32797	32887	32804	32767	32823	32685	32723	32682	
1073	0	32773	32851	32646	32599	32647	32663	32735	32713	
1074	0	32736	32871	32705	32759	32727	32751	32756	32519	
1075	0	32789	32820	32783	32766	32719	32719	32813	32591	
1076	0	32783	32748	32765	32743	32695	32711	32767	32615	
1077	0	32726	32647	32627	32633	32721	32735	32775	32660	
1078	0	32766	32807	32647	32753	32767	32726	32775	32551	
1079	0	32698	32771	32582	32727	32861	32747	32763	32711	
1080	0	32747	32855	32423	32637	32875	32759	32826	32533	
1081	0	32813	32903	32599	32739	32775	32732	32769	32695	
1082	0	32775	32717	32595	32647	32762	32771	32773	32567	
1083	0	32782	32759	32619	32719	32775	32812	32819	32751	
1084	0	32734	32621	32690	32673	32843	32762	32739	32681	
1085	0	32771	32579	32489	32719	32799	32772	32693	32647	
1086	0	32765	32839	32647	32799	32793	32719	32731	32756	
1087	0	32742	32757	32551	32715	32773	32750	32671	32811	
1088	0	32827	32775	32619	32743	32807	32722	32703	32833	
1089	0	32696	32869	32735	32663	32785	32715	32786	32683	
1090	0	32734	32823	32767	32771	32766	32741	32759	32745	
1091	0	32692	32773	32559	32747	32693	32747	32775	32671	
1092	0	32694	32775	32707	32730	32747	32733	32766	32775	
1093	0	32729	32719	32702	32687	32713	32663	32805	32690	
1094	0	32791	32564	32551	32743	32739	32663	32807	32579	
1095	0	32772	32555	32570	32701	32699	32635	32727	32676	
1096	0	32775	32543	32607	32706	32695	32646	32790	32647	
1097	0	32759	32595	32717	32663	32703	32693	32821	32518	
1098	0	32740	32605	32495	32796	32716	32703	32789	32639	
1099	0	32757	32756	32630	32663	32677	32740	32799	32539	
1100	0	32767	32811	32719	32805	32647	32727	32775	32735	
1101	0	32775	32819	32537	32802	32707	32751	32786	32695	
1102	0	32722	32773	32675	32818	32643	32639	32796	32533	
1103	0	32679	32775	32647	32795	32679	32657	32739	32759	
1104	0	32695	32745	32467	32806	32742	32711	32796	32703	
1105	0	32788	32757	32647	32795	32765	32699	32811	32491	
1106	0	32757	32775	32646	32773	32821	32702	32803	32643	
1107	0	32825	32793	32775	32719	32877	32791	32795	32782	
1108	0	32801	32823	32551	32857	32773	32742	32719	32725	
1109	0	32773	32815	32603	32703	32675	32693	32815	32741	
1110	0	32769	32647	32607	32676	32658	32761	32751	32746	
1111	0	32773	32623	32681	32789	32756	32775	32738	32783	
1112	0	32727	32615	32715	32822	32775	32766	32890	32627	
1113	0	32739	32619	32671	32837	32798	32695	32815	32676	
1114	0	32740	32605	32567	32761	32796	32765	32634	32598	
1115	0	32753	32783	32710	32797	32830	32799	32704	32720	
1116	0	32735	32799	32485	32829	32899	32719	32803	32719	
1117	0	32746	32795	32663	32679	32821	32735	32715	32708	
1118	0	32787	32807	32697	32754	32789	32711	32679	32742	
1119	0	32816	32927	32611	32706	32849	32775	32771	32807	
1120	0	32793	32775	32731	32799	32799	32775	32687	32745	
1121	0	32733	32661	32559	32819	32749	32727	32635	32767	
1122	0	32811	32594	32626	32703	32763	32789	32815	32749	
1123	0	32732	32795	32615	32722	32758	32775	32679	32574	
1124	0	32724	32751	32759	32563	32668	32775	32795	32659	
1125	0	32721	32796	32567	32661	32698	32722	32821	32647	
1126	0	32733	32759	32700	32623	32701	32677	32807	32726	
1127	0	32724	32822	32623	32801	32775	32647	32771	32761	
1128	0	32710	32878	32732	32787	32775	32695	32831	32646	
1129	0	32749	32921	32617	32682	32795	32678	32775	32713	
1130	0	32803	32695	32623	32773	32775	32653	32775	32719	
1131	0	32767	32559	32623	32765	32833	32718	32804	32786	
1132	0	32788	32599	32623	32811	32829	32681	32789	32615	
1133	0	32775	32757	32703	32783	32796	32783	32757	32733	
1134	0	32795	32759	32789	32723	32711	32734	32782	32617	
1135	0	32738	32870	32514	32810	32764	32799	32727	32758	
1136	0	32773	32814	32679	32807	32667	32854	32684	32562	
1137	0	32758	32847	32757	32819	32675	32709	32769	32719	
1138	0	32749	32759	32607	32775	32723	32771	32765	32631	
1139	0	32773	32668	32555	32677	32791	32764	32797	32679	
1140	0	32773	32764	32671	32757	32814	32727	32803	32543	
1141	0	32793	32723	32605	32782	32799	32775	32755	32638	
1142	0	32783	32797	32619	32835	32835	32695	32763	32511	
1143	0	32738	32738	32601	32740	32885	32759	32851	32705	
1144	0	32733	32815	32663	32727	32774	32725	32695	32628	
1145	0	32750	32887	32647	32755	32751	32642	32775	32685	
1146	0	32719	32901	32623	32668	32773	32657	32791	32758	
1147	0	32759	32662	32475	32803	32720	32658	32745	32726	
1148	0	32784	32613	32655	32775	32742	32711	32738	32719	
1149	0	32771	32823	32751	32647	32813	32718	32787	32711	
1150	0	32808	32875	32667	32786	32823	32691	32775	32687	
1151	0	32688	32839	32691	32823	32839	32715	32810	32661	
1152	0	32806	32839	32623	32813	32841	32647	32775	32679	
1153	0	32782	32879	32527	32787	32822	32671	32767	32535	
1154	0	32790	32711	32719	32707	32753	32807	32727	32687	
1155	0	32729	32619	32647	32805	32743	32791	32793	32532	
1156	0	32709	32773	32591	32831	32695	32838	32735	32726	
1157	0	32791	32756	32658	32647	32811	32775	32731	32534	
1158	0	32764	32799	32676	32679	32797	32801	32813	32757	
1159	0	32775	32845	32515	32629	32786	32775	32717	32678	
1160	0	32765	32731	32583	32739	32775	32790	32737	32756	
1161	0	32811	32612	32687	32754	32804	32767	32759	32636	
1162	0	32740	32831	32624	32607	32711	32738	32698	32706	
1163	0	32701	32799	32685	32711	32711	32763	32775	32626	
1164	0	32716	32855	32535	32631	32815	32727	32804	32731	
1165	0	32782	32826	32735	32719	32790	32758	32743	32727	
1166	0	32751	32820	32681	32685	32806	32735	32752	32554	
1167	0	32799	32834	32793	32663	32759	32764	32835	32663	
1168	0	32690	32727	32503	32662	32786	32743	32827	32572	
1169	0	32758	32660	32598	32723	32785	32690	32679	32715	
1170	0	32842	32711	32631	32689	32743	32663	32775	32690	
1171	0	32812	32596	32725	32839	32826	32679	32837	32637	
1172	0	32764	32775	32502	32701	32767	32647	32762	32754	
1173	0	32761	32765	32575	32678	32751	32643	32703	32635	
1174	0	32736	32866	32647	32749	32727	32731	32775	32705	
1175	0	32764	32732	32621	32791	32812	32756	32748	32731	
1176	0	32747	32621	32619	32831	32727	32731	32845	32593	
1177	0	32718	32823	32621	32765	32795	32711	32802	32679	
1178	0	32748	32775	32695	32623	32836	32813	32870	32551	
1179	0	32757	32855	32725	32775	32837	32741	32751	32681	
1180	0	32716	32722	32467	32701	32860	32770	32735	32575	
1181	0	32769	32639	32636	32689	32735	32769	32759	32707	
1182	0	32740	32762	32671	32735	32695	32713	32690	32599	
1183	0	32796	32757	32734	32751	32794	32775	32716	32673	
1184	0	32782	32721	32583	32759	32807	32811	32765	32563	
1185	0	32791	32769	32647	32723	32854	32743	32706	32700	
1186	0	32793	32839	32666	32742	32775	32765	32765	32604	
1187	0	32746	32745	32699	32825	32775	32783	32709	32690	
1188	0	32769	32683	32591	32804	32799	32687	32717	32655	
1189	0	32775	32567	32607	32852	32791	32699	32775	32759	
1190	0	32743	32755	32614	32811	32783	32706	32743	32591	
1191	0	32829	32739	32711	32623	32819	32688	32775	32719	
1192	0	32771	32835	32647	32713	32877	32621	32756	32563	
1193	0	32698	32855	32686	32742	32790	32711	32733	32658	
1194	0	32722	32735	32506	32789	32723	32679	32818	32551	
1195	0	32732	32607	32487	32775	32751	32677	32711	32692	
1196	0	32774	32615	32699	32668	32811	32703	32694	32621	
1197	0	32740	32775	32688	32813	32747	32716	32837	32643	
1198	0	32784	32775	32683	32771	32827	32807	32761	32621	
1199	0	32766	32840	32555	32759	32749	32755	32751	32662	
1200	0	32775	32838	32647	32791	32660	32721	32731	32717	
1201	0	32749	32838	32691	32635	32827	32775	32820	32575	
1202	0	32799	32871	32712	32799	32814	32796	32767	32691	
1203	0	32703	32757	32491	32739	32764	32727	32755	32495	
1204	0	32698	32661	32561	32671	32738	32722	32759	32647	
1205	0	32708	32797	32749	32847	32811	32739	32775	32543	
1206	0	32671	32804	32676	32775	32863	32751	32791	32739	
1207	0	32719	32873	32647	32687	32835	32836	32687	32597	
1208	0	32754	32831	32572	32743	32670	32801	32742	32662	
1209	0	32721	32591	32435	32771	32757	32746	32687	32545	
1210	0	32769	32518	32653	32739	32706	32723	32805	32677	
1211	0	32772	32583	32596	32791	32826	32711	32833	32611	
1212	0	32746	32789	32541	32687	32867	32655	32787	32775	
1213	0	32732	32726	32595	32789	32685	32743	32717	32775	
1214	0	32727	32790	32599	32684	32660	32764	32762	32623	
1215	0	32764	32811	32727	32723	32735	32583	32775	32663	
1216	0	32825	32816	32627	32808	32758	32735	32755	32630	
1217	0	32831	32837	32621	32804	32807	32737	32803	32753	
1218	0	32826	32749	32743	32743	32820	32797	32759	32635	
1219	0	32710	32637	32643	32637	32743	32807	32717	32647	
1220	0	32775	32589	32767	32773	32687	32735	32763	32549	
1221	0	32790	32615	32598	32743	32763	32755	32753	32679	
1222	0	32828	32791	32671	32727	32855	32757	32775	32679	
1223	0	32790	32762	32717	32703	32795	32733	32855	32658	
1224	0	32839	32804	32751	32669	32847	32740	32800	32647	
1225	0	32754	32855	32529	32815	32819	32775	32747	32723	
1226	0	32715	32891	32607	32667	32804	32695	32739	32679	
1227	0	32732	32871	32765	32765	32831	32687	32775	32603	
1228	0	32740	32723	32511	32671	32769	32615	32773	32775	
1229	0	32763	32621	32725	32803	32699	32739	32739	32757	
1230	0	32742	32643	32731	32770	32741	32733	32772	32599	
1231	0	32739	32607	32531	32834	32703	32703	32839	32708	
1232	0	32766	32587	32613	32839	32678	32759	32724	32647	
1233	0	32708	32573	32614	32823	32711	32773	32767	32773	
1234	0	32788	32751	32799	32809	32775	32733	32811	32749	
1235	0	32743	32773	32630	32707	32771	32723	32751	32559	
1236	0	32683	32802	32639	32819	32743	32676	32732	32683	
1237	0	32715	32839	32694	32775	32738	32807	32726	32591	
1238	0	32724	32834	32731	32732	32815	32775	32747	32671	
1239	0	32745	32607	32485	32723	32846	32775	32742	32574	
1240	0	32759	32597	32681	32628	32863	32758	32764	32727	
1241	0	32728	32583	32647	32686	32835	32807	32732	32598	
1242	0	32769	32783	32759	32738	32795	32763	32794	32695	
1243	0	32752	32789	32461	32813	32791	32715	32797	32642	
1244	0	32835	32770	32687	32769	32763	32695	32727	32719	
1245	0	32832	32863	32719	32791	32795	32706	32753	32709	
1246	0	32821	32789	32613	32775	32762	32671	32745	32551	
1247	0	32846	32811	32591	32807	32783	32647	32823	32681	
1248	0	32808	32811	32735	32751	32807	32753	32838	32587	
1249	0	32791	32683	32628	32738	32767	32773	32790	32687	
1250	0	32754	32591	32773	32821	32719	32719	32824	32732	
1251	0	32782	32771	32607	32703	32674	32754	32717	32719	
1252	0	32743	32765	32501	32750	32839	32742	32811	32729	
1253	0	32742	32749	32671	32748	32863	32807	32823	32542	
1254	0	32759	32791	32643	32759	32775	32775	32783	32713	
1255	0	32704	32745	32489	32635	32751	32722	32725	32759	
1256	0	32756	32775	32617	32755	32809	32749	32726	32606	
1257	0	32721	32871	32586	32623	32806	32767	32788	32683	
1258	0	32736	32901	32683	32786	32775	32691	32809	32665	
1259	0	32726	32770	32511	32763	32791	32646	32751	32736	
1260	0	32720	32917	32667	32711	32859	32647	32739	32703	
1261	0	32709	32899	32623	32600	32845	32627	32775	32766	
1262	0	32711	32711	32607	32702	32791	32658	32755	32775	
1263	0	32743	32647	32647	32678	32658	32679	32713	32682	
1264	0	32762	32606	32487	32750	32733	32692	32722	32716	
1265	0	32719	32807	32607	32786	32695	32710	32769	32545	
1266	0	32751	32775	32615	32815	32727	32721	32734	32713	
1267	0	32746	32807	32719	32829	32775	32743	32717	32679	
1268	0	32771	32804	32674	32758	32775	32731	32771	32700	
1269	0	32810	32863	32527	32785	32854	32635	32735	32551	
1270	0	32749	32629	32593	32735	32751	32654	32799	32695	
1271	0	32756	32557	32711	32811	32754	32655	32807	32511	
1272	0	32719	32581	32646	32820	32739	32646	32783	32690	
1273	0	32719	32735	32495	32799	32815	32724	32763	32742	
1274	0	32736	32797	32629	32751	32807	32767	32819	32607	
1275	0	32837	32783	32654	32703	32758	32751	32799	32677	
1276	0	32794	32815	32701	32723	32839	32771	32754	32564	
1277	0	32841	32803	32611	32681	32834	32767	32790	32773	
1278	0	32804	32791	32647	32765	32837	32661	32738	32656	
1279	0	32750	32863	32681	32687	32742	32751	32733	32695	
1280	0	32729	32621	32580	32587	32797	32746	32775	32519	
1281	0	32756	32554	32701	32718	32771	32687	32771	32678	
1282	0	32775	32759	32751	32787	32811	32691	32789	32567	
1283	0	32738	32799	32591	32807	32804	32691	32839	32671	
1284	0	32732	32803	32611	32834	32767	32701	32775	32577	
1285	0	32774	32837	32639	32745	32740	32767	32805	32705	
1286	0	32775	32796	32751	32755	32679	32726	32835	32653	
1287	0	32800	32811	32647	32706	32679	32705	32775	32607	
1288	0	32815	32799	32791	32806	32690	32642	32859	32647	
1289	0	32775	32759	32687	32694	32691	32743	32807	32567	
1290	0	32767	32742	32595	32775	32663	32731	32855	32571	
1291	0	32769	32629	32497	32660	32794	32767	32775	32643	
1292	0	32806	32823	32675	32847	32823	32751	32803	32595	
1293	0	32762	32791	32615	32794	32821	32724	32869	32626	
1294	0	32726	32807	32694	32599	32819	32685	32775	32559	
1295	0	32682	32911	32775	32771	32709	32666	32820	32737	
1296	0	32751	32739	32489	32775	32783	32711	32734	32646	
1297	0	32711	32667	32637	32718	32786	32687	32691	32721	
1298	0	32767	32775	32718	32735	32823	32781	32759	32754	
1299	0	32769	32751	32647	32723	32851	32772	32686	32732	
1300	0	32758	32765	32591	32775	32759	32785	32703	32623	
1301	0	32742	32838	32599	32784	32695	32710	32759	32748	
1302	0	32795	32855	32726	32690	32739	32747	32704	32627	
1303	0	32851	32659	32671	32738	32831	32645	32731	32797	
1304	0	32752	32568	32693	32787	32775	32635	32717	32621	
1305	0	32748	32747	32511	32675	32741	32707	32719	32741	
1306	0	32812	32763	32503	32733	32844	32622	32701	32573	
1307	0	32808	32797	32748	32877	32737	32655	32688	32711	
1308	0	32819	32802	32685	32854	32756	32751	32710	32621	
1309	0	32730	32843	32819	32883	32735	32771	32761	32677	
1310	0	32723	32634	32481	32790	32827	32764	32711	32661	
1311	0	32716	32582	32631	32738	32863	32823	32716	32741	
1312	0	32691	32601	32639	32799	32751	32822	32737	32759	
1313	0	32698	32769	32603	32831	32859	32743	32691	32827	
1314	0	32703	32839	32694	32718	32871	32766	32791	32749	
1315	0	32743	32863	32565	32609	32726	32809	32807	32735	
1316	0	32709	32845	32571	32727	32711	32756	32821	32647	
1317	0	32712	32843	32625	32796	32697	32709	32814	32564	
1318	0	32754	32807	32639	32724	32808	32708	32823	32687	
1319	0	32799	32647	32495	32720	32826	32725	32804	32642	
1320	0	32785	32593	32692	32531	32845	32671	32803	32679	
1321	0	32860	32756	32614	32719	32877	32703	32797	32681	
1322	0	32767	32798	32599	32743	32839	32741	32787	32598	
1323	0	32789	32835	32557	32772	32809	32685	32743	32702	
1324	0	32850	32811	32745	32775	32706	32775	32874	32605	
1325	0	32796	32837	32691	32679	32772	32759	32698	32731	
1326	0	32773	32709	32775	32727	32766	32773	32706	32543	
1327	0	32767	32749	32647	32647	32775	32771	32702	32767	
1328	0	32732	32773	32655	32786	32771	32711	32817	32707	
1329	0	32758	32635	32527	32673	32714	32655	32712	32555	
1330	0	32712	32611	32516	32679	32751	32707	32739	32695	
1331	0	32743	32823	32653	32667	32807	32717	32805	32655	
1332	0	32715	32727	32595	32703	32815	32609	32679	32775	
1333	0	32692	32775	32723	32799	32775	32635	32767	32775	
1334	0	32732	32783	32493	32799	32745	32679	32743	32559	
1335	0	32767	32797	32607	32695	32733	32738	32727	32726	
1336	0	32822	32813	32717	32799	32738	32705	32773	32621	
1337	0	32747	32795	32447	32823	32763	32694	32772	32743	
1338	0	32799	32806	32575	32783	32679	32683	32755	32679	
1339	0	32762	32775	32603	32695	32750	32775	32727	32570	
1340	0	32776	32839	32847	32632	32847	32731	32687	32719	
1341	0	32774	32799	32815	32807	32831	32741	32726	32627	
1342	0	32786	32742	32535	32655	32735	32717	32794	32733	
1343	0	32775	32623	32590	32727	32749	32713	32757	32601	
1344	0	32726	32662	32659	32759	32815	32734	32797	32745	
1345	0	32711	32799	32625	32735	32751	32683	32799	32615	
1346	0	32692	32767	32615	32868	32751	32717	32746	32719	
1347	0	32732	32851	32431	32831	32858	32810	32735	32737	
1348	0	32767	32707	32639	32827	32835	32775	32738	32543	
1349	0	32762	32835	32639	32844	32775	32703	32682	32698	
1350	0	32734	32832	32730	32733	32710	32763	32785	32555	
1351	0	32746	32751	32589	32747	32703	32757	32843	32617	
1352	0	32724	32655	32519	32668	32823	32769	32748	32501	
1353	0	32706	32627	32727	32725	32785	32722	32767	32679	
1354	0	32762	32591	32631	32753	32733	32722	32811	32679	
1355	0	32769	32749	32692	32839	32810	32735	32801	32706	
1356	0	32742	32783	32687	32755	32703	32647	32895	32714	
1357	0	32775	32903	32791	32677	32763	32613	32775	32658	
1358	0	32755	32745	32575	32839	32783	32794	32830	32527	
1359	0	32730	32646	32543	32826	32721	32751	32747	32710	
1360	0	32738	32610	32685	32647	32647	32687	32738	32569	
1361	0	32824	32763	32663	32736	32751	32732	32765	32758	
1362	0	32863	32757	32703	32847	32843	32743	32743	32604	
1363	0	32798	32829	32751	32719	32871	32759	32737	32735	
1364	0	32765	32802	32613	32759	32829	32790	32711	32594	
1365	0	32762	32847	32671	32644	32839	32791	32679	32797	
1366	0	32715	32677	32647	32771	32717	32791	32707	32731	
1367	0	32749	32577	32699	32821	32759	32783	32673	32775	
1368	0	32704	32829	32807	32750	32825	32807	32711	32747	
1369	0	32738	32839	32585	32740	32833	32787	32711	32787	
1370	0	32734	32827	32655	32623	32775	32747	32639	32759	
1371	0	32703	32855	32551	32726	32839	32759	32683	32807	
1372	0	32672	32796	32559	32615	32859	32719	32646	32727	
1373	0	32647	32815	32621	32799	32837	32719	32587	32669	
1374	0	32682	32795	32359	32775	32775	32703	32695	32663	
1375	0	32633	32715	32563	32719	32695	32726	32646	32495	
1376	0	32608	32591	32411	32671	32734	32791	32592	32611	
1377	0	32667	32511	32463	32503	32765	32719	32698	32553	
1378	0	32745	32716	32332	32599	32788	32751	32647	32739	
1379	0	32672	32703	32443	32503	32775	32775	32662	32607	
1380	0	32671	32656	32517	32663	32895	32794	32683	32699	
1381	0	32671	32684	32461	32690	32864	32746	32611	32715	
1382	0	32725	32849	32563	32611	32854	32719	32643	32637	
1383	0	32704	32775	32370	32635	32809	32775	32674	32663	
1384	0	32672	32683	32543	32491	32755	32767	32558	32466	
1385	0	32791	32551	32551	32671	32755	32695	32646	32615	
1386	0	32792	32507	32551	32621	32713	32574	32663	32435	
1387	0	32782	32679	32362	32597	32854	32639	32707	32563	
1388	0	32742	32703	32551	32669	32781	32687	32717	32463	
1389	0	32754	32703	32577	32559	32764	32756	32742	32668	
1390	0	32825	32707	32693	32621	32763	32719	32655	32707	
1391	0	32775	32829	32503	32739	32825	32658	32775	32711	
1392	0	32706	32694	32597	32668	32751	32655	32826	32647	
1393	0	32706	32619	32583	32743	32745	32659	32773	32731	
1394	0	32710	32647	32739	32575	32673	32658	32775	32726	
1395	0	32742	32867	32482	32743	32740	32703	32901	32621	
1396	0	32688	32813	32541	32895	32814	32679	32835	32775	
1397	0	32686	32955	32835	32927	32870	32653	32916	32679	
1398	0	32731	32764	32751	33015	32887	32699	32903	32775	
1399	0	32741	32670	32943	32818	32795	32658	32879	32647	
1400	0	32857	32887	32755	32898	32775	32647	32971	32775	
1401	0	32914	32866	32903	33018	32638	32663	33115	32638	
1402	0	33031	32991	33141	33135	32587	32540	33196	32659	
1403	0	33101	32846	33227	33203	32631	32551	33447	32399	
1404	0	33206	33009	33339	33074	32559	32531	33470	32510	
1405	0	33159	33015	33230	33221	32579	32448	33461	32311	
1406	0	33217	33052	33147	33231	32623	32519	33453	32487	
1407	0	33142	32839	33250	33030	32543	32541	33223	32351	
1408	0	33061	32727	33004	33007	32575	32590	33107	32615	
1409	0	32976	32935	32956	32812	32626	32589	32995	32727	
1410	0	32833	32805	32601	32815	32731	32662	32735	32577	
1411	0	32753	32823	32629	32772	32703	32679	32663	32668	
1412	0	32719	32867	32551	32722	32707	32631	32695	32609	
1413	0	32642	32793	32583	32703	32821	32786	32598	32607	
1414	0	32588	32787	32381	32599	32834	32839	32524	32695	
1415	0	32594	32637	32471	32615	32901	32813	32575	32587	
1416	0	32639	32647	32437	32562	32811	32829	32527	32827	
1417	0	32635	32621	32303	32647	32749	32730	32571	32727	
1418	0	32647	32595	32439	32623	32837	32721	32515	32735	
1419	0	32645	32550	32429	32673	32849	32724	32575	32758	
1420	0	32644	32535	32599	32567	32830	32735	32575	32733	
1421	0	32640	32799	32423	32690	32757	32839	32555	32711	
1422	0	32680	32791	32502	32555	32826	32815	32599	32626	
1423	0	32663	32809	32493	32739	32787	32818	32531	32762	
1424	0	32680	32758	32438	32775	32764	32789	32567	32759	
1425	0	32697	32764	32591	32775	32786	32743	32767	32799	
1426	0	32743	32797	32643	32726	32850	32751	32699	32773	
1427	0	32727	32739	32559	32791	32787	32705	32727	32683	
1428	0	32754	32573	32599	32751	32745	32721	32743	32716	
1429	0	32690	32763	32658	32713	32799	32743	32662	32607	
1430	0	32647	32725	32465	32553	32820	32706	32790	32668	
1431	0	32634	32807	32582	32723	32710	32751	32759	32569	
1432	0	32717	32607	32450	32722	32759	32711	32727	32637	
1433	0	32767	32578	32647	32626	32771	32713	32819	32552	
1434	0	32742	32756	32641	32695	32795	32638	32775	32687	
1435	0	32799	32738	32655	32615	32775	32735	32687	32708	
1436	0	32833	32773	32431	32692	32763	32722	32711	32599	
1437	0	32820	32807	32705	32588	32831	32735	32791	32831	
1438	0	32838	32955	32631	32791	32751	32763	32775	32735	
1439	0	32841	32871	32691	32668	32748	32631	32687	32701	
1440	0	32735	32707	32479	32731	32771	32671	32771	32695	
1441	0	32735	32551	32631	32743	32873	32716	32813	32603	
1442	0	32770	32621	32607	32807	32775	32619	32673	32759	
1443	0	32748	32751	32639	32718	32829	32673	32713	32735	
1444	0	32706	32775	32581	32645	32903	32730	32741	32755	
1445	0	32692	32827	32526	32799	32751	32735	32671	32775	
1446	0	32687	32811	32641	32815	32738	32669	32727	32767	
1447	0	32711	32679	32603	32634	32726	32647	32703	32757	
1448	0	32716	32708	32647	32698	32770	32759	32775	32605	
1449	0	32778	32637	32628	32667	32806	32759	32742	32709	
1450	0	32801	32605	32721	32671	32734	32775	32749	32586	
1451	0	32772	32627	32647	32679	32823	32764	32767	32775	
1452	0	32763	32582	32587	32818	32833	32714	32727	32694	
1453	0	32764	32583	32601	32820	32833	32692	32765	32455	
1454	0	32767	32738	32587	32806	32775	32716	32771	32662	
1455	0	32737	32773	32639	32837	32717	32757	32715	32581	
1456	0	32711	32727	32769	32671	32787	32721	32769	32747	
1457	0	32748	32801	32611	32685	32807	32750	32806	32687	
1458	0	32711	32878	32759	32690	32794	32674	32730	32663	
1459	0	32732	32893	32727	32716	32809	32659	32707	32662	
1460	0	32692	32799	32581	32634	32859	32653	32775	32599	
1461	0	32677	32662	32567	32786	32796	32667	32799	32710	
1462	0	32748	32788	32687	32799	32707	32647	32703	32623	
1463	0	32690	32831	32623	32655	32654	32647	32805	32719	
1464	0	32716	32797	32629	32770	32829	32757	32717	32611	
1465	0	32771	32767	32587	32733	32755	32701	32851	32731	
1466	0	32818	32802	32659	32829	32785	32639	32819	32751	
1467	0	32782	32775	32603	32764	32787	32750	32791	32525	
1468	0	32796	32861	32754	32679	32813	32775	32719	32647	
1469	0	32850	32703	32519	32725	32839	32803	32775	32543	
1470	0	32818	32687	32547	32711	32879	32711	32775	32687	
1471	0	32751	32641	32663	32748	32821	32717	32770	32615	
1472	0	32718	32655	32495	32758	32695	32655	32831	32692	
1473	0	32798	32806	32677	32739	32739	32647	32793	32699	
1474	0	32791	32810	32654	32723	32740	32745	32719	32759	
1475	0	32802	32855	32720	32663	32743	32723	32727	32766	
1476	0	32783	32839	32545	32711	32735	32751	32834	32631	
1477	0	32669	32693	32647	32739	32797	32775	32766	32707	
1478	0	32738	32637	32719	32691	32834	32765	32773	32557	
1479	0	32751	32745	32755	32695	32759	32749	32820	32727	
1480	0	32748	32755	32569	32767	32786	32786	32783	32602	
1481	0	32734	32765	32743	32765	32743	32773	32815	32727	
1482	0	32735	32815	32613	32756	32787	32711	32801	32723	
1483	0	32794	32919	32662	32717	32775	32658	32676	32701	
1484	0	32798	32845	32503	32789	32823	32723	32715	32740	
1485	0	32748	32621	32583	32793	32819	32623	32751	32638	
1486	0	32767	32599	32731	32679	32799	32662	32631	32795	
1487	0	32788	32785	32641	32711	32757	32708	32727	32671	
1488	0	32810	32787	32719	32703	32807	32743	32743	32698	
1489	0	32771	32895	32725	32643	32820	32775	32772	32599	
1490	0	32775	32709	32527	32773	32895	32770	32773	32735	
1491	0	32756	32619	32643	32767	32836	32719	32713	32699	
1492	0	32733	32639	32643	32789	32861	32791	32748	32722	
1493	0	32727	32805	32729	32803	32835	32747	32799	32599	
1494	0	32701	32775	32587	32647	32766	32679	32647	32679	
1495	0	32769	32834	32659	32715	32813	32703	32708	32493	
1496	0	32663	32894	32634	32774	32834	32719	32823	32671	
1497	0	32692	32719	32573	32694	32828	32711	32735	32583	
1498	0	32797	32615	32551	32791	32799	32757	32821	32711	
1499	0	32735	32771	32657	32803	32671	32785	32783	32619	
1500	0	32783	32763	32645	32679	32699	32715	32775	32689	
1501	0	32762	32783	32563	32727	32787	32735	32807	32503	
1502	0	32796	32780	32635	32679	32743	32666	32830	32675	
1503	0	32773	32786	32665	32693	32775	32622	32814	32611	
1504	0	32775	32791	32773	32669	32795	32583	32837	32700	
1505	0	32812	32586	32515	32733	32751	32647	32847	32583	
1506	0	32791	32795	32642	32690	32686	32621	32715	32715	
1507	0	32827	32775	32662	32800	32703	32677	32764	32600	
1508	0	32780	32821	32714	32741	32775	32690	32826	32674	
1509	0	32783	32775	32751	32711	32727	32769	32731	32594	
1510	0	32721	32553	32619	32754	32811	32727	32761	32667	
1511	0	32730	32775	32557	32657	32759	32631	32754	32497	
1512	0	32722	32794	32647	32708	32734	32647	32775	32644	
1513	0	32718	32775	32538	32644	32722	32711	32787	32516	
1514	0	32775	32883	32638	32775	32770	32727	32751	32647	
1515	0	32742	32643	32693	32694	32767	32783	32775	32707	
1516	0	32700	32647	32763	32793	32822	32726	32775	32734	
1517	0	32761	32871	32535	32762	32741	32747	32839	32735	
1518	0	32821	32827	32759	32773	32767	32756	32709	32703	
1519	0	32784	32804	32645	32801	32692	32757	32663	32615	
1520	0	32742	32935	32742	32743	32714	32723	32749	32758	
1521	0	32773	32775	32791	32755	32851	32738	32719	32639	
1522	0	32733	32679	32559	32765	32868	32751	32699	32787	
1523	0	32692	32619	32495	32759	32841	32691	32775	32627	
1524	0	32734	32775	32543	32763	32799	32759	32723	32695	
1525	0	32751	32854	32637	32679	32734	32749	32775	32581	
1526	0	32775	32845	32675	32655	32735	32757	32748	32723	
1527	0	32791	32735	32775	32711	32813	32767	32676	32578	
1528	0	32773	32564	32615	32630	32827	32815	32783	32647	
1529	0	32740	32797	32487	32831	32791	32717	32701	32534	
1530	0	32686	32791	32646	32775	32863	32732	32733	32761	
1531	0	32677	32879	32546	32717	32775	32735	32739	32546	
1532	0	32708	32881	32583	32807	32759	32669	32677	32737	
1533	0	32770	32753	32439	32719	32727	32735	32767	32601	
1534	0	32732	32621	32607	32817	32755	32783	32774	32747	
1535	0	32803	32594	32639	32831	32759	32770	32731	32703	
1536	0	32766	32761	32719	32679	32773	32743	32799	32695	
1537	0	32800	32755	32723	32738	32711	32755	32795	32658	
1538	0	32834	32871	32575	32727	32811	32734	32839	32617	
1539	0	32772	32775	32698	32755	32751	32672	32791	32606	
1540	0	32740	32666	32631	32783	32731	32685	32695	32678	
1541	0	32733	32621	32731	32647	32743	32663	32804	32711	
1542	0	32768	32603	32551	32775	32687	32675	32811	32718	
1543	0	32745	32799	32599	32759	32767	32658	32804	32620	
1544	0	32780	32903	32555	32735	32803	32658	32757	32647	
1545	0	32741	32676	32735	32690	32795	32734	32735	32511	
1546	0	32724	32615	32671	32771	32727	32763	32759	32711	
1547	0	32712	32783	32699	32585	32843	32795	32711	32551	
1548	0	32720	32828	32715	32803	32863	32766	32737	32762	
1549	0	32719	32669	32423	32783	32871	32759	32721	32718	
1550	0	32816	32764	32476	32713	32795	32735	32721	32791	
1551	0	32748	32773	32647	32810	32759	32738	32697	32834	
1552	0	32665	32831	32637	32783	32826	32745	32687	32751	
1553	0	32754	32603	32706	32641	32876	32721	32775	32727	
1554	0	32769	32804	32627	32775	32790	32646	32799	32578	
1555	0	32737	32783	32506	32799	32743	32629	32735	32660	
1556	0	32775	32849	32715	32677	32815	32647	32764	32519	
1557	0	32786	32687	32686	32766	32775	32663	32855	32623	
1558	0	32827	32548	32687	32773	32811	32647	32813	32574	
1559	0	32787	32771	32643	32818	32799	32644	32809	32684	
1560	0	32729	32790	32575	32807	32719	32645	32789	32727	
1561	0	32783	32855	32594	32751	32711	32705	32731	32641	
1562	0	32759	32765	32621	32790	32660	32691	32791	32725	
1563	0	32809	32627	32723	32708	32749	32647	32758	32679	
1564	0	32807	32823	32550	32819	32762	32679	32730	32730	
1565	0	32775	32788	32715	32807	32875	32694	32780	32785	
1566	0	32739	32772	32671	32662	32703	32671	32775	32742	
1567	0	32719	32647	32719	32734	32687	32680	32833	32625	
1568	0	32743	32567	32551	32775	32795	32647	32765	32703	
1569	0	32695	32695	32556	32717	32739	32629	32787	32612	
1570	0	32749	32790	32671	32685	32811	32709	32804	32721	
1571	0	32703	32738	32674	32743	32831	32735	32819	32701	
1572	0	32737	32783	32503	32815	32819	32793	32671	32658	
1573	0	32749	32765	32637	32679	32839	32727	32678	32735	
1574	0	32724	32960	32631	32749	32771	32791	32734	32591	
1575	0	32733	32743	32735	32661	32799	32735	32745	32701	
1576	0	32740	32615	32733	32783	32734	32775	32746	32606	
1577	0	32779	32767	32718	32721	32747	32642	32734	32719	
1578	0	32769	32839	32562	32745	32862	32655	32727	32621	
1579	0	32847	32863	32641	32805	32830	32671	32790	32767	
1580	0	32797	32681	32595	32794	32815	32759	32795	32563	
1581	0	32796	32631	32645	32589	32731	32697	32739	32623	
1582	0	32692	32794	32708	32793	32713	32719	32793	32543	
1583	0	32707	32770	32567	32757	32799	32692	32715	32642	
1584	0	32736	32891	32540	32571	32742	32639	32733	32661	
1585	0	32766	32598	32559	32689	32818	32633	32759	32723	
1586	0	32738	32613	32635	32763	32759	32609	32757	32647	
1587	0	32775	32775	32551	32673	32749	32673	32775	32706	
1588	0	32807	32743	32631	32748	32718	32694	32743	32515	
1589	0	32714	32758	32525	32711	32733	32788	32769	32719	
1590	0	32816	32853	32492	32762	32789	32775	32774	32685	
1591	0	32803	32887	32663	32799	32702	32714	32847	32663	
1592	0	32823	32875	32716	32811	32715	32747	32746	32716	
1593	0	32796	32738	32471	32871	32627	32669	32742	32535	
1594	0	32802	32615	32679	32739	32834	32751	32793	32727	
1595	0	32802	32754	32747	32788	32903	32833	32766	32679	
1596	0	32718	32740	32545	32748	32877	32767	32787	32745	
1597	0	32766	32807	32647	32822	32813	32647	32740	32685	
1598	0	32738	32797	32615	32839	32783	32663	32801	32501	
1599	0	32743	32835	32755	32626	32727	32643	32743	32623	
1600	0	32826	32854	32519	32770	32775	32687	32733	32615	
1601	0	32729	32849	32743	32647	32769	32709	32809	32743	
1602	0	32678	32833	32751	32751	32757	32716	32807	32714	
1603	0	32731	32771	32535	32747	32735	32735	32783	32550	
1604	0	32731	32690	32683	32762	32789	32691	32718	32735	
1605	0	32788	32707	32603	32775	32775	32767	32723	32738	
1606	0	32756	32647	32731	32795	32847	32802	32831	32718	
1607	0	32770	32583	32543	32799	32751	32751	32714	32719	
1608	0	32709	32795	32547	32679	32753	32789	32801	32567	
1609	0	32773	32817	32717	32751	32685	32707	32832	32663	
1610	0	32729	32855	32683	32791	32791	32693	32727	32527	
1611	0	32735	32887	32615	32689	32783	32663	32775	32653	
1612	0	32771	32903	32647	32732	32687	32671	32815	32695	
1613	0	32790	32866	32681	32631	32658	32647	32755	32591	
1614	0	32796	32899	32572	32751	32741	32773	32747	32677	
1615	0	32823	32786	32586	32669	32790	32851	32782	32583	
1616	0	32755	32605	32707	32809	32815	32771	32795	32647	
1617	0	32797	32613	32644	32769	32775	32758	32811	32623	
1618	0	32737	32763	32647	32707	32715	32791	32837	32647	
1619	0	32762	32743	32642	32815	32823	32695	32818	32711	
1620	0	32762	32751	32723	32815	32836	32739	32807	32731	
1621	0	32786	32751	32566	32818	32735	32789	32846	32711	
1622	0	32775	32711	32503	32759	32707	32802	32647	32811	
1623	0	32711	32666	32663	32783	32711	32799	32693	32782	
1624	0	32748	32607	32627	32647	32823	32754	32769	32631	
1625	0	32730	32823	32663	32613	32831	32638	32807	32582	
1626	0	32729	32747	32661	32751	32852	32701	32749	32743	
1627	0	32740	32641	32559	32775	32743	32671	32727	32533	
1628	0	32808	32601	32487	32679	32746	32743	32763	32721	
1629	0	32796	32799	32714	32749	32683	32764	32843	32581	
1630	0	32845	32775	32615	32740	32737	32783	32695	32679	
1631	0	32792	32775	32755	32804	32775	32759	32775	32617	
1632	0	32740	32831	32527	32751	32719	32796	32705	32735	
1633	0	32730	32743	32510	32847	32812	32757	32730	32647	
1634	0	32769	32647	32666	32843	32839	32783	32757	32775	
1635	0	32763	32630	32671	32783	32799	32771	32766	32559	
1636	0	32747	32798	32751	32791	32711	32757	32791	32695	
1637	0	32736	32819	32555	32876	32647	32755	32731	32749	
1638	0	32680	32807	32603	32739	32719	32709	32739	32623	
1639	0	32733	32787	32567	32571	32736	32675	32735	32642	
1640	0	32743	32799	32687	32623	32679	32757	32783	32527	
1641	0	32736	32815	32804	32685	32791	32711	32722	32709	
1642	0	32760	32711	32531	32679	32791	32749	32811	32519	
1643	0	32724	32583	32454	32863	32815	32739	32799	32636	
1644	0	32713	32775	32711	32838	32882	32791	32749	32566	
1645	0	32767	32816	32646	32674	32714	32711	32868	32647	
1646	0	32785	32879	32644	32807	32675	32719	32759	32544	
1647	0	32749	32663	32727	32743	32771	32711	32868	32667	
1648	0	32775	32607	32538	32790	32805	32802	32773	32540	
1649	0	32807	32669	32591	32800	32775	32721	32799	32761	
1650	0	32733	32766	32586	32715	32830	32730	32711	32724	
1651	0	32655	32814	32690	32626	32807	32687	32757	32771	
1652	0	32692	32799	32757	32787	32694	32695	32756	32775	
1653	0	32694	32911	32601	32733	32823	32711	32799	32719	
1654	0	32711	32775	32556	32687	32819	32679	32711	32738	
1655	0	32706	32735	32719	32847	32833	32663	32739	32613	
1656	0	32796	32614	32639	32695	32799	32763	32731	32732	
1657	0	32753	32742	32667	32699	32819	32690	32704	32647	
1658	0	32760	32815	32719	32834	32717	32755	32839	32721	
1659	0	32717	32771	32523	32775	32739	32734	32763	32647	
1660	0	32783	32917	32686	32639	32765	32742	32727	32731	
1661	0	32812	32663	32671	32710	32775	32731	32799	32743	
1662	0	32754	32599	32729	32751	32735	32709	32738	32740	
1663	0	32807	32591	32526	32827	32759	32741	32714	32537	
1664	0	32791	32719	32591	32807	32841	32802	32802	32732	
1665	0	32796	32789	32639	32658	32855	32759	32811	32611	
1666	0	32775	32756	32626	32783	32739	32762	32743	32724	
1667	0	32791	32807	32615	32742	32711	32754	32839	32527	
1668	0	32789	32573	32729	32717	32822	32708	32803	32581	
1669	0	32844	32598	32806	32831	32775	32749	32802	32509	
1670	0	32825	32789	32533	32828	32775	32739	32787	32647	
1671	0	32768	32775	32603	32703	32836	32698	32767	32507	
1672	0	32752	32723	32676	32767	32870	32735	32702	32683	
1673	0	32726	32847	32612	32851	32807	32793	32791	32738	
1674	0	32775	32775	32535	32771	32787	32685	32674	32492	
1675	0	32738	32871	32591	32765	32783	32655	32727	32706	
1676	0	32731	32817	32694	32607	32784	32647	32799	32641	
1677	0	32741	32811	32711	32647	32762	32685	32762	32759	
1678	0	32756	32791	32700	32587	32775	32687	32785	32702	
1679	0	32716	32759	32473	32703	32742	32747	32711	32525	
1680	0	32794	32663	32663	32826	32683	32841	32725	32719	
1681	0	32781	32665	32635	32869	32733	32773	32731	32677	
1682	0	32765	32847	32687	32785	32743	32759	32775	32759	
1683	0	32829	32799	32593	32669	32732	32685	32769	32803	
1684	0	32781	32807	32541	32679	32775	32702	32821	32706	
1685	0	32745	32879	32606	32815	32749	32711	32702	32775	
1686	0	32798	32838	32667	32701	32890	32719	32679	32663	
1687	0	32701	32727	32559	32749	32822	32759	32757	32789	
1688	0	32748	32630	32683	32830	32850	32797	32756	32647	
1689	0	32718	32579	32514	32823	32727	32735	32775	32743	
1690	0	32731	32575	32673	32772	32762	32738	32829	32637	
1691	0	32766	32615	32631	32735	32717	32727	32717	32734	
1692	0	32775	32797	32623	32786	32835	32715	32791	32725	
1693	0	32767	32842	32699	32738	32767	32707	32737	32701	
1694	0	32760	32831	32535	32806	32759	32775	32658	32731	
1695	0	32754	32861	32663	32831	32795	32787	32717	32547	
1696	0	32739	32903	32599	32837	32873	32732	32791	32691	
1697	0	32763	32879	32741	32775	32835	32671	32763	32707	
1698	0	32741	32844	32633	32675	32879	32677	32738	32669	
1699	0	32734	32807	32679	32775	32819	32615	32775	32615	
1700	0	32702	32863	32695	32681	32810	32723	32811	32626	
1701	0	32786	32861	32513	32783	32865	32732	32795	32619	
1702	0	32767	32867	32708	32703	32807	32719	32805	32639	
1703	0	32747	32871	32723	32775	32839	32747	32711	32603	
1704	0	32775	32879	32559	32799	32767	32724	32727	32679	
1705	0	32772	32871	32645	32795	32676	32735	32791	32729	
1706	0	32775	32721	32685	32683	32665	32735	32748	32599	
1707	0	32784	32689	32671	32791	32781	32775	32767	32647	
1708	0	32801	32590	32729	32799	32773	32671	32791	32525	
1709	0	32792	32594	32487	32637	32807	32694	32698	32699	
1710	0	32804	32751	32773	32629	32769	32631	32754	32691	
1711	0	32823	32742	32687	32655	32775	32677	32837	32662	
1712	0	32836	32741	32607	32791	32766	32658	32827	32742	
1713	0	32765	32807	32691	32811	32789	32703	32739	32559	
1714	0	32841	32818	32637	32711	32803	32677	32775	32647	
1715	0	32787	32775	32711	32783	32813	32671	32822	32575	
1716	0	32711	32818	32529	32695	32834	32667	32775	32791	
1717	0	32692	32899	32548	32877	32770	32663	32783	32741	
1718	0	32662	32847	32619	32815	32743	32683	32710	32743	
1719	0	32694	32773	32623	32675	32775	32749	32695	32802	
1720	0	32715	32615	32735	32682	32823	32695	32758	32835	
1721	0	32725	32799	32759	32769	32843	32693	32682	32767	
1722	0	32715	32854	32515	32647	32869	32695	32797	32799	
1723	0	32743	32805	32615	32765	32770	32726	32737	32643	
1724	0	32743	32839	32756	32839	32710	32766	32821	32647	
1725	0	32804	32867	32643	32684	32717	32731	32790	32495	
1726	0	32751	32620	32711	32813	32775	32675	32750	32561	
1727	0	32804	32599	32763	32809	32807	32689	32791	32543	
1728	0	32791	32802	32543	32671	32793	32708	32796	32687	
1729	0	32767	32775	32647	32806	32791	32702	32759	32546	
1730	0	32775	32797	32617	32759	32735	32775	32794	32695	
1731	0	32726	32899	32714	32625	32642	32695	32759	32527	
1732	0	32751	32575	32683	32745	32695	32700	32757	32594	
1733	0	32745	32581	32543	32727	32771	32769	32689	32532	
1734	0	32757	32742	32481	32647	32847	32713	32839	32733	
1735	0	32764	32734	32695	32787	32902	32687	32711	32543	
1736	0	32753	32607	32493	32793	32743	32695	32793	32541	
1737	0	32766	32775	32685	32773	32813	32775	32803	32694	
1738	0	32756	32775	32621	32701	32740	32735	32797	32554	
1739	0	32788	32786	32699	32771	32841	32775	32709	32663	
1740	0	32775	32700	32567	32751	32832	32719	32702	32560	
1741	0	32798	32675	32478	32735	32690	32710	32722	32731	
1742	0	32718	32669	32735	32835	32791	32765	32718	32636	
1743	0	32727	32647	32739	32770	32823	32721	32770	32759	
1744	0	32751	32854	32855	32759	32791	32721	32730	32743	
1745	0	32712	32823	32567	32767	32731	32687	32693	32745	
1746	0	32793	32811	32559	32775	32846	32775	32711	32621	
1747	0	32756	32882	32745	32655	32807	32755	32686	32757	
1748	0	32769	32647	32647	32785	32853	32807	32775	32595	
1749	0	32797	32617	32564	32826	32727	32769	32711	32773	
1750	0	32832	32775	32546	32749	32722	32763	32755	32615	
1751	0	32767	32813	32599	32795	32863	32745	32751	32725	
1752	0	32737	32886	32685	32831	32791	32727	32745	32703	
1753	0	32739	32615	32561	32743	32784	32757	32823	32535	
1754	0	32804	32799	32527	32747	32707	32733	32821	32625	
1755	0	32698	32751	32510	32725	32775	32668	32875	32455	
1756	0	32700	32763	32670	32739	32743	32642	32797	32605	
1757	0	32703	32823	32661	32871	32763	32617	32775	32545	
1758	0	32712	32805	32661	32775	32795	32669	32847	32691	
1759	0	32713	32647	32695	32615	32822	32687	32799	32551	
1760	0	32743	32647	32495	32631	32806	32695	32843	32658	
1761	0	32746	32545	32679	32762	32800	32751	32862	32759	
1762	0	32784	32563	32613	32786	32735	32795	32731	32807	
1763	0	32791	32775	32690	32754	32775	32739	32690	32763	
1764	0	32789	32775	32523	32623	32747	32757	32787	32647	
1765	0	32799	32741	32559	32774	32727	32761	32807	32739	
1766	0	32818	32791	32726	32765	32782	32755	32644	32773	
1767	0	32865	32903	32687	32687	32791	32727	32763	32743	
1768	0	32775	32875	32775	32783	32743	32735	32799	32589	
1769	0	32834	32871	32516	32727	32814	32759	32723	32703	
1770	0	32800	32668	32679	32613	32839	32711	32719	32562	
1771	0	32820	32559	32615	32847	32730	32725	32734	32685	
1772	0	32859	32791	32666	32799	32734	32717	32741	32594	
1773	0	32769	32773	32804	32657	32743	32727	32750	32755	
1774	0	32739	32655	32610	32717	32679	32749	32787	32751	
1775	0	32729	32761	32679	32684	32675	32723	32863	32682	
1776	0	32742	32797	32647	32817	32707	32739	32771	32681	
1777	0	32749	32850	32687	32743	32775	32775	32839	32615	
1778	0	32730	32831	32763	32685	32775	32717	32819	32710	
1779	0	32682	32853	32535	32771	32775	32775	32743	32583	
1780	0	32766	32830	32684	32827	32814	32713	32774	32711	
1781	0	32735	32847	32554	32835	32822	32679	32831	32620	
1782	0	32770	32629	32615	32739	32747	32731	32685	32711	
1783	0	32747	32607	32739	32678	32749	32655	32735	32631	
1784	0	32763	32620	32509	32751	32783	32703	32732	32772	
1785	0	32726	32583	32655	32815	32740	32647	32693	32734	
1786	0	32688	32791	32711	32626	32754	32639	32751	32764	
1787	0	32800	32775	32623	32695	32806	32662	32771	32681	
1788	0	32759	32817	32732	32671	32735	32691	32736	32484	
1789	0	32775	32859	32503	32751	32705	32727	32734	32707	
1790	0	32806	32855	32731	32709	32695	32762	32751	32705	
1791	0	32813	32692	32660	32871	32765	32765	32769	32669	
1792	0	32773	32607	32599	32823	32827	32673	32749	32663	
1793	0	32767	32551	32471	32743	32806	32738	32767	32540	
1794	0	32670	32775	32627	32827	32775	32717	32867	32631	
1795	0	32711	32727	32647	32699	32801	32740	32737	32599	
1796	0	32742	32807	32765	32786	32775	32822	32767	32734	
1797	0	32708	32797	32479	32581	32748	32781	32763	32754	
1798	0	32741	32810	32509	32715	32829	32719	32783	32789	
1799	0	32751	32739	32585	32788	32723	32717	32758	32695	
1800	0	32756	32567	32609	32663	32730	32767	32759	32704	
1801	0	32815	32693	32605	32770	32818	32749	32759	32690	
1802	0	32799	32791	32701	32807	32843	32727	32815	32637	
1803	0	32757	32670	32655	32607	32773	32625	32797	32567	
1804	0	32700	32563	32693	32827	32689	32663	32834	32631	
1805	0	32711	32775	32725	32775	32711	32667	32735	32551	
1806	0	32722	32791	32745	32635	32736	32743	32807	32663	
1807	0	32799	32765	32671	32743	32850	32717	32749	32815	
1808	0	32797	32590	32658	32734	32696	32674	32784	32812	
1809	0	32775	32775	32580	32735	32818	32749	32739	32839	
1810	0	32756	32795	32525	32715	32898	32690	32767	32658	
1811	0	32774	32859	32723	32763	32827	32676	32743	32747	
1812	0	32788	32643	32687	32791	32743	32661	32747	32571	
1813	0	32703	32633	32566	32759	32788	32685	32690	32675	
1814	0	32751	32761	32735	32738	32836	32731	32763	32556	
1815	0	32775	32818	32829	32631	32847	32719	32743	32743	
1816	0	32698	32813	32742	32745	32894	32775	32727	32761	
1817	0	32714	32591	32583	32775	32800	32763	32687	32626	
1818	0	32764	32758	32791	32821	32759	32709	32791	32679	
1819	0	32816	32783	32599	32723	32811	32743	32725	32535	
1820	0	32756	32825	32579	32815	32758	32697	32775	32613	
1821	0	32820	32863	32737	32849	32813	32679	32791	32516	
1822	0	32760	32711	32663	32669	32735	32671	32775	32615	
1823	0	32734	32647	32701	32783	32742	32667	32822	32550	
1824	0	32775	32613	32703	32775	32759	32788	32732	32637	
1825	0	32810	32788	32581	32759	32772	32815	32820	32548	
1826	0	32759	32809	32531	32911	32775	32711	32791	32655	
1827	0	32721	32847	32535	32785	32835	32698	32743	32631	
1828	0	32718	32807	32694	32665	32796	32749	32734	32763	
1829	0	32765	32859	32637	32619	32786	32715	32775	32705	
1830	0	32774	32769	32671	32647	32727	32762	32785	32677	
1831	0	32815	32711	32583	32700	32719	32715	32767	32679	
1832	0	32743	32725	32775	32758	32627	32711	32775	32579	
1833	0	32751	32603	32775	32789	32742	32794	32699	32727	
1834	0	32763	32583	32679	32831	32727	32735	32698	32610	
1835	0	32756	32763	32673	32679	32706	32715	32762	32727	
1836	0	32745	32735	32551	32775	32814	32730	32827	32758	
1837	0	32710	32839	32686	32660	32877	32758	32799	32727	
1838	0	32679	32740	32591	32719	32885	32775	32787	32711	
1839	0	32710	32884	32699	32757	32795	32713	32695	32623	
1840	0	32754	32829	32481	32751	32775	32695	32708	32754	
1841	0	32751	32796	32623	32799	32823	32751	32791	32503	
1842	0	32775	32661	32583	32687	32789	32742	32743	32575	
1843	0	32799	32591	32685	32773	32795	32734	32773	32519	
1844	0	32784	32715	32531	32813	32727	32759	32791	32647	
1845	0	32734	32742	32475	32820	32820	32725	32726	32541	
1846	0	32734	32759	32673	32719	32851	32743	32769	32718	
1847	0	32663	32775	32579	32619	32839	32765	32811	32769	
1848	0	32769	32759	32722	32791	32858	32775	32754	32593	
1849	0	32768	32763	32507	32635	32891	32716	32714	32700	
1850	0	32764	32831	32711	32743	32841	32711	32791	32719	
1851	0	32709	32775	32675	32628	32685	32711	32788	32679	
1852	0	32738	32629	32699	32721	32757	32793	32759	32559	
1853	0	32749	32764	32709	32787	32807	32786	32794	32698	
1854	0	32775	32791	32767	32661	32859	32751	32811	32563	
1855	0	32839	32887	32487	32791	32785	32765	32799	32575	
1856	0	32787	32706	32677	32771	32681	32722	32855	32511	
1857	0	32755	32570	32594	32639	32685	32715	32775	32599	
1858	0	32811	32735	32713	32751	32690	32717	32822	32541	
1859	0	32816	32749	32707	32639	32705	32772	32837	32718	
1860	0	32830	32751	32457	32769	32815	32647	32729	32725	
1861	0	32793	32839	32683	32807	32803	32786	32775	32693	
1862	0	32813	32873	32775	32647	32874	32775	32804	32587	
1863	0	32799	32613	32606	32851	32807	32765	32731	32698	
1864	0	32772	32611	32707	32827	32748	32763	32763	32705	
1865	0	32793	32768	32453	32663	32703	32751	32711	32783	
1866	0	32758	32793	32749	32741	32660	32727	32775	32670	
1867	0	32780	32839	32663	32668	32749	32758	32749	32775	
1868	0	32794	32887	32679	32804	32807	32775	32675	32786	
1869	0	32748	32811	32590	32823	32809	32663	32717	32647	
1870	0	32774	32647	32719	32795	32775	32657	32794	32691	
1871	0	32739	32599	32642	32822	32879	32662	32729	32615	
1872	0	32762	32803	32723	32709	32903	32679	32707	32671	
1873	0	32747	32775	32775	32831	32803	32679	32731	32602	
1874	0	32706	32807	32466	32786	32798	32694	32717	32721	
1875	0	32747	32901	32662	32591	32864	32743	32754	32525	
1876	0	32729	32765	32599	32723	32743	32667	32775	32681	
1877	0	32818	32795	32790	32663	32767	32667	32775	32683	
1878	0	32790	32807	32687	32739	32791	32714	32731	32479	
1879	0	32701	32646	32681	32767	32743	32746	32757	32623	
1880	0	32767	32579	32795	32871	32713	32751	32791	32571	
1881	0	32728	32631	32495	32823	32676	32735	32823	32663	
1882	0	32756	32759	32707	32831	32703	32743	32811	32755	
1883	0	32733	32775	32543	32815	32711	32720	32843	32775	
1884	0	32738	32791	32739	32703	32819	32715	32823	32802	
1885	0	32773	32914	32637	32701	32804	32715	32775	32683	
1886	0	32775	32714	32503	32782	32843	32693	32788	32765	
1887	0	32766	32635	32647	32827	32770	32716	32767	32567	
1888	0	32795	32599	32643	32775	32817	32727	32765	32695	
1889	0	32763	32762	32733	32609	32700	32743	32839	32622	
1890	0	32724	32723	32717	32671	32765	32739	32773	32685	
1891	0	32810	32828	32522	32669	32775	32711	32635	32609	
1892	0	32732	32828	32639	32642	32775	32753	32721	32715	
1893	0	32727	32631	32586	32719	32839	32846	32683	32685	
1894	0	32679	32775	32566	32675	32847	32813	32666	32823	
1895	0	32757	32797	32706	32820	32815	32719	32695	32721	
1896	0	32787	32815	32583	32727	32829	32659	32755	32553	
1897	0	32742	32767	32645	32885	32799	32670	32723	32647	
1898	0	32756	32799	32677	32770	32863	32655	32823	32631	
1899	0	32708	32845	32583	32751	32738	32641	32829	32621	
1900	0	32765	32887	32556	32869	32749	32727	32727	32695	
1901	0	32766	32661	32519	32843	32719	32719	32836	32647	
1902	0	32775	32847	32637	32742	32711	32735	32807	32615	
1903	0	32766	32771	32683	32807	32713	32742	32815	32733	
1904	0	32754	32839	32647	32763	32695	32758	32775	32759	
1905	0	32752	32823	32762	32756	32807	32723	32722	32835	
1906	0	32808	32628	32447	32738	32835	32709	32801	32709	
1907	0	32758	32611	32531	32647	32759	32783	32767	32617	
1908	0	32743	32763	32720	32729	32818	32769	32815	32703	
1909	0	32710	32823	32669	32703	32765	32685	32765	32511	
1910	0	32735	32767	32589	32671	32727	32708	32730	32668	
1911	0	32767	32764	32726	32775	32823	32679	32647	32769	
1912	0	32752	32819	32669	32661	32841	32797	32749	32647	
1913	0	32781	32889	32773	32721	32789	32755	32797	32713	
1914	0	32782	32671	32775	32791	32775	32714	32759	32574	
1915	0	32786	32647	32551	32679	32647	32668	32742	32691	
1916	0	32748	32797	32642	32731	32743	32645	32701	32508	
1917	0	32717	32795	32727	32687	32817	32631	32727	32581	
1918	0	32738	32838	32623	32775	32788	32690	32799	32533	
1919	0	32791	32831	32628	32839	32791	32647	32731	32719	
1920	0	32743	32591	32431	32639	32802	32647	32759	32507	
1921	0	32817	32719	32471	32743	32765	32707	32722	32679	
1922	0	32762	32755	32639	32743	32763	32667	32711	32694	
1923	0	32775	32759	32641	32647	32727	32595	32807	32615	
1924	0	32799	32823	32663	32703	32720	32647	32855	32643	
1925	0	32784	32804	32637	32628	32710	32671	32732	32585	
1926	0	32755	32663	32615	32775	32762	32694	32798	32703	
1927	0	32743	32758	32639	32831	32874	32615	32721	32591	
1928	0	32679	32773	32587	32684	32895	32679	32687	32722	
1929	0	32759	32854	32727	32783	32773	32631	32735	32619	
1930	0	32729	32891	32542	32679	32797	32725	32768	32807	
1931	0	32708	32839	32646	32813	32745	32767	32763	32759	
1932	0	32718	32847	32647	32793	32709	32771	32757	32603	
1933	0	32751	32689	32743	32773	32804	32771	32770	32668	
1934	0	32835	32631	32535	32759	32658	32735	32772	32566	
1935	0	32775	32647	32775	32807	32663	32727	32803	32679	
1936	0	32775	32799	32607	32812	32692	32702	32834	32647	
1937	0	32701	32823	32681	32817	32799	32719	32795	32608	
1938	0	32750	32823	32591	32814	32941	32691	32730	32742	
1939	0	32726	32891	32521	32703	32783	32703	32775	32664	
1940	0	32728	32703	32614	32853	32767	32738	32767	32775	
1941	0	32759	32607	32707	32767	32775	32799	32775	32612	
1942	0	32742	32593	32705	32711	32751	32791	32791	32677	
1943	0	32771	32619	32569	32773	32738	32695	32703	32538	
1944	0	32751	32719	32687	32735	32775	32695	32721	32726	
1945	0	32850	32766	32626	32811	32791	32707	32837	32641	
1946	0	32788	32743	32685	32643	32903	32671	32836	32543	
1947	0	32775	32806	32751	32742	32791	32725	32811	32612	
1948	0	32767	32901	32575	32719	32647	32694	32773	32507	
1949	0	32812	32865	32603	32831	32690	32727	32799	32666	
1950	0	32801	32818	32749	32735	32671	32703	32815	32720	
1951	0	32759	32831	32573	32775	32687	32731	32738	32533	
1952	0	32713	32807	32687	32745	32679	32795	32749	32657	
1953	0	32732	32759	32683	32733	32729	32654	32767	32665	
1954	0	32796	32691	32502	32756	32735	32677	32807	32621	
1955	0	32773	32679	32455	32791	32743	32668	32715	32791	
1956	0	32775	32803	32673	32741	32831	32676	32769	32643	
1957	0	32748	32812	32643	32835	32806	32683	32795	32677	
1958	0	32663	32828	32710	32663	32715	32657	32773	32572	
1959	0	32711	32866	32715	32812	32775	32679	32769	32647	
1960	0	32775	32645	32645	32854	32823	32677	32727	32590	
1961	0	32805	32789	32733	32687	32867	32717	32803	32820	
1962	0	32818	32775	32663	32762	32709	32764	32703	32783	
1963	0	32810	32855	32563	32795	32743	32759	32773	32841	
1964	0	32775	32813	32631	32631	32807	32788	32739	32732	
1965	0	32733	32670	32711	32738	32845	32783	32725	32695	
1966	0	32730	32599	32639	32831	32767	32765	32719	32805	
1967	0	32770	32808	32739	32756	32795	32805	32749	32708	
1968	0	32711	32845	32485	32773	32797	32731	32679	32635	
1969	0	32734	32871	32635	32683	32850	32775	32751	32745	
1970	0	32751	32697	32643	32731	32855	32748	32769	32604	
1971	0	32784	32581	32551	32730	32701	32743	32735	32658	
1972	0	32766	32755	32721	32645	32787	32695	32733	32559	
1973	0	32775	32819	32571	32732	32691	32791	32835	32647	
1974	0	32773	32787	32679	32738	32747	32671	32719	32722	
1975	0	32775	32801	32645	32791	32838	32636	32747	32775	
1976	0	32766	32767	32607	32735	32858	32708	32775	32635	
1977	0	32762	32615	32751	32671	32807	32733	32751	32755	
1978	0	32774	32635	32738	32845	32710	32743	32829	32735	
1979	0	32799	32767	32493	32758	32747	32747	32767	32682	
1980	0	32716	32775	32554	32749	32786	32759	32771	32687	
1981	0	32687	32799	32679	32743	32807	32798	32805	32751	
1982	0	32732	32751	32623	32756	32853	32762	32738	32675	
1983	0	32795	32566	32775	32605	32822	32734	32775	32685	
1984	0	32733	32599	32767	32771	32753	32694	32767	32757	
1985	0	32719	32817	32455	32703	32695	32747	32695	32559	
1986	0	32804	32807	32635	32703	32662	32715	32749	32719	
1987	0	32839	32827	32639	32801	32773	32763	32817	32567	
1988	0	32772	32753	32759	32766	32815	32793	32763	32671	
1989	0	32746	32628	32547	32839	32775	32751	32838	32555	
1990	0	32799	32612	32647	32875	32741	32719	32823	32638	
1991	0	32730	32839	32597	32692	32763	32722	32794	32567	
1992	0	32767	32914	32647	32803	32709	32743	32843	32626	
1993	0	32775	32739	32639	32726	32743	32767	32692	32571	
1994	0	32757	32567	32647	32826	32803	32738	32756	32735	
1995	0	32737	32795	32708	32641	32774	32702	32700	32705	
1996	0	32718	32815	32755	32745	32847	32663	32799	32812	
1997	0	32773	32903	32583	32749	32831	32731	32735	32747	
1998	0	32771	32805	32727	32775	32809	32730	32667	32765	
1999	0	32794	32623	32735	32677	32789	32647	32715	32690	
2000	0	32775	32601	32687	32818	32743	32703	32739	32721	
2001	0	32754	32817	32717	32802	32790	32687	32727	32607	
2002	0	32761	32839	32546	32727	32761	32711	32813	32718	
2003	0	32782	32875	32628	32623	32807	32743	32773	32577	
2004	0	32800	32743	32722	32770	32812	32691	32759	32647	
2005	0	32799	32638	32743	32887	32818	32734	32855	32519	
2006	0	32733	32607	32567	32761	32860	32775	32793	32615	
2007	0	32784	32804	32591	32738	32862	32787	32743	32562	
2008	0	32735	32791	32647	32647	32749	32773	32783	32743	
2009	0	32757	32804	32587	32715	32699	32793	32729	32727	
2010	0	32748	32835	32677	32698	32795	32727	32765	32571	
2011	0	32753	32837	32531	32770	32715	32717	32791	32690	
2012	0	32711	32821	32679	32775	32739	32711	32849	32589	
2013	0	32788	32828	32669	32790	32718	32793	32767	32751	
2014	0	32763	32826	32499	32791	32727	32707	32749	32791	
2015	0	32782	32699	32731	32729	32714	32695	32775	32775	
2016	0	32751	32615	32647	32801	32679	32695	32759	32795	
2017	0	32715	32599	32559	32755	32662	32715	32693	32677	
2018	0	32758	32623	32723	32819	32786	32687	32745	32837	
2019	0	32753	32861	32633	32775	32794	32709	32775	32671	
2020	0	32797	32879	32673	32790	32867	32705	32659	32823	
2021	0	32720	32852	32738	32807	32887	32659	32695	32725	
2022	0	32758	32862	32561	32601	32863	32713	32711	32775	
2023	0	32711	32855	32674	32690	32815	32730	32638	32669	
2024	0	32755	32609	32639	32742	32871	32660	32695	32715	
2025	0	32743	32543	32645	32797	32883	32663	32681	32598	
2026	0	32707	32489	32469	32759	32847	32759	32689	32703	
2027	0	32740	32532	32519	32713	32850	32718	32634	32739	
2028	0	32729	32516	32479	32742	32824	32791	32644	32532	
2029	0	32694	32550	32414	32693	32854	32684	32665	32639	
2030	0	32689	32599	32431	32551	32887	32698	32677	32670	
2031	0	32659	32751	32415	32621	32845	32771	32669	32507	
2032	0	32681	32687	32431	32634	32830	32735	32637	32627	
2033	0	32639	32694	32440	32647	32805	32775	32647	32561	
2034	0	32682	32675	32578	32713	32815	32789	32611	32690	
2035	0	32671	32677	32409	32611	32799	32760	32627	32675	
2036	0	32679	32724	32421	32621	32829	32687	32615	32563	
2037	0	32614	32735	32471	32633	32830	32610	32610	32669	
2038	0	32683	32684	32333	32631	32784	32635	32619	32582	
2039	0	32728	32567	32477	32586	32814	32695	32717	32676	
2040	0	32759	32575	32487	32615	32903	32628	32643	32575	
2041	0	32784	32711	32463	32531	32859	32638	32757	32685	
2042	0	32778	32735	32473	32599	32775	32719	32788	32721	
2043	0	32747	32791	32577	32647	32711	32711	32662	32715	
2044	0	32762	32832	32679	32703	32709	32750	32699	32731	
2045	0	32788	32863	32477	32735	32701	32695	32767	32534	
2046	0	32767	32927	32685	32767	32707	32671	32823	32686	
2047	0	32766	32830	32692	32767	32695	32764	32749	32685	
2048	0	32716	32839	32802	32751	32711	32747	32743	32747	
2049	0	32686	32797	32617	32775	32718	32655	32725	32685	
2050	0	32679	32681	32639	32769	32732	32687	32839	32687	
2051	0	32715	32595	32687	32771	32787	32679	32765	32749	
2052	0	32771	32615	32516	32743	32759	32637	32823	32643	
2053	0	32826	32677	32809	32939	32743	32672	32842	32841	
2054	0	32748	32844	32886	32927	32717	32740	32937	32879	
2055	0	32844	32839	32885	32973	32687	32775	32971	32718	
2056	0	32895	32887	32890	32890	32669	32743	33035	32726	
2057	0	32983	32939	33098	33133	32599	32607	33287	32518	
2058	0	33092	32979	33267	33062	32545	32647	33475	32589	
2059	0	33159	32983	33223	33271	32423	32647	33598	32543	
2060	0	33209	32999	33255	33189	32401	32567	33495	32365	
2061	0	33236	33012	33270	33266	32387	32643	33486	32463	
2062	0	33189	33075	33221	33091	32524	32561	33373	32367	
2063	0	33136	33001	33033	33145	32519	32633	33240	32563	
2064	0	33030	32783	32837	33005	32647	32591	32979	32567	
2065	0	32903	32903	32731	32806	32731	32710	32899	32581	
2066	0	32738	32821	32700	32900	32829	32723	32775	32499	
2067	0	32752	32807	32566	32707	32866	32716	32733	32676	
2068	0	32671	32553	32469	32701	32709	32845	32615	32711	
2069	0	32656	32711	32481	32499	32841	32711	32671	32575	
2070	0	32573	32749	32515	32615	32851	32691	32611	32659	
2071	0	32521	32831	32295	32623	32899	32654	32603	32501	
2072	0	32508	32690	32247	32479	32925	32631	32591	32671	
2073	0	32537	32579	32455	32594	32895	32719	32471	32639	
2074	0	32597	32535	32391	32414	32941	32766	32599	32769	
2075	0	32543	32511	32455	32619	32966	32845	32575	32788	
2076	0	32592	32743	32359	32563	32910	32871	32503	32646	
2077	0	32639	32773	32506	32637	32891	32787	32503	32743	
2078	0	32707	32758	32578	32583	32903	32763	32551	32709	
2079	0	32765	32759	32353	32683	32759	32775	32639	32663	
2080	0	32822	32845	32534	32662	32903	32755	32629	32797	
2081	0	32794	32884	32692	32772	32903	32711	32687	32658	
2082	0	32736	32733	32661	32691	32851	32715	32711	32730	
2083	0	32732	32795	32498	32662	32725	32764	32758	32692	
2084	0	32799	32643	32570	32717	32823	32790	32729	32766	
2085	0	32749	32604	32671	32741	32886	32764	32730	32735	
2086	0	32770	32751	32594	32732	32827	32810	32691	32841	
2087	0	32791	32823	32615	32628	32775	32751	32687	32775	
2088	0	32738	32738	32518	32647	32735	32711	32671	32805	
2089	0	32711	32819	32545	32647	32863	32731	32703	32748	
2090	0	32689	32847	32711	32829	32819	32723	32659	32749	
2091	0	32674	32735	32653	32745	32773	32791	32721	32783	
2092	0	32758	32639	32715	32807	32766	32727	32787	32706	
2093	0	32709	32718	32607	32775	32825	32695	32738	32752	
2094	0	32719	32671	32623	32759	32683	32711	32743	32694	
2095	0	32759	32613	32711	32739	32771	32639	32710	32706	
2096	0	32773	32607	32535	32719	32727	32727	32699	32667	
2097	0	32716	32597	32673	32615	32731	32726	32775	32647	
2098	0	32769	32569	32687	32807	32715	32695	32758	32603	
2099	0	32751	32771	32519	32635	32709	32659	32681	32701	
2100	0	32735	32767	32573	32751	32679	32674	32739	32609	
2101	0	32727	32791	32599	32727	32685	32773	32829	32647	
2102	0	32780	32877	32694	32855	32685	32742	32735	32615	
2103	0	32767	32783	32445	32734	32672	32791	32751	32733	
2104	0	32767	32893	32675	32799	32735	32685	32804	32719	
2105	0	32726	32791	32595	32773	32698	32674	32823	32700	
2106	0	32734	32775	32727	32707	32707	32659	32737	32692	
2107	0	32714	32638	32514	32732	32681	32615	32727	32525	
2108	0	32754	32647	32687	32671	32715	32759	32750	32805	
2109	0	32812	32591	32623	32674	32753	32771	32775	32685	
2110	0	32695	32611	32515	32609	32743	32723	32726	32591	
2111	0	32790	32767	32489	32747	32719	32647	32727	32661	
2112	0	32772	32811	32694	32717	32699	32735	32773	32577	
2113	0	32785	32833	32613	32807	32775	32751	32775	32658	
2114	0	32781	32837	32644	32815	32759	32710	32685	32500	
2115	0	32725	32852	32574	32815	32756	32749	32799	32655	
2116	0	32732	32607	32551	32813	32735	32684	32815	32581	
2117	0	32734	32827	32684	32801	32891	32722	32765	32711	
2118	0	32750	32766	32571	32713	32887	32725	32759	32606	
2119	0	32791	32759	32593	32727	32890	32718	32791	32735	
2120	0	32745	32728	32535	32701	32796	32719	32775	32549	
2121	0	32706	32821	32755	32782	32754	32775	32775	32711	
2122	0	32748	32898	32637	32791	32749	32738	32798	32699	
2123	0	32693	32756	32735	32609	32737	32713	32735	32743	
2124	0	32718	32643	32487	32615	32765	32711	32687	32623	
2125	0	32683	32579	32743	32685	32782	32775	32804	32711	
2126	0	32692	32733	32567	32839	32812	32759	32745	32749	
2127	0	32680	32751	32687	32726	32868	32813	32743	32702	
2128	0	32734	32815	32727	32692	32814	32818	32695	32727	
2129	0	32734	32854	32543	32747	32757	32757	32666	32757	
2130	0	32756	32811	32607	32827	32671	32718	32787	32818	
2131	0	32783	32747	32615	32743	32683	32701	32775	32694	
2132	0	32806	32645	32623	32739	32763	32722	32775	32699	
2133	0	32711	32663	32718	32663	32765	32660	32743	32639	
2134	0	32761	32797	32612	32723	32805	32647	32795	32693	
2135	0	32771	32811	32627	32756	32775	32668	32742	32543	
2136	0	32748	32813	32728	32735	32785	32706	32788	32677	
2137	0	32735	32838	32639	32829	32802	32671	32766	32551	
2138	0	32694	32851	32794	32743	32733	32629	32747	32666	
2139	0	32750	32887	32508	32837	32767	32675	32735	32596	
2140	0	32740	32875	32674	32694	32737	32647	32822	32771	
2141	0	32703	32757	32577	32775	32739	32623	32758	32654	
2142	0	32764	32678	32666	32839	32725	32655	32766	32719	
2143	0	32781	32639	32519	32839	32703	32714	32837	32690	
2144	0	32755	32621	32591	32783	32751	32692	32775	32647	
2145	0	32832	32615	32623	32695	32731	32743	32715	32654	
2146	0	32775	32758	32601	32774	32807	32783	32751	32543	
2147	0	32775	32783	32775	32699	32837	32763	32735	32751	
