# OpenSignals Text File Format
# {"00:07:80:3B:46:38": {"sensor": ["CUSTOM/0.5/1.0/V", "CUSTOM/0.5/1.0/V", "CUSTOM/0.5/1.0/V", "CUSTOM/0.5/1.0/V", "CUSTOM/0.5/1.0/V", "CUSTOM/0.5/1.0/V", "CUSTOM/0.5/1.0/V", "CUSTOM/0.5/1.0/V"], "device name": "EMGs", "column": ["nSeq", "DI", "RA_L", "RA_R", "OE_L", "OE:R", "IL_L", "IL_R", "MF_L", "MF_R"], "sync interval": 2, "time": "17:0:53.24", "comments": "", "device connection": "BTH00:07:80:3B:46:38", "channels": [1, 2, 3, 4, 5, 6, 7, 8], "date": "2017-6-1", "mode": 0, "digital IO": [0, 1], "firmware version": 772, "device": "biosignalsplux", "position": 0, "sampling rate": 1000, "label": ["RA_L", "RA_R", "OE_L", "OE:R", "IL_L", "IL_R", "MF_L", "MF_R"], "resolution": [16, 16, 16, 16, 16, 16, 16, 16], "special": [{}, {}, {}, {}, {}, {}, {}, {}]}}
# EndOfHeader
0	0	32758	32589	32675	32671	32783	32735	32663	32676	
1	0	32750	32439	32742	32611	32791	32793	32647	32547	
2	0	32720	32583	32845	32655	32773	32759	32694	32595	
3	0	32746	32635	32797	32676	32687	32660	32711	32619	
4	0	32690	32679	32695	32578	32642	32731	32685	32471	
5	0	32713	32725	32709	32587	32836	32775	32631	32669	
6	0	32723	32703	32743	32623	32881	32831	32671	32515	
7	0	32719	32507	32767	32580	32775	32726	32743	32566	
8	0	32719	32605	32759	32647	32601	32771	32701	32695	
9	0	32746	32722	32765	32685	32871	32733	32743	32677	
10	0	32775	32663	32687	32674	32705	32725	32645	32567	
11	0	32757	32700	32701	32827	32535	32767	32647	32678	
12	0	32726	32763	32707	32731	32614	32747	32691	32590	
13	0	32695	32807	32682	32823	32761	32775	32724	32575	
14	0	32767	32645	32647	32853	32679	32675	32694	32799	
15	0	32719	32547	32802	32683	32701	32757	32623	32703	
16	0	32729	32615	32775	32785	32783	32809	32631	32511	
17	0	32723	32756	32767	32767	32756	32615	32687	32707	
18	0	32775	32739	32735	32645	32569	32707	32730	32603	
19	0	32775	32756	32775	32701	32613	32711	32693	32642	
20	0	32828	32660	32743	32582	32892	32711	32666	32602	
21	0	32745	32599	32742	32691	32807	32739	32713	32756	
22	0	32762	32676	32695	32713	32708	32775	32743	32613	
23	0	32749	32739	32663	32767	32610	32798	32670	32722	
24	0	32701	32590	32759	32753	32889	32693	32667	32530	
25	0	32743	32508	32735	32621	32748	32755	32735	32676	
26	0	32749	32551	32759	32751	32797	32826	32703	32695	
27	0	32738	32699	32719	32725	32629	32715	32747	32591	
28	0	32738	32657	32731	32595	32769	32759	32720	32662	
29	0	32771	32691	32683	32732	32755	32775	32634	32673	
30	0	32876	32647	32711	32667	32807	32770	32748	32561	
31	0	32800	32721	32783	32631	32636	32621	32749	32679	
32	0	32756	32583	32811	32699	32823	32703	32749	32655	
33	0	32711	32555	32719	32585	32771	32823	32717	32775	
34	0	32757	32623	32799	32695	32555	32740	32631	32551	
35	0	32705	32681	32775	32658	32555	32708	32647	32677	
36	0	32772	32782	32775	32850	32831	32711	32645	32623	
37	0	32766	32669	32743	32734	32758	32735	32703	32759	
38	0	32760	32690	32671	32722	32767	32675	32679	32471	
39	0	32758	32715	32705	32715	32724	32658	32679	32639	
40	0	32676	32669	32735	32647	32858	32722	32660	32677	
41	0	32718	32559	32770	32722	32797	32783	32723	32491	
42	0	32708	32581	32764	32757	32594	32726	32711	32661	
43	0	32728	32635	32735	32679	32717	32717	32679	32586	
44	0	32754	32710	32694	32751	32842	32767	32695	32705	
45	0	32761	32695	32767	32735	32839	32731	32748	32551	
46	0	32767	32731	32795	32751	32725	32747	32775	32733	
47	0	32763	32685	32751	32587	32557	32725	32662	32805	
48	0	32741	32751	32679	32711	32775	32607	32741	32643	
49	0	32774	32759	32739	32717	32716	32611	32734	32647	
50	0	32801	32604	32804	32578	32620	32802	32708	32759	
51	0	32791	32573	32775	32645	32847	32811	32751	32547	
52	0	32759	32545	32756	32615	32733	32799	32691	32763	
53	0	32759	32597	32755	32721	32635	32815	32631	32675	
54	0	32728	32471	32807	32663	32655	32735	32666	32683	
55	0	32761	32509	32774	32723	32847	32703	32743	32519	
56	0	32738	32551	32822	32645	32869	32725	32758	32682	
57	0	32682	32577	32789	32763	32723	32783	32735	32637	
58	0	32698	32730	32770	32722	32529	32770	32733	32807	
59	0	32709	32769	32743	32630	32663	32791	32681	32583	
60	0	32760	32719	32667	32743	32823	32749	32723	32703	
61	0	32727	32699	32708	32679	32759	32663	32639	32671	
62	0	32754	32655	32727	32781	32739	32679	32640	32737	
63	0	32757	32705	32727	32773	32674	32787	32743	32663	
64	0	32740	32747	32655	32711	32823	32743	32759	32637	
65	0	32735	32743	32631	32787	32733	32647	32743	32621	
66	0	32764	32551	32687	32687	32743	32771	32741	32516	
67	0	32751	32583	32666	32804	32668	32775	32663	32647	
68	0	32718	32711	32743	32751	32875	32637	32671	32695	
69	0	32743	32701	32695	32631	32759	32719	32773	32482	
70	0	32742	32711	32743	32791	32613	32771	32741	32655	
71	0	32748	32789	32749	32742	32826	32719	32719	32735	
72	0	32726	32683	32732	32659	32775	32773	32679	32625	
73	0	32767	32581	32802	32743	32738	32775	32647	32711	
74	0	32754	32623	32773	32809	32775	32635	32741	32647	
75	0	32775	32660	32818	32755	32787	32637	32749	32716	
76	0	32788	32708	32679	32736	32513	32767	32685	32540	
77	0	32695	32631	32695	32599	32687	32813	32691	32713	
78	0	32722	32687	32756	32647	32767	32730	32619	32629	
79	0	32740	32671	32775	32662	32839	32722	32597	32705	
80	0	32727	32527	32799	32621	32862	32742	32735	32630	
81	0	32698	32723	32757	32563	32811	32583	32615	32607	
82	0	32753	32685	32671	32702	32675	32796	32718	32483	
83	0	32718	32735	32719	32725	32760	32747	32588	32594	
84	0	32762	32571	32787	32689	32588	32775	32702	32775	
85	0	32740	32687	32775	32756	32775	32681	32703	32631	
86	0	32767	32769	32735	32676	32799	32695	32748	32658	
87	0	32762	32756	32702	32725	32717	32717	32791	32773	
88	0	32750	32717	32710	32743	32582	32737	32818	32669	
89	0	32715	32669	32729	32682	32761	32795	32687	32692	
90	0	32728	32763	32789	32758	32723	32708	32719	32668	
91	0	32717	32591	32825	32738	32723	32811	32775	32563	
92	0	32725	32525	32818	32763	32623	32815	32775	32687	
93	0	32722	32509	32873	32727	32775	32800	32719	32679	
94	0	32789	32573	32807	32625	32775	32628	32681	32576	
95	0	32745	32685	32698	32605	32751	32707	32598	32731	
96	0	32740	32719	32710	32551	32634	32767	32695	32635	
97	0	32795	32609	32735	32519	32869	32671	32695	32503	
98	0	32738	32695	32797	32629	32775	32764	32645	32668	
99	0	32700	32627	32747	32623	32705	32735	32623	32719	
100	0	32764	32452	32729	32613	32869	32717	32607	32628	
101	0	32758	32562	32703	32697	32775	32607	32623	32641	
102	0	32754	32785	32663	32660	32577	32823	32704	32606	
103	0	32727	32692	32730	32739	32755	32645	32709	32706	
104	0	32763	32764	32791	32813	32775	32791	32631	32717	
105	0	32752	32559	32732	32734	32509	32679	32771	32571	
106	0	32766	32694	32727	32659	32694	32721	32681	32699	
107	0	32710	32700	32733	32751	32872	32742	32623	32679	
108	0	32647	32791	32677	32730	32754	32809	32726	32719	
109	0	32708	32687	32721	32795	32587	32726	32615	32708	
110	0	32723	32767	32735	32807	32845	32815	32709	32647	
111	0	32750	32582	32715	32745	32702	32631	32710	32527	
112	0	32735	32511	32663	32647	32813	32671	32647	32742	
113	0	32673	32743	32743	32821	32727	32821	32735	32647	
114	0	32772	32638	32787	32795	32771	32767	32703	32511	
115	0	32775	32693	32812	32683	32783	32755	32703	32679	
116	0	32762	32692	32775	32711	32583	32775	32722	32663	
117	0	32753	32775	32711	32789	32927	32675	32769	32605	
118	0	32756	32612	32677	32643	32775	32727	32799	32695	
119	0	32751	32711	32775	32762	32642	32735	32796	32671	
120	0	32710	32687	32715	32637	32719	32738	32797	32487	
121	0	32766	32699	32719	32654	32571	32763	32817	32647	
122	0	32775	32463	32690	32621	32815	32663	32647	32613	
123	0	32736	32555	32775	32681	32722	32775	32738	32637	
124	0	32781	32691	32755	32709	32531	32741	32670	32658	
125	0	32731	32711	32719	32647	32885	32883	32711	32589	
126	0	32732	32619	32679	32671	32774	32629	32647	32719	
127	0	32767	32743	32679	32717	32607	32813	32691	32719	
128	0	32714	32647	32723	32611	32831	32711	32727	32647	
129	0	32738	32555	32714	32695	32765	32783	32629	32687	
130	0	32703	32591	32723	32738	32727	32769	32723	32701	
131	0	32708	32575	32742	32702	32561	32833	32741	32607	
132	0	32732	32734	32703	32711	32859	32585	32647	32703	
133	0	32764	32602	32751	32639	32791	32754	32747	32553	
134	0	32749	32717	32851	32613	32647	32679	32727	32676	
135	0	32817	32679	32807	32723	32807	32756	32684	32655	
136	0	32804	32711	32719	32771	32767	32662	32659	32755	
137	0	32775	32735	32718	32615	32706	32773	32732	32706	
138	0	32754	32743	32745	32739	32839	32782	32711	32647	
139	0	32647	32706	32785	32739	32787	32705	32767	32599	
140	0	32713	32662	32756	32663	32533	32743	32734	32679	
141	0	32772	32756	32762	32671	32798	32791	32659	32559	
142	0	32785	32587	32707	32631	32785	32801	32755	32617	
143	0	32705	32519	32703	32755	32735	32671	32686	32719	
144	0	32725	32615	32748	32807	32711	32686	32703	32578	
145	0	32730	32757	32853	32657	32825	32751	32767	32655	
146	0	32760	32695	32775	32791	32695	32742	32654	32747	
147	0	32774	32647	32731	32810	32659	32767	32695	32597	
148	0	32756	32783	32709	32670	32770	32773	32775	32617	
149	0	32747	32501	32687	32683	32737	32591	32695	32605	
150	0	32751	32613	32769	32687	32794	32806	32743	32711	
151	0	32771	32679	32711	32698	32711	32695	32731	32719	
152	0	32757	32679	32647	32635	32577	32775	32769	32607	
153	0	32749	32701	32700	32668	32711	32773	32695	32615	
154	0	32726	32743	32732	32655	32822	32758	32695	32726	
155	0	32781	32805	32701	32698	32716	32659	32710	32535	
156	0	32733	32603	32739	32738	32578	32711	32678	32623	
157	0	32762	32598	32758	32567	32882	32790	32663	32607	
158	0	32709	32612	32751	32756	32773	32751	32747	32647	
159	0	32753	32709	32713	32758	32629	32790	32711	32690	
160	0	32720	32669	32692	32663	32711	32775	32671	32535	
161	0	32707	32679	32671	32839	32783	32647	32685	32638	
162	0	32712	32705	32727	32757	32787	32640	32679	32739	
163	0	32745	32690	32804	32690	32738	32773	32775	32547	
164	0	32772	32605	32815	32731	32956	32775	32743	32691	
165	0	32717	32509	32836	32630	32767	32687	32722	32673	
166	0	32773	32599	32806	32615	32565	32753	32759	32612	
167	0	32769	32725	32738	32739	32751	32749	32668	32677	
168	0	32730	32663	32692	32693	32735	32706	32717	32693	
169	0	32763	32755	32797	32647	32707	32858	32671	32587	
170	0	32708	32729	32767	32735	32817	32751	32721	32647	
171	0	32765	32647	32726	32610	32795	32745	32675	32727	
172	0	32756	32559	32661	32729	32655	32820	32598	32641	
173	0	32781	32654	32711	32756	32839	32791	32707	32679	
174	0	32809	32693	32687	32599	32783	32692	32723	32644	
175	0	32751	32733	32743	32577	32783	32828	32711	32679	
176	0	32786	32625	32706	32711	32759	32621	32691	32711	
177	0	32781	32535	32671	32615	32527	32711	32741	32507	
178	0	32738	32543	32663	32769	32847	32802	32762	32694	
179	0	32742	32567	32717	32695	32739	32765	32769	32775	
180	0	32742	32773	32687	32647	32587	32751	32775	32583	
181	0	32734	32831	32775	32676	32715	32612	32626	32709	
182	0	32754	32674	32813	32642	32719	32812	32722	32738	
183	0	32698	32708	32773	32703	32615	32765	32756	32642	
184	0	32731	32759	32745	32727	32819	32682	32727	32676	
185	0	32740	32583	32711	32645	32724	32811	32595	32743	
186	0	32758	32589	32699	32594	32549	32799	32676	32647	
187	0	32734	32743	32793	32717	32868	32647	32743	32671	
188	0	32768	32735	32829	32635	32775	32813	32762	32551	
189	0	32742	32738	32790	32759	32561	32775	32763	32646	
190	0	32724	32743	32837	32771	32836	32694	32709	32647	
191	0	32775	32735	32772	32735	32743	32717	32666	32603	
192	0	32762	32531	32775	32743	32615	32787	32729	32642	
193	0	32756	32587	32756	32667	32799	32671	32761	32635	
194	0	32701	32567	32679	32748	32747	32675	32642	32683	
195	0	32700	32749	32743	32773	32615	32827	32685	32663	
196	0	32669	32732	32727	32671	32847	32791	32607	32639	
197	0	32691	32662	32699	32667	32788	32738	32657	32555	
198	0	32680	32783	32721	32711	32605	32765	32713	32647	
199	0	32708	32559	32655	32612	32846	32711	32737	32625	
200	0	32700	32519	32701	32719	32762	32719	32761	32615	
201	0	32799	32727	32701	32757	32623	32809	32647	32686	
202	0	32763	32707	32775	32603	32883	32727	32687	32551	
203	0	32757	32793	32677	32701	32711	32759	32804	32742	
204	0	32761	32807	32711	32711	32599	32653	32795	32694	
205	0	32796	32722	32721	32657	32677	32647	32787	32578	
206	0	32775	32567	32679	32716	32834	32679	32623	32695	
207	0	32759	32767	32751	32770	32711	32748	32799	32582	
208	0	32775	32815	32751	32679	32631	32733	32749	32685	
209	0	32839	32771	32758	32749	32757	32723	32844	32550	
210	0	32805	32722	32791	32692	32727	32647	32703	32487	
211	0	32890	32799	32767	32711	32479	32607	32799	32663	
212	0	32881	32705	32757	32839	32786	32671	32807	32638	
213	0	32871	32684	32823	32775	32727	32662	32855	32503	
214	0	32881	32711	32823	32692	32511	32729	32866	32563	
215	0	32806	32767	32806	32711	32663	32681	32775	32644	
216	0	32839	32701	32818	32660	32655	32573	32775	32543	
217	0	32883	32695	32799	32738	32694	32602	32855	32485	
218	0	32845	32735	32739	32647	32561	32722	32810	32493	
219	0	32775	32692	32759	32573	32813	32587	32754	32503	
220	0	32740	32429	32891	32714	32722	32714	32701	32589	
221	0	32723	32491	32825	32663	32631	32571	32663	32359	
222	0	32783	32647	32764	32539	32802	32613	32765	32500	
223	0	32761	32527	32767	32562	32797	32758	32738	32495	
224	0	32827	32601	32871	32559	32731	32719	32666	32592	
225	0	32838	32667	32943	32489	32803	32748	32583	32555	
226	0	32896	32407	32971	32458	32783	32671	32637	32501	
227	0	32876	32380	33003	32429	32631	32578	32634	32635	
228	0	32818	32583	32963	32346	32903	32647	32671	32695	
229	0	32827	32581	32911	32511	32767	32731	32671	32647	
230	0	32819	32638	32947	32599	32588	32701	32599	32673	
231	0	32793	32602	32909	32555	32863	32774	32679	32551	
232	0	32725	32391	32871	32662	32775	32658	32615	32739	
233	0	32741	32439	32783	32669	32615	32662	32605	32759	
234	0	32678	32515	32851	32581	32743	32813	32500	32671	
235	0	32588	32583	32705	32665	32991	32876	32450	32829	
236	0	32455	32543	32694	32741	32815	32775	32420	32787	
237	0	32502	32555	32641	32727	32661	32891	32627	32727	
238	0	32549	32583	32629	32815	32887	32757	32599	32759	
239	0	32535	32623	32599	32703	32873	32766	32523	32806	
240	0	32535	32607	32556	32773	32807	32847	32567	32820	
241	0	32433	32567	32510	32753	32631	32892	32667	32796	
242	0	32489	32599	32461	32671	32711	33007	32599	32889	
243	0	32455	32511	32427	32791	32839	32839	32591	32941	
244	0	32332	32727	32323	32809	32839	32959	32687	32854	
245	0	32339	32875	32309	32988	32599	32959	32692	33063	
246	0	32327	32839	32293	33017	32788	33027	32635	33115	
247	0	32307	32823	32239	32975	32807	32887	32611	33047	
248	0	32284	32903	32258	33137	32825	33129	32556	33206	
249	0	32140	32815	32159	33300	32851	33118	32429	33308	
250	0	32135	32726	32156	33335	33012	33223	32447	33439	
251	0	32318	32763	32231	33199	32903	33131	32406	33278	
252	0	32431	32797	32375	33143	32693	33056	32459	33005	
253	0	32540	32763	32551	32887	32850	32831	32583	32975	
254	0	32703	32743	32599	32871	32841	32782	32589	32750	
255	0	32812	32687	32747	32775	32802	32839	32658	32623	
256	0	32909	32605	32900	32647	32609	32844	32708	32586	
257	0	32940	32599	32964	32583	32887	32727	32823	32605	
258	0	32962	32683	32925	32503	32684	32694	32855	32487	
259	0	33053	32638	32978	32425	32501	32487	32922	32385	
260	0	33088	32567	32955	32565	32695	32627	32919	32466	
261	0	33090	32685	32967	32574	32663	32525	32902	32463	
262	0	33075	32775	33011	32482	32404	32525	32971	32331	
263	0	33036	32699	32979	32559	32652	32617	32910	32463	
264	0	33000	32655	32943	32535	32643	32543	32823	32323	
265	0	33012	32751	32948	32551	32492	32623	32721	32429	
266	0	32982	32587	32927	32605	32759	32647	32860	32399	
267	0	32975	32647	32930	32775	32669	32695	32879	32331	
268	0	32976	32765	32831	32767	32529	32533	32738	32438	
269	0	32916	32775	32809	32665	32815	32679	32720	32365	
270	0	32912	32805	32863	32674	32725	32599	32826	32415	
271	0	32898	32617	32887	32659	32739	32647	32850	32468	
272	0	32942	32583	32853	32543	32495	32708	32903	32345	
273	0	32982	32567	32771	32615	32742	32535	32870	32467	
274	0	32959	32711	32780	32581	32679	32711	32858	32517	
275	0	32962	32802	32818	32599	32533	32707	32892	32525	
276	0	32967	32815	32846	32695	32743	32717	32837	32527	
277	0	32940	32802	32871	32607	32719	32575	32895	32379	
278	0	32873	32769	32982	32665	32693	32635	32893	32572	
279	0	32881	32621	32883	32678	32571	32647	32750	32571	
280	0	32850	32604	32823	32590	32804	32615	32807	32481	
281	0	32839	32576	32775	32631	32719	32716	32715	32539	
282	0	32879	32647	32813	32575	32478	32566	32767	32591	
283	0	32820	32644	32735	32683	32722	32609	32687	32359	
284	0	32772	32721	32795	32685	32735	32735	32727	32539	
285	0	32796	32666	32815	32579	32583	32795	32647	32423	
286	0	32736	32751	32847	32701	32806	32663	32647	32563	
287	0	32692	32662	32807	32803	32738	32663	32763	32711	
288	0	32736	32591	32830	32658	32598	32783	32672	32509	
289	0	32772	32583	32748	32775	32801	32687	32647	32639	
290	0	32791	32679	32769	32698	32719	32748	32659	32493	
291	0	32729	32660	32783	32642	32675	32679	32647	32623	
292	0	32743	32655	32775	32647	32855	32833	32645	32723	
293	0	32758	32738	32735	32749	32811	32719	32647	32717	
294	0	32701	32507	32677	32647	32763	32839	32623	32771	
295	0	32707	32599	32755	32769	32803	32591	32627	32755	
296	0	32762	32623	32666	32771	32793	32738	32619	32690	
297	0	32781	32711	32671	32634	32751	32775	32743	32573	
298	0	32783	32722	32669	32807	32731	32799	32730	32679	
299	0	32758	32787	32671	32745	32567	32789	32711	32799	
300	0	32773	32647	32663	32741	32827	32699	32708	32669	
301	0	32774	32543	32749	32722	32727	32806	32841	32708	
302	0	32783	32773	32725	32818	32621	32771	32751	32555	
303	0	32717	32734	32695	32769	32741	32590	32674	32621	
304	0	32738	32783	32671	32647	32575	32669	32588	32719	
305	0	32729	32703	32766	32690	32740	32839	32646	32677	
306	0	32654	32562	32767	32748	32823	32687	32683	32663	
307	0	32656	32391	32755	32603	32790	32835	32690	32578	
308	0	32596	32595	32634	32685	32865	32639	32663	32701	
309	0	32598	32678	32679	32627	32791	32838	32559	32551	
310	0	32644	32583	32636	32610	32647	32743	32663	32707	
311	0	32668	32674	32775	32695	32807	32797	32665	32611	
312	0	32720	32533	32711	32562	32606	32731	32738	32756	
313	0	32759	32535	32725	32557	32796	32803	32607	32847	
314	0	32759	32575	32757	32679	32819	32743	32647	32602	
315	0	32825	32519	32775	32634	32789	32767	32615	32767	
316	0	32780	32639	32745	32669	32599	32751	32775	32739	
317	0	32728	32660	32679	32719	32775	32759	32668	32637	
318	0	32721	32726	32725	32747	32747	32647	32748	32623	
319	0	32758	32740	32727	32754	32803	32787	32647	32595	
320	0	32749	32717	32713	32807	32829	32837	32669	32642	
321	0	32731	32607	32610	32703	32695	32811	32786	32675	
322	0	32703	32571	32562	32791	32615	32763	32711	32516	
323	0	32697	32711	32715	32769	32789	32679	32698	32695	
324	0	32692	32749	32758	32665	32775	32830	32676	32723	
325	0	32674	32637	32767	32759	32802	32763	32639	32575	
326	0	32713	32711	32810	32807	32759	32742	32697	32647	
327	0	32708	32731	32695	32669	32603	32788	32685	32527	
328	0	32697	32691	32709	32726	32717	32702	32723	32775	
329	0	32716	32646	32811	32689	32799	32662	32757	32756	
330	0	32742	32794	32745	32719	32770	32659	32694	32719	
331	0	32689	32727	32789	32726	32519	32793	32711	32667	
332	0	32748	32617	32730	32767	32711	32690	32723	32599	
333	0	32720	32583	32755	32811	32773	32755	32667	32551	
334	0	32775	32575	32795	32757	32745	32771	32747	32671	
335	0	32764	32732	32842	32759	32775	32641	32748	32757	
336	0	32752	32708	32771	32775	32787	32783	32763	32675	
337	0	32706	32691	32743	32711	32775	32803	32676	32693	
338	0	32638	32674	32660	32733	32677	32739	32607	32559	
339	0	32694	32719	32638	32647	32875	32747	32621	32710	
340	0	32718	32515	32706	32686	32756	32795	32566	32647	
341	0	32775	32551	32723	32557	32631	32637	32655	32527	
342	0	32763	32567	32813	32551	32903	32756	32674	32721	
343	0	32675	32659	32758	32607	32756	32843	32687	32705	
344	0	32695	32721	32724	32527	32586	32719	32705	32571	
345	0	32732	32582	32694	32647	32865	32831	32730	32687	
346	0	32790	32655	32751	32487	32854	32795	32716	32679	
347	0	32762	32575	32687	32647	32789	32655	32671	32603	
348	0	32718	32642	32669	32735	32678	32815	32767	32655	
349	0	32796	32745	32784	32653	32775	32759	32696	32559	
350	0	32713	32717	32703	32731	32747	32791	32717	32647	
351	0	32740	32695	32681	32694	32527	32748	32775	32671	
352	0	32692	32675	32724	32809	32795	32757	32646	32551	
353	0	32698	32763	32749	32771	32803	32823	32613	32662	
354	0	32720	32523	32748	32691	32667	32739	32676	32765	
355	0	32743	32758	32703	32727	32815	32743	32647	32671	
356	0	32754	32671	32663	32797	32716	32743	32667	32775	
357	0	32725	32717	32784	32775	32698	32737	32715	32709	
358	0	32756	32615	32738	32699	32725	32803	32775	32710	
359	0	32742	32535	32706	32742	32583	32639	32735	32513	
360	0	32724	32598	32669	32713	32847	32791	32743	32635	
361	0	32747	32739	32726	32669	32721	32699	32655	32541	
362	0	32729	32719	32791	32753	32669	32735	32699	32685	
363	0	32767	32740	32718	32671	32811	32615	32743	32710	
364	0	32753	32642	32647	32647	32807	32727	32679	32623	
365	0	32741	32445	32772	32767	32703	32708	32791	32615	
366	0	32745	32655	32739	32738	32735	32795	32679	32539	
367	0	32727	32639	32789	32533	32609	32663	32735	32597	
368	0	32706	32709	32846	32703	32774	32751	32662	32757	
369	0	32709	32751	32803	32699	32817	32765	32679	32670	
370	0	32673	32626	32806	32647	32599	32749	32679	32647	
371	0	32732	32455	32775	32639	32783	32887	32658	32591	
372	0	32743	32519	32784	32543	32787	32819	32635	32720	
373	0	32818	32605	32751	32612	32756	32643	32705	32706	
374	0	32743	32701	32775	32610	32679	32769	32815	32687	
375	0	32727	32771	32767	32723	32839	32820	32742	32711	
376	0	32796	32789	32711	32671	32796	32726	32775	32671	
377	0	32808	32717	32647	32727	32573	32764	32793	32605	
378	0	32743	32813	32660	32791	32775	32629	32645	32647	
379	0	32781	32598	32791	32842	32790	32791	32721	32749	
380	0	32765	32599	32787	32711	32756	32663	32711	32692	
381	0	32781	32599	32788	32783	32739	32695	32719	32643	
382	0	32736	32723	32707	32667	32734	32815	32755	32634	
383	0	32676	32606	32699	32850	32813	32658	32572	32589	
384	0	32629	32579	32785	32669	32791	32789	32726	32683	
385	0	32658	32607	32775	32575	32771	32793	32719	32587	
386	0	32751	32590	32763	32663	32684	32727	32647	32628	
387	0	32716	32701	32751	32594	32852	32859	32711	32635	
388	0	32743	32495	32735	32606	32743	32679	32683	32640	
389	0	32820	32574	32811	32683	32695	32607	32685	32757	
390	0	32762	32771	32855	32713	32750	32786	32711	32710	
391	0	32782	32718	32791	32647	32525	32727	32735	32687	
392	0	32742	32738	32775	32743	32797	32863	32711	32557	
393	0	32718	32717	32731	32743	32719	32700	32655	32643	
394	0	32738	32631	32691	32758	32647	32612	32711	32745	
395	0	32736	32611	32730	32739	32861	32717	32711	32646	
396	0	32708	32726	32703	32575	32775	32743	32699	32583	
397	0	32730	32773	32775	32685	32647	32701	32751	32559	
398	0	32802	32711	32751	32671	32807	32743	32721	32655	
399	0	32796	32678	32753	32660	32737	32599	32668	32706	
400	0	32701	32775	32689	32732	32567	32614	32787	32665	
401	0	32703	32511	32765	32735	32741	32695	32811	32708	
402	0	32761	32775	32711	32655	32743	32757	32799	32638	
403	0	32791	32687	32695	32740	32700	32603	32699	32663	
404	0	32749	32671	32735	32662	32751	32655	32671	32561	
405	0	32736	32742	32700	32655	32571	32727	32654	32751	
406	0	32751	32475	32748	32786	32929	32751	32613	32775	
407	0	32743	32692	32786	32758	32850	32677	32582	32725	
408	0	32690	32583	32767	32627	32769	32766	32631	32727	
409	0	32656	32671	32767	32719	32789	32811	32639	32674	
410	0	32736	32709	32899	32629	32583	32762	32633	32671	
411	0	32772	32565	32842	32615	32867	32621	32775	32546	
412	0	32726	32643	32751	32599	32807	32765	32701	32645	
413	0	32766	32775	32727	32702	32581	32742	32765	32743	
414	0	32841	32735	32743	32631	32863	32775	32763	32657	
415	0	32823	32771	32757	32743	32721	32639	32835	32687	
416	0	32817	32791	32775	32710	32567	32583	32749	32532	
417	0	32799	32727	32759	32683	32775	32775	32767	32686	
418	0	32800	32791	32709	32815	32731	32679	32771	32671	
419	0	32775	32575	32682	32767	32479	32723	32726	32549	
420	0	32742	32565	32711	32955	32590	32695	32694	32567	
421	0	32756	32637	32645	32895	32671	32557	32767	32771	
422	0	32751	32683	32643	32719	32711	32797	32663	32580	
423	0	32769	32633	32775	32799	32799	32756	32587	32639	
424	0	32653	32702	32736	32814	32799	32826	32676	32551	
425	0	32707	32645	32767	32693	32669	32703	32676	32703	
426	0	32698	32563	32687	32719	32813	32679	32646	32732	
427	0	32708	32511	32789	32599	32847	32873	32663	32583	
428	0	32743	32497	32775	32635	32775	32663	32631	32643	
429	0	32751	32676	32830	32642	32703	32734	32613	32677	
430	0	32756	32754	32901	32549	32847	32796	32775	32519	
431	0	32815	32679	32799	32663	32775	32711	32758	32694	
432	0	32837	32715	32805	32615	32679	32811	32754	32699	
433	0	32823	32695	32739	32526	32799	32684	32738	32556	
434	0	32836	32605	32611	32599	32756	32759	32615	32663	
435	0	32799	32563	32591	32623	32682	32695	32647	32711	
436	0	32734	32647	32634	32663	32773	32810	32771	32621	
437	0	32749	32775	32647	32732	32547	32719	32748	32692	
438	0	32767	32711	32685	32823	32817	32743	32683	32551	
439	0	32707	32748	32701	32783	32698	32730	32702	32659	
440	0	32676	32615	32743	32875	32486	32615	32721	32576	
441	0	32708	32591	32687	32839	32775	32851	32757	32663	
442	0	32686	32723	32791	32695	32740	32751	32676	32748	
443	0	32710	32692	32833	32810	32807	32802	32679	32663	
444	0	32757	32617	32739	32733	32775	32663	32687	32739	
445	0	32740	32607	32803	32727	32711	32839	32733	32709	
446	0	32774	32807	32901	32734	32836	32702	32663	32726	
447	0	32732	32722	32815	32659	32671	32767	32658	32559	
448	0	32772	32635	32759	32595	32653	32626	32703	32671	
449	0	32738	32775	32775	32751	32775	32729	32703	32775	
450	0	32822	32723	32684	32698	32773	32879	32687	32690	
451	0	32786	32543	32718	32562	32815	32839	32731	32687	
452	0	32769	32719	32703	32646	32817	32773	32598	32671	
453	0	32786	32685	32692	32599	32799	32799	32573	32716	
454	0	32749	32590	32579	32674	32820	32781	32734	32749	
455	0	32710	32703	32679	32659	32857	32815	32730	32615	
456	0	32756	32711	32589	32684	32865	32621	32638	32551	
457	0	32749	32519	32647	32621	32873	32861	32766	32573	
458	0	32748	32719	32813	32607	32683	32787	32767	32611	
459	0	32837	32739	32717	32570	32591	32721	32709	32599	
460	0	32804	32604	32827	32687	32535	32621	32711	32669	
461	0	32790	32711	32806	32827	32500	32751	32775	32723	
462	0	32761	32611	32822	32677	32647	32738	32711	32611	
463	0	32768	32679	32791	32647	32719	32627	32733	32623	
464	0	32685	32647	32775	32622	32727	32807	32660	32602	
465	0	32728	32594	32814	32683	32775	32747	32575	32471	
466	0	32696	32683	32763	32727	32959	32775	32692	32738	
467	0	32692	32655	32803	32719	32887	32685	32647	32671	
468	0	32654	32702	32696	32861	32815	32833	32631	32736	
469	0	32673	32583	32783	32813	32727	32775	32615	32663	
470	0	32708	32775	32729	32805	32670	32687	32724	32679	
471	0	32790	32743	32645	32837	32599	32823	32679	32637	
472	0	32709	32623	32669	32754	32607	32802	32783	32576	
473	0	32759	32775	32647	32647	32759	32794	32745	32623	
474	0	32791	32756	32716	32613	32712	32659	32719	32742	
475	0	32856	32695	32719	32711	32719	32733	32815	32617	
476	0	32809	32662	32709	32707	32743	32692	32789	32661	
477	0	32695	32647	32691	32727	32559	32669	32687	32642	
478	0	32739	32703	32687	32834	32551	32628	32743	32647	
479	0	32731	32681	32758	32815	32543	32775	32799	32583	
480	0	32694	32567	32692	32727	32569	32697	32594	32514	
481	0	32647	32530	32762	32687	32810	32835	32671	32543	
482	0	32704	32619	32735	32575	32799	32647	32677	32615	
483	0	32735	32639	32732	32583	32847	32751	32583	32587	
484	0	32741	32554	32791	32687	32829	32835	32703	32627	
485	0	32765	32619	32903	32674	32861	32726	32711	32564	
486	0	32763	32657	32746	32584	32898	32820	32788	32643	
487	0	32803	32615	32821	32463	32796	32647	32695	32711	
488	0	32780	32731	32787	32379	32659	32807	32768	32679	
489	0	32756	32715	32837	32413	32603	32795	32678	32647	
490	0	32801	32638	32713	32583	32759	32745	32597	32711	
491	0	32774	32831	32727	32742	32743	32798	32694	32683	
492	0	32773	32732	32647	32747	32759	32671	32678	32559	
493	0	32647	32606	32587	32732	32815	32789	32661	32562	
494	0	32672	32607	32683	32793	32817	32670	32663	32534	
495	0	32658	32687	32614	32679	32647	32775	32679	32789	
496	0	32712	32714	32599	32736	32607	32805	32671	32783	
497	0	32659	32540	32717	32895	32587	32775	32663	32782	
498	0	32711	32803	32641	32869	32749	32703	32714	32668	
499	0	32726	32807	32757	32881	32757	32691	32735	32709	
500	0	32719	32719	32721	32951	32621	32789	32743	32623	
501	0	32764	32749	32705	32783	32830	32791	32775	32705	
502	0	32754	32547	32791	32871	32747	32747	32622	32590	
503	0	32766	32730	32713	32854	32663	32659	32673	32655	
504	0	32761	32647	32793	32734	32807	32771	32727	32607	
505	0	32740	32799	32823	32821	32742	32660	32799	32703	
506	0	32777	32795	32791	32813	32575	32735	32703	32668	
507	0	32801	32638	32807	32623	32807	32553	32647	32502	
508	0	32780	32564	32820	32715	32692	32570	32751	32679	
509	0	32796	32615	32735	32721	32559	32810	32750	32697	
510	0	32743	32689	32757	32570	32862	32679	32687	32591	
511	0	32628	32610	32795	32759	32814	32807	32595	32645	
512	0	32677	32673	32811	32790	32645	32658	32583	32743	
513	0	32712	32690	32759	32629	32894	32758	32706	32674	
514	0	32713	32550	32731	32775	32769	32769	32647	32612	
515	0	32751	32583	32740	32717	32640	32790	32679	32527	
516	0	32766	32733	32759	32631	32843	32727	32701	32643	
517	0	32747	32659	32799	32754	32721	32759	32751	32429	
518	0	32762	32647	32850	32767	32739	32775	32767	32713	
519	0	32729	32607	32694	32841	32666	32683	32631	32711	
520	0	32740	32771	32693	32685	32698	32767	32683	32705	
521	0	32705	32708	32716	32607	32815	32831	32717	32635	
522	0	32698	32634	32727	32691	32687	32646	32612	32711	
523	0	32733	32686	32679	32658	32767	32775	32723	32642	
524	0	32666	32695	32630	32647	32643	32836	32661	32743	
525	0	32710	32619	32631	32523	32887	32691	32738	32607	
526	0	32724	32715	32715	32566	32811	32756	32679	32671	
527	0	32789	32486	32819	32615	32915	32755	32749	32571	
528	0	32807	32663	32915	32511	32807	32807	32799	32695	
529	0	32741	32695	32866	32685	32595	32607	32807	32543	
530	0	32738	32709	32871	32714	32803	32671	32803	32684	
531	0	32826	32719	32730	32599	32739	32727	32703	32733	
532	0	32773	32790	32733	32743	32524	32731	32647	32555	
533	0	32749	32611	32625	32819	32790	32810	32743	32637	
534	0	32786	32517	32626	32689	32820	32679	32735	32723	
535	0	32669	32677	32591	32859	32635	32735	32741	32647	
536	0	32665	32641	32619	32713	32771	32645	32647	32671	
537	0	32676	32647	32655	32631	32583	32719	32663	32580	
538	0	32716	32679	32644	32738	32695	32803	32621	32681	
539	0	32742	32679	32647	32666	32859	32667	32699	32671	
540	0	32740	32587	32815	32647	32799	32823	32727	32604	
541	0	32712	32511	32724	32703	32687	32719	32679	32683	
542	0	32730	32703	32739	32724	32770	32795	32661	32762	
543	0	32735	32771	32719	32695	32813	32685	32655	32583	
544	0	32807	32807	32719	32687	32541	32609	32667	32615	
545	0	32823	32699	32662	32703	32821	32798	32775	32647	
546	0	32796	32734	32623	32773	32759	32799	32839	32703	
547	0	32775	32771	32738	32743	32697	32713	32805	32605	
548	0	32729	32707	32787	32775	32571	32751	32725	32567	
549	0	32717	32658	32763	32823	32811	32639	32716	32662	
550	0	32721	32515	32763	32679	32767	32734	32623	32607	
551	0	32676	32466	32687	32830	32643	32887	32585	32527	
552	0	32674	32533	32678	32643	32815	32751	32708	32679	
553	0	32797	32711	32701	32591	32783	32823	32647	32630	
554	0	32775	32645	32769	32679	32812	32799	32655	32545	
555	0	32786	32647	32913	32537	32741	32605	32677	32727	
556	0	32775	32719	32919	32627	32783	32694	32631	32668	
557	0	32819	32807	32827	32683	32771	32737	32668	32503	
558	0	32841	32713	32813	32591	32519	32771	32823	32683	
559	0	32857	32638	32807	32735	32775	32764	32786	32723	
560	0	32862	32723	32724	32743	32734	32791	32755	32591	
561	0	32753	32767	32797	32647	32783	32661	32835	32629	
562	0	32721	32637	32733	32831	32621	32771	32662	32610	
563	0	32775	32605	32791	32775	32843	32795	32581	32589	
564	0	32703	32671	32687	32531	32783	32828	32643	32647	
565	0	32738	32601	32724	32703	32775	32815	32647	32586	
566	0	32731	32477	32855	32693	32787	32679	32617	32692	
567	0	32743	32646	32820	32582	32811	32863	32594	32721	
568	0	32763	32675	32827	32607	32787	32799	32687	32557	
569	0	32717	32599	32839	32725	32596	32739	32783	32775	
570	0	32738	32679	32829	32631	32807	32735	32759	32647	
571	0	32784	32727	32734	32807	32745	32615	32751	32599	
572	0	32807	32811	32715	32709	32726	32725	32751	32434	
573	0	32763	32831	32627	32803	32742	32799	32767	32647	
574	0	32742	32799	32662	32890	32553	32731	32773	32714	
575	0	32719	32615	32705	32677	32903	32771	32681	32557	
576	0	32647	32502	32641	32743	32762	32735	32647	32673	
577	0	32711	32547	32677	32625	32735	32615	32623	32615	
578	0	32663	32639	32671	32586	32662	32839	32678	32589	
579	0	32780	32685	32703	32655	32943	32813	32733	32707	
580	0	32715	32559	32783	32663	32739	32743	32671	32690	
581	0	32718	32701	32838	32575	32564	32749	32731	32581	
582	0	32815	32743	32737	32647	32874	32602	32687	32691	
583	0	32832	32647	32753	32590	32703	32613	32691	32647	
584	0	32802	32533	32759	32703	32725	32734	32721	32535	
585	0	32759	32703	32739	32807	32655	32675	32709	32675	
586	0	32733	32765	32817	32775	32831	32794	32695	32759	
587	0	32740	32763	32743	32811	32767	32783	32706	32647	
588	0	32699	32663	32713	32815	32570	32695	32710	32667	
589	0	32710	32703	32782	32671	32791	32834	32690	32519	
590	0	32736	32571	32762	32783	32839	32763	32791	32697	
591	0	32725	32551	32769	32815	32775	32760	32739	32679	
592	0	32711	32734	32657	32620	32726	32625	32806	32711	
593	0	32711	32689	32583	32621	32749	32791	32701	32587	
594	0	32707	32762	32643	32708	32605	32763	32759	32679	
595	0	32718	32622	32730	32639	32797	32775	32729	32647	
596	0	32732	32559	32759	32559	32735	32679	32740	32490	
597	0	32768	32667	32759	32707	32702	32775	32662	32711	
598	0	32775	32647	32738	32743	32505	32775	32666	32691	
599	0	32743	32711	32765	32750	32647	32847	32726	32543	
600	0	32804	32759	32748	32831	32687	32679	32797	32623	
601	0	32709	32723	32742	32707	32626	32731	32715	32591	
602	0	32708	32597	32815	32787	32551	32759	32655	32775	
603	0	32707	32647	32839	32711	32766	32605	32599	32729	
604	0	32724	32537	32803	32615	32767	32807	32687	32722	
605	0	32658	32535	32803	32679	32647	32775	32763	32519	
606	0	32615	32486	32742	32727	32843	32762	32707	32719	
607	0	32678	32551	32663	32631	32839	32773	32667	32727	
608	0	32781	32623	32717	32703	32807	32741	32647	32551	
609	0	32729	32743	32762	32527	32684	32692	32605	32647	
610	0	32764	32733	32741	32563	32895	32791	32645	32683	
611	0	32742	32743	32676	32627	32796	32738	32695	32567	
612	0	32783	32767	32647	32663	32681	32809	32740	32715	
613	0	32796	32743	32673	32742	32859	32820	32711	32709	
614	0	32754	32591	32703	32703	32765	32647	32663	32567	
615	0	32774	32725	32750	32647	32621	32801	32715	32586	
616	0	32795	32766	32769	32717	32731	32783	32730	32564	
617	0	32812	32675	32687	32726	32503	32811	32769	32669	
618	0	32774	32743	32663	32723	32821	32647	32684	32679	
619	0	32741	32643	32740	32663	32771	32804	32701	32579	
620	0	32743	32487	32821	32743	32587	32679	32733	32611	
621	0	32731	32623	32788	32822	32806	32762	32775	32535	
622	0	32762	32599	32751	32747	32531	32677	32731	32667	
623	0	32749	32701	32775	32670	32795	32767	32633	32574	
624	0	32724	32675	32823	32737	32823	32887	32701	32659	
625	0	32743	32741	32802	32717	32579	32742	32621	32794	
626	0	32764	32561	32692	32607	32871	32739	32623	32671	
627	0	32758	32748	32709	32719	32767	32711	32631	32717	
628	0	32850	32757	32852	32694	32687	32773	32726	32707	
629	0	32775	32789	32679	32647	32751	32793	32733	32716	
630	0	32763	32775	32647	32687	32733	32829	32753	32493	
631	0	32762	32807	32647	32727	32613	32842	32631	32615	
632	0	32706	32567	32626	32683	32874	32607	32647	32751	
633	0	32739	32610	32677	32747	32740	32770	32785	32639	
634	0	32771	32647	32735	32718	32594	32747	32678	32615	
635	0	32748	32693	32798	32623	32862	32720	32725	32601	
636	0	32775	32663	32833	32687	32791	32743	32694	32510	
637	0	32748	32662	32775	32596	32565	32767	32627	32630	
638	0	32756	32717	32775	32615	32831	32575	32695	32743	
639	0	32824	32774	32877	32687	32773	32787	32710	32677	
640	0	32738	32535	32861	32782	32538	32730	32745	32763	
641	0	32738	32583	32735	32647	32775	32839	32683	32695	
642	0	32719	32709	32727	32773	32733	32663	32614	32663	
643	0	32687	32719	32629	32759	32549	32686	32726	32830	
644	0	32683	32711	32644	32803	32653	32709	32716	32551	
645	0	32692	32615	32706	32711	32823	32819	32707	32791	
646	0	32662	32695	32647	32647	32758	32822	32695	32699	
647	0	32681	32743	32639	32791	32667	32775	32679	32662	
648	0	32738	32695	32719	32699	32837	32775	32679	32615	
649	0	32756	32655	32805	32621	32723	32823	32695	32757	
650	0	32799	32547	32719	32635	32599	32671	32727	32507	
651	0	32775	32683	32775	32687	32873	32763	32711	32609	
652	0	32809	32749	32797	32619	32809	32679	32687	32710	
653	0	32800	32701	32753	32714	32647	32751	32643	32590	
654	0	32775	32631	32736	32700	32761	32807	32631	32694	
655	0	32769	32671	32647	32695	32815	32798	32663	32713	
656	0	32780	32677	32667	32773	32759	32646	32746	32471	
657	0	32771	32711	32701	32671	32609	32770	32711	32662	
658	0	32726	32543	32679	32770	32859	32855	32687	32771	
659	0	32751	32564	32740	32789	32807	32762	32677	32679	
660	0	32751	32666	32741	32671	32591	32786	32661	32621	
661	0	32719	32739	32839	32733	32743	32749	32775	32773	
662	0	32758	32751	32802	32703	32711	32663	32823	32635	
663	0	32749	32747	32751	32655	32547	32687	32790	32609	
664	0	32728	32788	32807	32791	32767	32688	32713	32607	
665	0	32745	32590	32781	32822	32704	32691	32668	32685	
666	0	32775	32623	32754	32703	32562	32722	32767	32685	
667	0	32720	32731	32751	32791	32813	32659	32723	32548	
668	0	32745	32599	32835	32689	32755	32795	32730	32626	
669	0	32716	32615	32775	32589	32612	32698	32594	32551	
670	0	32709	32694	32749	32626	32828	32756	32565	32660	
671	0	32748	32578	32697	32751	32807	32834	32683	32747	
672	0	32782	32495	32740	32633	32647	32655	32671	32580	
673	0	32775	32509	32819	32527	32827	32684	32692	32674	
674	0	32786	32726	32819	32604	32613	32841	32670	32525	
675	0	32799	32741	32699	32697	32915	32775	32718	32667	
676	0	32793	32770	32623	32566	32805	32771	32775	32599	
677	0	32762	32860	32679	32663	32567	32667	32793	32767	
678	0	32775	32703	32759	32607	32739	32647	32823	32621	
679	0	32711	32532	32692	32591	32647	32759	32741	32711	
680	0	32691	32605	32674	32722	32467	32743	32671	32621	
681	0	32635	32666	32596	32774	32695	32750	32615	32607	
682	0	32647	32714	32533	32695	32835	32803	32708	32559	
683	0	32662	32574	32702	32644	32782	32658	32695	32675	
684	0	32695	32647	32743	32647	32733	32823	32677	32681	
685	0	32708	32738	32739	32695	32797	32751	32619	32492	
686	0	32745	32775	32735	32803	32839	32775	32583	32655	
687	0	32762	32637	32707	32636	32593	32775	32643	32735	
688	0	32762	32643	32771	32749	32773	32791	32758	32507	
689	0	32829	32583	32838	32727	32773	32673	32732	32646	
690	0	32775	32679	32865	32711	32588	32735	32718	32676	
691	0	32850	32719	32772	32671	32809	32807	32693	32634	
692	0	32826	32669	32763	32765	32759	32797	32695	32692	
693	0	32716	32767	32726	32791	32707	32763	32757	32530	
694	0	32757	32719	32753	32732	32627	32583	32726	32743	
695	0	32773	32565	32767	32796	32763	32734	32743	32775	
696	0	32715	32535	32797	32677	32647	32839	32723	32581	
697	0	32742	32615	32727	32829	32551	32743	32677	32645	
698	0	32829	32679	32633	32771	32727	32766	32773	32455	
699	0	32749	32647	32715	32834	32761	32595	32647	32679	
700	0	32765	32659	32759	32713	32628	32783	32707	32695	
701	0	32667	32693	32815	32792	32879	32670	32614	32579	
702	0	32772	32487	32775	32855	32807	32804	32617	32661	
703	0	32788	32567	32772	32619	32635	32807	32677	32727	
704	0	32775	32583	32707	32707	32814	32683	32713	32614	
705	0	32782	32631	32673	32610	32751	32801	32761	32698	
706	0	32816	32739	32702	32627	32589	32724	32695	32599	
707	0	32773	32687	32759	32615	32829	32858	32727	32742	
708	0	32799	32833	32755	32762	32748	32690	32765	32551	
709	0	32756	32679	32775	32647	32628	32751	32751	32668	
710	0	32743	32615	32711	32763	32679	32773	32775	32643	
711	0	32745	32498	32637	32703	32799	32697	32759	32527	
712	0	32701	32563	32723	32743	32759	32723	32567	32609	
713	0	32747	32690	32896	32806	32567	32807	32639	32658	
714	0	32700	32663	32933	32758	32799	32647	32775	32807	
715	0	32710	32679	32892	32783	32727	32647	32748	32775	
716	0	32724	32625	32795	32563	32587	32879	32775	32823	
717	0	32692	32619	32730	32607	32821	32743	32706	32638	
718	0	32711	32546	32679	32551	32815	32758	32687	32703	
719	0	32752	32527	32599	32558	32791	32775	32612	32662	
720	0	32743	32475	32611	32621	32677	32629	32669	32613	
721	0	32749	32599	32663	32583	32878	32763	32655	32671	
722	0	32727	32700	32639	32635	32799	32827	32690	32513	
723	0	32763	32683	32615	32523	32572	32747	32683	32677	
724	0	32775	32739	32628	32679	32882	32814	32692	32647	
725	0	32793	32803	32687	32576	32775	32689	32725	32555	
726	0	32758	32683	32819	32724	32587	32819	32704	32679	
727	0	32745	32531	32775	32659	32782	32719	32662	32738	
728	0	32788	32543	32759	32706	32695	32751	32598	32542	
729	0	32735	32623	32691	32679	32711	32831	32690	32645	
730	0	32759	32751	32697	32732	32732	32839	32775	32583	
731	0	32651	32693	32722	32691	32799	32754	32727	32739	
732	0	32661	32759	32644	32819	32555	32796	32683	32735	
733	0	32687	32655	32711	32755	32860	32647	32647	32613	
734	0	32737	32635	32832	32797	32759	32717	32773	32671	
735	0	32734	32735	32927	32711	32696	32751	32743	32605	
736	0	32742	32820	32932	32837	32834	32662	32775	32588	
737	0	32756	32824	32921	32811	32719	32679	32723	32493	
738	0	32797	32703	32886	32802	32563	32642	32695	32642	
739	0	32750	32717	32845	32823	32759	32687	32719	32623	
740	0	32695	32575	32789	32861	32711	32667	32719	32696	
741	0	32706	32623	32825	32695	32631	32685	32663	32754	
742	0	32748	32743	32738	32773	32731	32831	32671	32714	
743	0	32726	32611	32715	32661	32621	32711	32748	32737	
744	0	32727	32671	32717	32655	32897	32799	32722	32640	
745	0	32760	32687	32730	32567	32793	32749	32828	32710	
746	0	32711	32555	32682	32627	32663	32742	32751	32556	
747	0	32733	32573	32642	32563	32918	32719	32759	32708	
748	0	32806	32755	32572	32606	32827	32829	32735	32647	
749	0	32736	32675	32559	32647	32579	32807	32803	32711	
750	0	32751	32705	32633	32666	32863	32671	32675	32791	
751	0	32825	32639	32574	32527	32769	32795	32711	32663	
752	0	32793	32543	32551	32631	32830	32815	32698	32731	
753	0	32804	32714	32617	32615	32703	32655	32647	32631	
754	0	32798	32743	32734	32695	32679	32700	32695	32725	
755	0	32775	32599	32719	32807	32731	32623	32668	32619	
756	0	32817	32743	32820	32681	32585	32805	32622	32603	
757	0	32756	32739	32727	32725	32843	32799	32655	32495	
758	0	32761	32711	32807	32731	32741	32793	32719	32635	
759	0	32682	32751	32773	32837	32545	32638	32763	32647	
760	0	32739	32644	32767	32804	32793	32783	32762	32611	
761	0	32767	32646	32831	32869	32731	32725	32647	32659	
762	0	32785	32727	32736	32694	32799	32663	32767	32549	
763	0	32699	32719	32735	32763	32775	32707	32736	32709	
764	0	32740	32615	32845	32741	32669	32811	32707	32605	
765	0	32735	32546	32813	32630	32786	32727	32626	32711	
766	0	32728	32671	32751	32727	32571	32719	32663	32795	
767	0	32746	32607	32858	32596	32885	32751	32717	32694	
768	0	32727	32759	32890	32669	32737	32734	32645	32703	
769	0	32771	32539	32788	32669	32751	32749	32708	32679	
770	0	32729	32679	32787	32734	32763	32623	32711	32699	
771	0	32729	32748	32743	32647	32558	32747	32703	32543	
772	0	32748	32719	32866	32749	32847	32747	32641	32647	
773	0	32775	32767	32763	32806	32751	32621	32747	32535	
774	0	32773	32687	32671	32725	32784	32711	32759	32557	
775	0	32692	32723	32693	32727	32754	32791	32683	32607	
776	0	32748	32735	32692	32539	32621	32675	32690	32711	
777	0	32780	32487	32731	32674	32867	32775	32718	32692	
778	0	32751	32647	32683	32623	32735	32775	32772	32580	
779	0	32687	32661	32679	32717	32621	32671	32619	32690	
780	0	32730	32627	32707	32647	32827	32787	32598	32663	
781	0	32750	32631	32773	32749	32867	32759	32659	32647	
782	0	32639	32614	32775	32607	32729	32783	32743	32660	
783	0	32740	32567	32727	32679	32895	32647	32724	32610	
784	0	32808	32533	32677	32589	32775	32789	32687	32647	
785	0	32769	32743	32694	32605	32707	32647	32695	32692	
786	0	32818	32703	32819	32647	32765	32796	32725	32579	
787	0	32831	32767	32847	32621	32753	32691	32695	32775	
788	0	32709	32686	32799	32762	32623	32807	32757	32855	
789	0	32737	32615	32741	32679	32853	32722	32636	32711	
790	0	32775	32683	32694	32738	32751	32759	32615	32683	
791	0	32741	32767	32647	32647	32632	32595	32773	32607	
792	0	32711	32619	32691	32717	32811	32845	32707	32687	
793	0	32671	32681	32767	32667	32743	32813	32690	32735	
794	0	32740	32619	32799	32717	32705	32655	32660	32594	
795	0	32774	32507	32715	32578	32743	32775	32663	32647	
796	0	32682	32711	32734	32679	32617	32823	32764	32539	
797	0	32679	32674	32751	32660	32806	32575	32754	32679	
798	0	32742	32783	32719	32730	32587	32799	32611	32510	
799	0	32708	32519	32530	32690	32797	32806	32719	32623	
800	0	32741	32647	32665	32815	32719	32627	32775	32538	
801	0	32749	32749	32694	32791	32679	32791	32763	32655	
802	0	32796	32727	32707	32871	32722	32749	32678	32735	
803	0	32721	32683	32759	32675	32863	32738	32669	32575	
804	0	32731	32735	32727	32767	32751	32775	32691	32719	
805	0	32740	32543	32755	32631	32675	32756	32743	32519	
806	0	32775	32452	32772	32731	32831	32717	32727	32711	
807	0	32699	32711	32877	32679	32767	32631	32623	32733	
808	0	32754	32609	32902	32759	32767	32804	32750	32619	
809	0	32775	32711	32885	32635	32717	32791	32719	32699	
810	0	32775	32559	32723	32685	32573	32603	32827	32725	
811	0	32726	32679	32758	32631	32849	32877	32647	32767	
812	0	32732	32743	32859	32687	32735	32775	32775	32789	
813	0	32729	32647	32818	32597	32583	32750	32723	32707	
814	0	32750	32591	32738	32709	32690	32733	32715	32669	
815	0	32735	32692	32741	32549	32770	32747	32659	32759	
816	0	32780	32669	32715	32594	32775	32827	32623	32559	
817	0	32727	32534	32708	32659	32665	32708	32607	32620	
818	0	32704	32507	32683	32559	32831	32859	32727	32601	
819	0	32751	32642	32711	32727	32751	32802	32691	32711	
820	0	32738	32759	32645	32635	32687	32727	32795	32695	
821	0	32772	32733	32601	32694	32699	32735	32672	32711	
822	0	32816	32802	32690	32578	32687	32715	32685	32775	
823	0	32842	32860	32755	32735	32502	32742	32763	32540	
824	0	32789	32715	32787	32634	32775	32631	32758	32642	
825	0	32795	32583	32773	32727	32763	32663	32761	32711	
826	0	32765	32519	32715	32737	32671	32805	32751	32519	
827	0	32700	32767	32671	32719	32689	32807	32611	32644	
828	0	32739	32687	32711	32751	32875	32839	32687	32531	
829	0	32743	32639	32679	32659	32823	32643	32679	32727	
830	0	32718	32631	32743	32695	32684	32783	32698	32695	
831	0	32707	32609	32725	32562	32983	32759	32597	32489	
832	0	32716	32529	32799	32671	32799	32743	32588	32655	
833	0	32749	32589	32795	32563	32655	32647	32705	32619	
834	0	32755	32638	32767	32629	32759	32858	32745	32702	
835	0	32763	32751	32791	32647	32583	32711	32647	32589	
836	0	32736	32563	32831	32797	32821	32643	32727	32699	
837	0	32751	32615	32823	32703	32775	32743	32751	32695	
838	0	32744	32795	32742	32735	32703	32775	32701	32507	
839	0	32799	32754	32799	32735	32593	32743	32809	32661	
840	0	32746	32723	32767	32802	32743	32730	32679	32791	
841	0	32797	32637	32799	32694	32758	32587	32769	32703	
842	0	32748	32561	32767	32787	32643	32725	32711	32602	
843	0	32742	32549	32730	32663	32834	32735	32719	32727	
844	0	32775	32707	32676	32765	32724	32783	32591	32770	
845	0	32714	32647	32711	32685	32743	32647	32731	32775	
846	0	32767	32754	32815	32739	32764	32758	32813	32709	
847	0	32814	32567	32711	32626	32563	32775	32791	32726	
848	0	32725	32531	32706	32748	32879	32765	32669	32563	
849	0	32768	32759	32676	32721	32839	32791	32775	32708	
850	0	32706	32717	32801	32805	32690	32738	32693	32797	
851	0	32694	32679	32677	32719	32775	32751	32661	32663	
852	0	32739	32669	32647	32772	32659	32725	32715	32602	
853	0	32759	32748	32818	32686	32823	32711	32685	32630	
854	0	32757	32695	32795	32555	32731	32791	32804	32711	
855	0	32730	32685	32773	32598	32607	32783	32735	32631	
856	0	32718	32660	32757	32684	32819	32684	32687	32638	
857	0	32763	32543	32669	32715	32767	32810	32732	32642	
858	0	32696	32707	32679	32819	32583	32804	32716	32642	
859	0	32690	32685	32625	32700	32775	32775	32686	32695	
860	0	32671	32636	32706	32719	32735	32636	32676	32569	
861	0	32709	32761	32711	32595	32547	32815	32694	32674	
862	0	32708	32743	32732	32759	32719	32679	32755	32615	
863	0	32734	32747	32739	32775	32767	32731	32707	32511	
864	0	32762	32575	32771	32687	32749	32719	32767	32647	
865	0	32760	32625	32795	32731	32771	32719	32617	32790	
866	0	32778	32695	32775	32743	32759	32685	32658	32637	
867	0	32759	32642	32739	32799	32544	32701	32729	32647	
868	0	32773	32743	32687	32699	32799	32603	32711	32503	
869	0	32727	32757	32810	32740	32713	32711	32795	32669	
870	0	32740	32599	32773	32679	32534	32775	32661	32753	
871	0	32768	32613	32849	32747	32823	32795	32717	32709	
872	0	32726	32695	32799	32587	32748	32799	32770	32669	
873	0	32768	32658	32743	32647	32617	32711	32701	32580	
874	0	32823	32695	32788	32639	32815	32799	32735	32695	
875	0	32775	32719	32770	32569	32787	32799	32679	32645	
876	0	32775	32719	32727	32613	32617	32763	32621	32623	
877	0	32745	32525	32705	32687	32919	32759	32685	32669	
878	0	32684	32749	32731	32623	32767	32723	32701	32575	
879	0	32742	32679	32786	32719	32631	32790	32785	32639	
880	0	32806	32683	32743	32582	32773	32613	32743	32723	
881	0	32773	32684	32765	32669	32715	32791	32731	32663	
882	0	32743	32516	32759	32647	32799	32817	32715	32748	
883	0	32722	32679	32789	32767	32731	32623	32679	32707	
884	0	32713	32731	32726	32677	32690	32791	32703	32707	
885	0	32719	32719	32739	32709	32745	32718	32727	32689	
886	0	32687	32551	32669	32729	32847	32831	32725	32691	
887	0	32745	32711	32765	32611	32819	32839	32699	32485	
888	0	32775	32658	32669	32711	32795	32735	32769	32639	
889	0	32762	32758	32639	32626	32679	32679	32723	32527	
890	0	32771	32643	32717	32793	32815	32751	32724	32693	
891	0	32756	32487	32786	32775	32775	32694	32827	32718	
892	0	32750	32787	32815	32771	32639	32805	32700	32583	
893	0	32655	32827	32711	32825	32875	32655	32703	32694	
894	0	32710	32773	32781	32647	32751	32587	32754	32685	
895	0	32725	32751	32743	32775	32519	32798	32775	32679	
896	0	32686	32734	32724	32839	32598	32695	32799	32543	
897	0	32789	32690	32751	32757	32834	32740	32735	32643	
898	0	32783	32731	32700	32763	32734	32789	32765	32739	
899	0	32724	32582	32711	32583	32599	32676	32637	32661	
900	0	32764	32519	32787	32727	32863	32739	32567	32660	
901	0	32718	32449	32799	32707	32749	32796	32663	32643	
902	0	32745	32647	32799	32635	32735	32710	32711	32690	
903	0	32772	32727	32742	32692	32667	32868	32787	32707	
904	0	32736	32683	32813	32678	32850	32787	32759	32751	
905	0	32756	32687	32799	32663	32783	32642	32710	32769	
906	0	32775	32775	32716	32691	32743	32871	32743	32558	
907	0	32772	32901	32647	32717	32660	32795	32706	32623	
908	0	32751	32629	32631	32775	32683	32783	32765	32587	
909	0	32757	32762	32706	32751	32509	32771	32811	32635	
910	0	32820	32759	32685	32803	32789	32692	32694	32697	
911	0	32769	32773	32715	32751	32675	32762	32789	32695	
912	0	32825	32831	32703	32863	32491	32607	32695	32647	
913	0	32807	32717	32710	32718	32733	32727	32665	32459	
914	0	32807	32587	32715	32810	32699	32747	32767	32634	
915	0	32808	32671	32767	32839	32727	32687	32767	32643	
916	0	32864	32711	32803	32703	32679	32670	32788	32485	
917	0	32772	32710	32761	32669	32786	32772	32740	32565	
918	0	32847	32559	32758	32611	32556	32641	32815	32429	
919	0	32815	32559	32851	32675	32813	32737	32819	32590	
920	0	32846	32786	32941	32517	32701	32546	32794	32537	
921	0	32879	32733	32903	32579	32551	32566	32855	32411	
922	0	32831	32677	32845	32491	32765	32727	32743	32512	
923	0	32811	32695	32725	32583	32735	32723	32695	32541	
924	0	32756	32700	32809	32562	32551	32757	32766	32593	
925	0	32846	32451	32834	32675	32791	32754	32763	32623	
926	0	32812	32581	32775	32527	32717	32559	32793	32627	
927	0	32871	32643	32758	32535	32601	32567	32635	32553	
928	0	32793	32605	32946	32510	32846	32636	32692	32386	
929	0	32859	32655	32903	32657	32759	32623	32676	32527	
930	0	32876	32519	32991	32629	32593	32607	32695	32383	
931	0	32853	32425	32946	32605	32901	32733	32601	32588	
932	0	32775	32611	33015	32645	32775	32729	32491	32591	
933	0	32756	32633	32983	32679	32637	32727	32561	32685	
934	0	32721	32570	32839	32673	32875	32647	32647	32699	
935	0	32734	32587	32815	32578	32835	32729	32610	32583	
936	0	32666	32583	32747	32589	32669	32817	32583	32726	
937	0	32615	32341	32749	32499	32850	32724	32598	32785	
938	0	32587	32367	32732	32541	32849	32917	32457	32843	
939	0	32601	32541	32645	32457	32695	32807	32556	32939	
940	0	32553	32493	32607	32571	33043	32791	32583	32871	
941	0	32541	32629	32748	32535	32875	32925	32493	32921	
942	0	32509	32415	32658	32607	32854	32855	32539	32853	
943	0	32550	32627	32567	32647	32862	32895	32531	32919	
944	0	32508	32592	32475	32743	32660	32914	32599	32941	
945	0	32507	32773	32391	32769	32866	32893	32571	32925	
946	0	32391	32687	32299	32892	32796	32805	32607	32861	
947	0	32361	32695	32313	32933	32646	32925	32617	32991	
948	0	32348	32801	32295	33099	32807	33006	32735	32999	
949	0	32319	32847	32311	33195	32583	32839	32519	33119	
950	0	32249	32725	32319	33186	32915	33096	32575	33117	
951	0	32140	32636	32311	33213	32865	33115	32499	33223	
952	0	32167	32643	32343	33303	32807	33135	32489	33201	
953	0	32212	32858	32367	33215	32956	33236	32385	33431	
954	0	32330	32867	32434	33258	32940	33079	32415	33330	
955	0	32463	32791	32511	33106	32698	32967	32530	33095	
956	0	32629	32847	32610	33031	32751	32965	32658	32918	
957	0	32780	32817	32759	32903	32771	32855	32699	32887	
958	0	32927	32541	32775	32645	32519	32813	32801	32706	
959	0	33015	32551	32799	32555	32751	32598	32751	32638	
960	0	33071	32693	32815	32452	32681	32627	32807	32415	
961	0	33031	32635	32959	32471	32719	32686	32902	32445	
962	0	33086	32723	32892	32415	32677	32669	32893	32423	
963	0	33012	32683	32863	32543	32659	32671	32877	32511	
964	0	32972	32647	32823	32500	32663	32519	32847	32443	
965	0	33033	32527	32878	32596	32565	32631	32903	32347	
966	0	33042	32730	32901	32468	32587	32550	32885	32417	
967	0	33044	32711	32900	32676	32407	32621	32948	32309	
968	0	33042	32751	32951	32599	32631	32401	32855	32421	
969	0	32998	32811	32989	32837	32691	32531	32861	32438	
970	0	32966	32663	32959	32706	32667	32727	32874	32379	
971	0	32896	32615	32877	32813	32524	32659	32929	32431	
972	0	32899	32749	32863	32740	32823	32691	32900	32487	
973	0	32908	32749	32823	32743	32758	32675	32889	32415	
974	0	32895	32824	32827	32766	32726	32553	32977	32357	
975	0	32903	32815	32839	32758	32513	32549	32834	32527	
976	0	32935	32821	32919	32623	32821	32679	32804	32531	
977	0	32944	32827	32877	32607	32677	32583	32889	32495	
978	0	32935	32615	32775	32567	32541	32647	32839	32375	
979	0	32953	32727	32767	32647	32719	32519	32898	32546	
980	0	32895	32757	32769	32582	32691	32677	32801	32457	
981	0	32912	32855	32701	32487	32711	32732	32839	32517	
982	0	32945	32695	32788	32612	32743	32731	32818	32558	
983	0	32903	32671	32895	32573	32647	32599	32731	32575	
984	0	32885	32767	32835	32679	32684	32706	32707	32596	
985	0	32834	32707	32783	32551	32774	32711	32701	32539	
986	0	32814	32727	32847	32631	32565	32767	32699	32565	
987	0	32804	32591	32851	32673	32887	32548	32739	32471	
988	0	32815	32671	32759	32615	32755	32723	32615	32636	
989	0	32793	32762	32757	32647	32549	32671	32741	32698	
990	0	32782	32693	32799	32661	32855	32795	32709	32519	
991	0	32767	32790	32831	32823	32807	32679	32699	32543	
992	0	32736	32743	32836	32727	32555	32631	32655	32715	
993	0	32735	32539	32815	32797	32859	32788	32623	32630	
994	0	32729	32683	32775	32756	32763	32767	32727	32647	
995	0	32807	32671	32861	32829	32675	32772	32702	32605	
996	0	32733	32740	32775	32713	32803	32637	32739	32742	
997	0	32719	32803	32663	32674	32775	32759	32662	32709	
998	0	32678	32725	32654	32647	32581	32771	32639	32585	
999	0	32671	32495	32684	32591	32879	32775	32663	32670	
1000	0	32710	32683	32702	32605	32807	32707	32647	32699	
1001	0	32718	32690	32679	32542	32608	32713	32663	32615	
1002	0	32718	32620	32639	32645	32818	32853	32709	32629	
1003	0	32751	32724	32626	32593	32823	32770	32663	32561	
1004	0	32751	32538	32647	32698	32562	32798	32695	32663	
1005	0	32718	32611	32647	32811	32763	32641	32687	32745	
1006	0	32691	32775	32655	32727	32788	32758	32750	32519	
1007	0	32729	32676	32621	32775	32607	32789	32759	32726	
1008	0	32672	32679	32671	32643	32699	32775	32686	32751	
1009	0	32713	32735	32660	32767	32846	32799	32571	32646	
1010	0	32679	32583	32701	32738	32791	32673	32643	32775	
1011	0	32674	32601	32704	32709	32623	32723	32647	32765	
1012	0	32689	32662	32762	32714	32783	32737	32719	32735	
1013	0	32745	32671	32795	32799	32720	32783	32707	32708	
1014	0	32719	32530	32775	32669	32815	32647	32719	32543	
1015	0	32666	32620	32723	32756	32775	32799	32677	32735	
1016	0	32719	32642	32767	32694	32647	32802	32759	32737	
1017	0	32692	32671	32827	32804	32841	32791	32641	32595	
1018	0	32718	32748	32804	32745	32795	32711	32671	32733	
1019	0	32694	32727	32823	32735	32587	32810	32692	32803	
1020	0	32751	32564	32748	32723	32756	32691	32743	32615	
1021	0	32775	32485	32754	32615	32775	32747	32741	32723	
1022	0	32778	32503	32743	32756	32791	32669	32727	32767	
1023	0	32764	32565	32743	32700	32561	32659	32708	32615	
1024	0	32769	32655	32799	32628	32833	32799	32629	32683	
1025	0	32767	32681	32713	32695	32749	32810	32757	32543	
1026	0	32810	32621	32647	32679	32655	32641	32775	32715	
1027	0	32694	32591	32775	32711	32841	32863	32694	32658	
1028	0	32753	32695	32758	32665	32727	32758	32671	32542	
1029	0	32692	32683	32711	32677	32766	32775	32755	32645	
1030	0	32674	32759	32690	32718	32799	32647	32662	32531	
1031	0	32698	32583	32763	32663	32615	32757	32647	32617	
1032	0	32714	32691	32709	32747	32845	32763	32599	32717	
1033	0	32693	32743	32679	32662	32827	32822	32634	32721	
1034	0	32748	32717	32647	32742	32597	32705	32711	32748	
1035	0	32685	32759	32670	32783	32743	32841	32715	32476	
1036	0	32698	32785	32789	32663	32737	32668	32638	32618	
1037	0	32764	32719	32742	32694	32698	32767	32739	32767	
1038	0	32762	32679	32743	32711	32675	32711	32694	32694	
1039	0	32738	32523	32743	32775	32767	32775	32686	32743	
1040	0	32718	32695	32797	32647	32727	32646	32703	32655	
1041	0	32717	32647	32791	32647	32812	32759	32703	32693	
1042	0	32697	32692	32791	32607	32751	32667	32683	32487	
1043	0	32727	32597	32785	32679	32551	32823	32695	32632	
1044	0	32757	32463	32791	32676	32879	32797	32749	32679	
1045	0	32742	32641	32703	32751	32749	32783	32707	32572	
1046	0	32775	32647	32630	32647	32579	32707	32633	32617	
1047	0	32739	32679	32663	32709	32740	32766	32635	32575	
1048	0	32799	32713	32623	32731	32807	32793	32717	32679	
1049	0	32759	32749	32663	32647	32807	32852	32729	32786	
1050	0	32771	32578	32679	32823	32662	32647	32735	32698	
1051	0	32749	32577	32607	32647	32785	32803	32784	32679	
1052	0	32799	32743	32622	32775	32743	32751	32725	32579	
1053	0	32736	32711	32725	32647	32637	32631	32719	32674	
1054	0	32729	32742	32831	32690	32717	32757	32703	32708	
1055	0	32726	32499	32759	32647	32593	32686	32803	32691	
1056	0	32706	32687	32681	32775	32857	32775	32599	32751	
1057	0	32683	32647	32859	32718	32775	32743	32737	32631	
1058	0	32710	32743	32743	32775	32644	32775	32735	32615	
1059	0	32726	32509	32695	32735	32763	32773	32759	32566	
1060	0	32726	32711	32805	32711	32756	32687	32621	32627	
1061	0	32678	32669	32890	32711	32738	32775	32707	32519	
1062	0	32698	32685	32859	32719	32799	32743	32713	32647	
1063	0	32749	32497	32805	32567	32611	32695	32741	32615	
1064	0	32749	32643	32814	32662	32771	32773	32627	32739	
1065	0	32749	32671	32835	32621	32783	32819	32661	32671	
1066	0	32736	32671	32731	32623	32646	32679	32719	32703	
1067	0	32769	32562	32814	32534	32825	32757	32689	32647	
1068	0	32744	32647	32711	32661	32818	32834	32715	32775	
1069	0	32762	32723	32669	32549	32841	32745	32669	32767	
1070	0	32733	32557	32641	32609	32798	32731	32786	32599	
1071	0	32788	32706	32749	32549	32573	32799	32659	32591	
1072	0	32796	32740	32663	32725	32864	32647	32769	32575	
1073	0	32770	32755	32655	32661	32757	32757	32603	32646	
1074	0	32756	32559	32725	32703	32609	32791	32726	32735	
1075	0	32751	32647	32745	32647	32807	32679	32694	32545	
1076	0	32770	32783	32710	32762	32727	32595	32679	32615	
1077	0	32773	32707	32709	32757	32546	32705	32581	32477	
1078	0	32823	32603	32754	32901	32765	32775	32655	32590	
1079	0	32721	32635	32735	32805	32759	32611	32727	32762	
1080	0	32695	32595	32787	32875	32775	32775	32694	32713	
1081	0	32743	32671	32807	32869	32695	32749	32671	32722	
1082	0	32711	32539	32791	32863	32604	32659	32573	32568	
1083	0	32748	32647	32734	32817	32823	32845	32733	32647	
1084	0	32684	32609	32751	32727	32743	32818	32692	32545	
1085	0	32757	32621	32775	32625	32687	32727	32677	32681	
1086	0	32736	32709	32775	32643	32819	32734	32724	32698	
1087	0	32803	32639	32719	32514	32775	32841	32660	32572	
1088	0	32785	32542	32742	32615	32751	32753	32729	32687	
1089	0	32780	32692	32709	32548	32835	32798	32723	32631	
1090	0	32775	32747	32637	32643	32743	32663	32751	32679	
1091	0	32745	32703	32663	32735	32825	32775	32700	32668	
1092	0	32716	32679	32628	32759	32767	32785	32647	32623	
1093	0	32748	32519	32591	32797	32613	32807	32623	32647	
1094	0	32724	32731	32704	32751	32791	32679	32713	32459	
1095	0	32747	32671	32758	32734	32682	32769	32751	32602	
1096	0	32782	32647	32815	32699	32605	32687	32795	32567	
1097	0	32775	32765	32823	32775	32717	32718	32775	32647	
1098	0	32745	32559	32810	32719	32530	32591	32711	32665	
1099	0	32775	32551	32855	32751	32756	32695	32711	32549	
1100	0	32711	32629	32853	32723	32749	32787	32706	32620	
1101	0	32767	32655	32815	32615	32543	32791	32786	32775	
1102	0	32754	32766	32769	32640	32791	32639	32799	32715	
1103	0	32804	32551	32747	32727	32801	32719	32801	32759	
1104	0	32815	32639	32851	32655	32747	32609	32770	32563	
1105	0	32673	32669	32762	32711	32803	32755	32749	32640	
1106	0	32698	32647	32704	32603	32735	32803	32746	32623	
1107	0	32732	32591	32731	32685	32757	32757	32679	32671	
1108	0	32751	32743	32691	32587	32607	32743	32631	32527	
1109	0	32767	32677	32718	32711	32863	32615	32699	32711	
1110	0	32734	32739	32639	32673	32783	32739	32705	32758	
1111	0	32738	32635	32647	32831	32724	32775	32675	32749	
1112	0	32775	32571	32742	32738	32807	32705	32775	32721	
1113	0	32753	32808	32647	32694	32583	32827	32703	32719	
1114	0	32794	32706	32647	32647	32799	32775	32764	32743	
1115	0	32748	32658	32796	32721	32551	32647	32734	32679	
1116	0	32667	32567	32791	32606	32850	32734	32788	32669	
1117	0	32758	32756	32769	32764	32693	32767	32647	32514	
1118	0	32794	32751	32791	32660	32734	32691	32727	32647	
1119	0	32790	32627	32839	32807	32732	32702	32695	32591	
1120	0	32764	32759	32797	32759	32749	32615	32614	32725	
1121	0	32804	32716	32879	32675	32663	32684	32709	32703	
1122	0	32713	32583	32819	32839	32652	32757	32711	32730	
1123	0	32809	32559	32751	32722	32743	32639	32647	32572	
1124	0	32750	32641	32829	32759	32591	32803	32791	32655	
1125	0	32730	32671	32804	32621	32925	32785	32738	32525	
1126	0	32742	32625	32703	32703	32775	32807	32757	32726	
1127	0	32757	32549	32703	32567	32660	32671	32775	32679	
1128	0	32813	32492	32751	32647	32917	32775	32637	32610	
1129	0	32751	32719	32751	32647	32838	32775	32674	32687	
1130	0	32750	32642	32775	32620	32759	32809	32711	32764	
1131	0	32784	32743	32685	32639	32747	32647	32661	32700	
1132	0	32788	32533	32623	32635	32647	32775	32723	32717	
1133	0	32773	32647	32607	32612	32801	32731	32639	32479	
1134	0	32740	32751	32711	32807	32551	32731	32698	32630	
1135	0	32711	32679	32645	32819	32831	32711	32757	32703	
1136	0	32751	32723	32634	32819	32783	32738	32736	32617	
1137	0	32786	32572	32705	32769	32663	32730	32733	32631	
1138	0	32743	32647	32870	32891	32731	32771	32623	32499	
1139	0	32718	32787	32847	32881	32534	32661	32567	32619	
1140	0	32773	32767	32771	32844	32775	32791	32685	32711	
1141	0	32804	32711	32675	32919	32719	32738	32695	32529	
1142	0	32686	32775	32745	32887	32607	32759	32722	32571	
1143	0	32694	32559	32754	32850	32737	32612	32739	32622	
1144	0	32716	32645	32811	32746	32556	32759	32662	32655	
1145	0	32663	32619	32775	32759	32810	32814	32735	32703	
1146	0	32745	32725	32815	32751	32615	32673	32785	32589	
1147	0	32763	32545	32839	32578	32863	32839	32765	32627	
1148	0	32741	32519	32799	32645	32790	32717	32767	32647	
1149	0	32774	32763	32679	32593	32707	32794	32654	32757	
1150	0	32782	32684	32657	32679	32795	32687	32707	32775	
1151	0	32713	32711	32711	32599	32775	32681	32741	32629	
1152	0	32749	32703	32749	32489	32731	32843	32771	32631	
1153	0	32721	32531	32733	32631	32739	32751	32811	32615	
1154	0	32797	32747	32687	32647	32611	32751	32647	32661	
1155	0	32722	32679	32685	32679	32747	32679	32598	32710	
1156	0	32741	32715	32765	32693	32607	32795	32665	32615	
1157	0	32735	32566	32749	32803	32839	32797	32707	32687	
1158	0	32717	32543	32751	32741	32767	32767	32724	32613	
1159	0	32726	32735	32711	32788	32619	32799	32690	32749	
1160	0	32722	32703	32772	32757	32734	32715	32737	32763	
1161	0	32775	32767	32787	32783	32583	32793	32703	32647	
1162	0	32767	32569	32685	32753	32883	32677	32754	32673	
1163	0	32811	32543	32647	32775	32799	32775	32775	32789	
1164	0	32775	32738	32627	32743	32725	32735	32646	32661	
1165	0	32785	32727	32729	32761	32763	32775	32687	32714	
1166	0	32774	32747	32749	32631	32615	32611	32655	32775	
1167	0	32799	32698	32797	32711	32879	32647	32690	32621	
1168	0	32751	32540	32764	32711	32711	32807	32749	32687	
1169	0	32793	32574	32707	32804	32719	32783	32647	32467	
1170	0	32732	32764	32831	32804	32756	32787	32685	32621	
1171	0	32745	32786	32775	32805	32663	32741	32711	32630	
1172	0	32679	32556	32749	32623	32783	32715	32705	32695	
1173	0	32711	32607	32667	32694	32578	32805	32615	32727	
1174	0	32730	32645	32801	32607	32775	32623	32759	32565	
1175	0	32726	32735	32718	32718	32607	32783	32727	32681	
1176	0	32799	32557	32708	32632	32903	32756	32641	32617	
1177	0	32775	32586	32724	32647	32781	32681	32684	32607	
1178	0	32679	32601	32711	32571	32759	32767	32767	32621	
1179	0	32734	32629	32711	32655	32723	32775	32710	32673	
1180	0	32726	32599	32683	32508	32576	32787	32758	32727	
1181	0	32748	32551	32743	32683	32879	32692	32686	32663	
1182	0	32773	32695	32710	32513	32533	32762	32767	32655	
1183	0	32767	32740	32759	32615	32843	32763	32767	32629	
1184	0	32779	32615	32807	32617	32723	32657	32630	32679	
1185	0	32739	32661	32743	32759	32599	32791	32687	32619	
1186	0	32751	32695	32795	32711	32759	32709	32719	32725	
1187	0	32767	32763	32757	32765	32567	32838	32759	32681	
1188	0	32783	32574	32697	32751	32902	32623	32701	32679	
1189	0	32785	32547	32756	32687	32773	32795	32729	32564	
1190	0	32751	32711	32717	32615	32565	32835	32761	32631	
1191	0	32754	32711	32706	32660	32794	32787	32811	32604	
1192	0	32747	32755	32793	32598	32775	32771	32719	32678	
1193	0	32763	32772	32711	32741	32597	32633	32699	32769	
1194	0	32703	32647	32681	32697	32789	32739	32663	32621	
1195	0	32718	32607	32739	32838	32785	32710	32711	32631	
1196	0	32708	32791	32813	32740	32572	32751	32747	32583	
1197	0	32694	32703	32750	32783	32676	32839	32703	32710	
1198	0	32759	32701	32775	32873	32741	32813	32671	32660	
1199	0	32740	32551	32732	32775	32605	32599	32631	32627	
1200	0	32752	32581	32791	32838	32916	32823	32677	32662	
1201	0	32715	32729	32815	32763	32769	32703	32623	32607	
1202	0	32749	32684	32775	32745	32615	32801	32711	32757	
1203	0	32719	32717	32748	32613	32891	32686	32723	32767	
1204	0	32775	32663	32749	32715	32751	32719	32653	32604	
1205	0	32759	32581	32679	32629	32595	32766	32614	32762	
1206	0	32734	32551	32751	32709	32859	32789	32749	32716	
1207	0	32804	32775	32727	32609	32727	32775	32707	32687	
1208	0	32796	32701	32684	32677	32621	32703	32765	32751	
1209	0	32704	32759	32715	32666	32847	32857	32727	32675	
1210	0	32694	32575	32717	32816	32749	32791	32771	32739	
1211	0	32672	32671	32656	32687	32663	32807	32683	32663	
1212	0	32679	32686	32684	32820	32793	32765	32708	32709	
1213	0	32742	32671	32703	32790	32759	32575	32642	32517	
1214	0	32678	32731	32723	32879	32874	32749	32671	32635	
1215	0	32684	32535	32715	32749	32787	32728	32703	32623	
1216	0	32704	32645	32714	32815	32583	32791	32694	32725	
1217	0	32714	32717	32677	32865	32818	32679	32727	32663	
1218	0	32679	32675	32630	32830	32739	32775	32659	32541	
1219	0	32738	32551	32783	32667	32834	32775	32727	32615	
1220	0	32724	32450	32767	32679	32724	32810	32685	32543	
1221	0	32818	32663	32735	32605	32637	32759	32786	32670	
1222	0	32767	32623	32867	32495	32802	32703	32668	32571	
1223	0	32813	32751	32804	32495	32543	32834	32775	32655	
1224	0	32804	32575	32775	32555	32875	32634	32737	32639	
1225	0	32754	32743	32667	32567	32735	32749	32756	32746	
1226	0	32775	32663	32741	32659	32575	32722	32639	32726	
1227	0	32744	32767	32739	32527	32814	32762	32655	32563	
1228	0	32727	32599	32689	32689	32773	32638	32678	32671	
1229	0	32730	32551	32647	32685	32695	32767	32791	32767	
1230	0	32711	32525	32671	32750	32775	32673	32754	32635	
1231	0	32703	32724	32729	32683	32743	32679	32749	32687	
1232	0	32736	32743	32701	32845	32770	32773	32663	32477	
1233	0	32694	32810	32715	32759	32799	32763	32715	32674	
1234	0	32756	32615	32747	32859	32566	32805	32694	32553	
1235	0	32678	32642	32763	32732	32866	32679	32647	32671	
1236	0	32740	32715	32726	32847	32759	32827	32713	32715	
1237	0	32758	32725	32767	32735	32635	32647	32599	32692	
1238	0	32710	32719	32783	32763	32804	32757	32679	32628	
1239	0	32784	32560	32732	32647	32775	32611	32655	32527	
1240	0	32758	32647	32822	32647	32655	32841	32767	32662	
1241	0	32758	32719	32775	32623	32820	32725	32775	32703	
1242	0	32775	32707	32834	32743	32711	32795	32671	32543	
1243	0	32732	32743	32815	32710	32619	32735	32719	32647	
1244	0	32758	32639	32738	32727	32819	32726	32751	32518	
1245	0	32793	32596	32794	32703	32693	32742	32695	32610	
1246	0	32771	32782	32739	32767	32667	32673	32707	32551	
1247	0	32735	32679	32757	32683	32759	32799	32684	32743	
1248	0	32729	32699	32731	32717	32767	32797	32701	32631	
1249	0	32751	32539	32847	32679	32873	32726	32791	32654	
1250	0	32742	32751	32818	32663	32759	32797	32775	32671	
1251	0	32773	32733	32701	32605	32655	32807	32659	32633	
1252	0	32815	32711	32727	32685	32763	32646	32743	32735	
1253	0	32751	32681	32729	32605	32583	32759	32711	32541	
1254	0	32736	32615	32711	32735	32771	32803	32743	32709	
1255	0	32769	32737	32717	32583	32783	32817	32662	32671	
1256	0	32806	32655	32769	32637	32658	32635	32645	32562	
1257	0	32759	32722	32787	32506	32799	32830	32703	32695	
1258	0	32773	32519	32693	32671	32702	32710	32727	32595	
1259	0	32799	32615	32710	32671	32775	32806	32571	32700	
1260	0	32774	32610	32685	32855	32720	32813	32691	32547	
1261	0	32756	32747	32679	32871	32591	32719	32747	32691	
1262	0	32757	32667	32679	32935	32858	32797	32675	32751	
1263	0	32727	32554	32647	32797	32761	32670	32643	32619	
1264	0	32802	32723	32631	32858	32685	32823	32775	32683	
1265	0	32781	32724	32671	32743	32807	32823	32755	32623	
1266	0	32783	32631	32752	32767	32757	32763	32711	32741	
1267	0	32797	32735	32831	32671	32574	32719	32751	32724	
1268	0	32759	32731	32839	32775	32787	32607	32775	32599	
1269	0	32727	32455	32830	32695	32823	32799	32675	32701	
1270	0	32721	32610	32836	32605	32541	32700	32695	32772	
1271	0	32775	32725	32813	32535	32735	32751	32807	32617	
1272	0	32760	32797	32766	32487	32869	32790	32683	32607	
1273	0	32786	32631	32822	32621	32775	32769	32700	32701	
1274	0	32785	32692	32806	32607	32585	32575	32741	32655	
1275	0	32775	32711	32795	32647	32839	32809	32676	32639	
1276	0	32783	32572	32727	32605	32699	32764	32695	32637	
1277	0	32704	32553	32735	32743	32653	32766	32795	32753	
1278	0	32720	32749	32787	32839	32875	32754	32711	32663	
1279	0	32732	32725	32771	32759	32795	32695	32705	32591	
1280	0	32770	32743	32713	32807	32591	32699	32775	32638	
1281	0	32729	32747	32695	32717	32783	32685	32647	32647	
1282	0	32703	32805	32670	32699	32743	32773	32663	32558	
1283	0	32766	32765	32814	32647	32686	32795	32746	32687	
1284	0	32753	32483	32756	32754	32799	32615	32760	32551	
1285	0	32722	32679	32708	32669	32731	32773	32748	32623	
1286	0	32702	32739	32721	32701	32606	32738	32687	32524	
1287	0	32791	32751	32757	32615	32854	32771	32711	32637	
1288	0	32810	32719	32792	32723	32765	32669	32692	32693	
1289	0	32823	32535	32775	32655	32635	32763	32773	32551	
1290	0	32734	32661	32745	32671	32821	32747	32647	32695	
1291	0	32736	32727	32671	32606	32788	32820	32655	32743	
1292	0	32703	32669	32623	32725	32659	32775	32667	32645	
1293	0	32755	32735	32750	32623	32811	32705	32599	32685	
1294	0	32748	32692	32719	32789	32743	32855	32645	32587	
1295	0	32730	32519	32719	32775	32738	32759	32766	32733	
1296	0	32695	32499	32679	32717	32719	32791	32747	32735	
1297	0	32743	32691	32583	32797	32623	32703	32763	32670	
1298	0	32791	32717	32726	32683	32843	32762	32606	32675	
1299	0	32741	32751	32754	32743	32791	32794	32735	32547	
1300	0	32749	32623	32707	32759	32719	32633	32643	32725	
1301	0	32706	32493	32712	32791	32741	32869	32685	32567	
1302	0	32688	32738	32796	32722	32607	32685	32686	32646	
1303	0	32742	32681	32767	32765	32887	32783	32715	32631	
1304	0	32822	32713	32717	32699	32739	32677	32687	32691	
1305	0	32835	32615	32721	32701	32639	32775	32695	32703	
1306	0	32781	32525	32727	32613	32839	32703	32735	32495	
1307	0	32772	32698	32801	32741	32759	32743	32632	32578	
1308	0	32724	32767	32711	32669	32607	32583	32697	32749	
1309	0	32767	32695	32717	32829	32882	32743	32766	32640	
1310	0	32734	32691	32787	32787	32767	32787	32727	32647	
1311	0	32679	32679	32775	32877	32566	32787	32783	32604	
1312	0	32741	32576	32737	32702	32826	32785	32788	32751	
1313	0	32717	32611	32755	32723	32743	32656	32661	32682	
1314	0	32705	32671	32751	32686	32565	32799	32628	32579	
1315	0	32775	32596	32827	32663	32794	32759	32717	32667	
1316	0	32775	32717	32743	32529	32621	32679	32677	32530	
1317	0	32753	32511	32666	32617	32873	32813	32645	32667	
1318	0	32742	32519	32771	32615	32799	32749	32620	32589	
1319	0	32785	32669	32799	32629	32566	32847	32741	32715	
1320	0	32738	32663	32713	32711	32854	32711	32751	32751	
1321	0	32755	32638	32669	32567	32772	32731	32741	32669	
1322	0	32749	32743	32700	32683	32553	32757	32686	32726	
1323	0	32754	32621	32845	32597	32799	32791	32647	32529	
1324	0	32770	32637	32765	32599	32727	32827	32691	32623	
1325	0	32756	32749	32711	32594	32615	32794	32720	32566	
1326	0	32762	32667	32734	32787	32865	32786	32685	32647	
1327	0	32720	32739	32796	32743	32749	32726	32669	32634	
1328	0	32712	32653	32747	32757	32571	32743	32647	32628	
1329	0	32749	32700	32725	32758	32647	32773	32639	32562	
1330	0	32715	32557	32717	32708	32706	32669	32735	32638	
1331	0	32749	32831	32690	32861	32509	32775	32815	32529	
1332	0	32789	32711	32679	32783	32586	32767	32809	32699	
1333	0	32710	32724	32718	32815	32791	32770	32719	32731	
1334	0	32627	32685	32791	32771	32707	32575	32628	32645	
1335	0	32691	32509	32694	32775	32623	32731	32699	32607	
1336	0	32721	32615	32659	32807	32838	32799	32759	32711	
1337	0	32704	32687	32821	32631	32757	32815	32731	32635	
1338	0	32743	32692	32775	32803	32643	32674	32751	32685	
1339	0	32719	32732	32708	32587	32807	32742	32659	32557	
1340	0	32751	32535	32743	32658	32583	32739	32749	32623	
1341	0	32759	32749	32791	32611	32898	32815	32709	32583	
1342	0	32827	32709	32775	32598	32759	32647	32742	32660	
1343	0	32756	32671	32684	32535	32583	32793	32609	32493	
1344	0	32791	32532	32786	32647	32773	32745	32751	32631	
1345	0	32743	32791	32726	32614	32603	32667	32679	32587	
1346	0	32749	32667	32763	32723	32861	32722	32634	32623	
1347	0	32743	32643	32839	32742	32727	32749	32719	32517	
1348	0	32743	32501	32853	32772	32623	32771	32727	32647	
1349	0	32795	32801	32810	32757	32823	32638	32647	32751	
1350	0	32780	32630	32788	32759	32563	32804	32635	32713	
1351	0	32725	32737	32727	32732	32805	32767	32685	32759	
1352	0	32738	32663	32847	32731	32738	32759	32743	32688	
1353	0	32799	32647	32727	32785	32694	32682	32759	32704	
1354	0	32726	32719	32671	32749	32775	32743	32719	32575	
1355	0	32786	32732	32755	32839	32751	32787	32711	32639	
1356	0	32711	32555	32729	32757	32711	32723	32711	32644	
1357	0	32684	32659	32669	32854	32775	32743	32655	32671	
1358	0	32751	32675	32721	32695	32797	32838	32575	32635	
1359	0	32679	32596	32726	32783	32645	32662	32695	32687	
1360	0	32643	32467	32775	32587	32852	32815	32695	32614	
1361	0	32723	32647	32711	32647	32631	32751	32805	32655	
1362	0	32751	32577	32731	32487	32891	32786	32711	32743	
1363	0	32756	32703	32773	32595	32757	32706	32795	32671	
1364	0	32758	32519	32719	32605	32775	32725	32790	32763	
1365	0	32822	32707	32717	32705	32791	32770	32690	32727	
1366	0	32751	32695	32807	32609	32647	32731	32687	32718	
1367	0	32716	32711	32756	32471	32795	32749	32705	32745	
1368	0	32756	32511	32687	32559	32590	32809	32707	32644	
1369	0	32757	32737	32827	32598	32827	32623	32639	32663	
1370	0	32790	32679	32799	32775	32607	32843	32739	32738	
1371	0	32765	32617	32663	32692	32855	32757	32719	32655	
1372	0	32781	32620	32692	32791	32703	32775	32767	32643	
1373	0	32735	32695	32710	32679	32753	32715	32647	32615	
1374	0	32772	32687	32741	32763	32775	32831	32722	32643	
1375	0	32704	32546	32751	32679	32615	32803	32747	32551	
1376	0	32719	32623	32748	32815	32729	32623	32647	32647	
1377	0	32755	32807	32775	32812	32537	32703	32599	32530	
1378	0	32758	32691	32767	32679	32855	32812	32722	32671	
1379	0	32735	32809	32655	32802	32695	32749	32759	32575	
1380	0	32730	32574	32647	32775	32839	32707	32789	32679	
1381	0	32745	32795	32727	32799	32738	32743	32694	32490	
1382	0	32740	32671	32754	32787	32687	32743	32711	32676	
1383	0	32734	32775	32681	32839	32743	32763	32675	32693	
1384	0	32714	32515	32828	32763	32695	32621	32675	32759	
1385	0	32756	32695	32754	32647	32826	32763	32658	32747	
1386	0	32750	32671	32731	32767	32598	32695	32698	32710	
1387	0	32724	32719	32727	32638	32775	32732	32719	32773	
1388	0	32799	32491	32715	32710	32615	32689	32638	32730	
1389	0	32799	32684	32727	32607	32843	32775	32647	32784	
1390	0	32733	32695	32823	32677	32577	32775	32743	32771	
1391	0	32783	32759	32769	32543	32863	32604	32775	32731	
1392	0	32836	32532	32735	32615	32559	32775	32719	32563	
1393	0	32813	32733	32734	32635	32879	32769	32791	32669	
1394	0	32775	32735	32769	32709	32754	32678	32743	32603	
1395	0	32738	32683	32791	32571	32623	32738	32757	32716	
1396	0	32775	32746	32750	32741	32811	32767	32643	32711	
1397	0	32751	32647	32737	32671	32759	32793	32621	32557	
1398	0	32757	32543	32813	32786	32687	32663	32711	32599	
1399	0	32700	32735	32791	32767	32735	32687	32677	32713	
1400	0	32669	32759	32718	32797	32567	32690	32811	32679	
1401	0	32681	32743	32775	32733	32799	32769	32711	32695	
1402	0	32786	32775	32759	32862	32767	32687	32663	32599	
1403	0	32806	32543	32698	32759	32662	32813	32725	32663	
1404	0	32720	32647	32699	32765	32747	32781	32743	32551	
1405	0	32775	32669	32771	32647	32567	32639	32631	32711	
1406	0	32714	32567	32695	32670	32839	32803	32731	32643	
1407	0	32714	32595	32682	32583	32738	32711	32607	32679	
1408	0	32765	32735	32763	32700	32858	32783	32671	32578	
1409	0	32769	32647	32738	32727	32789	32647	32679	32627	
1410	0	32807	32590	32739	32663	32684	32743	32745	32539	
1411	0	32775	32577	32807	32757	32783	32791	32775	32647	
1412	0	32773	32647	32663	32707	32595	32639	32775	32609	
1413	0	32779	32695	32639	32671	32759	32793	32676	32703	
1414	0	32751	32519	32735	32585	32588	32806	32727	32667	
1415	0	32751	32767	32725	32715	32775	32679	32733	32759	
1416	0	32714	32738	32735	32685	32708	32775	32659	32811	
1417	0	32763	32773	32775	32735	32791	32775	32750	32580	
1418	0	32692	32551	32775	32595	32748	32711	32717	32659	
1419	0	32721	32679	32735	32722	32511	32642	32759	32575	
1420	0	32747	32726	32791	32641	32863	32719	32635	32661	
1421	0	32743	32727	32765	32743	32550	32850	32737	32558	
1422	0	32700	32565	32725	32721	32835	32663	32743	32687	
1423	0	32761	32679	32759	32762	32791	32820	32641	32579	
1424	0	32727	32717	32799	32590	32613	32725	32647	32731	
1425	0	32743	32703	32735	32706	32847	32745	32740	32775	
1426	0	32736	32758	32715	32642	32801	32597	32711	32743	
1427	0	32700	32687	32783	32646	32637	32839	32743	32735	
1428	0	32769	32509	32804	32685	32764	32775	32691	32669	
1429	0	32762	32753	32699	32767	32583	32605	32699	32757	
1430	0	32740	32663	32755	32673	32894	32807	32729	32675	
1431	0	32726	32690	32799	32738	32737	32771	32715	32659	
1432	0	32711	32719	32767	32663	32619	32838	32683	32510	
1433	0	32740	32670	32771	32685	32854	32839	32678	32630	
1434	0	32780	32583	32719	32602	32771	32631	32682	32743	
1435	0	32755	32583	32787	32734	32571	32801	32687	32647	
1436	0	32760	32691	32797	32679	32890	32789	32759	32727	
1437	0	32749	32695	32739	32719	32727	32679	32647	32591	
1438	0	32738	32723	32647	32677	32647	32772	32711	32662	
1439	0	32729	32559	32669	32759	32761	32703	32735	32603	
1440	0	32703	32694	32738	32679	32557	32740	32739	32711	
1441	0	32745	32709	32759	32726	32838	32647	32629	32727	
1442	0	32793	32607	32743	32745	32726	32863	32638	32659	
1443	0	32787	32751	32783	32695	32519	32767	32717	32703	
1444	0	32719	32615	32727	32724	32863	32799	32725	32518	
1445	0	32767	32642	32685	32603	32775	32679	32733	32679	
1446	0	32753	32574	32695	32700	32755	32674	32775	32671	
1447	0	32748	32647	32734	32623	32683	32806	32735	32514	
1448	0	32790	32831	32677	32671	32759	32727	32635	32671	
1449	0	32775	32721	32767	32590	32607	32807	32727	32479	
1450	0	32719	32715	32723	32727	32839	32645	32743	32703	
1451	0	32743	32631	32762	32837	32745	32745	32769	32735	
1452	0	32736	32567	32743	32791	32573	32661	32715	32561	
1453	0	32796	32743	32735	32807	32859	32807	32739	32655	
1454	0	32788	32683	32775	32775	32733	32641	32714	32586	
1455	0	32735	32615	32685	32815	32658	32819	32723	32667	
1456	0	32743	32549	32647	32819	32756	32763	32645	32598	
1457	0	32757	32723	32835	32677	32548	32863	32707	32761	
1458	0	32759	32671	32806	32755	32823	32673	32775	32751	
1459	0	32788	32750	32799	32731	32767	32743	32695	32587	
1460	0	32762	32647	32759	32603	32607	32742	32703	32727	
1461	0	32806	32647	32771	32673	32807	32758	32677	32735	
1462	0	32775	32773	32767	32563	32747	32638	32606	32567	
1463	0	32758	32659	32775	32647	32591	32715	32709	32655	
1464	0	32743	32677	32813	32515	32899	32742	32741	32708	
1465	0	32701	32607	32759	32654	32751	32759	32711	32493	
1466	0	32783	32468	32819	32589	32673	32634	32727	32615	
1467	0	32742	32786	32775	32729	32757	32767	32663	32534	
1468	0	32737	32607	32727	32647	32543	32723	32775	32639	
1469	0	32719	32713	32743	32747	32751	32828	32749	32735	
1470	0	32694	32691	32679	32695	32753	32660	32765	32679	
1471	0	32711	32665	32679	32878	32663	32691	32647	32743	
1472	0	32736	32663	32562	32751	32743	32751	32685	32674	
1473	0	32767	32695	32761	32815	32599	32644	32758	32715	
1474	0	32695	32532	32764	32701	32715	32827	32590	32695	
1475	0	32701	32614	32671	32741	32557	32804	32703	32733	
1476	0	32724	32708	32756	32679	32775	32758	32699	32605	
1477	0	32767	32711	32799	32775	32733	32607	32711	32695	
1478	0	32721	32679	32755	32647	32660	32687	32775	32582	
1479	0	32701	32531	32743	32687	32827	32803	32677	32629	
1480	0	32704	32711	32823	32615	32598	32611	32798	32573	
1481	0	32754	32710	32723	32694	32795	32789	32767	32679	
1482	0	32789	32709	32715	32597	32519	32775	32703	32691	
1483	0	32732	32525	32749	32710	32847	32667	32711	32755	
1484	0	32694	32702	32775	32631	32757	32818	32730	32739	
1485	0	32815	32789	32723	32667	32687	32694	32679	32605	
1486	0	32791	32695	32663	32655	32708	32735	32711	32660	
1487	0	32807	32647	32775	32805	32583	32633	32630	32535	
1488	0	32765	32542	32827	32799	32835	32793	32647	32708	
1489	0	32805	32543	32797	32626	32775	32807	32751	32723	
1490	0	32798	32615	32775	32565	32602	32769	32724	32767	
1491	0	32698	32647	32773	32493	32775	32642	32721	32728	
1492	0	32711	32670	32775	32679	32599	32786	32662	32659	
1493	0	32680	32634	32739	32631	32914	32807	32756	32631	
1494	0	32684	32513	32679	32679	32763	32773	32726	32687	
1495	0	32717	32743	32718	32671	32823	32709	32767	32549	
1496	0	32714	32667	32705	32695	32742	32758	32619	32642	
1497	0	32717	32741	32635	32748	32695	32839	32756	32558	
1498	0	32759	32575	32669	32775	32761	32642	32706	32643	
1499	0	32738	32677	32717	32754	32598	32806	32738	32503	
1500	0	32733	32701	32719	32782	32795	32703	32623	32695	
1501	0	32722	32759	32685	32673	32711	32795	32671	32741	
1502	0	32767	32701	32751	32813	32658	32613	32689	32669	
1503	0	32732	32663	32787	32710	32727	32771	32735	32706	
1504	0	32715	32574	32799	32795	32511	32735	32745	32581	
1505	0	32708	32743	32679	32731	32861	32793	32628	32699	
1506	0	32703	32665	32727	32863	32759	32630	32644	32524	
1507	0	32723	32737	32751	32749	32643	32801	32743	32643	
1508	0	32734	32775	32727	32814	32775	32692	32711	32566	
1509	0	32832	32599	32743	32775	32719	32742	32775	32685	
1510	0	32758	32523	32762	32771	32683	32802	32695	32733	
1511	0	32784	32646	32766	32741	32855	32663	32671	32647	
1512	0	32757	32647	32797	32676	32661	32775	32756	32695	
1513	0	32796	32671	32739	32645	32812	32717	32727	32539	
1514	0	32748	32694	32847	32539	32786	32855	32727	32735	
1515	0	32749	32737	32775	32583	32623	32847	32695	32802	
1516	0	32794	32575	32775	32599	32799	32611	32729	32647	
1517	0	32804	32485	32854	32575	32807	32823	32695	32654	
1518	0	32763	32627	32775	32627	32775	32699	32687	32643	
1519	0	32715	32699	32759	32589	32743	32734	32682	32719	
1520	0	32771	32751	32775	32713	32763	32795	32695	32662	
1521	0	32725	32655	32683	32773	32727	32743	32663	32711	
1522	0	32708	32695	32703	32724	32771	32643	32687	32534	
1523	0	32727	32643	32703	32827	32770	32804	32738	32643	
1524	0	32788	32595	32775	32707	32663	32771	32644	32505	
1525	0	32773	32759	32695	32839	32759	32783	32574	32646	
1526	0	32795	32695	32681	32762	32736	32606	32699	32730	
1527	0	32732	32655	32655	32850	32647	32673	32735	32597	
1528	0	32695	32717	32726	32694	32757	32701	32831	32639	
1529	0	32727	32679	32727	32735	32747	32765	32758	32767	
1530	0	32780	32575	32722	32703	32635	32756	32745	32578	
1531	0	32804	32511	32831	32671	32883	32669	32705	32659	
1532	0	32818	32711	32775	32721	32762	32711	32679	32645	
1533	0	32791	32694	32770	32635	32625	32831	32759	32694	
1534	0	32759	32715	32729	32706	32901	32687	32764	32677	
1535	0	32735	32762	32813	32735	32775	32775	32807	32543	
1536	0	32799	32629	32756	32647	32754	32679	32647	32685	
1537	0	32711	32735	32727	32695	32763	32813	32715	32799	
1538	0	32749	32694	32702	32614	32572	32695	32701	32605	
1539	0	32841	32685	32701	32647	32676	32727	32669	32711	
1540	0	32751	32643	32765	32643	32762	32791	32682	32647	
1541	0	32695	32711	32818	32687	32738	32659	32721	32597	
1542	0	32765	32525	32785	32766	32719	32775	32620	32662	
1543	0	32756	32679	32743	32748	32775	32743	32751	32558	
1544	0	32729	32659	32743	32762	32586	32775	32737	32594	
1545	0	32724	32703	32876	32685	32803	32789	32743	32743	
1546	0	32717	32640	32743	32738	32742	32863	32729	32623	
1547	0	32715	32550	32767	32639	32735	32771	32625	32663	
1548	0	32711	32628	32670	32823	32754	32735	32666	32585	
1549	0	32762	32775	32709	32663	32575	32663	32669	32647	
1550	0	32782	32722	32750	32767	32910	32747	32695	32707	
1551	0	32677	32762	32623	32703	32771	32803	32735	32595	
1552	0	32769	32595	32667	32713	32711	32607	32631	32659	
1553	0	32710	32711	32723	32695	32811	32807	32647	32542	
1554	0	32737	32735	32662	32813	32647	32815	32757	32692	
1555	0	32799	32527	32815	32635	32739	32691	32655	32615	
1556	0	32812	32758	32711	32671	32620	32751	32775	32735	
1557	0	32763	32683	32751	32571	32791	32757	32763	32582	
1558	0	32776	32751	32795	32595	32665	32593	32762	32662	
1559	0	32775	32500	32819	32571	32863	32726	32613	32559	
1560	0	32785	32663	32765	32634	32783	32807	32735	32635	
1561	0	32781	32735	32748	32501	32594	32775	32663	32739	
1562	0	32733	32698	32806	32711	32871	32756	32685	32679	
1563	0	32748	32645	32775	32605	32709	32717	32647	32647	
1564	0	32766	32535	32715	32751	32639	32825	32655	32572	
1565	0	32708	32666	32690	32630	32759	32625	32788	32711	
1566	0	32716	32691	32759	32813	32578	32831	32731	32735	
1567	0	32820	32787	32775	32823	32815	32782	32758	32644	
1568	0	32772	32519	32701	32850	32791	32819	32639	32673	
1569	0	32812	32751	32726	32797	32573	32887	32807	32591	
1570	0	32733	32703	32740	32835	32847	32722	32829	32673	
1571	0	32727	32679	32735	32659	32735	32751	32703	32599	
1572	0	32766	32775	32735	32773	32633	32674	32802	32543	
1573	0	32711	32487	32699	32646	32713	32791	32684	32621	
1574	0	32702	32722	32807	32720	32607	32773	32685	32615	
1575	0	32737	32666	32723	32632	32879	32671	32710	32615	
1576	0	32741	32743	32706	32638	32767	32823	32727	32524	
1577	0	32707	32487	32756	32601	32735	32757	32626	32619	
1578	0	32729	32671	32727	32527	32742	32662	32727	32518	
1579	0	32742	32615	32647	32647	32553	32836	32711	32613	
1580	0	32785	32757	32727	32607	32910	32806	32623	32626	
1581	0	32793	32772	32733	32738	32804	32789	32643	32615	
1582	0	32727	32507	32711	32643	32625	32715	32798	32667	
1583	0	32699	32723	32807	32739	32863	32699	32759	32543	
1584	0	32803	32731	32793	32647	32743	32749	32711	32663	
1585	0	32748	32684	32767	32847	32538	32629	32710	32615	
1586	0	32803	32723	32733	32743	32837	32843	32675	32695	
1587	0	32743	32647	32731	32811	32727	32725	32730	32683	
1588	0	32737	32508	32758	32695	32639	32667	32692	32647	
1589	0	32751	32807	32759	32764	32789	32811	32733	32727	
1590	0	32716	32671	32755	32655	32765	32731	32669	32564	
1591	0	32727	32671	32764	32687	32669	32815	32647	32607	
1592	0	32706	32713	32834	32579	32885	32741	32733	32799	
1593	0	32771	32703	32806	32699	32821	32639	32703	32559	
1594	0	32782	32550	32723	32550	32604	32791	32785	32652	
1595	0	32748	32620	32647	32595	32893	32719	32687	32611	
1596	0	32813	32735	32772	32579	32735	32767	32723	32684	
1597	0	32759	32687	32735	32735	32535	32711	32703	32782	
1598	0	32722	32695	32709	32775	32911	32815	32693	32593	
1599	0	32708	32612	32714	32759	32775	32743	32690	32655	
1600	0	32762	32566	32683	32763	32563	32775	32626	32599	
1601	0	32721	32510	32735	32679	32751	32679	32683	32689	
1602	0	32748	32717	32754	32788	32839	32772	32674	32679	
1603	0	32745	32815	32724	32729	32765	32725	32751	32606	
1604	0	32707	32679	32679	32787	32647	32772	32762	32711	
1605	0	32781	32805	32765	32687	32756	32615	32711	32647	
1606	0	32775	32633	32791	32723	32767	32805	32683	32483	
1607	0	32791	32647	32773	32690	32767	32691	32743	32598	
1608	0	32759	32747	32747	32742	32767	32763	32727	32555	
1609	0	32769	32667	32837	32621	32797	32655	32775	32647	
1610	0	32739	32708	32807	32765	32755	32807	32639	32566	
1611	0	32790	32509	32742	32663	32711	32773	32615	32623	
1612	0	32743	32685	32804	32662	32591	32647	32705	32539	
1613	0	32764	32679	32671	32702	32837	32775	32784	32721	
1614	0	32687	32621	32687	32786	32723	32759	32703	32727	
1615	0	32663	32679	32727	32647	32641	32623	32585	32711	
1616	0	32711	32466	32742	32729	32749	32817	32653	32727	
1617	0	32775	32692	32706	32682	32578	32823	32734	32713	
1618	0	32742	32647	32749	32707	32771	32647	32617	32740	
1619	0	32736	32707	32831	32613	32755	32755	32596	32503	
1620	0	32759	32695	32815	32631	32750	32773	32749	32751	
1621	0	32759	32753	32723	32603	32735	32787	32711	32771	
1622	0	32773	32589	32743	32729	32775	32658	32787	32683	
1623	0	32749	32762	32763	32599	32743	32813	32658	32732	
1624	0	32767	32686	32727	32681	32763	32807	32759	32647	
1625	0	32775	32765	32742	32575	32735	32639	32738	32684	
1626	0	32789	32566	32775	32738	32671	32791	32647	32662	
1627	0	32802	32743	32755	32679	32755	32766	32647	32723	
1628	0	32815	32727	32775	32671	32591	32671	32711	32674	
1629	0	32722	32647	32734	32727	32877	32790	32727	32681	
1630	0	32743	32503	32693	32800	32811	32797	32621	32607	
1631	0	32740	32834	32706	32810	32607	32685	32719	32756	
1632	0	32735	32765	32769	32707	32703	32761	32671	32686	
1633	0	32700	32745	32696	32809	32570	32773	32660	32708	
1634	0	32713	32565	32677	32655	32775	32773	32627	32631	
1635	0	32647	32719	32759	32790	32799	32773	32711	32727	
1636	0	32719	32647	32683	32769	32815	32749	32715	32642	
1637	0	32691	32604	32749	32642	32786	32629	32669	32545	
1638	0	32745	32503	32683	32693	32773	32783	32775	32772	
1639	0	32774	32557	32666	32567	32804	32754	32695	32775	
1640	0	32727	32695	32803	32519	32647	32791	32774	32729	
1641	0	32725	32647	32763	32487	32937	32639	32663	32757	
1642	0	32785	32679	32715	32615	32825	32759	32743	32762	
1643	0	32757	32543	32743	32543	32675	32775	32667	32711	
1644	0	32757	32714	32707	32769	32797	32607	32687	32668	
1645	0	32762	32717	32679	32679	32555	32711	32679	32755	
1646	0	32759	32806	32773	32726	32891	32736	32728	32661	
1647	0	32748	32759	32687	32671	32723	32663	32751	32571	
1648	0	32733	32623	32711	32853	32575	32814	32628	32647	
1649	0	32784	32567	32692	32700	32837	32703	32638	32647	
1650	0	32775	32767	32797	32771	32771	32749	32791	32694	
1651	0	32792	32723	32737	32691	32726	32759	32765	32669	
1652	0	32748	32732	32747	32799	32773	32699	32715	32525	
1653	0	32751	32562	32797	32743	32631	32799	32697	32658	
1654	0	32754	32691	32767	32755	32875	32705	32775	32531	
1655	0	32735	32733	32773	32629	32799	32858	32716	32758	
1656	0	32790	32699	32759	32710	32567	32775	32714	32839	
1657	0	32732	32707	32803	32719	32823	32703	32750	32679	
1658	0	32767	32711	32806	32709	32703	32754	32626	32801	
1659	0	32692	32631	32793	32759	32554	32801	32695	32639	
1660	0	32712	32572	32811	32661	32723	32775	32670	32693	
1661	0	32771	32615	32699	32685	32775	32775	32743	32698	
1662	0	32724	32715	32689	32629	32564	32647	32704	32681	
1663	0	32710	32739	32669	32669	32735	32823	32707	32527	
1664	0	32719	32654	32770	32722	32811	32813	32799	32699	
1665	0	32772	32703	32751	32701	32787	32811	32710	32711	
1666	0	32766	32763	32791	32759	32631	32583	32669	32557	
1667	0	32754	32668	32717	32759	32731	32745	32695	32583	
1668	0	32755	32540	32743	32843	32723	32707	32678	32709	
1669	0	32762	32623	32731	32745	32711	32775	32685	32614	
1670	0	32738	32765	32703	32834	32725	32627	32658	32695	
1671	0	32748	32691	32706	32761	32609	32847	32655	32635	
1672	0	32687	32733	32743	32743	32762	32771	32775	32691	
1673	0	32753	32755	32783	32733	32733	32783	32775	32679	
1674	0	32712	32547	32759	32621	32613	32677	32698	32751	
1675	0	32717	32734	32775	32679	32765	32732	32727	32699	
1676	0	32775	32591	32803	32556	32631	32769	32735	32699	
1677	0	32764	32694	32871	32674	32847	32684	32749	32503	
1678	0	32756	32595	32783	32590	32815	32799	32743	32671	
1679	0	32688	32582	32743	32647	32691	32836	32647	32727	
1680	0	32743	32525	32738	32583	32871	32742	32639	32591	
1681	0	32780	32495	32718	32647	32743	32847	32691	32628	
1682	0	32720	32714	32781	32738	32575	32655	32654	32647	
1683	0	32732	32638	32772	32705	32871	32806	32678	32676	
1684	0	32775	32699	32615	32659	32753	32791	32662	32743	
1685	0	32745	32732	32703	32799	32647	32715	32695	32541	
1686	0	32781	32539	32804	32775	32743	32742	32747	32679	
1687	0	32735	32775	32707	32787	32583	32759	32769	32563	
1688	0	32713	32717	32598	32717	32791	32605	32692	32699	
1689	0	32733	32711	32711	32875	32598	32813	32743	32585	
1690	0	32767	32557	32763	32683	32759	32647	32785	32647	
1691	0	32756	32524	32641	32762	32735	32789	32783	32773	
1692	0	32721	32641	32627	32735	32773	32759	32769	32598	
1693	0	32706	32675	32679	32581	32769	32757	32585	32637	
1694	0	32807	32647	32765	32692	32759	32763	32711	32573	
1695	0	32755	32724	32798	32628	32789	32775	32749	32694	
1696	0	32725	32775	32771	32785	32623	32771	32694	32646	
1697	0	32796	32639	32811	32738	32871	32698	32667	32559	
1698	0	32756	32571	32769	32727	32739	32753	32775	32671	
1699	0	32722	32663	32754	32775	32566	32751	32630	32663	
1700	0	32743	32731	32799	32683	32851	32775	32681	32548	
1701	0	32769	32727	32717	32706	32735	32639	32789	32751	
1702	0	32788	32755	32786	32663	32566	32797	32695	32692	
1703	0	32789	32764	32749	32759	32751	32751	32694	32579	
1704	0	32733	32549	32775	32664	32715	32731	32681	32623	
1705	0	32691	32687	32813	32701	32551	32615	32724	32501	
1706	0	32742	32673	32764	32611	32859	32802	32770	32646	
1707	0	32727	32717	32718	32733	32723	32735	32739	32709	
1708	0	32743	32647	32711	32557	32631	32742	32711	32594	
1709	0	32751	32503	32747	32645	32871	32671	32716	32763	
1710	0	32711	32533	32734	32669	32751	32831	32667	32727	
1711	0	32701	32683	32725	32643	32583	32757	32683	32671	
1712	0	32726	32702	32719	32694	32807	32821	32767	32671	
1713	0	32736	32631	32671	32647	32770	32701	32754	32727	
1714	0	32751	32815	32714	32767	32535	32725	32693	32540	
1715	0	32761	32621	32839	32819	32820	32723	32551	32743	
1716	0	32825	32683	32758	32875	32765	32823	32698	32687	
1717	0	32715	32765	32741	32875	32687	32641	32707	32599	
1718	0	32748	32701	32755	32847	32767	32783	32723	32662	
1719	0	32775	32639	32723	32655	32594	32755	32694	32509	
1720	0	32773	32641	32722	32828	32811	32619	32749	32669	
1721	0	32751	32621	32789	32646	32719	32711	32772	32727	
1722	0	32775	32748	32847	32723	32747	32775	32671	32615	
1723	0	32751	32714	32807	32689	32805	32647	32690	32595	
1724	0	32751	32580	32766	32559	32751	32807	32743	32715	
1725	0	32727	32639	32749	32671	32647	32639	32695	32647	
1726	0	32762	32646	32790	32669	32775	32775	32759	32647	
1727	0	32745	32692	32767	32710	32570	32775	32671	32682	
1728	0	32734	32551	32711	32594	32826	32663	32767	32722	
1729	0	32756	32691	32711	32679	32709	32757	32739	32703	
1730	0	32729	32679	32714	32645	32695	32807	32674	32647	
1731	0	32775	32719	32735	32638	32790	32743	32692	32510	
1732	0	32767	32532	32663	32734	32559	32759	32661	32579	
1733	0	32767	32731	32747	32635	32874	32775	32742	32543	
1734	0	32774	32668	32675	32775	32754	32763	32662	32707	
1735	0	32787	32791	32677	32860	32551	32783	32721	32765	
1736	0	32734	32583	32723	32811	32835	32631	32735	32629	
1737	0	32718	32667	32817	32729	32749	32775	32751	32687	
1738	0	32699	32693	32730	32783	32730	32859	32700	32611	
1739	0	32742	32775	32667	32759	32789	32687	32763	32691	
1740	0	32692	32640	32730	32839	32606	32807	32629	32735	
1741	0	32756	32715	32703	32679	32793	32699	32737	32677	
1742	0	32724	32795	32659	32839	32741	32615	32654	32708	
1743	0	32679	32715	32733	32751	32791	32783	32698	32683	
1744	0	32764	32619	32834	32790	32735	32773	32668	32662	
1745	0	32738	32549	32775	32647	32610	32597	32647	32535	
1746	0	32784	32647	32700	32791	32854	32835	32631	32674	
1747	0	32807	32735	32751	32622	32747	32791	32662	32799	
1748	0	32782	32747	32847	32749	32720	32705	32764	32675	
1749	0	32764	32519	32791	32611	32737	32729	32790	32606	
1750	0	32719	32533	32762	32673	32594	32737	32705	32639	
1751	0	32653	32698	32711	32527	32831	32660	32679	32719	
1752	0	32716	32647	32759	32575	32811	32831	32807	32631	
1753	0	32740	32669	32823	32519	32613	32759	32713	32647	
1754	0	32720	32727	32731	32598	32849	32695	32732	32775	
1755	0	32784	32535	32767	32492	32831	32828	32594	32645	
1756	0	32739	32647	32749	32703	32815	32756	32745	32677	
1757	0	32715	32687	32669	32679	32807	32701	32670	32603	
1758	0	32723	32707	32659	32757	32583	32791	32727	32684	
1759	0	32793	32707	32685	32794	32855	32804	32669	32739	
1760	0	32754	32694	32775	32687	32739	32802	32663	32623	
1761	0	32775	32687	32773	32751	32773	32647	32668	32686	
1762	0	32747	32581	32723	32719	32599	32839	32775	32660	
1763	0	32740	32727	32644	32827	32819	32835	32701	32621	
1764	0	32754	32677	32803	32701	32739	32671	32691	32806	
1765	0	32739	32730	32711	32747	32783	32743	32738	32749	
1766	0	32756	32545	32715	32663	32759	32801	32676	32755	
1767	0	32716	32743	32742	32822	32644	32739	32658	32647	
1768	0	32749	32722	32711	32799	32771	32695	32723	32691	
1769	0	32703	32759	32735	32839	32759	32801	32718	32551	
1770	0	32717	32567	32735	32758	32815	32709	32695	32611	
1771	0	32775	32757	32751	32658	32758	32695	32668	32485	
1772	0	32771	32661	32707	32775	32687	32615	32771	32621	
1773	0	32775	32767	32723	32679	32711	32799	32756	32531	
1774	0	32826	32541	32791	32799	32581	32742	32761	32647	
1775	0	32801	32639	32791	32739	32694	32671	32677	32631	
1776	0	32784	32751	32695	32703	32747	32710	32725	32705	
1777	0	32729	32706	32637	32757	32623	32801	32757	32698	
1778	0	32748	32694	32710	32599	32799	32750	32691	32523	
1779	0	32723	32725	32769	32601	32799	32639	32739	32679	
1780	0	32802	32533	32739	32443	32683	32818	32699	32615	
1781	0	32785	32738	32750	32611	32758	32795	32738	32751	
1782	0	32736	32647	32821	32551	32788	32759	32773	32733	
1783	0	32824	32759	32813	32635	32775	32709	32647	32730	
1784	0	32743	32493	32705	32567	32742	32739	32775	32707	
1785	0	32717	32713	32843	32711	32694	32805	32759	32707	
1786	0	32764	32690	32795	32639	32799	32687	32799	32739	
1787	0	32743	32671	32783	32715	32762	32831	32655	32644	
1788	0	32759	32731	32719	32697	32549	32717	32663	32643	
1789	0	32765	32775	32695	32796	32671	32735	32627	32711	
1790	0	32771	32767	32725	32831	32734	32717	32743	32661	
1791	0	32738	32565	32811	32826	32615	32754	32711	32647	
1792	0	32760	32607	32749	32834	32871	32773	32722	32591	
1793	0	32693	32725	32733	32719	32746	32766	32742	32723	
1794	0	32755	32743	32735	32795	32567	32679	32620	32739	
1795	0	32754	32698	32809	32676	32799	32775	32711	32599	
1796	0	32694	32621	32749	32709	32553	32767	32679	32692	
1797	0	32780	32519	32735	32711	32847	32771	32749	32570	
1798	0	32692	32575	32686	32767	32839	32647	32663	32635	
1799	0	32690	32775	32739	32751	32647	32821	32612	32761	
1800	0	32681	32807	32789	32647	32863	32763	32719	32575	
1801	0	32769	32719	32709	32719	32791	32815	32699	32655	
1802	0	32751	32719	32735	32643	32742	32683	32770	32599	
1803	0	32748	32567	32711	32701	32759	32775	32619	32711	
1804	0	32743	32559	32698	32731	32775	32796	32661	32663	
1805	0	32731	32695	32772	32567	32762	32797	32686	32599	
1806	0	32736	32775	32748	32751	32745	32769	32685	32705	
1807	0	32725	32647	32759	32701	32531	32623	32647	32708	
1808	0	32741	32679	32751	32665	32911	32751	32727	32557	
1809	0	32766	32718	32759	32703	32775	32719	32684	32743	
1810	0	32727	32501	32775	32539	32615	32769	32719	32724	
1811	0	32771	32765	32735	32635	32742	32786	32729	32644	
1812	0	32796	32647	32738	32599	32567	32647	32759	32687	
1813	0	32773	32677	32807	32737	32838	32775	32655	32527	
1814	0	32718	32699	32751	32683	32710	32639	32705	32639	
1815	0	32735	32675	32711	32767	32775	32789	32756	32574	
1816	0	32820	32767	32711	32682	32765	32775	32745	32708	
1817	0	32764	32711	32791	32747	32670	32617	32675	32717	
1818	0	32745	32719	32775	32694	32775	32703	32647	32583	
1819	0	32745	32455	32679	32751	32563	32763	32749	32669	
1820	0	32773	32678	32681	32617	32725	32679	32757	32613	
1821	0	32749	32647	32757	32695	32575	32804	32647	32684	
1822	0	32737	32527	32727	32551	32806	32844	32751	32639	
1823	0	32695	32580	32749	32695	32579	32639	32767	32682	
1824	0	32796	32669	32715	32614	32791	32699	32636	32670	
1825	0	32761	32805	32647	32739	32606	32767	32724	32674	
1826	0	32781	32530	32702	32623	32903	32751	32716	32707	
1827	0	32767	32663	32708	32727	32759	32719	32743	32715	
1828	0	32723	32722	32654	32687	32771	32804	32576	32549	
1829	0	32754	32759	32703	32826	32767	32775	32737	32647	
1830	0	32799	32743	32719	32863	32847	32799	32743	32559	
1831	0	32772	32799	32724	32835	32727	32694	32683	32671	
1832	0	32707	32811	32829	32879	32733	32773	32683	32551	
1833	0	32756	32599	32867	32754	32690	32787	32751	32657	
1834	0	32781	32646	32818	32819	32615	32738	32817	32505	
1835	0	32769	32613	32823	32711	32802	32727	32619	32679	
1836	0	32806	32716	32787	32735	32623	32590	32701	32603	
1837	0	32743	32609	32711	32595	32807	32786	32715	32703	
1838	0	32727	32642	32707	32685	32574	32766	32610	32575	
1839	0	32719	32690	32727	32613	32847	32775	32659	32679	
1840	0	32801	32451	32725	32727	32559	32804	32743	32551	
1841	0	32811	32715	32770	32721	32774	32629	32687	32658	
1842	0	32734	32707	32668	32583	32615	32755	32729	32534	
1843	0	32739	32613	32698	32715	32735	32766	32786	32639	
1844	0	32758	32623	32859	32647	32551	32787	32722	32531	
1845	0	32799	32737	32799	32694	32871	32803	32813	32611	
1846	0	32746	32667	32743	32620	32759	32599	32753	32550	
1847	0	32799	32647	32751	32703	32717	32785	32683	32700	
1848	0	32714	32559	32735	32662	32829	32773	32571	32707	
1849	0	32730	32555	32738	32693	32606	32859	32719	32572	
1850	0	32718	32627	32660	32668	32864	32687	32679	32634	
1851	0	32698	32655	32743	32727	32743	32727	32741	32527	
1852	0	32712	32765	32766	32635	32783	32783	32637	32655	
1853	0	32748	32583	32727	32705	32671	32775	32692	32530	
1854	0	32695	32661	32743	32621	32699	32795	32660	32635	
1855	0	32756	32677	32755	32706	32812	32689	32639	32566	
1856	0	32700	32735	32709	32579	32663	32739	32676	32679	
1857	0	32718	32563	32759	32711	32810	32765	32743	32519	
1858	0	32725	32578	32729	32615	32543	32638	32732	32711	
1859	0	32718	32699	32699	32670	32799	32839	32751	32715	
1860	0	32743	32676	32734	32629	32534	32775	32671	32655	
1861	0	32782	32695	32863	32683	32836	32598	32783	32745	
1862	0	32772	32667	32763	32727	32583	32667	32788	32719	
1863	0	32783	32775	32811	32630	32756	32755	32698	32775	
1864	0	32780	32769	32783	32759	32594	32823	32747	32714	
1865	0	32809	32711	32749	32845	32615	32615	32678	32672	
1866	0	32780	32532	32757	32847	32775	32788	32679	32567	
1867	0	32723	32615	32769	32751	32646	32683	32679	32643	
1868	0	32713	32775	32738	32775	32756	32775	32717	32557	
1869	0	32740	32679	32775	32827	32587	32738	32726	32679	
1870	0	32775	32717	32759	32702	32863	32637	32705	32676	
1871	0	32829	32763	32815	32703	32749	32788	32655	32577	
1872	0	32775	32564	32727	32567	32577	32799	32639	32663	
1873	0	32805	32762	32663	32637	32775	32633	32678	32623	
1874	0	32774	32655	32759	32635	32525	32811	32749	32721	
1875	0	32746	32759	32726	32703	32899	32775	32692	32620	
1876	0	32711	32614	32687	32641	32724	32746	32681	32674	
1877	0	32760	32485	32739	32717	32535	32762	32735	32679	
1878	0	32730	32687	32753	32603	32821	32750	32715	32563	
1879	0	32799	32615	32748	32655	32725	32812	32711	32625	
1880	0	32748	32703	32690	32621	32679	32735	32623	32551	
1881	0	32734	32615	32685	32719	32775	32775	32731	32623	
1882	0	32757	32595	32761	32677	32566	32690	32695	32607	
1883	0	32731	32702	32791	32743	32839	32771	32742	32661	
1884	0	32734	32699	32702	32695	32716	32715	32647	32730	
1885	0	32733	32717	32839	32786	32773	32639	32701	32699	
1886	0	32775	32559	32775	32775	32793	32687	32711	32725	
1887	0	32767	32765	32743	32690	32628	32844	32761	32671	
1888	0	32809	32763	32721	32843	32837	32663	32613	32635	
1889	0	32786	32773	32797	32751	32741	32789	32677	32575	
1890	0	32761	32607	32731	32818	32775	32713	32713	32647	
1891	0	32717	32604	32727	32724	32755	32669	32721	32551	
1892	0	32716	32747	32753	32838	32634	32645	32684	32647	
1893	0	32726	32699	32695	32694	32767	32742	32771	32511	
1894	0	32718	32685	32703	32799	32769	32692	32713	32629	
1895	0	32760	32531	32677	32623	32843	32733	32694	32487	
1896	0	32761	32663	32775	32675	32775	32763	32711	32631	
1897	0	32713	32743	32734	32593	32592	32823	32823	32549	
1898	0	32731	32773	32671	32735	32775	32767	32828	32663	
1899	0	32793	32704	32743	32621	32583	32663	32756	32586	
1900	0	32781	32543	32674	32647	32826	32789	32783	32599	
1901	0	32835	32645	32732	32557	32739	32679	32823	32677	
1902	0	32807	32762	32810	32717	32563	32692	32815	32482	
1903	0	32876	32738	32839	32612	32820	32751	32823	32639	
1904	0	32868	32775	32803	32690	32743	32702	32693	32607	
1905	0	32863	32789	32815	32705	32557	32774	32743	32459	
1906	0	32813	32575	32755	32725	32770	32617	32815	32603	
1907	0	32799	32623	32755	32711	32691	32742	32813	32587	
1908	0	32845	32799	32795	32655	32659	32703	32839	32467	
1909	0	32792	32663	32783	32714	32743	32659	32711	32586	
1910	0	32801	32671	32739	32620	32707	32605	32702	32603	
1911	0	32858	32647	32725	32655	32635	32773	32798	32615	
1912	0	32838	32533	32775	32533	32839	32726	32775	32559	
1913	0	32775	32463	32834	32669	32771	32732	32773	32551	
1914	0	32818	32631	32847	32685	32647	32543	32783	32613	
1915	0	32727	32558	32775	32655	32831	32677	32621	32673	
1916	0	32834	32681	32893	32619	32759	32775	32647	32547	
1917	0	32866	32677	32933	32519	32711	32599	32631	32609	
1918	0	32896	32683	32959	32599	32911	32647	32647	32509	
1919	0	32900	32391	32959	32506	32775	32660	32731	32603	
1920	0	32813	32535	32943	32597	32739	32711	32551	32532	
1921	0	32802	32647	32955	32500	32869	32576	32617	32607	
1922	0	32703	32599	32935	32687	32771	32734	32679	32597	
1923	0	32729	32578	32927	32711	32658	32655	32647	32559	
1924	0	32756	32619	32955	32575	32847	32831	32669	32679	
1925	0	32748	32439	32903	32606	32809	32615	32684	32615	
1926	0	32657	32383	32763	32537	32659	32751	32513	32559	
1927	0	32555	32309	32831	32591	32919	32751	32551	32850	
1928	0	32530	32525	32819	32519	32828	32845	32583	32759	
1929	0	32611	32487	32705	32647	32754	32737	32594	32839	
1930	0	32514	32559	32679	32595	32871	32853	32517	32851	
1931	0	32508	32635	32655	32667	32775	32869	32463	32727	
1932	0	32513	32431	32607	32571	32807	32845	32619	32815	
1933	0	32503	32607	32477	32739	32847	32867	32609	32621	
1934	0	32503	32623	32419	32685	32627	32805	32595	32815	
1935	0	32479	32677	32501	32871	32823	32879	32525	33047	
1936	0	32450	32813	32324	32831	32797	32881	32667	33023	
1937	0	32471	32673	32183	32994	32722	32989	32623	33057	
1938	0	32339	32868	32311	33009	32847	32999	32595	33042	
1939	0	32352	32871	32293	33110	32663	32987	32541	33159	
1940	0	32289	32959	32182	33084	32918	33031	32557	33084	
1941	0	32257	32943	32094	33269	32903	33218	32479	33277	
1942	0	32201	32743	32164	33220	32780	33139	32391	33523	
1943	0	32270	32867	32250	33238	32989	33139	32439	33431	
1944	0	32439	32917	32381	33150	32894	33108	32557	33306	
1945	0	32523	32811	32535	32958	32772	33013	32647	32955	
1946	0	32647	32755	32638	32960	32859	32903	32735	32968	
1947	0	32765	32662	32769	32799	32563	32807	32709	32647	
1948	0	32790	32519	32908	32766	32775	32604	32791	32711	
1949	0	32869	32639	32943	32524	32757	32698	32767	32479	
1950	0	33039	32627	32988	32509	32519	32575	32805	32581	
1951	0	33018	32623	32993	32455	32647	32731	32831	32418	
1952	0	33026	32677	32898	32619	32671	32481	32859	32361	
1953	0	33047	32647	32909	32583	32493	32647	32879	32452	
1954	0	33020	32487	33067	32530	32799	32597	32870	32431	
1955	0	33030	32494	33007	32532	32687	32635	32796	32315	
1956	0	33015	32655	32996	32507	32511	32505	32802	32375	
1957	0	32988	32735	32978	32583	32759	32657	32741	32196	
1958	0	33004	32743	32876	32543	32687	32586	32903	32413	
1959	0	32935	32767	32839	32647	32689	32647	32903	32413	
1960	0	32945	32831	32901	32775	32633	32527	32967	32315	
1961	0	32934	32823	32869	32659	32615	32695	32992	32407	
1962	0	32973	32850	32835	32743	32594	32609	32959	32391	
1963	0	33021	32711	32810	32647	32619	32574	32845	32427	
1964	0	32974	32771	32839	32747	32635	32659	32961	32357	
1965	0	32963	32839	32847	32669	32543	32677	32934	32471	
1966	0	32967	32797	32726	32812	32686	32549	32847	32421	
1967	0	32940	32813	32762	32687	32679	32647	32915	32457	
1968	0	32935	32659	32831	32731	32719	32645	32815	32499	
1969	0	32868	32754	32831	32619	32727	32655	32803	32519	
1970	0	32839	32687	32727	32647	32527	32639	32725	32515	
1971	0	32809	32727	32739	32599	32787	32617	32727	32411	
1972	0	32801	32710	32775	32641	32763	32703	32751	32573	
1973	0	32854	32814	32839	32679	32757	32599	32791	32695	
1974	0	32876	32695	32882	32499	32663	32706	32727	32409	
1975	0	32817	32519	32775	32609	32835	32667	32775	32603	
1976	0	32833	32647	32787	32471	32751	32757	32703	32503	
1977	0	32846	32690	32818	32567	32669	32786	32733	32641	
1978	0	32796	32613	32845	32523	32823	32799	32686	32722	
1979	0	32807	32775	32799	32535	32726	32647	32654	32730	
1980	0	32778	32647	32743	32573	32582	32763	32613	32735	
1981	0	32768	32599	32751	32747	32815	32807	32699	32686	
1982	0	32812	32711	32839	32638	32783	32599	32661	32685	
1983	0	32701	32711	32807	32743	32687	32807	32713	32599	
1984	0	32804	32701	32722	32683	32767	32797	32677	32668	
1985	0	32724	32751	32727	32703	32755	32623	32605	32663	
1986	0	32703	32632	32745	32763	32591	32738	32599	32503	
1987	0	32682	32637	32807	32707	32894	32813	32684	32683	
1988	0	32690	32571	32724	32799	32811	32831	32666	32719	
1989	0	32739	32679	32677	32647	32598	32685	32722	32583	
1990	0	32686	32735	32703	32799	32902	32759	32695	32703	
1991	0	32663	32701	32675	32715	32783	32793	32687	32635	
1992	0	32719	32751	32743	32795	32666	32635	32751	32711	
1993	0	32690	32508	32716	32767	32839	32769	32751	32767	
1994	0	32692	32690	32811	32775	32581	32839	32685	32699	
1995	0	32702	32757	32748	32742	32663	32727	32615	32687	
1996	0	32775	32754	32669	32694	32725	32699	32707	32730	
1997	0	32714	32775	32694	32797	32605	32775	32699	32743	
1998	0	32647	32599	32731	32663	32797	32756	32719	32557	
1999	0	32765	32578	32726	32799	32789	32763	32748	32646	
2000	0	32677	32575	32709	32711	32742	32823	32667	32723	
2001	0	32703	32699	32729	32703	32647	32807	32655	32587	
2002	0	32701	32647	32711	32755	32751	32799	32701	32607	
2003	0	32663	32637	32790	32660	32735	32743	32663	32583	
2004	0	32694	32679	32756	32679	32663	32789	32685	32663	
2005	0	32715	32468	32711	32643	32823	32640	32647	32807	
2006	0	32653	32567	32679	32759	32781	32810	32621	32699	
2007	0	32719	32711	32815	32647	32666	32786	32756	32718	
2008	0	32709	32647	32773	32671	32829	32683	32691	32574	
2009	0	32793	32706	32743	32565	32583	32784	32687	32723	
2010	0	32710	32593	32711	32747	32671	32799	32643	32815	
2011	0	32764	32543	32787	32703	32783	32643	32603	32759	
2012	0	32746	32731	32718	32747	32559	32775	32742	32771	
2013	0	32742	32647	32670	32719	32791	32734	32691	32551	
2014	0	32754	32767	32663	32811	32759	32615	32742	32638	
2015	0	32741	32669	32764	32799	32667	32828	32701	32612	
2016	0	32702	32541	32703	32783	32719	32783	32667	32707	
2017	0	32759	32818	32687	32717	32762	32623	32719	32743	
2018	0	32743	32689	32759	32684	32647	32795	32667	32731	
2019	0	32715	32715	32693	32743	32855	32814	32735	32715	
2020	0	32743	32540	32726	32647	32765	32612	32623	32535	
2021	0	32786	32631	32724	32711	32679	32683	32643	32596	
2022	0	32756	32775	32798	32590	32825	32791	32655	32806	
2023	0	32698	32727	32799	32743	32757	32623	32715	32717	
2024	0	32728	32710	32711	32578	32602	32791	32755	32763	
2025	0	32752	32586	32711	32663	32843	32814	32660	32627	
2026	0	32739	32559	32764	32535	32820	32687	32679	32719	
2027	0	32718	32721	32811	32639	32722	32813	32811	32615	
2028	0	32758	32707	32773	32578	32699	32783	32775	32697	
2029	0	32749	32637	32743	32724	32568	32806	32698	32724	
2030	0	32771	32534	32785	32647	32811	32751	32619	32671	
2031	0	32748	32685	32775	32706	32815	32766	32739	32677	
2032	0	32735	32679	32711	32643	32727	32786	32626	32518	
2033	0	32749	32679	32732	32707	32839	32647	32687	32628	
2034	0	32718	32527	32783	32591	32579	32663	32574	32587	
2035	0	32755	32487	32723	32711	32813	32786	32623	32667	
2036	0	32734	32749	32715	32673	32731	32719	32743	32767	
2037	0	32782	32671	32743	32813	32571	32787	32743	32743	
2038	0	32759	32647	32695	32706	32738	32788	32679	32741	
2039	0	32725	32603	32667	32775	32592	32795	32717	32685	
2040	0	32775	32773	32707	32726	32807	32726	32773	32615	
2041	0	32764	32711	32689	32793	32749	32775	32757	32578	
2042	0	32721	32759	32671	32703	32659	32807	32679	32642	
2043	0	32773	32515	32674	32751	32773	32671	32719	32775	
2044	0	32713	32719	32691	32706	32561	32685	32700	32757	
2045	0	32726	32647	32707	32711	32867	32785	32725	32732	
2046	0	32720	32751	32663	32731	32723	32757	32647	32659	
2047	0	32735	32547	32814	32645	32733	32807	32701	32707	
2048	0	32742	32668	32775	32783	32807	32647	32743	32663	
2049	0	32718	32711	32727	32739	32636	32775	32679	32683	
2050	0	32711	32719	32694	32749	32903	32695	32751	32799	
2051	0	32749	32765	32847	32749	32795	32735	32775	32602	
2052	0	32742	32553	32789	32647	32541	32701	32759	32691	
2053	0	32743	32685	32719	32724	32773	32775	32703	32519	
2054	0	32734	32733	32789	32690	32750	32799	32607	32610	
2055	0	32690	32647	32775	32775	32691	32826	32705	32627	
2056	0	32743	32687	32741	32547	32836	32758	32661	32719	
2057	0	32713	32687	32748	32757	32748	32775	32647	32647	
2058	0	32755	32623	32733	32677	32698	32647	32626	32578	
2059	0	32764	32541	32821	32763	32799	32847	32615	32607	
2060	0	32688	32743	32762	32583	32820	32761	32726	32466	
2061	0	32745	32751	32686	32647	32639	32821	32685	32612	
2062	0	32688	32676	32707	32710	32887	32691	32751	32647	
2063	0	32719	32687	32767	32635	32827	32766	32701	32783	
2064	0	32706	32738	32818	32723	32646	32802	32585	32655	
2065	0	32697	32613	32799	32723	32855	32805	32687	32545	
2066	0	32785	32527	32811	32667	32773	32669	32703	32698	
2067	0	32798	32693	32747	32713	32637	32754	32731	32661	
2068	0	32747	32732	32705	32683	32791	32731	32647	32679	
2069	0	32759	32749	32735	32825	32575	32799	32679	32636	
2070	0	32683	32663	32695	32642	32863	32791	32662	32756	
2071	0	32743	32531	32679	32750	32773	32759	32714	32727	
2072	0	32725	32647	32790	32751	32582	32749	32625	32583	
2073	0	32754	32705	32775	32773	32853	32727	32611	32675	
2074	0	32708	32679	32771	32727	32732	32583	32607	32687	
2075	0	32751	32627	32765	32628	32607	32745	32772	32670	
2076	0	32745	32757	32729	32746	32772	32791	32823	32731	
2077	0	32719	32455	32787	32615	32599	32669	32687	32630	
2078	0	32758	32679	32749	32719	32851	32738	32671	32647	
2079	0	32735	32691	32729	32594	32735	32709	32735	32503	
2080	0	32695	32595	32707	32607	32771	32619	32699	32643	
2081	0	32714	32660	32763	32554	32691	32799	32758	32589	
2082	0	32743	32507	32775	32569	32588	32799	32707	32639	
2083	0	32775	32582	32685	32511	32863	32655	32708	32759	
2084	0	32736	32674	32677	32598	32787	32765	32769	32661	
2085	0	32730	32647	32717	32631	32670	32671	32786	32647	
2086	0	32725	32655	32765	32763	32822	32735	32703	32541	
2087	0	32756	32711	32771	32742	32731	32666	32637	32678	
2088	0	32756	32623	32775	32655	32671	32635	32678	32685	
2089	0	32745	32511	32747	32725	32782	32733	32731	32590	
2090	0	32770	32695	32719	32583	32757	32795	32722	32743	
2091	0	32796	32799	32831	32706	32775	32657	32729	32550	
2092	0	32804	32674	32754	32671	32765	32821	32683	32711	
2093	0	32775	32735	32748	32759	32564	32767	32735	32711	
2094	0	32773	32551	32743	32687	32799	32743	32703	32677	
2095	0	32764	32679	32775	32720	32803	32734	32747	32693	
2096	0	32754	32743	32787	32701	32639	32799	32747	32615	
2097	0	32713	32679	32742	32751	32855	32742	32706	32751	
2098	0	32735	32742	32703	32694	32807	32789	32765	32748	
2099	0	32758	32745	32714	32749	32587	32637	32751	32549	
2100	0	32729	32767	32710	32831	32806	32709	32690	32699	
2101	0	32707	32617	32749	32735	32743	32694	32659	32759	
2102	0	32738	32701	32754	32759	32571	32695	32622	32623	
2103	0	32798	32747	32737	32719	32887	32666	32639	32603	
2104	0	32758	32711	32660	32911	32727	32679	32681	32503	
2105	0	32743	32745	32711	32757	32549	32795	32751	32727	
2106	0	32710	32663	32749	32815	32834	32587	32733	32605	
2107	0	32711	32607	32786	32794	32788	32765	32773	32647	
2108	0	32821	32775	32727	32775	32535	32647	32821	32701	
2109	0	32775	32643	32715	32791	32807	32757	32701	32563	
2110	0	32785	32763	32732	32663	32727	32659	32725	32692	
2111	0	32774	32642	32783	32710	32597	32802	32799	32617	
2112	0	32740	32577	32719	32575	32843	32811	32775	32719	
2113	0	32743	32674	32679	32662	32764	32785	32734	32758	
2114	0	32767	32653	32772	32611	32791	32631	32747	32521	
2115	0	32743	32721	32699	32527	32754	32798	32662	32745	
2116	0	32775	32661	32679	32656	32819	32749	32615	32743	
2117	0	32730	32726	32807	32692	32803	32831	32743	32487	
2118	0	32751	32532	32783	32683	32685	32703	32677	32578	
2119	0	32775	32666	32690	32694	32758	32759	32729	32485	
2120	0	32836	32723	32732	32722	32755	32747	32639	32639	
2121	0	32824	32743	32739	32703	32710	32635	32663	32531	
2122	0	32805	32793	32794	32647	32755	32775	32711	32612	
2123	0	32727	32727	32751	32742	32724	32719	32671	32754	
2124	0	32758	32647	32775	32775	32571	32781	32702	32663	
2125	0	32802	32589	32711	32741	32815	32765	32615	32682	
2126	0	32796	32799	32691	32770	32817	32797	32659	32548	
2127	0	32815	32708	32756	32755	32578	32703	32783	32681	
2128	0	32769	32759	32818	32818	32805	32799	32703	32765	
2129	0	32778	32771	32830	32662	32727	32695	32758	32703	
2130	0	32750	32583	32727	32782	32604	32785	32715	32735	
2131	0	32721	32687	32806	32690	32789	32759	32820	32595	
2132	0	32748	32619	32773	32722	32749	32625	32751	32673	
2133	0	32821	32655	32729	32784	32607	32763	32771	32751	
2134	0	32661	32703	32674	32747	32772	32685	32717	32685	
2135	0	32708	32487	32750	32629	32835	32785	32695	32751	
2136	0	32712	32562	32786	32641	32683	32603	32815	32668	
2137	0	32759	32701	32631	32714	32748	32710	32767	32701	
2138	0	32738	32727	32647	32683	32539	32801	32615	32673	
2139	0	32737	32603	32767	32797	32728	32679	32715	32786	
2140	0	32729	32540	32754	32660	32763	32783	32688	32647	
2141	0	32734	32615	32775	32699	32591	32755	32692	32617	
2142	0	32801	32771	32690	32615	32849	32775	32748	32579	
2143	0	32724	32714	32703	32719	32806	32639	32661	32701	
2144	0	32758	32793	32765	32662	32690	32812	32784	32628	
2145	0	32790	32769	32686	32707	32831	32735	32713	32719	
2146	0	32728	32607	32646	32643	32807	32759	32706	32679	
2147	0	32740	32543	32737	32673	32655	32827	32694	32571	
