# OpenSignals Text File Format
# {"00:07:80:3B:46:38": {"sensor": ["CUSTOM/0.5/1.0/V", "CUSTOM/0.5/1.0/V", "CUSTOM/0.5/1.0/V", "CUSTOM/0.5/1.0/V", "CUSTOM/0.5/1.0/V", "CUSTOM/0.5/1.0/V", "CUSTOM/0.5/1.0/V", "CUSTOM/0.5/1.0/V"], "device name": "EMGs", "column": ["nSeq", "DI", "RA_L", "RA_R", "OE_L", "OE:R", "IL_L", "IL_R", "MF_L", "MF_R"], "sync interval": 2, "time": "10:11:2.569", "comments": "", "device connection": "BTH00:07:80:3B:46:38", "channels": [1, 2, 3, 4, 5, 6, 7, 8], "date": "2017-6-2", "mode": 0, "digital IO": [0, 1], "firmware version": 772, "device": "biosignalsplux", "position": 0, "sampling rate": 1000, "label": ["RA_L", "RA_R", "OE_L", "OE:R", "IL_L", "IL_R", "MF_L", "MF_R"], "resolution": [16, 16, 16, 16, 16, 16, 16, 16], "special": [{}, {}, {}, {}, {}, {}, {}, {}]}}
# EndOfHeader
0	0	32743	32867	32855	32943	32367	32783	32391	32619	
1	0	32730	32815	33070	32636	32765	33263	32447	31791	
2	0	32647	32807	33031	32503	33078	33299	32942	33992	
3	0	32713	32603	33141	32281	32975	32902	33204	33154	
4	0	32815	32599	33075	32239	33295	33361	32891	32455	
5	0	32806	32755	32751	32407	32971	33541	32717	32915	
6	0	32735	32919	32365	32662	31875	32719	32647	33005	
7	0	32647	32827	32244	32684	32134	32271	32471	32244	
8	0	32641	32807	31981	32836	32993	32413	32639	31772	
9	0	32665	32654	32333	32751	34759	31888	33123	31511	
10	0	32679	32619	32914	32694	36154	32690	33423	31569	
11	0	32711	32724	32785	32741	34351	32351	33119	32719	
12	0	32526	32951	32252	32609	31358	32105	32770	33279	
13	0	32697	32711	32555	32551	28586	31800	32183	33175	
14	0	32832	32537	32770	32331	30727	33743	32639	31391	
15	0	32957	32631	32775	32299	31587	33861	32963	33343	
16	0	32941	32791	32855	32599	32096	33277	32443	34479	
17	0	33039	32738	32742	32667	32803	32837	32629	33399	
18	0	32865	32775	32543	32729	33943	33098	33004	32007	
19	0	32724	32639	32629	32727	33411	32246	33116	32967	
20	0	32855	32631	32613	32711	32773	32415	32633	34458	
21	0	32762	32807	32465	32820	32015	33855	32508	34228	
22	0	32819	32791	32506	33001	32619	33732	32199	34511	
23	0	32732	32815	32503	32933	33255	32519	32595	31135	
24	0	32668	32660	32365	33069	33167	31027	32973	30193	
25	0	32687	32895	32431	32706	33055	32407	33047	31283	
26	0	32724	32775	32723	32743	32799	33777	32882	31495	
27	0	32724	32566	32875	32603	32501	33747	32989	31085	
28	0	32634	32767	32771	32847	32286	32443	32887	31879	
29	0	32792	32732	32527	32717	32573	31145	32775	33270	
30	0	32872	32747	32423	32883	32969	31931	32663	33538	
31	0	32743	32642	32486	32820	32973	32669	32886	32669	
32	0	32846	32807	32679	32855	32759	32093	32639	33318	
33	0	32807	32815	32835	32647	32863	32342	32503	34247	
34	0	32799	32839	32753	32761	32683	32193	32679	33462	
35	0	32745	32811	32743	32807	32900	32783	32850	33350	
36	0	32684	32807	32807	32852	32743	32903	32719	34039	
37	0	32730	32699	32767	32644	32833	32431	33171	34222	
38	0	32679	32875	32625	32647	33279	33453	32941	33367	
39	0	32605	32859	32541	32535	33107	33809	32629	31568	
40	0	32642	32686	32357	32627	32749	33402	31892	31691	
41	0	32705	32959	32441	32359	32347	31215	32379	32127	
42	0	32720	32802	32313	32486	33119	32615	32875	30402	
43	0	32727	32603	32167	32567	32831	32982	32749	30674	
44	0	32711	32707	32071	32709	32772	32407	32246	30575	
45	0	32662	32806	32284	32741	32926	32581	32797	31683	
46	0	32647	32858	32539	33010	32999	34150	33287	34851	
47	0	32756	32631	32996	33107	33012	33679	33193	33346	
48	0	32951	32758	33230	32965	32173	33511	33436	31351	
49	0	32834	32799	32971	33013	31917	31965	33087	32563	
50	0	32716	32587	32452	32719	31663	31746	32871	33123	
51	0	32678	32746	32476	32858	32615	31916	32813	35031	
52	0	32775	32743	33039	32812	32727	33311	32557	35273	
53	0	32850	32647	33338	32769	33270	31875	32506	34665	
54	0	32794	32572	33302	32679	33731	30815	32668	33555	
55	0	32905	32720	33141	32531	33538	33238	32661	31469	
56	0	32962	32730	32898	32548	33593	33509	33127	31527	
57	0	32941	32735	32613	32663	33811	32860	33234	31591	
58	0	32862	32603	32554	32647	32893	32431	32903	32222	
59	0	32762	32815	32420	32685	32711	32085	32833	32495	
60	0	32692	32701	32391	32843	33458	32367	32516	32903	
61	0	32771	32617	32519	32964	33735	33275	33159	32162	
62	0	32690	32841	32487	33151	32605	32910	33374	31750	
63	0	32727	32731	32555	32997	31823	32518	32855	32035	
64	0	32756	32860	32647	33039	32423	33071	32647	33047	
65	0	32745	32694	32470	32826	32428	32879	32551	34277	
66	0	32754	32971	32333	32678	32485	32819	32599	33367	
67	0	32775	32806	32303	32713	32491	32636	32070	32873	
68	0	32773	32795	32181	32647	31187	32422	32022	32727	
69	0	32706	32647	32450	32579	31723	32930	32042	32479	
70	0	32852	32879	32627	32629	33015	33047	31485	32614	
71	0	32897	32787	32779	32621	33082	33006	32369	32487	
72	0	32929	32827	32619	32498	32679	32671	32702	32668	
73	0	32850	32631	32487	32515	32543	32503	32415	32581	
74	0	32710	32826	32743	32566	32759	32745	32691	32292	
75	0	32671	32843	33095	32551	32835	32799	32931	32351	
76	0	32679	32845	33039	32575	32695	32679	33137	32587	
77	0	32601	32660	32911	32641	32723	32835	33460	32535	
78	0	32585	32855	32663	32719	33281	32893	33587	32663	
79	0	32588	32762	32263	32647	33234	32802	33340	32447	
80	0	32578	32614	32010	32671	33107	32670	33193	32231	
81	0	32477	32882	32127	32863	33043	32679	32870	32663	
82	0	32637	32775	32510	32833	32662	32775	32617	32217	
83	0	32821	32811	32334	32810	33142	32955	32495	32198	
84	0	32770	32647	31955	32749	33025	33001	32343	32810	
85	0	32701	32858	32042	32738	32295	33231	32511	32803	
86	0	32461	32735	33045	32830	32758	33403	32803	32788	
87	0	32754	32767	34156	32766	33031	33359	32980	32082	
88	0	32775	32608	33787	32805	32933	32244	32278	32828	
89	0	32861	32615	33330	32759	32225	30599	32775	33482	
90	0	32903	32739	33316	32602	32461	32566	33077	34119	
91	0	32924	32801	32639	32523	33025	34227	33205	33627	
92	0	32928	32780	31594	32677	33195	35915	33040	32383	
93	0	32983	32530	31358	32500	33138	34847	33037	32720	
94	0	32775	32798	31284	32771	32623	30903	32903	33380	
95	0	32567	32823	31823	33059	32107	29319	32609	36243	
96	0	32815	32773	32400	33044	33007	30542	32859	34087	
97	0	32861	32766	33151	32851	33863	32500	33255	32135	
98	0	32859	32628	33474	32932	35391	31925	32934	33373	
99	0	32613	32859	32974	33016	34247	31111	32738	32354	
100	0	32684	32967	32557	32903	30042	32730	33223	30111	
101	0	32704	32626	32629	32951	29733	33871	32834	29089	
102	0	32794	32522	32831	32797	30925	31982	32039	31053	
103	0	32707	32789	32942	32644	32375	33555	31959	32015	
104	0	32875	32839	32639	32731	33055	33607	32198	33667	
105	0	32892	32583	32855	32575	33191	33750	32959	32049	
106	0	32844	32623	32822	32503	32854	32912	30810	34019	
107	0	32731	32800	32750	32886	33466	33991	31343	31343	
108	0	32760	32694	32679	32746	33484	34452	33191	28751	
109	0	32726	32833	32594	32466	33230	33061	34164	30166	
110	0	32609	32862	32595	32569	33207	31799	34158	31743	
111	0	32636	32914	32799	32721	32529	31139	33383	33413	
112	0	32726	32743	32923	32775	32228	32083	33014	35770	
113	0	32832	32815	32899	32815	32611	32031	32877	35143	
114	0	32745	32804	32811	33015	33170	32719	32734	33373	
115	0	32671	32863	32324	32775	33111	32788	32533	33221	
116	0	32806	32775	32447	32688	32583	32586	32815	33399	
117	0	32732	32775	32595	32439	32673	32628	32707	33471	
118	0	32671	32626	32503	32246	32679	32923	32903	33127	
119	0	32770	32711	32647	32647	32773	33071	32710	32263	
120	0	32743	32812	32647	32809	33231	32879	32809	31666	
121	0	32784	32687	32646	32731	33412	32413	33086	31410	
122	0	32711	32927	32391	32628	32989	32765	32893	32327	
123	0	32745	32775	32509	32410	32775	32703	32697	32965	
124	0	32808	32850	32623	32668	32719	32643	32367	34509	
125	0	32719	32933	32685	32996	32621	33482	33319	34055	
126	0	32720	32563	32586	33255	33117	33143	33911	33910	
127	0	32857	32727	32710	33725	33382	33018	33402	33187	
128	0	32835	32470	32858	33935	32391	32389	31853	33375	
129	0	32726	32695	32557	34027	32391	31714	31743	33015	
130	0	32685	32731	32706	33765	33366	32098	31943	32783	
131	0	32791	32747	32724	32995	35501	32735	31856	33007	
132	0	32729	32831	32579	32571	36055	32963	32100	32831	
133	0	32676	32732	32695	32239	33387	32671	32797	31967	
134	0	32575	32924	32533	32215	30539	32083	32647	31878	
135	0	32752	32871	32655	32287	30012	33257	32119	31635	
136	0	32836	32599	32539	32210	30169	33615	32745	32010	
137	0	32819	32715	32647	32445	30975	33287	33287	31943	
138	0	32713	32687	32481	32384	32301	33018	33430	32089	
139	0	32647	32852	32350	32439	32308	32567	33159	32574	
140	0	32806	32887	32523	32219	32433	32543	32837	32959	
141	0	32756	32673	32629	32212	33033	32705	32865	32639	
142	0	32758	32807	32800	32571	33065	32903	32898	32479	
143	0	32804	32693	32743	32877	32733	32639	32853	32454	
144	0	32777	32743	32819	32873	33014	32603	32927	32487	
145	0	32718	32839	32773	32981	33060	32539	32677	32707	
146	0	32804	32799	32580	32811	32822	32525	32767	32791	
147	0	32711	32807	32655	32790	32646	32226	32819	32883	
148	0	32739	32846	32499	32757	33071	32690	32720	33036	
149	0	32750	32775	32629	32722	33613	32983	32767	32775	
150	0	32795	32807	32687	32572	33079	32955	32771	32902	
151	0	32821	32590	32455	32635	33109	32743	32633	32999	
152	0	32683	32757	32586	32591	32939	32685	32759	32943	
153	0	32813	32830	32710	32519	32983	32739	33006	32844	
154	0	32759	32621	32631	32631	32956	32711	32734	32575	
155	0	32759	32803	32885	32609	33371	32807	32823	32374	
156	0	32772	32813	32878	32443	32853	32643	33031	32423	
157	0	32742	32555	32687	32557	33267	32662	32923	32523	
158	0	32764	32727	32757	32503	32871	32962	32738	32534	
159	0	32853	32786	32690	32661	32299	33098	32831	32509	
160	0	32734	32679	32359	32623	32293	32811	32839	32613	
161	0	32647	32607	32463	32660	32489	32739	32673	32605	
162	0	32685	32831	32451	32579	32477	32581	32775	32541	
163	0	32803	32775	32511	32759	32751	32679	32757	32871	
164	0	32902	32551	32615	32921	33053	32733	32967	32723	
165	0	32829	32784	32747	33015	32788	32831	33077	32508	
166	0	32743	32941	32614	32971	32949	32983	32505	32205	
167	0	32706	32663	32610	32909	32871	32585	32565	32007	
168	0	32739	32827	32647	33063	32954	32252	32734	32875	
169	0	32734	32923	32919	32935	33143	32501	32827	32941	
170	0	32690	32691	32703	32927	33107	32597	32667	33067	
171	0	32870	32807	32501	32771	33441	33083	32431	33159	
172	0	32894	32911	32420	32705	33678	33331	32587	33530	
173	0	32748	32555	32432	32691	32463	33259	33422	33117	
174	0	32579	32860	32343	32729	31151	32004	33125	32518	
175	0	32414	32955	32488	32623	32717	31709	31898	33135	
176	0	32532	32797	32903	32692	32967	33043	32886	32902	
177	0	32989	32646	33255	32607	31995	33235	32811	32994	
178	0	32962	32547	33099	32895	31639	32151	33391	32563	
179	0	32882	32703	32734	32775	32559	32946	33601	32406	
180	0	32804	32699	32803	32598	34036	33671	31759	33158	
181	0	32878	32636	32115	32859	34021	33747	31415	34727	
182	0	32997	32749	31819	32945	32979	34466	31952	32455	
183	0	32790	32875	31801	32847	31572	31945	32591	30979	
184	0	32431	32799	32166	32892	32039	30289	32791	32663	
185	0	32543	32815	32861	32861	32492	31013	33255	32714	
186	0	32752	32877	33204	32642	33031	33223	33259	31388	
187	0	32836	32719	33031	32719	33046	33079	33207	30583	
188	0	32956	32855	32893	32707	32453	32463	33063	31267	
189	0	32763	32930	32623	32535	32283	33682	32815	32367	
190	0	32790	32613	32555	32536	32833	35250	33031	32612	
191	0	32885	32671	32507	32455	32863	34810	32991	32983	
192	0	32686	32751	32563	32660	33552	32902	32911	33726	
193	0	32479	32659	32788	32803	33072	30117	32583	32601	
194	0	32541	32860	32647	32660	32631	29285	32446	33317	
195	0	32749	32605	32662	32767	33173	31516	32451	32707	
196	0	32782	32712	32719	32685	32133	32730	32231	34411	
197	0	32876	32760	32683	32783	31209	32183	32711	33033	
198	0	32788	32658	32709	32703	32451	31743	32929	30658	
199	0	32791	32887	32441	32829	32855	32765	33159	31579	
200	0	32815	32918	32379	33023	33086	34031	33127	33015	
201	0	32770	32630	32303	32951	33220	33231	32861	33959	
202	0	32662	32743	32311	32695	33287	32749	32790	33386	
203	0	32668	32806	32742	32705	33185	33133	32742	32535	
204	0	32703	32583	32967	32539	33195	33070	32643	32858	
205	0	32671	32764	32837	32527	33130	32987	32621	32951	
206	0	32732	32786	32899	32427	33063	32769	32658	32611	
207	0	32738	32775	32919	32327	33103	32836	32735	32073	
208	0	32768	32915	32730	32730	32647	32838	32775	32811	
209	0	32791	32757	32647	32827	32635	32914	32714	32804	
210	0	32812	32771	32655	32935	32258	33039	32730	32734	
211	0	32823	32577	32727	33018	32519	33137	32850	31930	
212	0	32763	32663	32647	33028	32487	32740	32931	32039	
213	0	32738	32775	32388	33071	32799	32213	32751	32615	
214	0	32775	32611	32487	33025	32711	32460	32740	32749	
215	0	32769	32709	32653	33199	32399	32698	32875	32827	
216	0	32686	32786	32558	33044	32582	32806	32815	32775	
217	0	32703	32759	32715	32822	32378	32775	32841	32735	
218	0	32696	32897	32655	32636	32634	32715	32669	32791	
219	0	32734	32645	32775	32519	32819	32802	32573	32763	
220	0	32700	32771	32623	32531	32771	32804	32823	32175	
221	0	32738	32567	32901	32623	32455	32900	32855	32418	
222	0	32765	32764	32911	32711	32902	32991	32725	32711	
223	0	32798	32853	32787	32615	33031	32879	32951	32619	
224	0	32735	32611	32449	32527	33103	32357	32988	32773	
225	0	32721	32786	32301	32549	32903	32647	32659	32794	
226	0	32738	32790	32423	32995	33004	32534	32839	32895	
227	0	32716	32677	32399	33169	33268	32645	32655	33159	
228	0	32731	32895	32487	33159	33082	32749	32732	33165	
229	0	32787	32895	32627	32775	33027	32709	32767	33055	
230	0	32783	32775	32583	32331	33071	32739	32677	32903	
231	0	32684	32807	32637	32151	32846	32832	32687	32765	
232	0	32734	32631	32429	32199	32613	32671	32710	32551	
233	0	32751	32775	32537	32590	32621	32723	32677	32427	
234	0	32732	32791	32558	32775	32662	32639	32500	32403	
235	0	32767	32823	32706	33095	32722	32582	32814	32239	
236	0	32843	32655	32659	33277	32981	32503	32932	32567	
237	0	32768	32863	32667	32933	33014	32583	32831	33195	
238	0	32748	32716	32822	32289	32717	32570	32763	32516	
239	0	32838	32789	32903	32112	32767	32645	32745	32860	
240	0	32843	32711	32615	32045	32895	33319	32584	33759	
241	0	32799	32756	32743	32362	32663	32757	32661	33007	
242	0	32844	32807	32679	32610	32683	32647	32815	32071	
243	0	32772	32625	32538	32863	32433	32565	32831	32135	
244	0	32751	32731	32622	33269	32487	32681	32802	32724	
245	0	32705	32845	32726	33325	33679	32663	32751	33197	
246	0	32646	32798	32327	33243	33935	32206	32668	33253	
247	0	32726	32859	32447	33151	32563	32183	32633	33439	
248	0	32701	32637	32582	32943	32196	32262	32672	33279	
249	0	32701	32772	32516	33154	32823	32644	32443	33703	
250	0	32842	32775	32879	33069	31974	32391	32863	33271	
251	0	32987	32583	32967	32941	31330	32807	33399	32223	
252	0	32909	32708	32568	32719	31879	34245	33524	30131	
253	0	32716	32563	32663	32354	32562	33647	33305	32075	
254	0	32588	32851	32647	32251	33138	34091	32941	32500	
255	0	32680	32913	32734	32017	33511	33670	32455	32343	
256	0	32729	32746	32940	31895	33327	31983	32451	32723	
257	0	32644	32869	32690	32271	33067	31260	32985	33204	
258	0	32607	32923	32717	32437	33083	31645	32871	31634	
259	0	32760	32806	32769	32676	33519	32863	32870	31444	
260	0	32659	32677	32551	32980	32869	33428	32295	30662	
261	0	32711	32830	32639	33351	32995	33187	32701	32007	
262	0	32752	32855	32375	33683	32853	33060	32461	33349	
263	0	32798	32530	32335	33647	32663	33077	32564	33099	
264	0	32831	32604	32391	33485	32482	32844	32921	33082	
265	0	32811	32738	32250	33185	32766	32399	32938	32935	
266	0	32709	32605	32511	32862	33011	32515	32581	33212	
267	0	32705	32763	32659	32535	32535	33263	32519	33484	
268	0	32791	32754	32803	32535	32595	33178	33023	32585	
269	0	32734	32899	33031	32450	32318	32519	33154	32350	
270	0	32703	32632	33066	32375	32507	32499	32911	33133	
271	0	32727	32743	32727	32511	33253	32833	32743	33287	
272	0	32783	32647	32530	32597	32996	32759	32566	32167	
273	0	32742	32799	32262	32453	32631	32747	32801	32103	
274	0	32709	32774	32159	32663	32261	31315	32683	33671	
275	0	32775	32691	32455	32621	32501	30198	32549	33714	
276	0	32824	32751	32371	32441	32951	32295	32407	32854	
277	0	32879	32807	32582	32638	33083	33199	32767	32263	
278	0	32845	32562	32549	32510	32863	32079	32938	32743	
279	0	32699	32825	32790	32449	32799	32756	32893	32698	
280	0	32701	32647	32789	32691	32527	32695	32691	33014	
281	0	32724	32845	32975	32997	32351	32470	33005	32647	
282	0	32750	32775	32828	32773	32937	32911	32813	32847	
283	0	32615	32675	32646	32530	32895	32563	32932	32685	
284	0	32720	32821	32811	32551	32687	33012	32989	32700	
285	0	32720	32899	32595	32468	32599	33468	32662	32535	
286	0	32768	32626	32647	32546	32723	33241	32887	32497	
287	0	32832	32821	32666	32647	32713	32959	33038	32571	
288	0	32844	32903	32663	32733	32411	32879	33186	32581	
289	0	32828	32683	32773	33067	32565	32883	31902	32750	
290	0	32738	32839	32830	32820	32819	32962	31821	33159	
291	0	32764	32827	32839	32982	32962	32775	32262	33135	
292	0	32790	32721	32543	32983	33354	32706	32371	32685	
293	0	32735	32797	32626	32935	33287	32658	32563	32475	
294	0	32740	32814	32687	33009	33133	32851	32887	32295	
295	0	32770	32803	32453	32999	32847	32738	32997	32310	
296	0	32736	32806	32412	32758	32570	32745	32875	32498	
297	0	32746	32835	32276	32725	32711	32683	32966	32439	
298	0	32759	32658	32477	32647	32769	32783	32681	32615	
299	0	32749	32707	32623	32679	32811	32790	32631	32679	
300	0	32775	32836	32470	32879	32819	32732	32737	32623	
301	0	32695	32617	32532	32830	33143	32603	32699	32587	
302	0	32727	32751	32542	32503	32981	32495	32673	32655	
303	0	32670	32655	32735	32659	32417	32727	32773	32583	
304	0	32698	32791	32463	32598	32263	32734	32791	32623	
305	0	32704	32831	32515	32263	32391	32733	32708	32647	
306	0	32802	32570	32706	32175	32529	32786	32845	32676	
307	0	32838	32727	32925	32061	33043	32695	32855	32686	
308	0	32848	32791	32795	32203	33311	32758	32887	33147	
309	0	32762	32607	32643	32576	32877	32717	32871	33127	
310	0	32758	32824	32358	32615	33077	32659	32833	32605	
311	0	32878	32830	32647	32367	32903	33127	32903	32497	
312	0	32804	32511	32862	32407	33373	33526	33026	32389	
313	0	32812	32755	32671	32554	33467	32527	32935	32442	
314	0	32711	32662	32714	32732	31025	32327	33077	32474	
315	0	32790	32815	32645	32934	30412	32445	33177	32941	
316	0	32801	32850	32503	33254	32662	32439	32876	33682	
317	0	32680	32799	32603	33463	33375	32471	32677	32980	
318	0	32736	32805	32570	33361	33415	32679	32743	32482	
319	0	32749	32807	32700	33271	33159	32567	32567	32463	
320	0	32831	32709	32763	33154	33319	32679	32634	32300	
321	0	32832	32871	32626	33220	33171	32749	32754	32319	
322	0	32820	32975	32553	33307	32808	32599	32730	32477	
323	0	32767	32626	32690	33235	32628	32679	32727	32501	
324	0	32759	32850	32773	32823	32891	32799	32693	32927	
325	0	32711	32775	32955	32330	32903	32785	32647	32917	
326	0	32741	32822	32975	32246	32847	32629	32655	32919	
327	0	32751	32699	32791	32575	32455	32479	32739	32707	
328	0	32753	32628	32706	32967	32426	32551	32530	32443	
329	0	32743	32739	32725	33021	33023	32837	32516	32443	
330	0	32732	32814	32679	32598	33444	33237	33010	32191	
331	0	32655	32667	32399	32455	34009	32871	32951	32143	
332	0	32543	32877	32188	32303	33717	32695	32517	32412	
333	0	32617	32894	31954	32391	32863	32583	33191	32335	
334	0	32640	32493	31744	32535	31767	32763	32951	32510	
335	0	32617	32747	31903	32647	31634	33390	32253	33451	
336	0	32617	32831	32011	33019	31961	32327	32454	33687	
337	0	32695	32511	32287	32937	32167	31839	32198	33287	
338	0	32735	32591	32756	32469	33101	32903	32470	33214	
339	0	32766	32639	32807	32322	33549	33443	33077	33131	
340	0	32816	32421	32863	32389	33919	33380	32971	32823	
341	0	32759	32663	32319	32519	33157	33207	32703	32071	
342	0	32729	32763	32349	32997	31885	33567	32399	32044	
343	0	32706	32613	32493	33254	32037	33047	32806	31959	
344	0	32647	32775	32450	33079	32175	31431	32895	32082	
345	0	32765	32821	32241	32974	32043	32037	32695	32442	
346	0	32782	32575	32333	32683	32652	32837	32787	32385	
347	0	32788	32690	32495	32647	32857	33367	32821	32263	
348	0	32820	32743	32542	32731	32807	33018	32775	32783	
349	0	32793	32606	32630	32297	33063	32140	32507	33060	
350	0	32822	32769	32551	32295	33031	32173	32453	32855	
351	0	32698	32703	32615	32247	32669	32276	32463	32863	
352	0	32664	32626	32519	32177	32903	32599	32535	33263	
353	0	32704	32711	32699	32143	33213	33211	32660	33329	
354	0	32693	32829	32725	32324	33012	32845	32743	32987	
355	0	32694	32775	32623	32583	32945	32371	32787	32708	
356	0	32732	32877	32815	33125	32919	32399	32759	32501	
357	0	32816	32975	32999	33116	32949	32291	32879	32511	
358	0	32907	32967	32967	33277	32805	32221	33078	32516	
359	0	32949	33095	33287	33482	32643	32493	33339	32590	
360	0	32866	33171	33713	33659	32498	32751	33511	32351	
361	0	32836	33110	33799	33762	32583	32696	33845	32199	
362	0	33060	33007	33830	33519	32692	32839	33855	32151	
363	0	33106	32945	33671	33439	32655	32503	33194	32583	
364	0	33144	32775	33606	32976	32638	32300	33151	32754	
365	0	33117	32635	33325	32701	32671	32620	32835	32551	
366	0	33009	32855	33078	32421	32667	32815	32959	32421	
367	0	32861	32823	32923	32421	32789	33047	32432	32237	
368	0	32757	32623	32340	32647	33614	33797	32975	32189	
369	0	32740	32791	32123	32837	33414	33113	32543	33143	
370	0	32567	32883	31818	32711	32791	32893	33739	32937	
371	0	32604	32571	31892	32987	32027	32281	33658	32963	
372	0	32506	32575	31874	32753	32420	33087	33772	32591	
373	0	32512	32707	32161	32679	33241	33595	32551	32807	
374	0	32594	32768	32466	32517	34003	32271	30983	32675	
375	0	32559	32546	32638	32611	32807	31382	30891	32903	
376	0	32512	32773	32716	32850	32659	31879	31546	32966	
377	0	32568	32947	32799	32883	31613	32721	31815	33183	
378	0	32719	32755	32957	32974	31846	32954	31642	32991	
379	0	32826	32811	33001	32675	31743	32555	31853	32756	
380	0	32916	32698	33095	32169	32619	32887	33335	32263	
381	0	32959	32453	32797	31774	33573	32843	33053	32470	
382	0	32879	32519	32183	31895	34183	32723	33473	32459	
383	0	32822	32641	31783	32671	33239	32478	33842	32186	
384	0	32782	32621	31807	33117	32501	33005	33565	32195	
385	0	32702	32699	32486	32893	31982	33060	32692	33071	
386	0	32717	32847	32959	32979	32215	33261	31875	32579	
387	0	32751	32807	32660	32923	33035	33622	31668	32399	
388	0	32687	32999	32416	32961	33730	33010	32607	32607	
389	0	32704	32775	32258	32613	32823	32085	32553	32619	
390	0	32724	32663	32512	32719	32647	31303	32514	32551	
391	0	32806	32742	32431	32911	32471	32367	33879	32439	
392	0	32744	32775	32579	32837	32835	32694	34119	32373	
393	0	32730	32595	32863	32911	32951	32287	33553	32541	
394	0	32844	32799	32949	33035	32871	32367	32903	33015	
395	0	32782	32815	32775	32715	32679	32839	33065	32404	
396	0	32821	32681	32668	32404	32932	33567	32843	32529	
397	0	32773	32616	32695	32130	32949	34560	32632	32822	
398	0	32815	32742	32563	32291	32783	34143	32663	32567	
399	0	32778	32685	32445	32847	32712	33182	32292	33061	
400	0	32780	32756	32487	32983	32514	30567	32531	32911	
401	0	32627	32827	32595	32791	32626	30422	32647	33260	
402	0	32631	32628	32626	32367	32713	32092	32528	33110	
403	0	32769	32769	32679	32262	32775	32791	32516	33887	
404	0	32751	32839	32765	32047	32639	32666	32655	34609	
405	0	32760	32843	32631	32295	32738	32740	32620	33983	
406	0	32795	32627	32719	32351	32786	32519	32807	32220	
407	0	32750	32681	32810	32157	33039	33654	32821	29923	
408	0	32729	32829	32775	32421	32983	34071	32867	30173	
409	0	32723	32962	32722	32995	32767	33198	32843	32163	
410	0	32666	32988	32671	33538	32671	32517	32743	33059	
411	0	32660	32647	32519	33500	32655	32567	32716	33113	
412	0	32710	32743	32655	33833	32725	32675	32732	33183	
413	0	32695	32858	32470	33821	32927	32758	32711	32419	
414	0	32670	32647	32351	33647	32927	32606	32858	32143	
415	0	32678	32820	32399	33410	32804	32531	32787	32063	
416	0	32718	32747	32310	32879	32765	32916	32644	32219	
417	0	32738	32481	32455	33577	32799	33021	32742	32339	
418	0	32688	32639	32485	33625	32703	33007	32727	32317	
419	0	32764	32767	32705	33220	32721	32579	32611	33181	
420	0	32825	32535	32723	32678	32775	32962	32495	34070	
421	0	32755	32762	32577	32559	32711	32962	32718	33687	
422	0	32766	32831	32797	32325	32703	32930	32668	33117	
423	0	32800	32621	32959	32051	32799	32703	32707	32919	
424	0	32836	32663	32835	31903	32867	32469	32853	32775	
425	0	32745	32773	32765	32293	32731	32557	32737	32703	
426	0	32647	32745	32682	32547	32734	32474	32699	32769	
427	0	32745	32630	32452	32627	32935	32375	32739	32571	
428	0	32758	32835	32491	32583	32871	32615	32746	32531	
429	0	32730	32887	32557	32647	32759	32715	32795	32445	
430	0	32715	32631	32691	32514	32789	32831	32799	32443	
431	0	32775	32845	32903	32633	32807	32721	32791	32647	
432	0	32796	32789	32599	32655	32807	32647	32821	32699	
433	0	32748	32639	32507	32564	32815	32690	32775	32586	
434	0	32780	32851	32675	32507	32706	32727	32718	32684	
435	0	32785	32879	32659	32519	32698	32774	32638	32855	
436	0	32693	32647	32623	32493	32617	32610	32655	32863	
437	0	32726	32788	32506	32557	32647	32695	32561	32847	
438	0	32788	32863	32668	32459	32833	32833	32702	32903	
439	0	32803	32551	32858	32594	32599	32871	32938	32791	
440	0	32843	32730	32765	32623	32493	32789	32890	32775	
441	0	32681	33011	32647	32916	33345	33111	32870	32691	
442	0	32633	32767	32475	32927	33584	32903	32982	32705	
443	0	32676	32839	32554	32742	33755	32551	32943	32671	
444	0	32683	32858	32571	32887	32807	32226	32761	32647	
445	0	32761	32871	32821	32935	32100	31955	32751	32527	
446	0	32801	32548	32543	32852	31879	32559	32658	32378	
447	0	32786	32747	32541	32967	32255	32887	32635	32431	
448	0	32679	32987	32421	33138	32519	32423	32633	32519	
449	0	32715	32567	32311	32703	32502	32253	32523	32427	
450	0	32879	32643	32615	32357	32645	33077	32811	32443	
451	0	32784	32775	32749	32437	32823	33252	32723	32559	
452	0	32690	32637	32615	32535	32883	32815	32858	32418	
453	0	32775	32823	32835	32767	32815	32690	33031	32258	
454	0	32802	32743	32881	32452	33155	32635	32851	32455	
455	0	32842	32722	32804	32399	34532	33661	33335	32359	
456	0	32734	32561	32739	32643	34770	33429	33375	32210	
457	0	32711	32760	32497	32937	34141	32790	32835	32659	
458	0	32775	32935	32774	32788	32237	33316	32601	32671	
459	0	32790	32655	32586	32937	31386	34868	32827	32413	
460	0	32681	32843	32711	32854	31387	34878	32455	32719	
461	0	32738	32878	32631	32735	31164	31461	32485	33028	
462	0	32784	32607	32535	32679	32604	29742	32751	33378	
463	0	32722	32815	32635	33107	33103	29574	32642	33511	
464	0	32754	32815	32807	33053	33375	32321	32571	33463	
465	0	32690	32767	32583	33055	33047	32340	32143	32889	
466	0	32770	32846	32527	32958	34111	33149	31775	32469	
467	0	32748	32757	32567	32495	34366	32959	31526	32919	
468	0	32708	32631	32404	32431	32543	32873	31305	32647	
469	0	32711	32763	32549	32647	30658	32387	30777	33471	
470	0	32631	32877	32647	32486	30298	32297	32358	33913	
471	0	32754	32589	32560	32351	31357	33119	35455	33324	
472	0	32924	32556	32801	32062	32765	34144	37297	32391	
473	0	32934	32605	32662	32025	33709	33709	36847	31655	
474	0	32850	32636	32717	32639	33566	32711	34621	32215	
475	0	32782	32839	32629	32999	32891	32738	33474	32583	
476	0	32767	32909	32709	32913	32711	32263	31956	32495	
477	0	32703	32647	32575	32874	33132	32178	30757	31909	
478	0	32758	32861	32731	33009	33811	33010	31887	32029	
479	0	32790	32931	32709	33167	32719	33127	31866	32311	
480	0	32773	32739	32659	33083	32210	32799	32079	32251	
481	0	32713	32871	32807	32924	32770	32950	31397	32691	
482	0	32690	32841	32661	32981	32655	33129	31903	32435	
483	0	32681	32727	32281	32951	32109	32699	32535	32262	
484	0	32647	32837	32390	32956	33155	32803	33111	32339	
485	0	32581	32991	32459	32999	33810	32806	32807	32939	
486	0	32617	32698	32719	32843	33662	32548	31805	32786	
487	0	32699	32830	32527	32935	32091	31735	32183	32271	
488	0	32663	32926	32515	32798	31913	32307	32183	32414	
489	0	32804	32601	32461	32537	32287	33869	31831	31730	
490	0	32836	32623	32788	32087	32963	34790	32359	31363	
491	0	32820	32863	32766	32859	32275	33438	32879	32934	
492	0	32679	32703	32617	32714	32150	31335	34746	33583	
493	0	32829	32717	32759	32447	33342	32641	35178	33427	
494	0	32871	32787	32903	32583	33613	32374	33799	33479	
495	0	32919	32553	32835	32742	33271	32096	32644	34307	
496	0	32866	32707	32791	32514	32915	32685	32767	34215	
497	0	32800	32735	32524	32694	32445	32734	32661	32955	
498	0	32749	32789	32541	32819	32420	32124	32919	32109	
499	0	32764	32775	32647	32647	32925	31759	32887	30763	
500	0	32750	32767	32744	32647	32972	32211	32747	31827	
501	0	32831	32810	32615	32533	33037	32455	32711	33239	
502	0	32873	32531	32635	32704	32982	33471	32871	31723	
503	0	32754	32751	32521	32759	32855	33356	32739	31995	
504	0	32746	32879	32375	32647	32873	32711	32603	32823	
505	0	32742	32593	32499	32847	32811	32754	32596	33223	
506	0	32762	32775	32499	32790	32897	32810	32621	33511	
507	0	32694	32879	32430	32758	32773	32831	32647	33393	
508	0	32724	32615	32605	33003	32711	32822	32639	33095	
509	0	32719	32871	32589	32874	32731	32717	32663	32465	
510	0	32800	32775	32759	32808	32773	32926	32715	32479	
511	0	32755	32855	32641	32662	32775	32775	32743	32549	
512	0	32683	32693	32717	32849	32711	32699	32739	32204	
513	0	32678	32791	32896	33004	32718	32631	32749	32203	
514	0	32727	32797	32767	32877	32739	32647	32607	32613	
515	0	32703	32575	32743	32939	32762	32527	32583	32903	
516	0	32700	32843	32532	32775	32731	32679	32643	32559	
517	0	32696	32726	32685	32831	32717	32879	32743	32180	
518	0	32726	32775	32734	32807	32753	32903	32770	32599	
519	0	32734	32855	32602	32587	32599	32671	32721	32767	
520	0	32755	32735	32445	32797	32575	32563	32775	32759	
521	0	32703	32871	32489	32719	32613	32833	32866	32845	
522	0	32714	32767	32391	32566	32743	32839	32846	32799	
523	0	32866	32671	32489	32378	32863	32743	32769	32546	
524	0	32840	32711	32710	32107	32893	32647	32722	32541	
525	0	32807	32475	32582	32447	32903	32623	32710	32634	
526	0	32787	32686	32717	32903	32895	32583	32749	32749	
527	0	32764	32812	32855	32767	32877	32711	32877	32685	
528	0	32791	32599	32895	32842	32754	32647	32903	32687	
529	0	32764	32711	32701	32943	32671	32677	32722	32685	
530	0	32793	32807	32699	32935	32603	32493	32899	32571	
531	0	32806	32823	32707	32839	32647	32518	33307	32521	
532	0	32766	32557	32589	32505	32806	32663	33305	32607	
533	0	32722	32783	32567	32498	32839	32659	33167	32675	
534	0	32722	32879	32707	32682	32553	32492	33023	32663	
535	0	32775	32571	32551	32807	32583	32871	32925	32716	
536	0	32707	32811	32647	33179	32647	32738	32759	32775	
537	0	32717	32807	32583	32903	32818	32615	32365	32717	
538	0	32702	32763	32675	32839	32847	32614	32492	32561	
539	0	32658	32691	32687	32935	32637	32647	32439	32775	
540	0	32840	32791	33000	32631	32844	33055	31475	32679	
541	0	32726	32827	32981	32811	32892	33011	32135	32658	
542	0	32802	32655	32823	32861	32855	32999	33107	32514	
543	0	32762	32535	32684	32463	33371	33275	33343	32343	
544	0	32758	32663	32382	32391	32738	32958	31954	32786	
545	0	32766	32754	32379	32519	32499	32607	32591	32763	
546	0	32846	32583	32732	32506	32831	32735	32633	32743	
547	0	32813	32690	32607	32407	33734	32833	31853	32903	
548	0	32655	32899	32191	32731	33010	32701	30071	32951	
549	0	32683	32687	32164	32943	32839	32498	30693	32754	
550	0	32692	32852	32559	32967	32437	32579	32530	32835	
551	0	32690	32877	32607	32903	32471	32762	33482	32681	
552	0	32770	32605	33074	32858	32747	32581	33399	32683	
553	0	32717	32773	33076	32947	33271	32405	33447	32503	
554	0	32679	32830	33119	32889	31958	32576	34302	32358	
555	0	32739	32644	33001	32658	32605	32602	34487	32347	
556	0	32753	32685	32658	32532	33406	32671	34319	32445	
557	0	32705	32827	32179	32415	32226	32861	34518	32420	
558	0	32793	32737	32094	32557	32719	33131	34558	32463	
559	0	32757	32847	32388	32647	33031	33107	34079	32615	
560	0	32680	32799	32413	32919	32699	32702	33271	32687	
561	0	32782	32702	32423	33099	32534	32673	32711	32673	
562	0	32751	32595	32607	33052	32835	32617	32402	32684	
563	0	32716	32703	32448	32751	32799	32578	31797	32807	
564	0	32804	32711	32660	32775	32686	32482	31975	32743	
565	0	32722	32623	32702	32583	32647	32631	32358	32516	
566	0	32775	32827	32615	32918	32771	32553	32463	32807	
567	0	32780	32818	32874	32983	32735	32719	32751	32806	
568	0	32767	32615	32830	32943	32738	32837	32815	32733	
569	0	32774	32877	32462	33196	32851	32967	32579	32793	
570	0	32672	33031	32591	33188	32751	32799	32539	32898	
571	0	32676	32763	32583	33311	32731	32829	32389	32903	
572	0	32775	32812	32743	32775	32742	32535	32526	32739	
573	0	32850	32743	32722	32274	32773	32190	32567	32631	
574	0	32866	32466	32599	32387	32969	32235	32571	32671	
575	0	32935	32674	32575	32566	32855	32931	32477	32391	
576	0	32836	32791	32562	32671	32724	32695	32519	32194	
577	0	32763	32598	32343	32831	32775	32391	32576	32435	
578	0	32674	32801	32601	32701	32775	32726	32591	32835	
579	0	32720	32775	32823	32170	32639	33035	32578	32791	
580	0	32692	32596	32711	32259	32628	33319	32626	32862	
581	0	32631	32815	32804	32837	32735	32903	32903	32997	
582	0	32675	32821	32719	32346	33020	33271	33245	33031	
583	0	32642	32557	32583	32458	32965	32861	33077	32807	
584	0	32719	32731	32523	32593	32754	32503	32877	32630	
585	0	32789	32795	32775	32415	32731	32549	32841	32477	
586	0	32711	32694	32823	33091	32658	32503	33042	32517	
587	0	32786	32699	32903	32637	32685	32629	32843	32676	
588	0	32880	32673	33055	32461	32991	33592	32391	32471	
589	0	32791	32597	32870	32773	32858	33310	32415	32307	
590	0	32721	32819	32546	32887	32742	32710	32802	32575	
591	0	32668	32765	32303	32815	32567	32310	32578	32695	
592	0	32717	32821	32391	32957	32423	32128	32699	32673	
593	0	32719	32887	32322	32948	32605	32051	33094	32436	
594	0	32758	32615	32451	32884	32613	32599	32770	32727	
595	0	32812	32815	32567	32703	32717	33191	32583	32991	
596	0	32774	32796	32479	32627	32849	32919	32663	32727	
597	0	32787	32821	32535	32711	32895	32833	32489	32719	
598	0	32771	32947	32701	32863	33051	33151	32514	32388	
599	0	32793	32709	32567	33127	32948	32639	32743	32311	
600	0	32769	32855	32709	33077	32762	31924	32823	32980	
601	0	32761	32898	32679	32819	32775	32290	33350	32739	
602	0	32826	32611	32836	32583	32775	32551	33125	32567	
603	0	32749	32743	32871	32549	32767	33031	32343	32994	
604	0	32711	32805	32647	32627	33119	32578	32221	32867	
605	0	32754	32685	32561	32797	33503	32526	32955	32159	
606	0	32794	32579	32489	32935	33191	33066	33386	31802	
607	0	32655	32821	32587	32783	32233	32970	32421	32287	
608	0	32751	32903	32761	32919	33399	32731	32446	32363	
609	0	32895	32598	32734	32655	34578	32675	31583	33104	
610	0	32848	32815	32847	32450	33315	31079	31500	33119	
611	0	32760	32890	32694	32748	31467	31712	32495	32739	
612	0	32669	32709	32647	32743	30973	33047	33814	32707	
613	0	32703	32833	32804	32829	32007	33775	32459	32835	
614	0	32860	32775	32751	32915	32293	33445	31815	32813	
615	0	32836	32582	32460	32977	31902	32786	32719	32643	
616	0	32786	32790	32263	32829	32608	33079	35543	32135	
617	0	32574	32698	32215	32887	33474	32567	34847	32049	
618	0	32621	32757	32511	32730	34034	32406	32375	32839	
619	0	32738	32791	33079	32463	34874	33087	32513	33054	
620	0	32882	32499	33227	32278	34212	32983	34055	32645	
621	0	32839	32786	32943	33061	31699	32518	31762	33338	
622	0	32806	32951	32479	33285	29719	32199	29350	33466	
623	0	32687	32711	32455	33146	29938	32203	31703	32720	
624	0	32727	32871	32526	32967	31231	32833	33172	32604	
625	0	32885	32611	32455	32873	33798	33007	33522	32516	
626	0	32832	32555	32471	32663	34290	32973	31447	32579	
627	0	32760	32795	32190	32809	32519	32720	31781	32195	
628	0	32678	32799	32451	32543	32807	32745	36167	32282	
629	0	32641	32655	32629	32447	33090	32487	35575	32519	
630	0	32732	32818	32583	32614	33428	32551	33807	32612	
631	0	32720	32715	32898	32623	33423	32495	31607	32647	
632	0	32808	32805	32932	32221	33026	32567	29459	32873	
633	0	32758	32859	32962	32039	32439	33028	29191	32646	
634	0	32703	32709	32685	32630	32251	32951	31711	32511	
635	0	32773	32765	32660	32743	32987	32592	32871	32445	
636	0	32799	32791	32479	32519	33199	32476	32923	32535	
637	0	32631	32694	32420	33052	32285	32242	33763	32382	
638	0	32700	32739	32387	32669	33167	33397	34919	32640	
639	0	32719	32823	32175	33063	33367	33327	35094	32730	
640	0	32684	32687	32233	33390	33261	32719	34895	32527	
641	0	32727	32669	32335	33590	32708	32180	34031	32631	
642	0	32605	32807	32563	32879	32068	32871	33791	32726	
643	0	32745	32491	32581	31923	32365	33179	32199	32709	
644	0	33007	32471	32900	31617	32939	33178	32157	32665	
645	0	32710	32899	32769	33065	33221	32455	31491	33033	
646	0	32663	32775	32759	33831	32659	31727	31351	33018	
647	0	32719	32903	32852	33217	32783	31631	32723	33085	
648	0	32820	32487	32884	32335	32898	32713	33377	32477	
649	0	33015	32519	33176	32103	33423	33731	33078	32014	
650	0	32858	32568	33211	32439	33318	33676	32563	32218	
651	0	32730	32925	32794	33325	33071	32938	33218	32578	
652	0	32583	33091	32775	33079	33023	33067	33769	32815	
653	0	32692	32749	32477	32719	32583	33071	33527	32775	
654	0	32799	32799	32327	32519	32695	32558	33967	32487	
655	0	32826	32868	32343	32683	32743	32471	32927	32644	
656	0	32749	32685	32303	32802	32859	32610	32567	32797	
657	0	32796	32876	32359	32599	32815	32319	32319	32799	
658	0	32799	32751	32247	32676	32631	32687	32398	32551	
659	0	32870	32641	32258	32823	32539	32974	32303	32639	
660	0	32810	32527	32507	32733	32695	32903	32415	32703	
661	0	32742	32775	32578	32817	32605	32933	32534	32773	
662	0	32686	32927	32531	32837	32598	32803	32303	32811	
663	0	32689	32891	32357	33018	32671	32523	32445	32807	
664	0	32756	32812	32467	33039	32519	32623	32391	32735	
665	0	32664	32771	32519	33117	32503	32612	32259	32966	
666	0	32725	32986	32562	33127	32421	32443	32051	32914	
667	0	32805	32815	32613	32683	32519	32709	32111	32679	
668	0	32839	32591	32681	32012	32978	32959	31745	32659	
669	0	32813	32629	32691	32071	33113	32679	32215	32461	
670	0	32722	32863	32903	32443	32827	32163	33119	32599	
671	0	32676	32695	32733	32541	32981	32518	33714	32481	
672	0	32679	32893	32879	32680	33106	32852	33303	32587	
673	0	32824	32751	32743	32799	33185	32797	32974	32628	
674	0	32847	32739	32706	32702	33263	33103	32867	32793	
675	0	32765	32815	32668	32679	32997	32841	32764	32818	
676	0	32798	32635	32787	32523	31898	32522	32635	32838	
677	0	32788	32855	32594	32555	32991	32679	32738	32679	
678	0	32806	32775	32647	32688	33059	32413	32702	32790	
679	0	32676	32915	32735	32927	32463	32679	32738	32831	
680	0	32691	32927	32533	33204	32291	32727	32759	32765	
681	0	32686	32597	32738	33127	32602	32495	32799	32861	
682	0	32685	32727	32719	33231	32359	32375	32694	32887	
683	0	32755	32795	32527	33154	32631	33347	32716	33029	
684	0	32813	32587	32742	32791	32803	33662	32573	32825	
685	0	32796	32738	32679	32732	33071	33391	32690	32601	
686	0	32747	32894	32457	32623	32786	31474	33071	32367	
687	0	32735	32591	32711	32582	32668	32402	32891	32532	
688	0	32754	32659	32711	32315	32935	33260	32415	32372	
689	0	32740	32853	32665	32589	32980	32807	32507	32477	
690	0	32705	32611	32427	32983	32837	32410	32617	32551	
691	0	32681	32843	32685	32636	32959	32567	33453	32293	
692	0	32725	32695	32671	32487	33381	32923	33799	32457	
693	0	32785	32758	32638	32375	32754	32295	32809	33037	
694	0	32804	32917	32775	32479	32823	32399	32594	32903	
695	0	32785	32592	32801	32699	33536	33014	33259	32681	
696	0	32807	32791	32743	32900	33719	33727	33297	32327	
697	0	32794	32621	32790	32879	33170	34029	32855	31953	
698	0	32745	32830	32659	33089	33179	33471	32785	32055	
699	0	32845	32827	32605	33333	33711	32274	33489	32379	
700	0	32735	32659	32647	33196	32666	32029	33287	32623	
701	0	32673	32865	32687	33065	32311	33134	32689	33311	
702	0	32699	32967	32501	32845	31823	32346	30497	33373	
703	0	32820	32611	32647	32451	31542	32959	29755	33143	
704	0	32698	32815	32563	32756	32279	31174	29535	33145	
705	0	32748	32708	32591	32915	33455	30911	29181	33427	
706	0	32801	32810	32700	32787	35125	32127	31140	33239	
707	0	32692	32856	32594	32719	32583	32460	33189	32018	
708	0	32748	32512	32251	32694	31207	33695	33844	32221	
709	0	32866	32625	32452	32320	32511	33478	30843	33237	
710	0	32810	32761	32625	32414	32026	32535	34685	32364	
711	0	32720	32617	32517	32667	32999	32211	39183	32991	
712	0	32605	32855	32673	32807	32295	33203	37909	33345	
713	0	32620	32887	32799	32821	31503	32262	33911	32859	
714	0	32686	32894	32686	32614	31658	32700	30061	33006	
715	0	32807	32850	32659	32738	33088	32923	31893	32903	
716	0	32740	32868	32691	32683	31781	32710	32607	32875	
717	0	32718	32583	32722	32603	31251	32815	32784	32626	
718	0	32720	32730	32505	32815	33143	33013	33943	32146	
719	0	32806	32742	32452	32766	32451	32890	33058	32381	
720	0	32819	32715	32463	32683	32549	32814	31933	32471	
721	0	32727	32645	32407	32662	33453	32879	33020	32377	
722	0	32760	32863	32489	32687	33095	32466	32883	32557	
723	0	32711	32961	32340	32662	32507	32103	32411	32633	
724	0	32710	32615	32307	32962	32901	32620	33179	32391	
725	0	32751	32870	32220	33067	33527	32726	33950	32605	
726	0	32785	32493	32295	32566	33278	32989	33499	32310	
727	0	32838	32503	32751	32311	33815	33355	35085	31249	
728	0	32732	32727	32842	32512	34245	32679	35255	31583	
729	0	32732	32499	33057	32775	34092	32549	33559	32319	
730	0	32786	32767	32997	32666	33272	32799	31666	32788	
731	0	32849	32640	32823	32639	31501	33715	31212	32847	
732	0	32804	32733	32658	32732	31039	34029	31367	32831	
733	0	32751	32844	32579	32532	32838	33569	31042	32914	
734	0	32557	32729	32293	33104	33862	31047	30791	33002	
735	0	32602	32683	32353	33338	33611	31347	31506	33033	
736	0	32694	32762	32485	32959	33172	32342	32287	32589	
737	0	32723	32887	32805	32821	32513	32973	32028	32615	
738	0	32769	32629	33069	32709	32423	33014	32311	32859	
739	0	32693	32837	32823	32764	32983	32249	33347	33099	
740	0	32690	32839	32647	33049	33091	31795	33406	33451	
741	0	32748	32799	32587	32831	34021	33502	33287	32795	
742	0	32743	32631	32783	32815	33969	33415	33285	32419	
743	0	32666	32775	32629	32631	33666	32871	32378	32503	
744	0	32738	32887	32591	32846	32191	32753	32351	32327	
745	0	32804	32637	32719	32834	30898	32102	31751	32523	
746	0	32802	32887	32541	33095	31491	32127	31206	32722	
747	0	32707	33023	32470	32999	31183	32445	32031	32839	
748	0	32804	32655	32461	32487	32311	33047	32167	32587	
749	0	32780	32615	32641	32231	33890	33085	32445	32583	
750	0	32783	32615	32743	32423	35295	33143	33202	32625	
751	0	32773	32748	32748	32629	33159	32381	32157	32575	
752	0	32636	32828	32703	32781	31965	31863	33685	32323	
753	0	32749	32836	32695	32675	31551	32851	34381	32679	
754	0	32724	32839	32719	32639	30521	32663	34243	32513	
755	0	32719	32845	32498	32827	30774	33031	33965	32535	
756	0	32724	32815	32655	32903	33339	33156	34428	32439	
757	0	32680	32775	32657	32833	32434	32782	33991	32902	
758	0	32831	32647	32667	32629	32089	32014	31423	33122	
759	0	32816	32809	32864	32407	34399	32165	33707	32031	
760	0	32822	32529	32847	32348	34335	33122	33766	32879	
761	0	32854	32767	32775	32468	32767	32471	31325	33862	
762	0	32829	32930	32621	32749	31823	32574	30655	32555	
763	0	32807	32751	32295	32743	31893	32941	28407	32847	
764	0	32732	32759	32431	32711	32055	33415	30580	32873	
765	0	32688	32811	32533	33059	32891	33439	32964	32399	
766	0	32631	32771	32364	32999	33615	33185	32095	32231	
767	0	32734	32839	32547	32878	33623	33466	31155	31797	
768	0	32775	32723	32695	32789	32959	33599	33391	31645	
769	0	32838	32735	32583	32764	33887	33361	37822	31887	
770	0	32647	32614	32454	32797	35335	31743	40958	32431	
771	0	32691	32839	32447	32960	33535	30579	37015	32411	
772	0	32736	32806	32683	32845	34413	31853	33140	32843	
773	0	32823	32615	32903	32642	33579	32526	31075	33747	
774	0	32766	32766	32685	32646	32305	32629	30951	33159	
775	0	32762	32854	32895	32583	31613	32850	31437	32759	
776	0	32803	32575	32743	32677	31879	32707	31709	32803	
777	0	32758	32823	32391	32804	32116	32045	31597	32861	
778	0	32706	32862	32377	32684	31223	32154	31021	33181	
779	0	32784	32708	32532	32722	32223	33299	32255	32403	
780	0	32729	32836	32630	32695	32451	33490	33279	32293	
781	0	32804	32862	32666	32661	33695	33607	33903	32662	
782	0	32769	32579	32471	32735	33645	33133	33671	32655	
783	0	32762	32759	32301	32725	33260	31779	32598	32821	
784	0	32786	32885	32498	32828	32131	32109	32251	33650	
785	0	32711	32758	32506	32917	30316	32789	31555	33225	
786	0	32658	32775	32583	32975	31577	33055	31874	33128	
787	0	32652	32807	32703	32924	32135	32980	32198	33047	
788	0	32676	32602	32603	32903	32187	32667	31836	32956	
789	0	32844	32686	32933	32451	32843	32279	32035	32595	
790	0	32872	32628	32914	32428	33199	32881	32630	32186	
791	0	32748	32726	32863	32590	34235	33677	33951	32494	
792	0	32788	32617	32705	32533	35402	32788	33466	32960	
793	0	32701	32709	32615	32529	34778	32615	32793	32775	
794	0	32735	32797	32841	32554	31578	32199	32465	32271	
795	0	32660	32679	32787	32549	28916	32447	32471	32859	
796	0	32719	32847	32934	32712	30535	32898	32683	33034	
797	0	32754	32823	32793	32863	32976	33303	32577	32586	
798	0	32831	32646	32736	32955	32860	32957	31463	32218	
799	0	32902	32845	32792	33069	33159	32795	31396	32245	
800	0	32894	32871	32579	32796	33010	32366	32652	32111	
801	0	32640	32734	32169	33154	32552	31806	35004	32156	
802	0	32613	32973	32018	33407	32854	32399	34045	32759	
803	0	32694	32835	31751	33115	33055	33341	33159	32813	
804	0	32824	32553	32340	32310	33267	33143	32998	32603	
805	0	32896	32667	32817	32077	33147	33247	32301	32597	
806	0	32749	32659	32607	32555	33003	32575	32351	32723	
807	0	32817	32707	32695	32439	32725	32285	32551	32694	
808	0	32839	32807	32739	32391	32374	32283	32959	32117	
809	0	32821	32671	32551	32489	32836	32788	32454	32579	
810	0	32892	32767	32735	32578	34156	33444	33181	32518	
811	0	32845	32846	32791	32665	36579	34277	33636	32615	
812	0	32655	32818	32545	32631	36079	32036	32049	32535	
813	0	32539	32897	32431	32703	32076	31593	30108	32973	
814	0	32528	32797	32591	32870	30059	31665	31443	33626	
815	0	32695	32669	33179	32701	30759	31367	32848	34231	
816	0	32686	32893	32959	33129	30027	32431	31931	33597	
817	0	32702	33069	32783	33283	31552	33430	32385	32869	
818	0	32846	32729	32894	33183	33764	33319	35521	32593	
819	0	32735	32877	32617	33374	34863	33459	36291	32081	
820	0	32696	32911	32433	33199	33725	32691	33953	31301	
821	0	32846	32454	32594	33199	32028	33701	30845	32338	
822	0	32877	32631	32555	33150	32214	33585	31308	32321	
823	0	32998	32603	32533	32817	34550	33882	31599	31971	
824	0	32903	32479	32535	32679	32871	33235	30834	32020	
825	0	32753	32833	32375	32615	30662	30423	30695	32783	
826	0	32709	32796	32412	32391	29820	31634	34335	32510	
827	0	32720	32763	32444	32459	32655	33133	39147	33055	
828	0	32714	32757	32199	32614	34719	32431	39146	32604	
829	0	32668	32787	32189	32469	33826	32869	34500	33005	
830	0	32603	32860	31951	32523	32643	31525	32749	33325	
831	0	32684	32595	31973	32499	32006	32031	31303	33287	
832	0	32655	32795	32155	32429	33598	33287	30935	32935	
833	0	32634	32814	32470	32647	33466	32988	31247	32101	
834	0	32608	32671	32517	32799	32775	33037	31743	32239	
835	0	32687	32679	32701	32957	32887	32970	32252	32569	
836	0	32698	32755	32830	32915	32727	32607	32078	33037	
837	0	32689	32495	32615	32747	32405	32356	31719	33135	
838	0	32718	32711	32415	32695	32642	31989	32055	33334	
839	0	32722	32595	32631	32445	32831	32437	32417	32380	
840	0	32808	32611	32699	32519	32795	33436	32509	32390	
841	0	32832	32658	32635	32583	32807	34615	32327	33234	
842	0	32768	32642	32583	32343	32857	33263	32383	32489	
843	0	32839	32425	32607	31999	32895	32423	32379	32495	
844	0	32736	32775	32359	32201	32803	32761	32562	32860	
845	0	32662	32687	32335	32251	32667	32847	32555	33565	
846	0	32707	32639	32647	32463	32694	32823	32362	33644	
847	0	32751	32536	32874	32598	32668	31717	32827	31794	
848	0	32722	32703	32745	32671	32922	31866	32991	31023	
849	0	32686	32903	32538	32807	32823	31802	32877	31164	
850	0	32726	32829	32615	32795	32679	31530	32603	32549	
851	0	32630	32927	32525	32909	32470	32519	32514	33133	
852	0	32726	32922	32655	32859	33022	33794	32685	33063	
853	0	32816	32685	32900	32951	33230	33869	32742	32919	
854	0	32857	32866	32967	32958	32775	33711	32767	33223	
855	0	32884	33023	33145	32967	32610	33693	32991	32943	
856	0	32919	33190	33143	33076	32583	33785	33332	31858	
857	0	32937	33106	33415	33343	32769	31326	33405	32161	
858	0	32983	33153	33683	33547	32852	31588	33412	32635	
859	0	33064	33082	33845	33499	33441	33486	33321	32771	
860	0	33039	33191	33441	33470	32732	31517	33367	32576	
861	0	32996	33023	33207	33554	32135	32309	33271	32538	
862	0	32954	33023	32471	33151	31909	32487	32986	32783	
863	0	32839	32823	32579	32885	32534	32964	32883	32749	
864	0	32631	32898	32839	32549	32388	33131	32799	32599	
865	0	32633	32895	32503	32451	32503	32532	32977	32463	
866	0	32551	32593	32627	32551	32860	33087	32541	33007	
867	0	32608	32751	32685	32599	32807	33333	32727	33076	
868	0	32743	32731	32683	32738	32637	33299	32799	32647	
869	0	32618	32543	32365	33239	32879	32103	32537	32067	
870	0	32571	32766	32426	33206	33117	32230	32117	32462	
871	0	32518	32799	32415	32978	33193	32197	32039	32826	
872	0	32579	32732	32279	32743	33491	32075	32193	33647	
873	0	32743	32683	32643	32223	33281	32238	31521	33775	
874	0	32691	32515	32551	32123	32545	32189	32375	32932	
875	0	32756	32679	32237	32214	32390	32759	32559	32567	
876	0	32700	32775	32363	32549	32023	32423	31951	32863	
877	0	32679	32645	32447	32637	32799	32791	32480	33063	
878	0	32720	32895	32308	33091	35407	32729	33056	33017	
879	0	32863	32836	32678	32854	34477	32860	34477	32429	
880	0	32976	32546	32970	32543	32674	32915	33644	31352	
881	0	32924	32687	32602	32447	30400	33287	30630	30332	
882	0	32913	32671	31995	32643	30163	36255	31159	30098	
883	0	32735	32783	31729	32887	30803	36764	33855	32038	
884	0	32987	32731	32271	33069	33107	33207	32344	33095	
885	0	32847	32708	32775	33310	30924	26804	31012	34424	
886	0	32422	32830	32717	33194	31143	27751	29870	35770	
887	0	32614	32731	32555	32716	33808	32423	30265	34931	
888	0	32836	32417	32662	32553	35347	34112	37414	33123	
889	0	32694	32687	32244	32410	34995	33302	41639	31122	
890	0	32696	32685	32365	32309	33799	33527	39599	31661	
891	0	32662	32566	32517	32609	33571	33885	34902	32763	
892	0	32673	32839	32675	32751	34266	33627	33346	33151	
893	0	32773	32841	32749	32691	34218	33526	31383	33839	
894	0	32784	32607	32518	32705	32233	32187	31779	33973	
895	0	32701	32797	32577	32885	31095	30193	31831	32790	
896	0	32773	32943	32591	32794	31787	31550	32090	31516	
897	0	32833	32782	32733	32425	33127	33487	31790	32451	
898	0	32699	32857	32671	32370	32615	34487	31013	34219	
899	0	32707	32823	32533	32573	32882	35257	30863	34903	
900	0	32756	32807	32674	32701	33131	34399	32031	33271	
901	0	32743	32551	33169	32495	32251	32471	32064	32527	
902	0	32692	32775	32839	32814	33813	33291	32475	30590	
903	0	32605	32845	32703	32775	33333	29210	31941	30913	
904	0	32807	32571	32449	32951	32575	30380	31901	32684	
905	0	32815	32631	32626	32951	32715	33850	31170	32221	
906	0	32690	32775	32705	32791	32311	34407	32407	30198	
907	0	32678	32575	32570	32839	33658	31781	32426	31567	
908	0	32623	32829	32579	32806	34002	30427	31965	32069	
909	0	32735	32835	32559	32445	32654	31663	32803	32580	
910	0	32679	32788	32583	32501	29337	32209	33078	31689	
911	0	32738	32591	32629	32500	31069	32613	32677	31831	
912	0	32687	32823	32419	32584	31751	31655	34101	32775	
913	0	32709	32879	32565	32615	32364	33155	33231	33425	
914	0	32763	32663	32607	32566	32499	33730	31677	33327	
915	0	32726	32803	32706	32551	32735	33279	32291	32895	
916	0	32762	32929	32742	32471	33089	33311	33531	32924	
917	0	32708	32716	32678	32551	32978	33199	33275	33091	
918	0	32711	32591	32701	32599	32634	32466	33250	33111	
919	0	32720	32868	32559	32803	32795	32671	33445	32931	
920	0	32734	32863	32709	33031	33389	32512	33087	33013	
921	0	32733	32674	32786	33122	33563	32336	32489	33527	
922	0	32715	32833	32539	33263	32549	32359	32540	31940	
923	0	32766	32755	32703	33078	32743	34362	33031	31591	
924	0	32808	32717	32804	32882	33045	34558	33334	31779	
925	0	32769	32683	32518	32647	32967	34240	32823	32543	
926	0	32745	32673	32611	32590	33001	32391	31835	33406	
927	0	32727	32751	32459	32991	32773	31413	31687	34179	
928	0	32750	32539	32591	33126	32546	31279	32665	32755	
929	0	32773	32764	32758	32887	32555	31795	32930	32301	
930	0	32811	32799	32601	32839	32421	32102	33319	33972	
931	0	32818	32819	32659	32773	32583	32703	33543	34919	
932	0	32728	32658	32587	32745	33465	32671	32607	34166	
933	0	32785	32732	32749	32847	34567	32413	32564	32911	
934	0	32732	32789	32630	32858	35183	32254	31647	32592	
935	0	32698	32918	32327	32535	33413	31873	29583	32790	
936	0	32711	32623	32321	32389	30327	32583	29084	32575	
937	0	32674	32794	32233	32503	30789	32823	30683	32963	
938	0	32700	32827	32644	32775	31446	33199	32742	32456	
939	0	32815	32583	32797	32631	34810	33237	34223	31663	
940	0	33001	32627	32569	32263	34013	33221	31909	32112	
941	0	32811	32726	32583	32419	34041	33318	31500	31975	
942	0	32694	32983	32406	32647	31360	33007	33327	32062	
943	0	32699	32853	32461	32926	31307	33179	36143	32135	
944	0	32786	32638	32742	33018	32479	33223	31633	32819	
945	0	32739	32796	32579	33115	30237	31995	31879	33590	
946	0	32535	32933	32681	33015	30198	31147	35121	32633	
947	0	32794	32823	33053	32535	33401	32499	35941	32181	
948	0	32809	32678	33185	32559	35823	33748	38333	31558	
949	0	32690	32839	32820	32659	33537	33745	37704	32243	
950	0	32588	32871	32351	32647	31751	33651	34466	32255	
951	0	32587	32999	32307	32813	32898	33326	33560	31579	
952	0	32726	32707	32429	32903	32784	33739	32446	32199	
953	0	32918	32631	32532	32503	34191	34571	29825	34770	
954	0	32946	32798	32636	32621	33458	32719	29149	32772	
955	0	32852	32758	32715	32851	31410	28948	30951	32319	
956	0	32966	32701	32583	32724	32195	29764	30953	33818	
957	0	32908	32805	32588	32802	32557	32903	31375	32445	
958	0	32786	32751	32391	32895	33259	32831	34075	30919	
959	0	32679	32660	32301	32934	33867	32971	36487	32887	
960	0	32744	32829	32574	32964	34479	32183	33764	34122	
961	0	32704	32822	32612	32797	34607	32039	33202	33791	
962	0	32695	32692	32694	32615	31571	31789	32133	33131	
963	0	32775	32561	32567	32749	30911	32438	31588	32623	
964	0	32832	32770	32359	32738	32534	33410	32609	32150	
965	0	32743	32847	32471	32827	32759	33483	31999	32364	
966	0	32698	32813	32615	32928	32554	32751	31387	32781	
967	0	32765	32647	32603	32764	32005	32555	32244	32373	
968	0	32751	32886	32739	32775	32514	32502	32473	32613	
969	0	32668	32951	32687	33037	32927	32460	32771	32454	
970	0	32679	32699	32834	33011	32679	32471	32525	32519	
971	0	32710	32743	32695	32574	33311	32927	32678	32403	
972	0	32775	32723	32755	32647	33515	33335	32738	32165	
973	0	32726	32759	32391	32576	33039	33274	32654	32641	
974	0	32733	32689	32118	32483	32823	33049	32423	33141	
975	0	32775	32794	32527	32498	32788	33223	32679	33199	
976	0	32775	32791	32806	32475	32623	31879	32764	32877	
977	0	32700	32815	32865	32519	32538	32807	32754	32287	
978	0	32741	32647	32727	32453	32742	34023	32615	32489	
979	0	32755	32743	32565	32598	32493	33415	32511	33063	
980	0	32702	32671	32751	32588	32258	31391	32398	33622	
981	0	32647	32783	32663	32797	32159	31467	32606	34332	
982	0	32860	32785	32855	32919	33187	33519	32641	34495	
983	0	32823	32557	32629	32871	33151	33575	32343	34297	
984	0	32752	32763	32625	32871	32775	32791	32450	32434	
985	0	32749	32847	32715	32719	32565	32468	32199	29259	
986	0	32743	32599	32532	32775	32705	31811	31997	30991	
987	0	32674	32773	32722	32845	32850	32340	31933	30783	
988	0	32703	32934	32607	32855	32715	32519	32721	31919	
989	0	32710	32617	32499	32767	32703	32767	33663	32455	
990	0	32740	32743	32773	32435	32583	31900	33380	32871	
991	0	32791	32881	32818	32609	32658	31554	34878	33348	
992	0	32794	32647	32687	32967	32711	32043	34770	33095	
993	0	32767	32839	32469	33159	32549	31830	33831	32671	
994	0	32701	32879	32459	33191	32634	33943	33545	32699	
995	0	32680	32851	32729	33074	32717	34877	32289	33436	
996	0	32758	32727	32943	32794	31966	32987	29545	33123	
997	0	32639	32725	32661	32806	31954	29684	28472	32514	
998	0	32773	32754	32488	32525	33262	31787	28355	33535	
999	0	32861	32769	32573	32385	32769	33523	29954	33655	
1000	0	32870	32495	32614	32478	34099	34789	30462	32599	
1001	0	32852	32755	32615	32639	34047	33663	31207	31956	
1002	0	32815	32857	32417	32871	33199	32166	37411	31551	
1003	0	32687	32653	32373	32930	33364	31543	41559	31935	
1004	0	32785	32850	32611	32659	33538	33220	37869	32135	
1005	0	32642	32747	32421	32375	33058	33108	34329	32444	
1006	0	32723	32796	32695	32534	32895	32671	32683	32706	
1007	0	32797	32749	32673	32662	32531	32695	32663	32764	
1008	0	32736	32787	32513	32489	32348	32843	33255	32715	
1009	0	32771	32767	32439	32839	32219	32607	32955	32754	
1010	0	32632	32615	32699	32986	32455	32391	32029	32975	
1011	0	32573	32769	32951	32711	32515	32775	31956	32787	
1012	0	32701	32865	33301	32903	32991	32790	31925	32565	
1013	0	32711	32729	33195	33015	33664	32167	31287	32850	
1014	0	32726	32791	32830	32847	33639	31855	31607	32662	
1015	0	32759	32771	32381	32769	33897	33303	32471	32510	
1016	0	32759	32891	32188	32775	34067	33254	33467	32583	
1017	0	32746	32677	32135	33007	33301	32027	32517	33858	
1018	0	32653	32815	32426	32717	33861	32551	31979	34405	
1019	0	32791	32852	32683	32667	30378	33295	33506	31751	
1020	0	32806	32671	32595	32734	31075	33069	33831	31028	
1021	0	32796	32775	32603	32639	31084	33085	31580	31713	
1022	0	32771	32807	32756	32555	28871	32772	31399	32448	
1023	0	32742	32647	32660	32481	30466	33262	33465	32135	
1024	0	32750	32770	32543	32549	32665	32995	32231	32753	
1025	0	32766	32731	32615	32647	33866	33311	31175	34439	
1026	0	32734	32591	32717	32951	33855	33179	29737	33865	
1027	0	32745	32682	32614	32950	35175	33044	28980	32608	
1028	0	32796	32743	32765	32708	34786	31127	30407	32954	
1029	0	32882	32709	32834	32824	32242	31351	33384	33671	
1030	0	32663	32624	32760	33070	29460	32101	35245	32684	
1031	0	32692	32738	32577	33055	34519	34114	39430	31610	
1032	0	32566	32967	32249	33019	31538	33766	39187	30792	
1033	0	32676	32811	32402	32768	32819	31915	35943	31014	
1034	0	32684	32572	32586	33007	32208	31157	31140	32657	
1035	0	32717	32727	32530	32818	32887	31119	29431	34804	
1036	0	32723	32815	32636	32551	32767	32703	29759	35045	
1037	0	32644	32919	32647	32707	32491	32859	30519	34861	
1038	0	32791	32629	32473	32567	32034	33938	32945	32405	
1039	0	32807	32793	32604	32245	33030	33191	33294	31705	
1040	0	32765	32885	32455	32319	33754	31628	35439	32196	
1041	0	32863	32668	32581	32256	33220	33639	34031	33127	
1042	0	32880	32759	32677	32415	32607	34879	33575	32155	
1043	0	32877	32789	32879	32527	32887	34431	32125	32511	
1044	0	32782	32762	32674	32810	32903	30516	32511	32311	
1045	0	32788	32845	32498	32898	33775	28545	31511	33051	
1046	0	32710	32903	32759	32911	33089	31456	31447	32695	
1047	0	32758	32638	32975	33170	32111	32631	32365	31519	
1048	0	32839	32555	32798	33018	32209	32918	32636	32599	
1049	0	32769	32679	32575	32486	31610	33105	30914	32807	
1050	0	32640	32822	32174	32495	31903	33774	32942	31779	
1051	0	32764	32831	32439	32477	33595	33358	33466	31954	
1052	0	32703	32605	32717	32589	34722	32677	33854	31675	
1053	0	32704	32735	32596	32771	33773	31819	33605	32575	
1054	0	32721	32741	32663	32740	33597	33706	31378	33362	
1055	0	32730	32527	32535	32819	31951	33569	31615	32903	
1056	0	32686	32738	32296	32841	31650	32535	33844	32991	
1057	0	32726	32919	32660	32999	32103	31705	35459	33407	
1058	0	32790	32605	32751	32887	32647	32910	34219	33223	
1059	0	32694	32870	32599	33159	32655	33731	32763	32559	
1060	0	32635	32937	32709	33258	32775	33466	31655	32559	
1061	0	32742	32933	32749	33028	33082	33129	32119	31403	
1062	0	32843	32563	32847	32431	32860	32708	32955	31885	
1063	0	32816	32659	32835	32413	32617	31214	33339	32932	
1064	0	32704	32762	32887	32423	32827	31949	33973	33365	
1065	0	32727	32799	32667	32631	32759	32975	33154	33319	
1066	0	32925	32446	32854	32727	32959	32950	33298	32402	
1067	0	32841	32655	32836	32943	32959	32758	33269	32183	
1068	0	32824	32775	32506	32933	32525	32771	32057	32631	
1069	0	32754	32871	32567	32506	33205	32814	30299	32935	
1070	0	32801	32668	32480	32471	32425	32763	29803	33063	
1071	0	32803	32852	32399	32386	32527	33023	30855	33003	
1072	0	32805	32719	32577	32594	33107	32702	31341	33074	
1073	0	32711	32815	32611	32772	34233	32493	32042	32771	
1074	0	32673	32835	32427	32740	34126	32647	32391	32634	
1075	0	32731	32837	32735	32543	31343	32712	32967	32587	
1076	0	32690	32803	32861	32647	30584	32802	33620	32647	
1077	0	32668	32883	32687	32799	32507	33360	36257	32458	
1078	0	32722	32935	32799	32791	32305	32459	33991	32769	
1079	0	32689	32697	32625	32788	32507	32439	32747	32507	
1080	0	32796	32687	32494	32501	32924	33095	34061	32551	
1081	0	32876	32775	32543	32529	32807	32559	31954	32747	
1082	0	32775	32607	32525	32843	32623	31583	31467	32903	
1083	0	32756	32846	32827	33039	32881	32961	32367	32635	
1084	0	32766	32903	32885	33075	32993	33119	32639	32743	
1085	0	32829	32658	32794	32834	32839	32725	32559	32734	
1086	0	32775	32831	32637	32587	32007	32903	32212	32652	
1087	0	32750	32815	32868	32438	32214	33197	33919	32613	
1088	0	32730	32590	32895	32380	32887	32582	33839	32557	
1089	0	32710	32735	32754	32429	33327	32361	32557	33046	
1090	0	32770	32799	32802	32583	32919	32849	32631	32140	
1091	0	32775	32695	32717	32767	33001	33506	32135	32314	
1092	0	32805	32525	32607	32885	32647	32595	32189	32531	
1093	0	32727	32803	32730	32883	32391	31197	31152	32999	
1094	0	32773	32759	32530	33139	32695	32723	31934	32719	
1095	0	32759	32903	32413	32967	32493	33378	31802	32643	
1096	0	32887	32805	32191	33159	32129	33191	32391	32656	
1097	0	32850	32804	32349	33209	33225	32990	34543	32375	
1098	0	32709	32914	32354	32743	33599	32549	34163	32807	
1099	0	32711	32628	32161	32647	34139	32695	34237	32546	
1100	0	32777	32751	32285	32759	34242	33576	33492	31433	
1101	0	32683	32798	32303	32785	34823	32895	32371	32115	
1102	0	32670	32757	32495	32423	35629	32818	30727	33199	
1103	0	32764	32527	32726	32354	36131	32586	31917	32743	
1104	0	32720	32790	32999	32527	32351	31727	31878	33463	
1105	0	32717	32731	32923	32498	29276	31239	32022	33702	
1106	0	32705	32834	32848	33063	28157	32700	34660	33279	
1107	0	32792	32791	32699	33082	28946	33329	34707	32850	
1108	0	32822	32581	32691	32900	31055	33159	33866	32527	
1109	0	32830	32749	32494	32959	31305	32807	30573	32698	
1110	0	32718	32834	32391	32949	32011	32989	32209	32250	
1111	0	32737	32676	32274	33005	31563	32739	32425	32223	
1112	0	32807	32767	32317	32919	33873	33428	30503	33715	
1113	0	32775	32784	32510	32647	33627	32319	32207	34043	
1114	0	32698	32530	32445	32513	33549	31873	33622	33447	
1115	0	32690	32807	32604	32451	32593	31915	33747	33519	
1116	0	32748	32805	32666	32534	33926	34579	34535	31634	
1117	0	32792	32563	32713	32570	34355	33844	33318	30743	
1118	0	32728	32759	32831	32659	33959	32755	32527	31655	
1119	0	32724	32811	32799	32828	34555	31893	32466	33083	
1120	0	32690	32583	32623	32783	33069	31975	31175	33862	
1121	0	32742	32742	32826	32639	31618	31179	31655	33891	
1122	0	32767	32947	32838	32610	33084	31693	33814	32497	
1123	0	32829	32643	32690	32517	33598	34647	34799	31127	
1124	0	32799	32803	32700	32507	32839	32635	33988	30535	
1125	0	32754	32854	32624	32886	32213	31895	32550	30394	
1126	0	32636	32847	32498	33008	32775	31967	32287	31101	
1127	0	32720	32602	32721	32799	33695	33545	32423	33038	
1128	0	32722	32758	32725	32859	32827	32936	31991	34595	
1129	0	32654	32807	32791	32818	33836	32998	33077	34647	
1130	0	32771	32742	32925	32673	33073	33053	33143	34323	
1131	0	32767	32783	32757	32755	29504	31246	32621	33663	
1132	0	32716	32779	32617	32782	32153	32367	33103	34803	
1133	0	32783	32855	32341	32799	33731	33327	32807	34310	
1134	0	32786	32615	32434	32711	33527	32384	31886	33031	
1135	0	32634	32899	32466	32871	32663	33023	32723	32391	
1136	0	32775	32645	32473	32587	34349	35091	33159	31047	
1137	0	32962	32655	32965	32509	33693	35408	33850	31206	
1138	0	32927	32767	32836	32607	33142	34892	31100	33135	
1139	0	32801	32699	32211	32613	31623	34407	30417	32311	
1140	0	32599	32934	32133	32807	30870	30555	31258	32159	
1141	0	32623	32911	32402	32687	31820	27749	33606	33071	
1142	0	32655	32733	32683	32765	32962	30951	34759	30221	
1143	0	32614	32956	32835	32852	31394	31446	32854	30307	
1144	0	32706	32902	32790	33062	33097	32346	33270	32391	
1145	0	32759	32843	32938	32932	35007	32775	33548	32901	
1146	0	32883	32645	32747	33119	33703	33137	32747	32743	
1147	0	32886	32710	32774	32749	33868	32668	30791	32788	
1148	0	32784	32677	32873	32211	33706	31998	31683	32967	
1149	0	32716	32498	32785	32463	32530	32690	34130	32943	
1150	0	32647	32751	32775	32691	30679	32961	31770	32827	
1151	0	32745	32703	32663	33139	32283	33239	31031	32851	
1152	0	32879	32551	32639	32919	32467	33613	30759	32775	
1153	0	32773	32724	32422	32691	31721	32827	31635	32419	
1154	0	32873	32610	32529	32775	33362	32897	34366	32756	
1155	0	32775	32890	32374	32884	31348	32791	32935	32982	
1156	0	32720	32871	32439	32678	32175	32613	33262	32734	
1157	0	32650	32703	32501	32329	33713	32758	34311	32703	
1158	0	32754	32866	32698	32199	32583	32971	35230	32574	
1159	0	32684	32898	32756	32403	32808	33107	35135	32625	
1160	0	32682	32623	32825	32735	33705	33171	33174	32681	
1161	0	32735	32810	32644	32775	33754	32966	32739	32547	
1162	0	32742	32689	32519	32903	33607	32758	32743	32759	
1163	0	32682	32759	32508	33159	32655	32543	33049	32743	
1164	0	32723	32807	32479	33367	31647	32559	32594	32871	
1165	0	32772	32583	32642	33410	31871	32807	31774	33127	
1166	0	32787	32735	32667	33223	32301	32660	31811	32725	
1167	0	32711	32730	32669	33047	32443	32611	31891	32687	
1168	0	32775	32703	32603	32615	32875	32743	31989	32925	
1169	0	32813	32797	32766	32349	32913	33245	32425	33300	
1170	0	32783	32559	32660	32303	33030	34304	32943	32855	
1171	0	32727	32846	32517	32615	33751	34415	33343	30639	
1172	0	32735	32739	32702	32759	34524	33818	33966	31311	
1173	0	32792	32810	32647	32676	34413	32348	31275	32806	
1174	0	32730	32878	32285	32931	33193	28636	30433	34505	
1175	0	32676	32642	32406	32798	29038	30954	31313	34009	
1176	0	32605	32775	32427	32660	29332	33133	31086	33019	
1177	0	32712	32763	32856	32575	33143	34113	33362	32151	
1178	0	32816	32767	32956	32471	34894	30991	34514	32982	
1179	0	32732	32886	32871	32543	34617	31919	33213	32860	
1180	0	32743	32565	32694	32468	31879	32986	33706	32510	
1181	0	32754	32802	32813	32615	31097	33044	33775	32363	
1182	0	32732	32791	32899	32591	32935	32914	33410	31911	
1183	0	32658	32639	32677	32517	32559	31853	30919	32935	
1184	0	32786	32743	32483	32524	33231	33001	30697	33738	
1185	0	32808	32759	32383	32629	33589	33089	31693	33427	
1186	0	32773	32877	32306	32567	32890	33695	33631	33005	
1187	0	32735	32853	32101	32759	34136	32713	35435	33630	
1188	0	32780	32566	32275	32807	34061	32820	34785	33455	
1189	0	32775	32790	32599	32977	33719	34771	34259	31787	
1190	0	32749	32833	32623	32968	31965	35567	32205	32095	
1191	0	32771	32615	32535	32899	31066	33562	31643	33006	
1192	0	32690	32839	32834	33055	32102	28708	32089	33671	
1193	0	32720	32743	32722	32679	32039	28935	32054	32391	
1194	0	32758	32879	32946	32480	32116	32660	31033	29902	
1195	0	32672	32887	32739	32627	33627	33478	33137	28639	
1196	0	32861	32747	32573	32638	33756	32363	33871	31734	
1197	0	32855	32789	32391	32623	33359	32041	34513	32391	
1198	0	32669	32931	32612	32615	32607	32255	33451	32215	
1199	0	32742	32775	32615	32695	33155	33319	30941	32273	
1200	0	32706	32783	32412	32711	32941	33823	31413	32690	
1201	0	32707	32694	32181	32915	32515	33403	31947	33527	
1202	0	32764	32647	32493	33031	32369	33489	31920	34484	
1203	0	32796	32722	32816	33050	33095	33447	33551	35150	
1204	0	32791	32528	32807	33035	32350	32310	34324	33671	
1205	0	32706	32703	32839	33051	32388	32258	33467	32772	
1206	0	32817	32785	32803	32883	32903	32759	32143	32913	
1207	0	32813	32623	32629	32843	34107	32855	31751	32860	
1208	0	32803	32763	32859	32684	32855	32525	32039	32615	
1209	0	32863	32839	32823	32762	33087	32549	31566	32415	
1210	0	32820	32579	32617	32765	33647	32791	31175	32517	
1211	0	32612	32826	32677	32743	30288	32419	31698	32483	
1212	0	32771	32903	32642	32871	32205	32671	32834	32708	
1213	0	32726	32692	32417	32847	32599	33119	33987	32591	
1214	0	32788	32718	32726	32435	34383	33332	35204	32915	
1215	0	32742	32583	33029	32535	33879	32793	35609	32466	
1216	0	32645	32850	32501	32870	32685	32253	34021	32609	
1217	0	32564	32929	32305	32999	28667	31767	32493	32468	
1218	0	32748	32503	32582	32735	31806	32685	32873	32173	
1219	0	32820	32727	32971	32647	34277	33117	32463	32269	
1220	0	32753	32687	32968	32772	35785	33383	34751	31979	
1221	0	32802	32827	32579	32655	34887	33430	34724	32147	
1222	0	32700	32807	32100	32617	31205	32325	32925	32831	
1223	0	32676	32743	32015	32679	29063	32247	31719	32548	
1224	0	32671	32819	32509	32822	30522	32508	32220	32514	
1225	0	32764	32787	32751	32550	34356	32903	31957	32564	
1226	0	32717	32719	32809	32551	33543	32935	30951	32503	
1227	0	32735	32891	32810	32412	31467	32711	30196	32467	
1228	0	32865	32854	32583	32363	32475	33734	30749	32804	
1229	0	32879	32622	32759	32389	33647	34170	31783	32761	
1230	0	32815	32786	32564	32586	34343	33475	32407	32987	
1231	0	32530	33008	32151	32786	31813	31463	31901	33487	
1232	0	32597	32553	32592	32718	32752	31226	32749	32799	
1233	0	32662	32807	33483	32963	33247	32063	34587	31419	
1234	0	32690	32903	33175	32887	32923	32165	34418	32023	
1235	0	32706	32682	32610	32723	33135	31721	34023	33539	
1236	0	32792	32767	32399	32924	33051	32767	32732	34871	
1237	0	32834	32805	32299	33246	34887	33410	33633	34123	
1238	0	33001	32773	32503	33085	35615	33423	34996	32471	
1239	0	32846	32860	32533	33015	34033	32687	33331	33233	
1240	0	32732	32583	32669	32871	32281	32423	31822	33082	
1241	0	32770	32695	32572	32767	31685	33044	31131	33287	
1242	0	32788	32774	32485	32571	31239	32826	29974	33841	
1243	0	32775	32721	32381	32599	31847	31127	30661	32993	
1244	0	32796	32827	32405	32658	31527	32167	30844	33159	
1245	0	32714	32921	32543	32790	31519	34606	32499	30516	
1246	0	32685	32639	32607	32703	32338	34921	31937	28789	
1247	0	32770	32679	32599	32613	33839	32284	33039	32678	
1248	0	32647	32818	32679	32797	33348	31346	34889	32158	
1249	0	32711	32771	32647	32721	31784	31478	36158	30239	
1250	0	32760	32799	32854	32831	31226	33287	35830	31495	
1251	0	32763	32534	32844	32797	33165	33364	34367	31504	
1252	0	32814	32775	32932	32741	33095	32747	32756	32647	
1253	0	32764	32571	32666	32660	32975	33029	32660	33718	
1254	0	32769	32846	32765	32669	32841	32643	32407	33677	
1255	0	32722	32573	32727	32703	32971	32565	32692	33584	
1256	0	32733	32820	32633	32698	32708	32318	32965	33357	
1257	0	32798	32819	32612	32855	33407	32615	32559	33119	
1258	0	32775	32737	32690	32791	33263	32844	32474	33092	
1259	0	32718	32854	32686	32750	33047	33414	32403	33063	
1260	0	32782	32643	32715	32565	32987	33109	31783	32191	
1261	0	32768	32805	32602	32303	32943	32487	32199	32318	
1262	0	32805	32810	32594	32495	32855	32599	32271	33223	
1263	0	32728	32655	32583	32551	32798	32309	32103	33316	
1264	0	32717	32827	32629	32668	32883	32515	32380	32995	
1265	0	32731	32719	32639	32719	32751	32486	32483	33103	
1266	0	32822	32771	32635	32754	32846	32445	32675	32847	
1267	0	32826	32787	32581	32979	32775	32633	32803	32775	
1268	0	32799	32754	32639	33159	32803	32827	32823	32759	
1269	0	32775	32791	32731	32959	32823	32715	32899	32722	
1270	0	32759	32755	32603	32929	32671	32700	32825	32761	
1271	0	32735	32662	32563	32671	32711	32823	32690	32833	
1272	0	32789	32705	32405	32614	32786	32813	32638	32717	
1273	0	32751	32763	32671	32574	32887	32734	32640	32516	
1274	0	32743	32863	32653	32606	32871	32805	32594	32615	
1275	0	32734	32691	32700	32594	32685	32789	32911	32607	
1276	0	32743	32807	32622	32850	32734	32647	32983	32537	
1277	0	32710	32806	32579	32846	32751	32775	33036	32554	
1278	0	32796	32534	32663	32866	32892	32822	32979	32705	
1279	0	32802	32847	32663	32727	32893	32775	32871	32681	
1280	0	32694	32781	32665	32971	32839	32813	32741	32636	
1281	0	32753	32887	32471	33015	32771	32755	32853	32647	
1282	0	32806	32567	32639	32941	32871	32577	32791	32643	
1283	0	32740	32735	32605	32775	32889	32607	32884	32642	
1284	0	32815	32647	32603	32903	32535	32831	33005	32547	
1285	0	32773	32797	32751	33027	32257	32903	32797	32557	
1286	0	32759	32827	32827	32949	32527	32754	32231	32498	
1287	0	32847	32619	32605	32820	32592	32459	31777	32571	
1288	0	32755	32733	32635	32610	32841	32444	32949	32357	
1289	0	32765	32853	32647	32457	32775	32433	32365	32419	
1290	0	32775	32549	32542	32338	33395	32617	29588	33212	
1291	0	32909	32692	32767	32363	35287	33153	29811	33219	
1292	0	32841	32807	32868	32309	33689	32293	31719	32639	
1293	0	32787	32630	32860	32423	31351	32310	31235	32468	
1294	0	32718	32607	32954	32407	31335	32539	31015	32593	
1295	0	32797	32733	32818	32542	32840	32963	31423	32800	
1296	0	32770	32842	32631	32600	32189	33033	37505	32800	
1297	0	32639	32671	32543	32874	32451	32951	38251	32359	
1298	0	32605	32925	32663	33031	33711	32993	32675	32615	
1299	0	32425	32677	32694	33305	33269	33046	33963	32382	
1300	0	32594	32879	32934	33010	33174	33003	33123	32004	
1301	0	32710	32615	32724	32788	31781	32679	35430	32444	
1302	0	32605	32795	32468	32671	32745	32559	38133	32562	
1303	0	32635	32858	32003	32551	33327	32815	36037	32593	
1304	0	32708	32690	31975	32629	33823	33179	34413	32507	
1305	0	32765	32795	31839	32551	33221	32903	36189	32519	
1306	0	32775	32741	31897	32745	32317	32838	33647	32927	
1307	0	32794	32605	31981	32831	32036	32514	30953	32811	
1308	0	32785	32743	32231	32631	32519	32617	29317	32697	
1309	0	32785	32803	32615	32505	33143	32535	29609	32985	
1310	0	32758	32567	33177	32535	33735	32495	29659	33199	
1311	0	32783	32869	33199	32837	31250	32354	30189	32565	
1312	0	32781	32939	32879	33334	30911	32303	28929	32663	
1313	0	32849	32675	32701	33376	33731	32788	33759	32767	
1314	0	32867	32759	32543	32864	34037	33037	35731	32655	
1315	0	32929	32759	32387	32519	33924	32402	34023	32270	
1316	0	32847	32570	32103	32677	33871	32210	32647	32868	
1317	0	32712	32847	32031	32851	31830	33495	31303	33247	
1318	0	32678	32662	32375	32687	32103	33563	31663	32955	
1319	0	32762	32703	32686	32534	34159	33019	35303	32348	
1320	0	32709	32794	32769	32754	33274	32556	34194	32638	
1321	0	32524	32573	32804	32801	31471	32132	32773	32876	
1322	0	32669	32879	32903	32804	31835	33463	32407	32690	
1323	0	32714	32539	33087	32716	32455	33415	32457	32638	
1324	0	32724	32838	32919	32425	32599	33122	32346	32638	
1325	0	32738	32713	32703	32359	32489	32543	32327	32525	
1326	0	32667	32707	32263	32331	32381	32354	32133	32579	
1327	0	32657	32767	32062	32463	31711	32533	32461	32751	
1328	0	32690	32575	32359	32415	33287	32412	32638	32532	
1329	0	32703	32722	32419	32539	33583	32887	32566	32519	
1330	0	32678	32551	32135	32583	33219	33387	32583	32503	
1331	0	32623	32730	32471	32775	32903	33569	32747	32306	
1332	0	32663	32732	32783	32979	32775	33039	32791	32181	
1333	0	32825	32500	32807	32962	32911	33287	32555	32511	
1334	0	32789	32662	32743	32865	32579	33131	32573	32798	
1335	0	32819	32671	32426	32918	32463	31767	32572	32738	
1336	0	32726	32567	32478	32711	32829	31291	32597	32862	
1337	0	32699	32647	32346	32647	32986	32157	32523	33007	
1338	0	32706	32551	32583	32459	32883	32676	32603	32617	
1339	0	32783	32687	32793	32343	32788	33197	32611	32307	
1340	0	32759	32742	32677	32327	32631	33174	32596	32510	
1341	0	32735	32605	32623	32347	32647	32463	32679	32578	
1342	0	32681	32662	32673	32549	32935	31939	32743	32335	
1343	0	32679	32882	32447	32703	33181	32317	32551	32959	
1344	0	32660	32571	32687	32911	33407	32947	32498	32420	
1345	0	32679	32809	32814	33114	33529	33159	32892	31254	
1346	0	32762	32903	32791	33174	33397	33709	32787	31751	
1347	0	32770	32675	32965	33399	33057	34611	32547	33799	
1348	0	32803	32887	33023	33314	31839	33223	32478	34571	
1349	0	32933	33007	33255	33239	31492	32056	32839	34823	
1350	0	33100	32891	33387	33399	32044	30309	32923	35478	
1351	0	33053	33027	33607	33449	32537	30151	33215	33807	
1352	0	33106	33103	33551	33435	32571	31490	34023	30575	
1353	0	33235	32903	33256	33282	32147	33038	33844	32903	
1354	0	33244	32953	33225	32937	32967	36481	34119	31666	
1355	0	33069	32985	33106	32913	33407	34248	33857	32459	
1356	0	33018	32733	32815	32735	33266	33655	33439	32219	
1357	0	32837	32869	32839	32446	33061	32694	32879	31052	
1358	0	32711	32878	32556	32454	33251	32957	33206	29510	
1359	0	32758	32783	32471	32338	33549	34266	33098	30183	
1360	0	32566	32806	32228	32258	32263	31166	32676	32467	
1361	0	32508	32878	32441	32317	31878	30478	31707	35857	
1362	0	32514	32574	32591	32101	32848	33679	31918	34163	
1363	0	32497	32807	32487	32463	33241	34273	32463	31895	
1364	0	32591	32818	32553	32693	32605	34267	32411	33511	
1365	0	32584	32591	32327	32841	33159	32460	33321	32399	
1366	0	32534	32807	32515	32977	32889	31593	32918	30807	
1367	0	32676	32813	32591	32895	32415	31039	32749	31670	
1368	0	32850	32701	32564	32943	33383	30551	31143	33415	
1369	0	32753	32859	32710	32785	33095	32163	31779	32291	
1370	0	32756	32567	32754	32755	32363	33109	32570	32570	
1371	0	32718	32831	32687	32738	31991	33687	32751	32667	
1372	0	32742	32623	32732	32571	32833	34790	33073	32156	
1373	0	32695	32751	32716	32503	32143	31143	33095	31702	
1374	0	32783	32836	32754	32715	33415	31343	33362	33596	
1375	0	32762	32629	32717	32603	34639	32117	33783	33285	
1376	0	32775	32765	32638	32681	35263	32903	33267	32353	
1377	0	32686	32743	32523	32679	34652	32985	33223	32733	
1378	0	32743	32714	32431	32745	34495	33175	32991	33465	
1379	0	32678	32559	32305	32931	32595	33343	32858	33274	
1380	0	32670	32644	32180	33135	30340	32769	32023	32887	
1381	0	32727	32750	32225	33074	30743	33140	31870	32861	
1382	0	32775	32741	32415	32903	32871	33455	32319	32533	
1383	0	32726	32735	32469	32824	31314	32617	32391	32875	
1384	0	32674	32775	32606	32715	27842	32771	32164	32677	
1385	0	32818	32720	32716	32673	31239	33435	32811	32667	
1386	0	32742	32519	32607	32485	33263	32947	33223	32871	
1387	0	32725	32595	32643	32431	33055	32511	32830	32915	
1388	0	32654	32730	32674	32515	32707	32387	33222	32551	
1389	0	32655	32836	32516	32572	33209	32925	33745	32423	
1390	0	32681	32795	32439	32674	33069	32634	33775	32555	
1391	0	32692	32566	32594	32579	33701	32612	33051	32870	
1392	0	32763	32775	32954	32484	35495	33206	33471	32611	
1393	0	32772	32679	32878	32550	34813	32987	31682	32839	
1394	0	32678	32903	32333	32623	30119	32135	29877	32663	
1395	0	32731	32647	32187	32683	30599	32019	29537	32767	
1396	0	32782	32789	31962	32903	31261	32191	31926	32613	
1397	0	32736	32911	32071	32941	32599	32595	35450	32451	
1398	0	32856	32598	32404	32771	34817	32925	33927	32543	
1399	0	32795	32718	32698	32775	35842	32727	35627	32206	
1400	0	32717	32627	32717	32731	35525	33039	34791	32029	
1401	0	32781	32831	32951	32702	32611	32583	33562	32375	
1402	0	32935	32823	32948	32559	31743	33007	32043	32679	
1403	0	32880	32542	32900	32726	32603	33435	31879	32948	
1404	0	32797	32751	32655	32699	31847	32795	30813	33243	
1405	0	32807	32663	32738	32791	31069	32362	30389	32660	
1406	0	32754	32815	32711	32677	33566	32381	33511	32327	
1407	0	32603	32820	32676	32875	34463	32736	35734	32239	
1408	0	32602	32838	32890	32775	33234	32903	35751	32390	
1409	0	32647	32601	32591	32707	33303	32902	36359	32323	
1410	0	32719	32706	32677	32647	33079	32747	34703	32557	
1411	0	32775	32823	32539	32727	32595	32631	32328	32799	
1412	0	32786	32773	32655	32569	31689	32206	30832	32727	
1413	0	32878	32807	32620	32727	33279	32625	32461	32631	
1414	0	32914	32666	32583	32526	33469	32810	32966	32631	
1415	0	32768	32772	32935	32502	32855	32859	31723	32631	
1416	0	32824	32860	33011	32603	32823	32971	31773	32607	
1417	0	32754	32626	32837	32553	32853	32811	32071	32660	
1418	0	32778	32764	32783	32631	32771	32463	32179	32583	
1419	0	32839	32647	32863	32806	32717	32572	32245	32647	
1420	0	32767	32683	32702	32745	32548	32746	32375	32647	
1421	0	32775	32783	32681	32775	32711	32717	32379	32803	
1422	0	32782	32691	32344	33145	32409	32607	32469	32999	
1423	0	32663	32727	32507	33182	32935	32709	32471	33065	
1424	0	32717	32775	32358	33199	32871	32611	32447	32959	
1425	0	32733	32670	32143	33159	32759	32717	32507	32603	
1426	0	32725	32775	32343	32831	32623	33106	32471	32346	
1427	0	32695	32705	32438	32887	32576	33285	32409	32471	
1428	0	32753	32851	32379	32877	32509	32879	32647	32503	
1429	0	32716	32903	32564	32971	32623	32832	32733	32770	
1430	0	32727	32575	32691	32762	32749	32666	32715	32914	
1431	0	32705	32784	32509	32439	32603	32671	32551	32741	
1432	0	32705	32685	32578	32324	32623	32833	32179	32915	
1433	0	32735	32751	32725	32221	32755	32790	32902	32629	
1434	0	32728	32794	32535	32429	32757	32570	32727	32423	
1435	0	32775	32511	32645	32439	32652	32479	32841	32379	
1436	0	32769	32711	32755	32449	32717	32749	32937	32438	
1437	0	32734	32847	32871	32753	32775	32751	32959	32570	
1438	0	32769	32519	32861	32913	32747	32772	32875	32562	
1439	0	32757	32725	32858	32713	32679	32799	32518	32927	
1440	0	32726	32823	32903	32514	32607	32439	33183	33082	
1441	0	32729	32673	32621	32549	32726	32580	33439	32694	
1442	0	32739	32797	32839	32515	32707	32775	32391	33087	
1443	0	32833	32849	32819	32598	32829	33683	32763	32951	
1444	0	32833	32607	32556	32775	32839	34439	32791	32495	
1445	0	32848	32775	32599	32900	33159	33853	32858	30842	
1446	0	32718	32901	32567	32999	33047	30588	32881	30511	
1447	0	32662	32597	32611	33117	32605	30483	32202	31566	
1448	0	32793	32731	32477	33323	33159	32246	32423	32694	
1449	0	32819	32671	32413	33273	33287	32883	32692	34901	
1450	0	32726	32681	32631	33071	32687	32773	32479	36775	
1451	0	32782	32732	32701	33318	32103	32885	33261	35828	
1452	0	32807	32751	32895	33197	32212	34148	33063	34812	
1453	0	32719	32658	32813	32950	33167	31555	33223	33087	
1454	0	32626	32813	32453	32767	32445	31055	33497	29072	
1455	0	32630	32959	32526	32349	31595	34311	32615	29522	
1456	0	32730	32660	32451	32329	33303	36467	33809	29037	
1457	0	32678	32827	32727	32491	32647	34791	32706	30886	
1458	0	32730	32733	32759	32321	32671	32662	32702	31489	
1459	0	32647	32704	32689	32438	32247	28746	32999	31887	
1460	0	32678	32911	32813	32703	32263	32027	32783	32455	
1461	0	32760	32915	32869	32427	33119	34449	33019	33058	
1462	0	32751	32593	32695	32359	33258	32075	33101	33757	
1463	0	32778	32742	32889	32310	33349	31935	33453	33213	
1464	0	32888	32763	32815	32423	36050	34145	34062	32527	
1465	0	32844	32511	32577	32739	38271	33139	34011	32503	
1466	0	32881	32747	32518	32803	36827	31933	33039	32570	
1467	0	32752	32796	32102	32662	32933	31375	29917	33942	
1468	0	32603	32660	32095	32965	29575	30724	31247	33449	
1469	0	32546	32847	32325	32875	28118	32438	29702	33821	
1470	0	32503	32845	32391	32713	28289	32567	29915	33520	
1471	0	32644	32631	32722	32783	30061	32379	31607	33203	
1472	0	32857	32703	32591	32839	31142	33027	32948	32221	
1473	0	32906	32816	32639	32695	30823	33460	32865	32467	
1474	0	33095	32513	32791	32735	33618	33027	32451	33326	
1475	0	33312	32665	32811	32626	34911	33354	33619	33871	
1476	0	33126	32825	32767	32832	33927	33129	32263	32924	
1477	0	32962	32647	32353	32927	33858	32839	32471	32419	
1478	0	32806	32839	32484	32687	33238	32762	36078	32293	
1479	0	32711	32775	32455	32695	32095	32443	35911	32153	
1480	0	32636	32804	32749	32708	32135	32823	35629	31343	
1481	0	32634	32915	32640	32759	31077	32820	32632	32103	
1482	0	32734	32619	32711	32633	32562	32706	30855	34203	
1483	0	32787	32759	32825	32572	33447	32801	31343	33245	
1484	0	32711	32807	32743	32527	32982	32343	31035	32563	
1485	0	32596	32643	32251	32627	32921	32598	31077	32607	
1486	0	32698	32843	32387	32698	33410	32799	31844	31635	
1487	0	32791	32775	32638	32655	33639	32247	33458	32315	
1488	0	32662	32775	32767	32790	33790	32647	36090	32228	
1489	0	32687	32807	33047	32703	33155	32773	34487	32583	
1490	0	32742	32747	32903	32611	32900	32871	32903	32709	
1491	0	32766	32619	32719	32739	32634	32763	32615	32745	
1492	0	32794	32854	32719	32683	32684	32481	32568	32535	
1493	0	32727	32838	32839	32595	32811	32586	32485	33037	
1494	0	32679	32743	32791	32710	33149	32579	34153	32738	
1495	0	32773	32661	32775	32663	33415	32647	34025	32491	
1496	0	32781	32647	32710	32867	33069	32576	32732	32687	
1497	0	32742	32775	32679	32927	33036	32566	31623	33095	
1498	0	32749	32865	32727	32839	33243	32947	32147	32661	
1499	0	32725	32741	32695	32927	32291	32614	32583	32949	
1500	0	32723	32711	32551	32951	31860	32838	32423	33009	
1501	0	32722	32811	32611	32953	32122	32723	32413	32863	
1502	0	32743	32838	32551	32916	31207	32335	32503	32882	
1503	0	32751	32854	32610	32546	32543	32786	32579	32962	
1504	0	32778	32591	32655	32219	33109	32803	32657	32519	
1505	0	32727	32775	32903	32453	32967	32609	32591	32399	
1506	0	32702	32791	32767	32558	33139	32919	32563	32583	
1507	0	32690	32957	32647	32647	33135	32962	32663	32439	
1508	0	32709	32661	32467	32606	32527	32775	32679	32703	
1509	0	32739	32725	32311	32722	32549	32715	32436	32843	
1510	0	32772	32751	32447	32791	32711	32501	32518	32775	
1511	0	32780	32638	32626	32838	32775	32674	32749	32761	
1512	0	32740	32745	32775	33071	33031	32847	32775	32850	
1513	0	32759	32795	32879	33047	33075	32711	32761	32719	
1514	0	32756	32786	32751	33254	32823	32764	32865	32683	
1515	0	32665	32719	32791	33387	32794	32807	33028	32743	
1516	0	32723	32811	33062	33067	32903	32483	33063	32761	
1517	0	32742	32771	32525	32835	32883	32655	32885	32976	
1518	0	32690	32805	32563	32675	32835	33223	32799	32769	
1519	0	32642	32797	32321	32647	32685	33135	32903	32456	
1520	0	32732	32551	32468	32543	32767	31983	32830	32666	
1521	0	32735	32717	32567	32599	32191	30591	32706	32993	
1522	0	32790	32695	32658	32692	32487	32231	32447	33041	
1523	0	32762	32541	32757	32875	32749	33077	32467	33436	
1524	0	32803	32743	32423	32719	32733	33767	32711	32767	
1525	0	32843	32930	32391	32775	33666	34197	32795	32105	
1526	0	32934	32691	32577	32764	33724	34131	32935	31555	
1527	0	32722	32935	31979	32743	33101	33396	32819	32135	
1528	0	32535	32869	31971	32429	32198	30847	32685	33283	
1529	0	32653	32607	32415	32507	32339	30893	32748	33663	
1530	0	32821	32775	32791	32527	33122	32748	32946	33133	
1531	0	32950	32807	33025	32567	32983	32495	32548	32771	
1532	0	32831	32583	32873	32673	32509	33115	32221	32547	
1533	0	32784	32756	32887	32818	32837	34535	32726	32059	
1534	0	32836	32799	32927	32723	33071	33743	33003	31949	
1535	0	32748	32671	32818	32766	32707	30460	32807	32361	
1536	0	32730	32577	32814	32647	32890	32335	32839	31879	
1537	0	32773	32767	32751	32546	32775	32263	32956	31815	
1538	0	32753	32847	32863	32647	32471	32627	32890	32995	
1539	0	32828	32573	32710	32794	32855	31231	33339	33671	
1540	0	32881	32739	32749	32643	33357	31911	32981	33903	
1541	0	32813	32812	32477	32829	32847	32135	32619	32443	
1542	0	32807	32799	32421	32817	32981	32748	32491	31519	
1543	0	32739	32566	32510	32690	33831	33589	32374	31634	
1544	0	32734	32799	32683	32726	32775	33327	32287	32111	
1545	0	32683	32816	32717	32705	33143	33697	33363	31089	
1546	0	32825	32518	32642	32643	35266	35735	33831	32275	
1547	0	32804	32627	32795	32483	36357	36043	33325	34481	
1548	0	32690	32749	32759	32583	35412	33076	33563	34555	
1549	0	32498	33045	32470	32801	32080	28196	33940	33603	
1550	0	32561	32703	32254	32863	26702	28133	32540	32841	
1551	0	32750	32769	32199	32739	28205	31860	32076	32824	
1552	0	32810	32677	32092	32759	30737	34087	31932	31779	
1553	0	32743	32615	31923	32766	32738	33619	32551	31623	
1554	0	32922	32722	32611	32641	35015	33495	31869	33581	
1555	0	33012	32669	33012	32722	34874	31531	30790	34591	
1556	0	32807	32694	32733	32845	33499	32159	30461	35403	
1557	0	32829	32810	32761	32775	32955	32639	33571	33351	
1558	0	32815	32767	32711	32795	34020	33685	34015	30955	
1559	0	32762	32775	32775	32939	31595	33823	33382	33230	
1560	0	32576	32599	32512	33089	31353	33487	33427	32133	
1561	0	32596	32839	32543	33013	33863	33542	33333	29859	
1562	0	32621	32927	32455	33026	33071	32925	33368	30071	
1563	0	32628	32775	32627	33079	31339	32551	32810	31057	
1564	0	32668	32839	32605	32843	32191	32639	32635	31822	
1565	0	32814	32734	32759	32854	33131	32668	32711	32927	
1566	0	32972	32735	32838	32711	33619	32799	33437	33058	
1567	0	32853	32543	32829	32692	32735	32501	33271	33122	
1568	0	32732	32727	32516	32559	32767	32183	32398	33549	
1569	0	32686	32751	32423	32527	33063	32325	32263	33671	
1570	0	32731	32805	32711	32554	33159	32724	31981	33283	
1571	0	32839	32564	32807	32253	33296	33902	32249	32585	
1572	0	32764	32767	32623	32229	33185	34873	32357	32993	
1573	0	32720	32846	32682	32275	33151	34790	32815	32391	
1574	0	32758	32630	32566	32125	33123	34399	33041	33156	
1575	0	32700	32822	32711	32370	32895	30627	32773	35709	
1576	0	32570	32948	32466	32433	32933	32807	32820	35743	
1577	0	32615	32588	32358	32462	32391	35893	32795	33309	
1578	0	32688	32727	32455	32932	30401	29977	32481	32966	
1579	0	32580	32955	32276	33199	29894	26138	31632	32818	
1580	0	32621	32595	32466	32967	32203	28450	32157	27538	
1581	0	32874	32755	32895	33021	35025	30737	33174	27710	
1582	0	33020	32710	32799	32853	34994	34009	32791	28315	
1583	0	32750	32802	32310	33178	35763	34716	32639	29780	
1584	0	32720	32609	32343	33206	37119	36223	32329	34147	
1585	0	32816	32866	33063	33332	33711	35105	32470	36013	
1586	0	32687	33025	33023	33343	26307	30553	31582	35686	
1587	0	32692	32627	32735	32957	30284	31312	34729	33715	
1588	0	32662	32681	32359	32967	31401	32731	34945	32135	
1589	0	32790	32831	32647	32959	32918	33919	34135	32349	
1590	0	32690	32663	32879	32798	32487	32556	34943	32775	
1591	0	32711	32723	33079	32863	32863	31895	33951	32615	
1592	0	32743	32839	33015	32719	32057	32247	31892	32973	
1593	0	32903	32791	32615	32619	31407	32375	32071	32515	
1594	0	32958	32615	32459	32551	32633	32713	32850	32579	
1595	0	33023	32679	32664	32311	33087	32690	32038	32935	
1596	0	33007	32767	32444	32507	33177	32699	31054	33028	
1597	0	32985	32772	32295	32383	32866	32658	31887	32807	
1598	0	32971	32597	32308	32422	32924	32683	32663	32991	
1599	0	32871	32711	32316	32439	33526	32754	32855	32959	
1600	0	32700	32747	32470	32671	32365	32715	32845	32519	
1601	0	32695	32591	32863	32667	32903	32628	32679	32337	
1602	0	32775	32775	32935	32423	33214	32583	32726	32742	
1603	0	32687	32717	32879	32423	33119	32815	32591	32742	
1604	0	32703	32775	32665	32461	32775	32943	32749	32823	
1605	0	32730	32677	32603	32451	32970	32887	32815	32670	
1606	0	32660	32718	32425	32739	32924	32631	32831	32687	
1607	0	32724	32831	32581	33093	32804	32735	32929	32599	
1608	0	32775	32799	32674	33435	32443	32724	32959	32713	
1609	0	32796	32833	32711	33391	32569	32575	32853	32703	
1610	0	32764	32639	32806	33245	32692	32751	32762	32711	
1611	0	32881	32614	32660	33275	32900	32901	32863	32765	
1612	0	32834	32883	32687	33329	33103	32862	32795	32839	
1613	0	32824	32807	32614	32911	32690	32807	32587	32868	
1614	0	32779	32805	32554	32692	32379	32732	32415	32679	
1615	0	32699	32731	32503	32533	32331	32726	32455	32647	
1616	0	32620	32893	32487	32455	32054	32753	32443	32527	
1617	0	32869	32647	32887	32519	32119	33003	32785	32743	
1618	0	32999	32629	32835	32534	32679	33241	33263	32707	
1619	0	32852	32599	32407	32391	33430	33087	33283	32731	
1620	0	32823	32787	32258	32191	32879	33030	33255	32759	
1621	0	32764	32911	32412	32309	32717	32959	33123	32733	
1622	0	32684	32765	32523	32468	33215	32709	32799	32879	
1623	0	32704	32814	32540	32515	33187	32560	32583	32695	
1624	0	32697	32839	32575	32731	33305	32423	32679	32660	
1625	0	32785	32548	32661	32747	33375	32451	33043	32400	
1626	0	32710	32819	32657	32831	33959	32791	33490	32450	
1627	0	32687	32727	32685	32914	32794	32643	33258	32647	
1628	0	32671	32800	32703	32911	31830	32628	33139	32775	
1629	0	32711	32630	32733	32804	32291	32852	33101	32886	
1630	0	32736	32855	32979	32903	32979	32867	33021	33091	
1631	0	32703	32827	32743	32879	33350	33099	33069	32234	
1632	0	32632	32655	32863	32954	33100	34175	32722	32177	
1633	0	32680	32671	32685	32893	31957	33669	31729	33467	
1634	0	32690	32717	32543	32847	31500	30286	31431	33115	
1635	0	32886	32831	32701	32862	32205	29442	31251	35006	
1636	0	32993	32717	32903	32696	33101	32466	32695	35661	
1637	0	32820	32791	32601	32480	33575	36176	36646	31775	
1638	0	32853	32630	32641	32367	34535	38437	34028	33511	
1639	0	32720	32615	32578	32791	34021	35463	32919	33411	
1640	0	32685	32819	32291	33143	33171	27240	31812	32125	
1641	0	32553	32811	32020	33202	32235	26559	31231	31616	
1642	0	32592	32899	31845	33314	32527	30689	30223	31247	
1643	0	32567	33010	32151	33326	31869	33553	28820	31487	
1644	0	32722	32919	32390	33095	30215	34207	31359	29502	
1645	0	32791	32721	32567	32743	28609	31983	32241	28356	
1646	0	32856	32683	32919	32283	32903	33864	32936	31294	
1647	0	32814	32807	32951	32228	32188	32328	32759	32002	
1648	0	33041	32538	33235	32284	32470	32451	33311	32676	
1649	0	33188	32612	33257	32150	35910	34254	34380	33259	
1650	0	32903	32829	32532	32370	35111	33527	34513	33074	
1651	0	32768	32683	32351	32431	32516	33039	34117	32988	
1652	0	32823	32807	32543	32303	32161	33109	33579	33115	
1653	0	32761	32841	32877	32415	32647	32819	33111	33259	
1654	0	32807	32635	32967	32594	33319	32071	32883	33375	
1655	0	32912	32759	32935	32690	33390	32487	32918	33415	
1656	0	32791	32721	32695	32868	33405	32613	32843	33043	
1657	0	32732	32831	33003	33046	33413	32631	32842	33125	
1658	0	32638	32919	32946	33159	33193	32738	32775	33139	
1659	0	32710	32866	32637	33279	32735	32731	32751	32997	
1660	0	32694	33065	32543	33231	32793	32745	32546	33204	
1661	0	32773	32775	32455	33315	32983	32647	32591	33383	
1662	0	32806	32895	32690	33206	32853	32455	32578	33005	
1663	0	32766	32839	32647	33351	32903	32431	32443	32966	
1664	0	32646	32731	32635	33391	32674	32578	32423	32999	
1665	0	32556	32923	32438	33031	32251	32863	32575	33019	
1666	0	32621	32927	32519	33029	32940	33026	32734	33011	
1667	0	32788	32615	32562	32795	32039	33031	32861	33115	
1668	0	32893	32686	32594	32559	31145	33111	32615	33009	
1669	0	32873	32531	32879	32385	31301	33303	32527	32559	
1670	0	32770	32684	33075	31818	33618	32839	32391	32211	
1671	0	32767	32799	33133	31535	33197	32386	32642	32054	
1672	0	32688	32647	32831	31617	32295	32971	33730	31825	
1673	0	32654	32763	32859	32003	32202	32826	33951	32173	
1674	0	32769	32815	32641	32071	32439	32987	32896	32631	
1675	0	32722	32619	32287	32263	33110	32883	32911	32807	
1676	0	32798	32818	32309	32919	33342	32967	33204	33276	
1677	0	32951	32599	32423	33273	33518	33062	33091	33298	
1678	0	32680	32749	32157	33491	34089	32860	32767	33354	
1679	0	32694	32727	32517	33476	34319	32813	32647	32967	
1680	0	33002	32638	33015	33387	34347	32917	32679	32621	
1681	0	33015	32728	32996	33201	32072	32559	32177	32467	
1682	0	32701	32597	32511	33423	31461	32135	32417	32462	
1683	0	32723	32857	32627	33223	33077	32628	33175	32310	
1684	0	32816	32725	32528	32884	34055	33327	33172	32333	
1685	0	32743	32870	32660	32308	33351	32951	33037	32323	
1686	0	32667	32990	32503	32067	31705	32676	32816	32322	
1687	0	32701	32683	32371	32229	31247	32673	32781	32559	
1688	0	32690	32828	32706	32431	31463	32729	32630	32594	
1689	0	32815	32629	33170	32331	32978	32791	32678	32707	
1690	0	32715	32863	32975	32491	33170	32668	32898	32535	
1691	0	32674	32882	32821	32484	33317	32706	32839	32470	
1692	0	32695	32548	32829	32335	32347	32754	32625	32470	
1693	0	32732	32702	32431	31853	32359	32757	32487	32387	
1694	0	32715	32447	32541	32032	33073	32675	32557	32507	
1695	0	32761	32623	32634	32759	33316	32671	32519	32628	
1696	0	32723	32747	32559	33011	33255	32646	32485	32523	
1697	0	32750	32439	32310	32921	33324	32662	32494	32723	
1698	0	32765	32647	32283	33007	33285	32705	32631	32838	
1699	0	32692	32559	32511	33307	33355	32653	32999	32703	
1700	0	32676	32743	32278	33207	32666	32549	33040	32589	
1701	0	32686	32763	32736	33415	31941	32512	31867	32959	
1702	0	32726	32854	32929	33065	32350	32508	32093	32652	
1703	0	32950	32527	32975	32787	33083	32809	32447	32677	
1704	0	32983	32775	32775	32386	33386	33287	33021	32513	
1705	0	32788	32699	32717	32735	33510	33122	33183	32578	
1706	0	32640	32934	32786	32831	34183	33023	33453	32547	
1707	0	32703	32798	32537	32551	33235	32143	33079	32732	
1708	0	32665	32821	32583	32435	30612	31739	30990	32732	
1709	0	32630	32617	32493	32485	32229	32018	31247	32951	
1710	0	32607	32826	32718	32516	35333	32493	33820	32605	
1711	0	32662	32758	32507	32742	33858	32673	33431	32132	
1712	0	32750	32705	33009	32727	33123	34299	32155	32132	
1713	0	32827	32743	33287	32890	33575	34123	33355	30807	
1714	0	32930	32477	32495	32807	34070	32263	34093	32109	
1715	0	32862	32685	32064	32875	34023	32103	32109	32850	
1716	0	32881	32599	32038	32997	31399	33441	32207	31052	
1717	0	32748	32903	32263	32941	26218	33287	35105	33204	
1718	0	32846	32822	32011	32683	28698	32070	35943	35375	
1719	0	32814	32731	32367	32515	31223	30987	33622	35403	
1720	0	32685	32911	32306	32719	33511	31900	31910	32940	
1721	0	32583	32890	32263	32470	32583	34194	29568	33708	
1722	0	32627	32898	32846	32466	32285	33135	31915	33223	
1723	0	32647	32638	33111	32337	31879	30814	32403	33537	
1724	0	32624	32830	32926	32613	34151	30811	33065	34459	
1725	0	32794	32503	32910	32631	35069	33711	33951	33523	
1726	0	32836	32735	32964	32751	33548	33080	33220	33629	
1727	0	32775	32503	32759	32835	32879	34402	32495	33139	
1728	0	32692	32711	32423	32838	32875	34921	32871	31288	
1729	0	32735	32558	32447	32826	32973	35503	33078	31286	
1730	0	32752	32813	32656	32967	33084	34215	33483	31687	
1731	0	32647	32600	32547	33109	32887	32932	33221	29255	
1732	0	32612	32838	32577	33144	32911	29337	32919	29319	
1733	0	32698	32628	32459	33039	33367	29869	32194	31223	
1734	0	32809	32795	32607	32927	32945	32103	31812	33404	
1735	0	32869	32703	32758	32791	32735	32527	32134	32676	
1736	0	32731	32815	32519	32783	33059	32679	32367	32771	
1737	0	32664	32655	32519	32687	33399	32947	32587	32755	
1738	0	32807	32743	32647	32567	33236	32747	32685	32963	
1739	0	32775	32599	32762	32703	33153	32363	32887	33075	
1740	0	32779	32788	32797	32619	32279	32347	32900	33127	
1741	0	32866	32535	32461	32598	32023	32678	32643	33287	
1742	0	32839	32743	32466	32611	32543	32799	32724	33191	
1743	0	32829	32511	32463	32674	32693	32927	32679	33133	
1744	0	32778	32823	32676	32801	32771	32871	32756	32993	
1745	0	32681	32623	32593	32987	32767	32495	32705	33516	
1746	0	32662	32783	33045	32991	32563	32391	32724	33351	
1747	0	32724	32738	33015	32762	32647	32543	32933	32915	
1748	0	32768	32831	32498	32643	33215	32701	33045	32300	
1749	0	32731	32741	32403	32591	32917	32892	33029	32118	
1750	0	32753	32827	32391	32247	32555	32903	32912	32460	
1751	0	32764	32615	32407	32321	32553	33442	32979	31892	
1752	0	32738	32806	32245	32593	32374	33313	33005	32113	
1753	0	32721	32855	32276	32910	32319	33037	32975	32174	
1754	0	32667	32935	32503	32927	33436	33850	32802	32983	
1755	0	32588	33007	32567	33031	33407	33219	32508	34775	
1756	0	32561	32860	32557	32783	32463	32231	32804	34764	
1757	0	32631	32863	32601	33143	32451	32516	32663	34905	
1758	0	32701	32739	32666	33094	32797	31503	32506	35135	
1759	0	32827	32731	32949	32879	33106	30711	31975	36078	
1760	0	32842	32735	32725	32951	32822	30830	32100	32976	
1761	0	32780	32835	32727	32643	32375	31367	32438	30646	
1762	0	32838	32646	32879	32263	32595	31640	32615	33287	
1763	0	32770	32810	32821	32039	32231	33490	33278	30540	
1764	0	32806	32804	32723	32506	32157	34338	33274	29279	
1765	0	32710	32859	32727	32526	32871	34975	33274	28468	
1766	0	32636	32925	32926	32175	31893	34439	33077	26639	
1767	0	32720	32583	32827	31567	31572	33647	32935	28703	
1768	0	32860	32734	32451	31341	32049	32790	32775	30087	
1769	0	32951	32717	32743	31703	32845	32470	32734	32007	
1770	0	33003	32807	33141	33129	33741	32719	32510	35271	
1771	0	32787	32643	32979	33551	33045	32667	32509	36231	
1772	0	32887	32556	32558	33639	32775	33063	32847	33795	
1773	0	32885	32782	32633	33825	33903	33143	33057	33211	
1774	0	32887	32749	32705	33903	34695	33080	32843	33088	
1775	0	32723	32679	32260	33581	33499	32370	32847	33631	
1776	0	32551	32641	32123	33506	33027	32671	32861	32731	
1777	0	32643	32829	32371	33239	32767	31987	33037	32339	
1778	0	32778	32796	32473	33174	32639	31551	32937	33212	
1779	0	32890	32749	32382	32903	32821	32495	32919	33607	
1780	0	32802	32785	32231	32999	32887	32926	32850	33460	
1781	0	32797	32660	32468	32807	34797	32903	32447	33089	
1782	0	32895	32711	33012	32518	36938	33541	31614	33159	
1783	0	32784	32734	32935	32495	33517	32999	31860	32951	
1784	0	32629	32867	32818	32614	28029	32639	31174	32927	
1785	0	32749	32935	32543	32419	28391	31330	31411	33050	
1786	0	32782	32612	31995	32588	31523	32246	31431	33179	
1787	0	32681	32789	31892	32503	30841	32720	32263	32719	
1788	0	32700	32639	32213	32567	32057	34151	35041	32476	
1789	0	32791	32761	32634	32583	33089	34635	35580	32437	
1790	0	32780	32787	32519	32539	33135	32918	33726	33135	
1791	0	32734	32622	32710	32593	34109	31652	32321	33542	
1792	0	32813	32756	32675	32503	33959	30749	31469	33146	
1793	0	32745	32612	32705	32365	32052	31743	31901	32823	
1794	0	32647	32787	32527	32543	31994	32487	32914	32509	
1795	0	32679	32687	32613	32355	33090	33287	33875	32023	
1796	0	32690	32756	32759	32557	33507	32799	33703	31925	
1797	0	32742	32723	32813	32583	33223	32603	32991	32411	
1798	0	32777	32555	32675	32647	33031	32769	32687	32531	
1799	0	32824	32813	32867	32577	32999	32822	32668	32757	
1800	0	32783	32599	32787	32551	32791	32910	32679	32611	
1801	0	32781	32759	32613	32551	32810	32935	32615	32686	
1802	0	32823	32637	32914	32538	33071	32951	32482	32759	
1803	0	32764	32807	32726	32647	33287	32951	32340	32725	
1804	0	32695	32903	32530	32726	33007	32847	32391	32639	
1805	0	32723	32588	32575	32775	32639	32629	32549	32595	
1806	0	32745	32852	32629	32647	32081	32543	32667	32633	
1807	0	32681	32623	32487	32665	32358	32633	32731	32615	
1808	0	32623	32815	32477	32623	32331	32671	32783	32662	
1809	0	32859	32549	32763	32659	32995	32994	33159	32621	
1810	0	32881	32685	33190	32570	33187	33113	33325	32433	
1811	0	32893	32564	33111	32695	33341	33072	32935	32516	
1812	0	32844	32727	32914	32687	33247	32662	32523	32730	
1813	0	32812	32790	32771	32889	33359	32722	32615	32415	
1814	0	32775	32794	32451	32841	33147	34455	32671	31579	
1815	0	32758	32918	32311	32918	32751	35207	33007	30773	
1816	0	32851	32615	32114	32743	32481	34311	33007	31262	
1817	0	32700	32967	31917	32894	32114	29554	32237	33239	
1818	0	32663	32836	32348	32743	34391	28118	32041	34421	
1819	0	32660	32935	33207	32750	34328	30583	32647	32641	
1820	0	32693	32914	33566	32580	31666	33597	31939	33838	
1821	0	32708	32775	33282	32669	30359	33535	31869	35443	
1822	0	32731	32818	33006	32694	33835	34337	32466	34016	
1823	0	32756	32612	32559	32718	33623	32717	33087	32935	
1824	0	32745	32785	32467	32848	30709	32749	32526	32684	
1825	0	32704	32716	32612	32811	28878	33130	32997	32508	
1826	0	32701	32719	32209	32731	31380	33554	33013	31631	
1827	0	32775	32647	32325	32775	33398	33782	32590	32071	
1828	0	32709	32631	32247	32935	33286	32797	32867	32635	
1829	0	32705	32705	32178	32983	34111	32665	32983	32509	
1830	0	32603	32591	32330	32965	34147	32587	33187	32538	
1831	0	32658	32701	32342	33083	33479	32975	32919	32335	
1832	0	32566	32743	32287	33287	31789	32276	32335	32189	
1833	0	32584	32711	32326	33127	32327	31995	32702	32302	
1834	0	32612	32831	32471	32842	32239	32535	32734	32683	
1835	0	32617	32795	32251	32809	32732	32910	32955	32399	
1836	0	32628	32811	32349	32715	33562	32903	33453	32391	
1837	0	32740	32854	32519	32535	33717	32819	33762	32327	
1838	0	32831	32515	32703	32103	34751	32895	33341	32303	
1839	0	32873	32719	32587	32174	35276	32607	31751	32806	
1840	0	32903	32811	32583	32295	33511	32436	30999	32875	
1841	0	32713	32647	32423	32413	31565	32125	32398	32343	
1842	0	32615	32782	32698	32386	31849	32402	34149	32308	
1843	0	32679	32547	32631	32335	35079	32973	34363	32903	
1844	0	32912	32551	32894	32407	34919	33685	33526	32747	
1845	0	32717	32581	32549	32783	30203	32563	32709	32976	
1846	0	32838	32573	32583	33001	27373	32615	31350	32854	
1847	0	32806	32535	32477	32869	29575	32959	31970	32223	
1848	0	32784	32615	32021	32800	32023	33258	32357	32607	
1849	0	32746	32647	32087	32717	33287	33149	32578	33005	
1850	0	32706	32871	32165	32903	32787	32578	32455	32865	
1851	0	32688	32903	32262	32950	32853	32455	32355	32620	
1852	0	32763	32878	32607	33049	32863	32474	32391	32803	
1853	0	32892	33015	33121	33172	32933	32463	32503	33065	
1854	0	32855	32829	33225	33178	32691	32647	33275	33023	
1855	0	32871	33095	33577	33156	33530	32581	33839	32583	
1856	0	32902	32882	33303	33055	34037	32717	33637	32665	
1857	0	32952	33159	33147	33399	32291	31803	33216	32575	
1858	0	33031	32991	33495	33197	33104	31785	33959	32522	
1859	0	33296	32889	33663	32934	33015	32871	33840	32044	
1860	0	33293	33019	33463	32670	32423	32955	33551	31475	
1861	0	32970	32787	32973	32527	33650	32295	32935	32365	
1862	0	32816	32925	32647	32784	34644	32334	32463	32909	
1863	0	32882	32607	32727	32746	31379	32528	31819	33167	
1864	0	32771	32621	32758	32850	30178	32406	32263	32919	
1865	0	32587	32758	32347	33000	31463	32599	32535	32039	
1866	0	32571	32719	32461	32895	33347	32618	32578	32283	
1867	0	32526	32671	32322	32901	33837	32612	33197	32459	
1868	0	32514	32671	32150	32923	33799	32507	32921	32562	
1869	0	32477	32863	32356	32999	33373	33247	33172	32486	
1870	0	32521	32734	32463	32975	33091	34165	32795	33024	
1871	0	32543	32739	32255	32863	33335	34553	32818	32654	
1872	0	32653	32567	32351	32615	33274	34223	33087	32695	
1873	0	32775	32698	32403	32619	33345	33915	33937	32150	
1874	0	32780	32688	32606	32647	32846	32851	33716	32902	
1875	0	32775	32755	32658	32703	32439	28733	32701	34569	
1876	0	32751	32930	32821	32751	31751	29664	32498	31501	
1877	0	32794	32663	32575	32589	32499	31095	32551	30290	
1878	0	32827	32775	32719	32515	32903	31888	31515	33869	
1879	0	32769	32795	32834	32365	33094	33247	31657	35407	
1880	0	32668	32668	32739	32543	33375	33151	31652	33851	
1881	0	32666	32867	32816	32503	32903	32807	32085	32598	
1882	0	32583	32731	32671	32419	32733	33104	32495	32285	
1883	0	32668	32735	32662	32595	32783	32443	32960	32203	
1884	0	32700	32900	32543	32571	32822	32847	33063	32359	
1885	0	32723	32599	32340	32661	32995	33022	32987	32091	
1886	0	32664	32783	32646	32698	32919	32885	32946	32132	
1887	0	32767	32661	32493	32639	32820	32815	32775	32836	
1888	0	32799	32676	32463	32809	32734	32871	32739	32607	
1889	0	32791	32815	32407	32863	32502	33234	32803	32430	
1890	0	32749	32583	32229	33047	32443	33555	32807	32550	
1891	0	32750	32775	32383	32967	32483	33239	32869	32403	
1892	0	32768	32639	32579	32942	32557	33047	32899	32659	
1893	0	32768	32775	32485	32770	32586	33060	32965	32847	
1894	0	32760	32811	32655	32615	32791	32935	32847	32695	
1895	0	32740	32783	32503	32647	32887	32939	32869	32517	
1896	0	32655	32787	32492	32497	32739	32829	32863	32487	
1897	0	32820	32486	32659	32655	32749	32855	32875	32749	
1898	0	32803	32695	32707	32555	32833	32939	32783	32811	
1899	0	32838	32703	32452	32637	32903	32947	32803	32765	
1900	0	32903	32647	32533	32659	32833	32771	32871	32775	
1901	0	32903	32789	32935	32675	32799	32775	32839	32715	
1902	0	32963	32509	33159	32727	32718	32815	32903	32687	
1903	0	32854	32751	33337	32743	32711	32775	32978	32699	
1904	0	32749	32554	33442	33007	32828	32811	32577	32966	
1905	0	32671	32727	33111	32974	32893	32855	32615	32836	
1906	0	32667	32619	32989	32903	32879	32660	32527	32727	
1907	0	32630	32775	32539	32705	32914	32615	32405	32791	
1908	0	32586	32701	32128	32855	32829	32607	32847	32819	
1909	0	32574	32893	32321	32668	32903	32219	33012	32655	
1910	0	32630	33050	32475	32719	33024	32029	32915	32677	
1911	0	32676	32727	32159	32599	33111	32783	32671	32096	
1912	0	32804	32819	32259	32324	32940	32770	33204	30921	
1913	0	32879	32671	32333	32247	32885	32675	33372	30084	
1914	0	32782	32775	32342	32117	32781	32750	32278	31682	
1915	0	32786	32557	32162	32052	32485	32307	32371	32187	
1916	0	32898	32739	32464	32177	31431	32047	31878	34371	
1917	0	32732	32796	32340	32730	31266	32289	32069	35422	
1918	0	32686	32839	32551	32855	32311	33927	32359	36326	
1919	0	32808	32759	32583	33117	33415	33823	32179	35290	
1920	0	32858	32642	32430	33245	33645	32691	32588	32918	
1921	0	32730	32742	32322	33595	32867	31198	32943	32877	
1922	0	32742	32510	32101	33553	34279	32361	33055	33237	
1923	0	32745	32719	32439	33401	34519	33342	34022	32023	
1924	0	32647	32551	32675	33241	33871	32901	34363	31504	
1925	0	32614	32756	33177	33111	32331	32687	33005	33287	
1926	0	32804	32784	33636	32939	29933	32135	32954	34582	
1927	0	32763	32751	33479	32674	31396	33281	33846	33887	
1928	0	32678	32800	33063	32441	35439	35099	33687	32199	
1929	0	32730	32628	32811	32215	36155	35941	32003	33566	
1930	0	32671	32887	32858	32386	33302	32340	33871	34125	
1931	0	32735	32969	32655	32268	31639	28001	31975	34109	
1932	0	32600	32789	32545	32375	29042	28861	30213	30927	
1933	0	32716	32851	32346	32679	31449	32984	30743	28028	
1934	0	32687	32762	31967	32895	31775	35043	31950	24861	
1935	0	32717	32855	32081	33036	31630	34439	32486	28141	
1936	0	32764	32775	31917	33001	32415	37018	32565	31519	
1937	0	32886	32679	32626	32715	32527	37279	32181	34543	
1938	0	32892	32703	33221	32790	31286	33057	33199	33682	
1939	0	32869	32766	33139	32614	30182	28271	33238	33300	
1940	0	32895	32575	33159	32719	31476	27821	33457	34695	
1941	0	32799	32758	32823	32863	32839	29759	33460	34802	
1942	0	32722	32729	32766	32775	33831	33455	33121	32941	
1943	0	32669	32775	32669	32846	34327	33204	32465	31532	
1944	0	32627	32899	32687	32721	34325	32175	32573	32083	
1945	0	32589	32623	32493	32877	33991	32371	32830	32421	
1946	0	32615	32895	32441	33116	33587	32691	32970	32720	
1947	0	32684	32687	32541	32867	33319	32463	32955	32916	
1948	0	32725	32710	32532	32510	33319	32485	32903	33030	
1949	0	32734	32661	32333	32279	33266	32501	33015	33015	
1950	0	32729	32775	32423	32409	33171	32637	33031	32967	
1951	0	32812	32871	32243	32495	33132	32775	32951	32932	
1952	0	32824	32675	32487	32487	33135	32767	32894	32923	
1953	0	32793	32775	32754	32591	33131	32639	32924	33043	
1954	0	32735	32835	32735	32554	33041	32635	32807	32993	
1955	0	32761	32659	32748	32854	32932	32703	32775	33003	
1956	0	32783	32751	32612	32743	32863	32847	32716	33021	
1957	0	32758	32718	32881	32677	32795	32842	32775	32939	
1958	0	32720	32751	32933	32761	32615	32830	32751	32833	
1959	0	32790	32903	33026	32842	32506	32771	32801	32687	
1960	0	32804	32766	33453	32743	32578	32839	32823	32695	
1961	0	32791	32835	33839	32253	32470	32869	32901	32662	
1962	0	32810	32831	34038	32251	32410	32826	32914	32631	
1963	0	32812	32914	34071	32383	32647	32747	32927	32775	
1964	0	32896	32699	34095	32815	32691	32783	32874	32671	
1965	0	32863	32935	33551	33218	32614	32823	32813	32619	
1966	0	32791	32663	32703	33331	32551	32807	32862	32551	
1967	0	32863	32900	32307	33535	32549	32695	32927	32586	
1968	0	32900	32555	31954	33359	32471	32604	32807	32550	
1969	0	32930	32755	31449	33117	32711	32647	32717	32532	
1970	0	32898	32557	31623	32927	32749	32703	32430	32601	
1971	0	32804	32763	31898	33067	32791	32773	32425	32576	
1972	0	32647	32791	31900	32943	32917	32831	32409	32695	
1973	0	32624	32722	31607	32767	32978	32970	32391	32825	
1974	0	32504	32883	31435	32677	32567	32837	32502	32791	
1975	0	32576	32783	31159	32699	32631	32659	32567	32497	
1976	0	32710	32846	31127	32691	33026	32711	32603	32751	
1977	0	32728	32540	31582	32511	33643	32847	32982	32703	
1978	0	32739	32773	31671	32647	33281	32775	32859	32535	
1979	0	32693	32655	31847	32578	32623	32621	32375	32663	
1980	0	32555	32835	31832	32637	31940	32545	32538	32775	
1981	0	32728	32699	32214	32647	32263	32684	33043	32659	
1982	0	32823	32847	32350	32610	32767	32708	32437	32695	
1983	0	32903	32642	32423	32591	33223	32747	31954	32812	
1984	0	32947	32889	32461	32506	32631	32767	31879	32811	
1985	0	32799	32794	32403	32085	32175	32701	32391	32750	
1986	0	32656	32892	32607	32172	32287	32661	33065	32687	
1987	0	32659	32681	32530	32411	32559	32916	33085	32684	
1988	0	32696	32837	32431	32535	32723	33023	33105	32751	
1989	0	32790	32815	32759	32671	32742	32859	32711	32833	
1990	0	32759	32849	32914	32751	32839	32827	32681	32487	
1991	0	32645	32921	32815	32791	32785	32703	32989	32485	
1992	0	32706	32835	33021	32973	32923	32737	32710	32617	
1993	0	32694	32861	33243	33474	33159	32460	32730	32619	
1994	0	32768	32711	33287	33243	32971	32064	32695	32673	
1995	0	32716	32775	33475	33195	32884	32540	32802	32743	
1996	0	32809	32557	33447	32999	33187	32627	33505	32547	
1997	0	32931	32687	33041	32947	32923	32623	32647	32823	
1998	0	32820	32573	32999	32727	32455	32706	32433	32578	
1999	0	32676	32677	32902	32516	33001	32734	32361	32631	
2000	0	32495	32863	32822	32709	33568	32822	33197	32490	
2001	0	32464	32802	33211	33042	33979	32551	33519	32350	
2002	0	32552	32935	33157	33100	32775	32410	32821	32887	
2003	0	32656	32667	33407	33375	31367	32359	31623	32935	
2004	0	32837	32807	32805	33251	31802	32499	32380	32871	
2005	0	32786	32567	32303	33177	33385	32799	32519	32842	
2006	0	32743	32786	32164	33122	32513	32791	33172	32541	
2007	0	32927	32511	32527	32829	31677	33047	33535	32537	
2008	0	33073	32571	33039	32755	32093	33004	32799	32767	
2009	0	32976	32749	33039	32715	33671	32935	32071	33251	
2010	0	32833	32795	32607	32723	33615	33031	32791	33033	
2011	0	32724	32816	32615	32647	32887	32621	33047	32601	
2012	0	32713	32755	32514	32607	35537	32327	33239	32786	
2013	0	32643	32960	32463	32582	36474	32617	33631	32439	
2014	0	32640	32703	32599	32516	33865	32820	35105	31111	
2015	0	32572	32914	32647	32695	29243	32133	34333	31149	
2016	0	32710	32749	32383	32575	31262	32863	31934	32331	
2017	0	32743	32790	32481	32487	32771	32871	30123	33445	
2018	0	32740	32623	32719	32463	32799	32743	29613	33896	
2019	0	32712	32838	32735	32519	31266	32531	31858	33159	
2020	0	32703	32832	32763	32554	32791	33301	31355	32903	
2021	0	32813	32541	32638	32425	33387	33255	32233	32723	
2022	0	32664	32843	32579	32359	31055	31713	32557	32868	
2023	0	32725	32717	32477	32413	29227	32337	36069	32943	
2024	0	32722	32826	32327	32203	32696	33467	34622	32620	
2025	0	32729	32643	32594	32261	34919	33241	33545	32617	
2026	0	32738	32818	32827	32334	35391	33143	33943	32643	
2027	0	32670	32714	32556	32655	33783	32944	32783	32736	
2028	0	32523	32823	32450	32751	31285	32615	32186	32647	
2029	0	32600	32626	32570	32935	29996	32660	32775	32463	
2030	0	32953	32647	33263	32751	31013	32903	32697	32537	
2031	0	33067	32527	33079	32774	32903	32758	32327	32461	
2032	0	32829	32738	33023	32925	34309	32493	32325	32450	
2033	0	32847	32839	33093	32742	34819	32470	32041	32636	
2034	0	32843	32590	32695	32767	33453	32619	32291	32594	
2035	0	32871	32878	32819	32758	32035	32463	32486	32493	
2036	0	32782	32631	32554	32910	32879	32463	32709	32578	
2037	0	32793	32842	32469	32810	34535	32449	33359	32450	
2038	0	32734	32757	32223	32811	34183	32475	33434	32335	
2039	0	32738	32769	32463	32912	33383	32399	32151	32887	
2040	0	32677	32803	32466	32962	31651	32263	31094	32710	
2041	0	32667	32655	32702	32838	34075	32735	31342	32754	
2042	0	32655	32741	32535	32947	33799	32656	31111	33209	
2043	0	32677	32812	32495	33055	32131	32461	31527	33015	
2044	0	32687	32775	32116	32954	29867	32359	32217	32470	
2045	0	32852	32726	31954	32721	31367	33311	31017	32887	
2046	0	32838	32486	32037	32730	32628	32617	32998	32516	
2047	0	32807	32783	32118	32796	33697	32799	36951	32206	
2048	0	32772	32775	31855	32815	33638	33287	37332	32258	
2049	0	32775	32838	32250	32630	32609	32931	34607	32415	
2050	0	32807	32870	33047	32543	32629	32879	33250	32319	
2051	0	32868	32709	33669	32396	32681	32711	32876	32415	
2052	0	32876	32903	34859	32205	32700	32717	32788	32573	
2053	0	32966	32643	35072	31987	32874	32707	32795	32705	
2054	0	33038	32798	34319	31919	32919	32719	32901	32534	
2055	0	33037	32679	33606	32310	32807	32974	32914	32607	
2056	0	32910	32813	32477	32583	32628	32751	32887	32856	
2057	0	32824	32666	31450	32967	32567	32863	32742	33039	
2058	0	32722	32763	30640	33005	32598	33063	32911	32789	
2059	0	32633	32596	29846	33359	32749	33287	32860	32723	
2060	0	32602	32814	30668	33618	32879	33215	32659	32677	
2061	0	32643	32597	31154	33718	33167	33322	32431	32823	
2062	0	32641	32723	32007	33693	33218	32921	32775	32554	
2063	0	32844	32519	33775	33373	33247	32563	32980	32223	
2064	0	32794	32829	34343	33223	32180	32061	32160	32667	
2065	0	32848	32809	34407	33241	32221	31432	31621	32726	
2066	0	32974	32695	34279	33071	32995	31228	31347	32668	
2067	0	32839	32823	33782	33055	33359	31043	31551	32647	
2068	0	32676	32511	33018	32925	33091	31309	31893	32612	
2069	0	32368	32894	31631	32748	32647	32071	32134	32479	
2070	0	32190	32749	30145	32583	32423	32534	31997	32549	
2071	0	32197	32879	29865	32579	32329	32903	32250	32713	
2072	0	32167	33027	30005	32419	32549	33071	33407	32373	
2073	0	32322	32711	30871	32301	32645	33197	32775	32587	
2074	0	32578	32871	31599	32455	32583	33207	32831	32583	
2075	0	32671	32847	32104	32513	32815	33399	34149	32507	
2076	0	32850	32799	32757	32365	32732	33331	33436	33062	
2077	0	33072	32903	33255	32439	33182	33137	32841	32846	
2078	0	32927	32615	32703	32263	33741	32633	32429	32935	
2079	0	32797	32775	32559	32286	33543	32399	32491	32922	
2080	0	32870	32853	32923	32159	34683	33101	33616	32133	
2081	0	33047	32658	33547	31680	33271	33309	32134	32291	
2082	0	33032	32851	33655	31727	31078	31648	32052	32035	
2083	0	33029	32831	33447	32183	29619	31467	32189	32612	
2084	0	32890	32842	33433	32493	31919	32487	32804	32839	
2085	0	32839	32797	33359	32262	33277	33247	33015	33351	
2086	0	32823	32583	33415	32516	32739	33486	32838	33061	
2087	0	32809	32629	33126	33011	32935	33421	32738	33127	
2088	0	32825	32611	33113	33199	32871	33157	32847	32974	
2089	0	32794	32732	32677	33565	32646	33395	32913	32817	
2090	0	32865	32846	32665	33734	32795	33595	32970	32703	
2091	0	32884	32515	32859	33538	33031	33047	33022	32318	
2092	0	32899	32660	32466	33347	33218	34102	33231	31951	
2093	0	32755	32647	32655	32949	32239	34930	32959	32113	
2094	0	32676	32613	33025	33153	32321	33415	32687	32571	
2095	0	32644	32839	32914	33159	32610	31589	32866	31821	
2096	0	32679	32613	32804	33091	32613	30911	32390	32314	
2097	0	32670	32711	32711	33287	33079	30542	33607	33130	
2098	0	32732	32786	32804	33019	35129	31462	34327	33191	
2099	0	32730	32571	32766	33410	37601	30822	35719	31572	
2100	0	32602	32798	32516	33367	36149	30991	35151	32365	
2101	0	32700	32559	32435	33284	33115	32398	33157	35038	
2102	0	32820	32762	32719	33142	28679	32609	31919	34428	
2103	0	32839	32609	32843	32831	29782	31861	32179	32850	
2104	0	32786	32735	32772	32599	27714	31311	30129	33451	
2105	0	32831	32797	32954	32518	31042	33405	29943	33491	
2106	0	32841	32668	32703	32166	32538	33695	31615	33174	
2107	0	32794	32741	32610	32199	32771	33602	33043	32351	
2108	0	32764	32866	32530	32221	32519	33858	31922	31738	
2109	0	32806	32643	32666	32038	32111	33959	31210	32327	
2110	0	32746	32727	32447	32175	32111	33529	31767	32617	
2111	0	32663	32871	32186	32117	33242	32186	32367	31513	
2112	0	32626	32818	32364	32231	33498	32113	32855	32118	
2113	0	32617	32821	32443	32359	32535	32031	31397	33875	
2114	0	32537	32679	32562	32609	32647	32330	32153	32375	
2115	0	32647	32900	32425	32598	34722	33475	32635	32037	
2116	0	32655	32621	32620	32797	34591	33821	33438	32639	
2117	0	32644	32783	32557	32891	33727	32783	33519	33151	
2118	0	32708	32852	32383	33071	33589	32391	33189	32679	
2119	0	32717	32593	32439	32971	33261	32087	33769	32759	
2120	0	32679	32839	32311	32823	33295	32197	34388	32937	
2121	0	32641	32791	32493	32871	32890	32701	33395	32742	
2122	0	32620	32754	32534	32865	32699	32943	33031	32211	
2123	0	32703	32843	32547	32775	32738	32745	33405	31860	
2124	0	32756	32500	32734	32711	32663	32567	32775	32143	
2125	0	32740	32753	32764	32611	32637	32919	33278	31399	
2126	0	32663	32556	32895	32450	32851	33299	34242	29767	
2127	0	32679	32767	32670	32353	33053	33607	33191	30019	
2128	0	32796	32591	32623	32334	32845	33747	31380	31877	
2129	0	32988	32676	32630	32276	32732	32195	29884	32474	
2130	0	32950	32718	32925	32375	34045	30736	28185	34226	
2131	0	32986	32647	32894	32599	32821	32390	27207	35612	
2132	0	32815	32843	32818	32759	30810	32945	29827	35609	
2133	0	32773	32615	32811	32987	29665	32185	31858	35501	
2134	0	32848	32722	33287	33159	28660	32406	32933	34325	
2135	0	32787	32612	33238	33305	33898	32866	35767	33063	
2136	0	32751	32694	33171	33311	34521	33125	37987	32285	
2137	0	32596	32784	32862	33273	34271	33157	42525	31607	
2138	0	32703	32523	32631	33055	34387	33197	38806	32150	
2139	0	32718	32823	33331	32775	34071	33037	36636	32281	
2140	0	32903	32791	34735	32621	33695	32829	34723	32127	
2141	0	33021	32783	35677	32295	33330	32867	33231	32135	
2142	0	32838	32903	35687	32447	32731	32479	32237	32247	
2143	0	32742	32699	35251	32758	32547	32087	31367	32411	
2144	0	32723	32762	34215	32948	32599	32337	31174	32502	
2145	0	32622	32787	33327	33389	32252	32616	31215	32463	
2146	0	32587	32786	31411	33482	32543	32748	31055	32333	
2147	0	32551	32771	30055	33213	32321	32702	30198	32565	
