# OpenSignals Text File Format
# {"00:07:80:64:6D:DA": {"sensor": ["CUSTOM/0.5/1.0/V", "CUSTOM/0.5/1.0/V", "CUSTOM/0.5/1.0/V", "CUSTOM/0.5/1.0/V"], "device name": "Plataforma", "column": ["nSeq", "DI", "CH1", "CH2", "CH3", "CH4"], "sync interval": 2, "time": "12:51:20.198", "comments": "", "device connection": "BTH00:07:80:64:6D:DA", "channels": [1, 2, 3, 4], "date": "2017-6-2", "mode": 0, "digital IO": [0, 1], "firmware version": 772, "device": "biosignalsplux", "position": 0, "sampling rate": 1000, "label": ["CH1", "CH2", "CH3", "CH4"], "resolution": [16, 16, 16, 16], "special": [{}, {}, {}, {}]}, "00:07:80:3B:46:38": {"sensor": ["CUSTOM/0.5/1.0/V", "CUSTOM/0.5/1.0/V", "CUSTOM/0.5/1.0/V", "CUSTOM/0.5/1.0/V", "CUSTOM/0.5/1.0/V", "CUSTOM/0.5/1.0/V", "CUSTOM/0.5/1.0/V", "CUSTOM/0.5/1.0/V"], "device name": "EMGs", "column": ["nSeq", "DI", "RA_L", "RA_R", "OE_L", "OE:R", "IL_L", "IL_R", "MF_L", "MF_R"], "sync interval": 2, "time": "12:51:20.198", "comments": "", "device connection": "BTH00:07:80:3B:46:38", "channels": [1, 2, 3, 4, 5, 6, 7, 8], "date": "2017-6-2", "mode": 0, "digital IO": [0, 1], "firmware version": 772, "device": "biosignalsplux", "position": 1, "sampling rate": 1000, "label": ["RA_L", "RA_R", "OE_L", "OE:R", "IL_L", "IL_R", "MF_L", "MF_R"], "resolution": [16, 16, 16, 16, 16, 16, 16, 16], "special": [{}, {}, {}, {}, {}, {}, {}, {}]}}
# EndOfHeader
958	0	132	1238	29	1914	0	0	32773	32858	32729	32669	32687	32647	32743	32747	
959	0	106	1220	30	1924	1	0	32735	32671	32798	32868	32745	32709	32675	32751	
960	0	112	1242	28	1960	2	0	32732	32830	32829	32831	32775	32642	32351	32595	
961	0	113	1237	28	1903	3	0	32704	32711	32741	32613	32919	32771	31703	32149	
962	0	90	1245	28	1920	4	0	32700	32703	32733	32527	32678	32815	31958	32239	
963	0	132	1235	30	1911	5	0	32588	32693	32661	32683	32435	32983	32593	32455	
964	0	112	1262	30	1957	6	0	32626	32671	32699	32685	32245	32881	32929	32587	
965	0	102	1263	29	1928	7	0	32726	32531	32835	32831	32363	32943	33108	32593	
966	0	107	1262	29	1959	8	0	32754	32771	32892	32788	32285	33063	32948	32814	
967	0	111	1260	29	1884	9	0	32903	32954	32895	32999	32631	32586	32791	32903	
968	0	135	1263	31	1936	10	0	32924	32903	32827	32879	32919	32370	32407	32319	
969	0	123	1188	28	1921	11	0	32806	32791	32867	32923	32983	32471	32487	32164	
970	0	104	1236	29	1910	12	0	32754	32791	32703	32647	32655	32705	32583	32487	
971	0	114	1303	29	1942	13	0	32656	32463	32573	32619	32507	32839	32569	32739	
972	0	97	1238	28	1915	14	0	32588	32359	32551	32663	32478	32879	32730	32619	
973	0	84	1219	29	1921	15	0	32662	32532	32563	32647	32813	32702	33014	33187	
974	0	154	1274	29	1973	16	0	32791	32811	32751	32667	32615	32748	33191	33908	
975	0	136	1243	29	1980	17	0	32742	32871	32681	32599	32799	32751	33019	33486	
976	0	121	1262	28	1914	18	0	32783	32933	32815	32775	32775	32692	33027	32973	
977	0	127	1261	30	1909	19	0	32772	32881	32799	32807	32678	32807	32887	32755	
978	0	118	1221	29	1917	20	0	32808	32785	32813	32851	32379	32775	32635	32763	
979	0	132	1251	29	1945	21	0	32727	32781	32838	32687	32467	32767	32511	32742	
980	0	133	1250	30	1969	22	0	32836	32745	32687	32679	32743	32711	32687	32733	
981	0	80	1234	30	1908	23	0	32790	32775	32833	32729	32557	32863	32786	32540	
982	0	101	1211	29	1878	24	0	32840	32591	32719	32757	32687	32786	32939	32524	
983	0	117	1266	29	1917	25	0	32879	32581	32685	32767	32647	32757	33202	32863	
984	0	101	1265	28	1952	26	0	32841	32647	32759	32719	32772	32671	33023	32627	
985	0	163	1218	28	1932	27	0	32720	32855	32669	32549	32818	32706	32379	32479	
986	0	78	1274	29	1948	28	0	32770	32775	32711	32621	32869	32791	32346	32663	
987	0	106	1219	28	1926	29	0	32758	32751	32669	32695	32926	32727	32355	32587	
988	0	115	1264	29	1943	30	0	32743	32567	32771	32555	32737	32727	32415	32583	
989	0	147	1207	30	1904	31	0	32804	32759	32790	32663	32718	32862	32309	32527	
990	0	132	1235	29	1921	32	0	32782	32877	32815	32553	32468	32733	32423	32471	
991	0	154	1252	29	1956	33	0	32783	32771	32855	32615	32679	32799	32661	32543	
992	0	106	1220	28	1924	34	0	32841	32759	32837	32583	32691	32678	32527	32631	
993	0	101	1243	29	1924	35	0	32850	32692	32839	32690	32583	32446	32327	32550	
994	0	161	1250	29	1940	36	0	32881	32935	32759	32798	32647	32503	32647	32710	
995	0	133	1257	29	1928	37	0	32874	32851	32867	32919	32783	32661	32647	32643	
996	0	142	1241	31	1940	38	0	32844	32679	32714	32931	32853	32624	32698	32739	
997	0	101	1295	29	1942	39	0	32764	32695	32791	32926	32607	32719	32571	32630	
998	0	132	1255	29	1963	40	0	32727	32789	32743	32759	32598	32861	32700	32556	
999	0	88	1253	30	1924	41	0	32637	32807	32855	32903	32821	32749	32626	32471	
1000	0	97	1218	30	1936	42	0	32684	32775	32722	32881	32885	32811	32703	32380	
1001	0	130	1226	29	1926	43	0	32687	32587	32839	32775	32986	32903	33029	32855	
1002	0	117	1227	29	1976	44	0	32764	32791	32745	32917	32825	33007	33285	32711	
1003	0	130	1214	29	1953	45	0	32809	32807	32807	32895	32729	33083	33117	32518	
1004	0	130	1219	29	1932	46	0	32823	32837	32807	32981	32765	32995	32783	32605	
1005	0	155	1244	29	1924	47	0	32890	32863	32879	32895	32957	32562	32663	32517	
1006	0	163	1263	28	1893	48	0	32877	32717	32871	32975	32934	32552	32647	32647	
1007	0	92	1213	29	1924	49	0	32903	32759	32864	33047	32639	32639	32655	32759	
1008	0	88	1270	29	1900	50	0	32838	32879	32807	32978	32573	32555	32325	32461	
1009	0	97	1236	28	2024	51	0	32765	32834	32719	32923	32407	32707	32239	32775	
1010	0	120	1253	29	1962	52	0	32687	32775	32811	32898	32466	32671	32485	32979	
1011	0	138	1243	30	1909	53	0	32729	32575	32827	32861	32435	32685	32587	32879	
1012	0	137	1247	28	1940	54	0	32711	32725	32732	32786	32554	32647	32692	32799	
1013	0	120	1219	28	1928	55	0	32655	32701	32862	32775	32843	32668	32795	32722	
1014	0	94	1242	30	1898	56	0	32705	32767	32803	32817	32839	32514	32643	32467	
1015	0	115	1260	30	1929	57	0	32769	32731	32775	32691	32741	32596	32806	32871	
1016	0	126	1265	28	1949	58	0	32761	32797	32845	32639	32673	32546	33036	33099	
1017	0	103	1263	28	1913	59	0	32843	32788	32819	32702	32629	32698	33028	32855	
1018	0	77	1252	28	1938	60	0	32797	32839	32737	32807	32468	32903	33421	32847	
1019	0	100	1240	29	1941	61	0	32827	32834	32695	32789	32723	33037	33247	32813	
1020	0	112	1204	29	1914	62	0	32765	32759	32695	32799	32658	32999	32783	32435	
1021	0	131	1251	30	1898	63	0	32617	32475	32607	32723	32890	32967	32609	32383	
1022	0	102	1222	28	1887	64	0	32612	32511	32661	32615	32587	33159	32588	32647	
1023	0	75	1231	29	1950	65	0	32631	32541	32619	32630	32471	33212	32439	32850	
1024	0	120	1247	28	1953	66	0	32742	32775	32775	32847	32795	32809	32289	32468	
1025	0	99	1230	30	1973	67	0	32757	32979	32802	32854	32623	33129	32127	32591	
1026	0	134	1252	29	1915	68	0	32816	32903	32759	32775	32707	32740	31617	32559	
1027	0	134	1220	27	1951	69	0	32848	32847	32790	32673	32719	32391	32063	32493	
1028	0	148	1230	28	1951	70	0	32740	32711	32767	32722	32795	32431	32845	32591	
1029	0	148	1249	29	1879	71	0	32686	32623	32810	32682	32722	32581	33061	33015	
1030	0	146	1254	29	1923	72	0	32712	32631	32775	32715	32559	33029	32884	33237	
1031	0	122	1209	28	1948	73	0	32748	32663	32799	32695	32550	33202	32871	33095	
1032	0	145	1261	27	1926	74	0	32743	32871	32820	32673	32703	33173	33015	33083	
1033	0	119	1237	29	1934	75	0	32807	32959	32711	32775	32677	32957	33023	32802	
1034	0	108	1253	28	1924	76	0	32756	32883	32686	32743	32775	32847	32919	32611	
1035	0	89	1269	30	1923	77	0	32841	32821	32660	32783	32540	32759	32895	32683	
1036	0	136	1246	29	1932	78	0	32813	32823	32775	32831	32703	32703	32803	32709	
1037	0	113	1197	28	1930	79	0	32787	32811	32765	32684	32548	32741	32351	32165	
1038	0	118	1263	28	1943	80	0	32735	32791	32775	32559	32631	32897	32356	32098	
1039	0	107	1230	30	1919	81	0	32806	32543	32847	32739	32587	32715	32623	32407	
1040	0	123	1235	29	1897	82	0	32839	32743	32865	32725	32767	32681	32471	32595	
1041	0	140	1235	29	1965	83	0	32743	32927	32783	32607	32545	32839	32510	32765	
1042	0	87	1242	30	1935	84	0	32729	32739	32731	32615	32547	32791	32703	32919	
1043	0	130	1298	28	1962	85	0	32726	32797	32671	32636	32411	32718	32551	33029	
1044	0	160	1278	29	1938	86	0	32832	32845	32726	32743	32694	32655	32815	32922	
1045	0	109	1218	29	1923	87	0	32911	32590	32673	32646	32711	32688	32903	32789	
1046	0	139	1247	29	1915	88	0	32815	32575	32703	32565	32575	32743	32591	32642	
1047	0	165	1244	29	1939	89	0	32734	32676	32695	32590	32493	32849	32559	32663	
1048	0	132	1242	29	1938	90	0	32696	32775	32623	32579	32740	32836	32447	32487	
1049	0	137	1227	28	1927	91	0	32826	32766	32711	32703	32839	32655	32482	32466	
1050	0	92	1251	28	1944	92	0	32812	32815	32731	32607	32911	32798	32454	32367	
1051	0	109	1250	29	1918	93	0	32843	32775	32741	32807	32695	32903	32319	32449	
1052	0	74	1272	29	1892	94	0	32822	32581	32751	32757	32959	32919	32509	32258	
1053	0	100	1242	28	1947	95	0	32779	32823	32743	32527	32938	32942	32347	32476	
1054	0	159	1303	29	1920	96	0	32774	32823	32732	32767	32687	32831	32471	32801	
1055	0	146	1212	29	1933	97	0	32801	32823	32765	32727	32765	32847	32724	32747	
1056	0	111	1282	28	1916	98	0	32862	32787	32753	32775	32492	32951	32668	32595	
1057	0	75	1240	28	1923	99	0	32925	32636	32835	32592	32723	32740	32415	32506	
1058	0	107	1236	29	1929	100	0	32920	32785	32797	32735	32671	32615	32519	32475	
1059	0	133	1261	29	1951	101	0	32879	32887	32853	32763	32775	32527	32749	32617	
1060	0	118	1276	28	1916	102	0	32925	32983	32950	32839	32787	32492	32735	32647	
1061	0	145	1227	30	1954	103	0	33019	32903	32937	32741	32769	32581	32669	32605	
1062	0	113	1248	30	1900	104	0	32976	32835	32983	32833	32603	32564	32670	32543	
1063	0	104	1233	29	1944	105	0	32890	32587	33004	32555	32321	32667	32775	32698	
1064	0	129	1276	28	1938	106	0	32859	32527	32868	32429	32574	32707	32756	32957	
1065	0	132	1249	29	1929	107	0	32811	32647	32827	32433	32423	32583	32692	32825	
1066	0	75	1215	30	1920	108	0	32701	32751	32891	32387	32551	32826	32541	32683	
1067	0	116	1280	28	1939	109	0	32741	32711	32751	32434	32271	32955	32132	32107	
1068	0	86	1256	29	1918	110	0	32717	32598	32871	32507	32548	33027	32106	32403	
1069	0	132	1230	27	1932	111	0	32632	32595	32847	32551	32446	33043	32087	32443	
1070	0	119	1226	28	1932	112	0	32623	32445	32927	32725	32700	32919	32428	32775	
1071	0	73	1256	29	1887	113	0	32589	32534	32941	32630	32694	32815	32686	32741	
1072	0	84	1229	29	1894	114	0	32575	32647	32975	32627	33007	32605	32687	32583	
1073	0	133	1274	28	1932	115	0	32602	32583	32943	32495	33018	32619	32579	32637	
1074	0	110	1208	29	1924	116	0	32718	32595	32935	32721	32866	32799	32925	32719	
1075	0	85	1269	29	1944	117	0	32706	32431	32930	32703	32599	32662	32831	32754	
1076	0	106	1228	28	1900	118	0	32702	32487	32783	32647	32363	32758	33091	32911	
1077	0	118	1227	28	1900	119	0	32678	32647	32763	32578	32183	32839	32995	32831	
1078	0	144	1277	30	1916	120	0	32605	32553	32742	32489	31802	33047	32479	32775	
1079	0	104	1232	29	1942	121	0	32528	32518	32823	32697	32398	32628	32219	32431	
1080	0	128	1250	30	1952	122	0	32438	32575	32713	32706	32475	32570	32031	32021	
1081	0	103	1274	30	1959	123	0	32533	32731	32611	32860	32836	32647	32663	32895	
1082	0	117	1249	28	1963	124	0	32492	32565	32573	32929	32903	32869	32882	33741	
1083	0	132	1219	30	1916	125	0	32468	32643	32500	32942	33071	32829	32597	33810	
1084	0	120	1288	29	1956	126	0	32583	32795	32427	32935	33287	32371	32500	33778	
1085	0	87	1228	29	1957	127	0	32661	32959	32459	32999	33391	32445	32842	33799	
1086	0	153	1241	29	1921	128	0	32715	33119	32470	33127	32965	32507	33339	33927	
1087	0	101	1247	27	1938	129	0	32745	33319	32534	33196	32787	32683	33601	33767	
1088	0	132	1243	28	1947	130	0	32703	33315	32403	32991	32639	32660	33285	33383	
1089	0	113	1221	30	1962	131	0	32678	33105	32287	33079	32631	32595	33266	32858	
1090	0	129	1288	30	1963	132	0	32652	33005	32423	32942	32571	32692	33429	32567	
1091	0	104	1233	28	1951	133	0	32625	32709	32445	32989	32731	32685	33279	32553	
1092	0	144	1269	27	1934	134	0	32754	32797	32470	32850	32674	32815	33563	32895	
1093	0	137	1221	29	1918	135	0	32759	32967	32514	32930	32685	33115	33478	32647	
1094	0	107	1235	29	1909	136	0	32699	32807	32507	32980	32591	33098	33015	32351	
1095	0	109	1261	29	1944	137	0	32695	32786	32679	32709	32733	33243	32827	32407	
1096	0	133	1206	28	1910	138	0	32665	32663	32663	32735	32734	33287	32708	32403	
1097	0	119	1255	29	1996	139	0	32647	32799	32678	32677	32538	33173	32559	32299	
1098	0	115	1277	29	1938	140	0	32756	32775	32667	32807	32831	33172	32436	32193	
1099	0	161	1260	29	1906	141	0	32818	32663	32812	32887	32726	33303	32249	32007	
1100	0	158	1223	28	1929	142	0	32935	32895	32787	32783	32525	33339	32214	31986	
1101	0	78	1229	30	1941	143	0	32895	32711	32855	32589	32575	33311	32471	32210	
1102	0	124	1241	30	1949	144	0	32820	32667	32903	32435	32567	33135	32531	32455	
1103	0	140	1299	29	1956	145	0	32948	32631	33057	32535	32527	32647	32891	32497	
1104	0	91	1223	28	1913	146	0	32960	32869	33025	32853	32731	32415	32876	32487	
1105	0	91	1216	29	1899	147	0	32969	32847	32991	32889	32591	32519	32743	32559	
1106	0	116	1274	28	1965	148	0	32964	32579	33007	32711	32623	32590	32326	32311	
1107	0	161	1243	30	1936	149	0	32892	32734	32971	32727	32607	32609	32391	32498	
1108	0	132	1240	29	1957	150	0	32978	32951	32987	32687	32387	32691	32631	33247	
1109	0	120	1256	29	1891	151	0	32898	32809	32895	32615	32519	32763	32610	32647	
1110	0	108	1216	31	1926	152	0	32890	32743	32881	32827	32439	32845	32813	32198	
1111	0	109	1256	29	1941	153	0	32860	32674	32911	32806	32854	32647	32725	31559	
1112	0	111	1277	27	1991	154	0	32970	32927	32983	32829	32989	32643	32974	31746	
1113	0	114	1262	30	1946	155	0	33012	32831	32861	32963	32954	32678	32978	32399	
1114	0	122	1252	28	1939	156	0	32817	32775	32811	32943	32871	32963	32827	33143	
1115	0	124	1237	28	1947	157	0	32870	32610	32775	32775	32669	32773	32771	33095	
1116	0	117	1218	29	1947	158	0	32863	32727	32823	32805	32471	32999	32894	33231	
1117	0	102	1222	28	1938	159	0	32834	32871	32821	32751	32183	33013	32734	33125	
1118	0	122	1244	29	1898	160	0	32847	32855	32919	32871	32605	32628	32561	32918	
1119	0	153	1184	29	1946	161	0	32703	32807	32770	32704	32621	32759	32698	32799	
1120	0	136	1269	30	1925	162	0	32666	32607	32835	32647	32575	32867	33083	33098	
1121	0	99	1227	30	1940	163	0	32678	32914	32743	32719	32565	32815	33175	33175	
1122	0	103	1237	28	1928	164	0	32670	32765	32791	32775	32339	32775	32855	33141	
1123	0	150	1240	30	1934	165	0	32719	32623	32743	32647	32489	32943	33255	33287	
1124	0	161	1220	29	1914	166	0	32722	32621	32749	32647	32662	32660	32943	32949	
1125	0	61	1216	29	1891	167	0	32751	32630	32749	32705	32749	32524	32773	34009	
1126	0	128	1197	29	1939	168	0	32674	32725	32726	32710	32507	32675	32860	33915	
1127	0	85	1229	29	1887	169	0	32698	32787	32737	32773	32687	32481	32645	32671	
1128	0	132	1240	28	1935	170	0	32804	32812	32879	32929	32719	32239	32271	32257	
1129	0	111	1237	29	1951	171	0	32811	32708	32805	32859	32927	32382	32283	32222	
1130	0	91	1243	29	1952	172	0	32786	32771	32839	32865	32871	32571	32295	32175	
1131	0	95	1243	30	1959	173	0	32756	32935	32819	32847	32736	32495	32511	32159	
1132	0	108	1282	28	1928	174	0	32725	32773	32855	32921	32551	32647	32695	32551	
1133	0	136	1215	31	1970	175	0	32826	32802	32887	32839	32599	32755	32599	32623	
1134	0	120	1225	28	1937	176	0	32839	32663	32887	32839	32833	32507	32663	32902	
1135	0	112	1199	29	1956	177	0	32828	32987	32927	32835	32807	32341	32871	33101	
1136	0	111	1277	29	1889	178	0	32846	32885	32923	32855	32767	32327	32823	32903	
1137	0	143	1234	28	1963	179	0	32828	32837	32921	32924	32887	32135	32961	32943	
1138	0	137	1222	29	1916	180	0	32890	32871	32775	32933	32795	32203	32963	33003	
1139	0	122	1236	30	1907	181	0	32806	32765	32829	32713	32839	32181	32867	33035	
1140	0	147	1259	28	1923	182	0	32653	32859	32723	32620	32615	32417	32512	33082	
1141	0	100	1226	29	1949	183	0	32534	32621	32642	32245	32588	32740	32183	32863	
1142	0	111	1226	28	1935	184	0	32292	32511	32479	32080	32426	32991	31943	32775	
1143	0	107	1252	27	1921	185	0	32367	32521	32516	32135	32551	33138	32116	32767	
1144	0	136	1251	29	1939	186	0	32558	32507	32415	32543	32553	33397	32313	32787	
1145	0	99	1223	28	1925	187	0	32687	32717	32575	32775	32647	33587	32254	32639	
1146	0	106	1236	29	1931	188	0	32668	32826	32621	32917	32599	33935	32663	32703	
1147	0	130	1234	28	1913	189	0	32679	32767	32629	32707	32587	34015	32799	32790	
1148	0	127	1244	29	1906	190	0	32676	32540	32742	32813	32645	33910	32887	32911	
1149	0	100	1301	28	1909	191	0	32732	32655	32951	32827	32679	33421	32383	32807	
1150	0	121	1251	29	1938	192	0	32857	32862	32935	32839	32871	32910	32039	32541	
1151	0	121	1211	30	1925	193	0	32874	32775	33137	32887	32918	32903	32471	32743	
1152	0	142	1225	29	1911	194	0	32930	32783	33061	32786	33074	32717	32479	32998	
1153	0	113	1249	29	1886	195	0	32822	32615	33159	32861	32959	32519	32420	33119	
1154	0	156	1248	29	1968	196	0	32779	32775	33071	32639	32727	32594	32503	33095	
1155	0	94	1276	29	1952	197	0	32764	32762	32971	32735	32695	32635	32918	33078	
1156	0	117	1238	29	1932	198	0	32704	32720	32883	32742	32287	32815	33423	33215	
1157	0	151	1202	29	1904	199	0	32635	32630	32751	32683	32477	32879	33399	33044	
1158	0	94	1206	28	1954	200	0	32570	32859	32599	32739	32571	32623	33037	32847	
1159	0	97	1252	29	1940	201	0	32647	32839	32631	32714	32587	32566	32749	32567	
1160	0	141	1238	27	1938	202	0	32748	32903	32564	32846	32691	32567	32551	32343	
1161	0	129	1244	30	1909	203	0	32869	32852	32719	32750	32583	32391	32239	32359	
1162	0	115	1245	30	1893	204	0	32965	32859	32814	32902	32804	32263	32245	32302	
1163	0	109	1243	29	1911	205	0	32922	32844	32898	32823	32671	32127	32335	32483	
1164	0	113	1271	29	1938	206	0	32756	32815	32839	32594	32719	32331	32190	32511	
1165	0	161	1261	30	1917	207	0	32765	32695	32687	32615	32519	32383	32376	32462	
1166	0	130	1241	29	1936	208	0	32691	32720	32702	32756	32627	32371	32471	32399	
1167	0	72	1235	28	1889	209	0	32743	32763	32695	32709	32491	32427	32527	32431	
1168	0	131	1209	28	1933	210	0	32790	32639	32829	32879	32647	32663	32665	32467	
1169	0	129	1228	30	1985	211	0	32757	32661	32745	32787	32443	32977	32599	32285	
1170	0	108	1205	28	1954	212	0	32821	32797	32762	32901	32615	33141	32660	32163	
1171	0	124	1266	29	1916	213	0	32811	32847	32717	32821	32539	33327	32775	32407	
1172	0	158	1182	30	1941	214	0	32903	32832	32747	32799	32623	32933	32870	32417	
1173	0	128	1223	28	1897	215	0	32725	32789	32663	32635	32610	32831	32775	32351	
1174	0	100	1220	30	1912	216	0	32727	32627	32807	32815	32671	33047	32425	32403	
1175	0	132	1257	28	1947	217	0	32644	32629	32758	32771	32711	32912	31895	32066	
1176	0	104	1249	28	1955	218	0	32804	32903	32708	32791	32751	32642	31915	32047	
1177	0	117	1216	27	1967	219	0	32856	32918	32831	32747	32575	32999	32022	32495	
1178	0	132	1234	30	1936	220	0	32722	32834	32707	32667	32324	33271	32039	33055	
1179	0	129	1252	29	1934	221	0	32639	32811	32767	32510	32499	32991	32405	33475	
1180	0	116	1224	27	1948	222	0	32738	32711	32751	32514	32623	32837	32431	33399	
1181	0	123	1244	29	1942	223	0	32679	32709	32804	32383	32895	32875	32222	32775	
1182	0	140	1280	29	1896	224	0	32733	32755	32717	32690	32771	33127	32660	32674	
1183	0	126	1278	29	1923	225	0	32874	32819	32711	32806	32837	33139	32919	32806	
1184	0	94	1261	28	1962	226	0	32878	32599	32799	32751	32830	33167	33047	32885	
1185	0	91	1246	29	1969	227	0	32848	32698	32751	32859	32591	32999	33053	33055	
1186	0	144	1233	30	1933	228	0	32671	32559	32655	32637	32571	32999	32959	32987	
1187	0	147	1242	28	1946	229	0	32621	32623	32731	32610	32231	32869	33427	33239	
1188	0	102	1239	28	1937	230	0	32742	32567	32743	32775	32599	32647	33359	33145	
1189	0	170	1212	29	1924	231	0	32751	32645	32716	32793	32501	32478	32803	32666	
1190	0	109	1290	28	1929	232	0	32818	32725	32751	32887	32415	32527	32402	32666	
1191	0	124	1217	28	1933	233	0	32771	32851	32719	32687	32335	32622	31959	32183	
1192	0	153	1215	28	1934	234	0	32809	32878	32799	32715	32863	32711	32033	31931	
1193	0	108	1208	29	1951	235	0	32741	32785	32826	32655	33159	32503	31995	31821	
1194	0	160	1257	30	1909	236	0	32786	32817	32797	32813	33398	32315	32317	31861	
1195	0	130	1209	28	1959	237	0	32811	32853	32829	32766	33186	32056	33055	32685	
1196	0	113	1239	29	1943	238	0	32811	32791	32807	32647	32991	32359	33287	32775	
1197	0	94	1269	29	1908	239	0	32726	32555	32717	32711	32839	32743	33220	32799	
1198	0	143	1281	29	1929	240	0	32698	32542	32861	32662	32885	32941	33253	33117	
1199	0	116	1267	28	1954	241	0	32732	32700	32782	32743	32507	33023	33766	33350	
1200	0	112	1247	29	1934	242	0	32745	32919	32783	32740	32591	32967	34023	33503	
1201	0	118	1257	30	1940	243	0	32823	32955	32735	33001	32749	32863	33869	33543	
1202	0	100	1262	29	1953	244	0	32828	32951	32587	32877	32837	32719	33335	33335	
1203	0	132	1305	28	1932	245	0	32781	32915	32565	32859	32893	32743	32503	32976	
1204	0	146	1238	29	1910	246	0	32822	32853	32658	32799	32815	32724	32556	32759	
1205	0	70	1244	29	1937	247	0	32813	32815	32615	32901	32893	32727	32429	32535	
1206	0	159	1227	27	1959	248	0	32752	32735	32641	32809	32839	32619	32375	32647	
1207	0	120	1248	29	1957	249	0	32821	32803	32673	32919	32692	32743	32237	32791	
1208	0	87	1250	29	1937	250	0	32903	32647	32743	32771	32703	32731	32231	32727	
1209	0	132	1262	30	1945	251	0	32903	32582	32775	32831	32473	32882	32495	32863	
1210	0	159	1244	31	1957	252	0	32899	32691	32804	32711	32551	32959	32641	33004	
1211	0	98	1267	28	1962	253	0	32789	32790	32871	32587	32493	32847	32631	33055	
1212	0	62	1276	29	1964	254	0	32818	32739	32838	32738	32646	32873	32873	33027	
1213	0	122	1204	29	1938	255	0	32823	32775	32766	32701	32623	32756	32831	32873	
1214	0	108	1207	29	1929	256	0	32802	32871	32803	32775	32647	32657	32498	32757	
1215	0	124	1242	30	1949	257	0	32821	32855	32903	32767	32663	32647	32594	33023	
1216	0	110	1221	29	1952	258	0	32793	32733	32773	32926	32769	32805	32749	33110	
1217	0	162	1239	29	1986	259	0	32780	32613	32878	32879	32703	32897	32326	32983	
1218	0	126	1282	28	1880	260	0	32788	32689	32820	32879	32685	32753	32535	32948	
1219	0	136	1195	28	1956	261	0	32861	32914	32839	32918	32788	32638	32735	33060	
1220	0	116	1275	29	1944	262	0	32853	33029	32771	32944	32883	32431	32903	32764	
1221	0	132	1250	29	1915	263	0	32807	32955	32870	32981	32915	32348	32556	32719	
1222	0	74	1253	29	1949	264	0	32680	32711	32865	32830	32827	32721	32449	32575	
1223	0	131	1279	29	1950	265	0	32639	32611	32932	32687	32727	32853	32302	32549	
1224	0	117	1252	28	1904	266	0	32724	32531	32791	32683	32625	32759	32387	32519	
1225	0	143	1273	28	1907	267	0	32856	32855	32935	32605	32764	32605	32399	32535	
1226	0	122	1261	29	1905	268	0	32887	32845	32911	32775	32815	32498	32495	32439	
1227	0	89	1234	29	1872	269	0	32775	32709	32922	32642	32805	32621	32819	32305	
1228	0	103	1260	28	1960	270	0	32742	32715	32733	32663	32679	32623	32975	32550	
1229	0	69	1219	29	1943	271	0	32786	32533	32767	32638	32422	32501	32847	32679	
1230	0	129	1229	28	1940	272	0	32735	32605	32759	32667	32507	32518	32806	32868	
1231	0	110	1249	28	1922	273	0	32802	32701	32851	32683	32293	32444	32735	32805	
1232	0	119	1243	30	1902	274	0	32821	32786	32846	32635	32646	32409	32884	32475	
1233	0	144	1259	29	1917	275	0	32876	32903	32819	32690	32735	32791	32871	32156	
1234	0	110	1243	29	1984	276	0	32783	32751	32742	32757	32709	32983	33038	32273	
1235	0	101	1250	28	1918	277	0	32717	32751	32719	32807	32706	32982	32898	32351	
1236	0	125	1221	29	1932	278	0	32604	32551	32655	32647	32551	33079	32941	32302	
1237	0	132	1235	29	1953	279	0	32712	32607	32739	32687	32855	32979	32804	32319	
1238	0	125	1235	28	1962	280	0	32799	32810	32782	32713	32957	33029	32455	32499	
1239	0	101	1256	29	1936	281	0	32732	32743	32749	32662	32775	33045	32581	32691	
1240	0	128	1211	29	1968	282	0	32795	32751	32738	32756	32941	32878	32533	32917	
1241	0	127	1248	30	1924	283	0	32800	32812	32796	32759	32700	32868	32299	32994	
1242	0	145	1259	28	1947	284	0	32821	32822	32763	32735	32887	32692	32591	33129	
1243	0	114	1205	29	1945	285	0	32766	32847	32707	32917	32759	32759	32903	33031	
1244	0	123	1265	30	1937	286	0	32639	32647	32539	32947	32673	32769	33241	33031	
1245	0	122	1282	28	1951	287	0	32674	32689	32706	32799	32447	32575	32687	32911	
1246	0	131	1241	29	1959	288	0	32620	32686	32771	32643	32377	32577	32046	32667	
1247	0	93	1241	29	1957	289	0	32750	32807	32913	32702	32690	32953	32193	32615	
1248	0	89	1233	29	1908	290	0	32703	32826	32794	32817	32645	33099	32314	32771	
1249	0	108	1207	29	1960	291	0	32655	32685	32842	32767	32775	33100	32340	32887	
1250	0	102	1253	29	1920	292	0	32612	32738	32719	32742	32775	33082	32460	33023	
1251	0	117	1217	27	1918	293	0	32684	32591	32735	32709	32594	33150	32939	34271	
1252	0	120	1231	30	1929	294	0	32718	32639	32740	32787	32623	33159	32783	35485	
1253	0	108	1233	28	1911	295	0	32825	32919	32791	32763	32613	33029	32767	36231	
1254	0	118	1231	29	1918	296	0	32796	32939	32875	32819	32791	32735	32639	35767	
1255	0	118	1233	31	1928	297	0	32765	32931	33014	32693	32698	32797	32445	34823	
1256	0	143	1258	29	1974	298	0	32769	32989	32955	32822	32701	32588	32334	33939	
1257	0	144	1253	29	1944	299	0	32855	33019	33147	32767	32821	32315	32351	33260	
1258	0	138	1236	29	1885	300	0	32855	32748	33015	32710	32637	32405	32389	32763	
1259	0	123	1222	29	1909	301	0	32798	32756	32893	32730	32655	32487	32410	32391	
1260	0	130	1219	29	1924	302	0	32888	32887	32831	32783	32644	32518	32575	31993	
1261	0	105	1225	28	1917	303	0	32832	32919	32799	32769	32999	32519	32743	31814	
1262	0	97	1237	28	1975	304	0	32701	32735	32609	32659	32903	32647	32775	31758	
1263	0	165	1228	29	1956	305	0	32583	32711	32367	32703	32679	32918	32735	31633	
1264	0	137	1223	29	1955	306	0	32721	32575	32447	32711	32588	33036	32935	31715	
1265	0	160	1278	29	1936	307	0	32700	32580	32383	32611	32415	33175	32967	31571	
1266	0	121	1235	28	1942	308	0	32687	32723	32476	32566	32549	33191	33063	31442	
1267	0	156	1262	28	1913	309	0	32628	32815	32511	32727	32532	32809	33159	31647	
1268	0	134	1215	29	1942	310	0	32751	32879	32669	32725	32725	32315	33122	31751	
1269	0	110	1228	30	1934	311	0	32839	32871	32739	32823	32631	32351	32532	31783	
1270	0	104	1178	29	1898	312	0	32841	32775	32801	32735	32879	32337	32229	31837	
1271	0	118	1207	28	1966	313	0	32864	32821	32807	32775	32730	32581	32095	31983	
1272	0	81	1240	28	1984	314	0	32903	32836	32614	32694	32823	32683	32005	31811	
1273	0	113	1282	28	1966	315	0	32791	32829	32647	32822	32676	32791	32071	31943	
1274	0	125	1252	28	1929	316	0	32711	32639	32657	32863	32698	32677	32658	32807	
1275	0	129	1191	29	1934	317	0	32679	32719	32711	32814	32397	32775	33287	33142	
1276	0	99	1214	29	1932	318	0	32723	32799	32795	32799	32546	32863	33471	32902	
1277	0	121	1250	29	1958	319	0	32862	32967	32915	32839	32487	32991	33235	32831	
1278	0	93	1274	29	1940	320	0	32841	32955	32799	32885	32539	33109	33167	32967	
1279	0	100	1304	29	1985	321	0	32822	32829	32808	32748	32403	32839	32767	32910	
1280	0	131	1219	30	1960	322	0	32793	32861	32817	32790	32591	32837	32567	32867	
1281	0	145	1265	27	1926	323	0	32815	32847	32940	32763	32479	32751	33007	32825	
1282	0	133	1250	30	1941	324	0	32689	32749	32903	32733	32676	32852	33100	32771	
1283	0	119	1253	30	1939	325	0	32721	32545	32799	32659	32487	32810	32635	32407	
1284	0	131	1235	29	1928	326	0	32802	32595	32733	32615	32701	32775	32687	32582	
1285	0	131	1256	29	1926	327	0	32829	32685	32719	32667	32643	32791	32775	32811	
1286	0	118	1219	28	1918	328	0	32805	32807	32690	32749	32831	32692	32723	32866	
1287	0	89	1252	28	1946	329	0	32703	32702	32807	32693	32775	32751	32441	32815	
1288	0	120	1262	30	1926	330	0	32732	32689	32735	32723	32619	32805	32447	32675	
1289	0	98	1214	29	1935	331	0	32722	32566	32897	32851	32771	32785	32799	32567	
1290	0	154	1225	28	1932	332	0	32724	32751	32772	32829	32647	32799	32695	32253	
1291	0	117	1300	28	1937	333	0	32756	32842	32853	32796	32775	32799	32903	32314	
1292	0	107	1253	28	1957	334	0	32806	32797	32875	32694	32733	32785	32835	32431	
1293	0	112	1281	28	1905	335	0	32893	32775	32831	32690	32641	32726	32903	32579	
1294	0	128	1269	28	1940	336	0	32820	32728	32811	32797	32690	32815	32487	32509	
1295	0	141	1242	29	1939	337	0	32699	32551	33170	32863	32647	32673	31823	32052	
1296	0	102	1252	28	1967	338	0	32726	32775	33217	32721	32647	32711	31700	32247	
1297	0	141	1238	29	1957	339	0	32849	32998	33309	32811	32643	32638	32023	32621	
1298	0	132	1243	30	1957	340	0	32778	32828	33047	32740	32679	32695	32217	32733	
1299	0	124	1273	29	1934	341	0	32775	32860	33017	32655	32557	32935	32951	33079	
1300	0	119	1227	30	1945	342	0	32790	32716	32799	32804	32501	32860	33631	33790	
1301	0	126	1302	29	1924	343	0	32812	32773	32796	32845	32722	32898	33467	34372	
1302	0	110	1262	29	1943	344	0	32764	32941	32706	32743	32709	32951	32663	34325	
1303	0	108	1262	29	1899	345	0	32789	32749	32673	32743	32823	32823	32199	34111	
1304	0	125	1256	30	1950	346	0	32705	32749	32656	32679	32605	32823	31955	33751	
1305	0	147	1237	28	1900	347	0	32582	32599	32807	32463	32615	32819	32059	33658	
1306	0	81	1266	29	1926	348	0	32541	32663	32827	32639	32794	32919	32263	33317	
1307	0	134	1218	28	1924	349	0	32647	32556	32759	32775	32590	32939	32583	32851	
1308	0	104	1259	29	1919	350	0	32823	32727	32903	32747	32629	32874	33119	32963	
1309	0	70	1273	29	1957	351	0	32947	32775	32913	32835	32594	32859	32873	32658	
1310	0	127	1235	30	1977	352	0	32932	32797	32895	32692	32875	32898	32966	32559	
1311	0	146	1237	28	1935	353	0	32936	32977	32903	32829	32675	32766	33117	32435	
1312	0	137	1241	28	1931	354	0	32854	32852	32757	32753	32765	32836	33355	32350	
1313	0	153	1262	29	1910	355	0	32715	32757	32775	32751	32633	32966	33005	32091	
1314	0	88	1246	28	1964	356	0	32704	32731	32729	32573	32783	33213	32935	32239	
1315	0	163	1236	30	1934	357	0	32494	32749	32532	32675	32642	33121	32902	31975	
1316	0	80	1249	28	1926	358	0	32582	32613	32559	32821	32815	32902	32763	31971	
1317	0	122	1226	29	1940	359	0	32720	32695	32615	32957	32873	32615	32607	32471	
1318	0	134	1245	29	1928	360	0	32745	32699	32763	32851	32939	32563	32519	32567	
1319	0	122	1281	29	1950	361	0	32694	32770	32581	33055	32515	32589	32479	32343	
1320	0	114	1196	30	1956	362	0	32634	32862	32484	32796	32522	32607	32647	32263	
1321	0	112	1237	29	1957	363	0	32680	32930	32495	32790	32519	32939	32645	32519	
1322	0	159	1250	29	1920	364	0	32655	32847	32506	32637	32694	32829	32391	32821	
1323	0	111	1183	28	1931	365	0	32713	32925	32669	32756	32911	32677	32771	32811	
1324	0	119	1226	30	1917	366	0	32837	32903	32735	32855	32889	32523	32509	32583	
1325	0	122	1259	28	1900	367	0	32972	32831	32588	32845	32786	32587	32159	32514	
1326	0	91	1214	29	1946	368	0	32903	32823	32515	32543	32645	32623	32597	32659	
1327	0	98	1276	28	1897	369	0	32835	32669	32489	32775	32559	32525	32869	32899	
1328	0	138	1263	29	1932	370	0	32806	32845	32559	32749	32715	32615	32991	32839	
1329	0	108	1188	30	1902	371	0	32767	32869	32455	32728	32868	32509	33029	32515	
1330	0	147	1257	29	1930	372	0	32705	32743	32391	32839	33319	32613	32871	32370	
1331	0	102	1268	28	1930	373	0	32735	32706	32556	32794	33319	32685	32338	32447	
1332	0	94	1228	29	1924	374	0	32756	32791	32623	32831	32951	32599	32704	32647	
1333	0	102	1218	30	1949	375	0	32832	32719	32623	32923	32703	32786	33047	32858	
1334	0	106	1220	29	1894	376	0	32803	32893	32765	32922	32503	32759	33046	32615	
1335	0	66	1220	28	1924	377	0	32775	32813	32725	32834	32563	32783	32575	32473	
1336	0	103	1268	28	1912	378	0	32764	32791	32895	32667	32603	32789	32557	32374	
1337	0	143	1219	29	1933	379	0	32873	32791	32951	32655	32831	32543	32647	32420	
1338	0	108	1261	29	1912	380	0	32943	32827	33055	32791	32646	32421	32867	32615	
1339	0	112	1246	30	1921	381	0	32807	32762	33007	32839	32583	32621	32815	32575	
1340	0	134	1248	30	1944	382	0	32786	32603	32705	32795	32239	32881	32723	32405	
1341	0	121	1252	29	1968	383	0	32740	32627	32631	32743	32532	32935	32517	32391	
1342	0	109	1253	29	1953	384	0	32604	32890	32583	32663	32487	32902	32371	32463	
1343	0	133	1231	29	1913	385	0	32481	32812	32647	32611	32598	32877	32463	32583	
1344	0	80	1287	31	1925	386	0	32589	32818	32647	32636	32569	32765	32415	32669	
1345	0	61	1260	29	1922	387	0	32621	32807	32743	32839	32699	32819	32524	32647	
1346	0	90	1276	29	1924	388	0	32776	32823	32674	32883	32667	32895	32615	32617	
1347	0	107	1274	29	1961	389	0	32876	32631	32656	32719	32493	32903	32525	32716	
1348	0	82	1198	29	1943	390	0	32838	32871	32773	32865	32587	32967	32533	32701	
1349	0	132	1227	28	1880	391	0	32894	32817	32865	32775	32423	32983	32377	32623	
1350	0	142	1221	30	1936	392	0	32853	32701	32846	32706	32675	32963	32423	32503	
1351	0	153	1258	28	1932	393	0	32833	32772	32787	32571	32693	32820	32685	32274	
1352	0	104	1255	30	1959	394	0	32839	32743	32821	32767	32797	32549	32579	32431	
1353	0	129	1267	28	1954	395	0	32945	32590	32764	32747	32679	32759	32525	32572	
1354	0	118	1237	29	1933	396	0	32881	32732	32903	32761	32525	32732	32687	32595	
1355	0	102	1188	29	1916	397	0	32910	32902	32817	32801	32711	32497	32663	32628	
1356	0	120	1268	29	1926	398	0	32937	32787	32926	32699	32686	32518	32711	32735	
1357	0	128	1238	28	1930	399	0	32812	32785	32791	32715	32722	32723	32586	32455	
1358	0	143	1228	29	1893	400	0	32743	32759	32839	32619	32511	32647	32487	32526	
1359	0	134	1243	30	1959	401	0	32669	32791	32863	32735	32631	32775	32647	32481	
1360	0	120	1253	30	1936	402	0	32706	32599	32750	32725	32663	32775	32761	32639	
1361	0	130	1275	29	1948	403	0	32637	32671	32731	32767	32749	32900	32747	32523	
1362	0	115	1239	29	1920	404	0	32655	32903	32567	32586	32711	33074	32631	32511	
1363	0	95	1248	28	1931	405	0	32622	32847	32558	32671	32783	33021	32518	32407	
1364	0	76	1257	29	1928	406	0	32548	32685	32474	32662	32767	32983	32663	32719	
1365	0	131	1178	29	1903	407	0	32773	32747	32723	32843	32580	32799	32548	32639	
1366	0	119	1253	29	1968	408	0	32772	32823	32671	32685	32559	32901	32461	32865	
1367	0	108	1271	29	1917	409	0	32794	32669	32725	32839	32727	32893	32735	32659	
1368	0	133	1204	28	1945	410	0	32692	32759	32513	32826	33015	32939	33131	32559	
1369	0	126	1223	28	1920	411	0	32704	32855	32534	32827	33028	32876	33093	32750	
1370	0	112	1223	28	1922	412	0	32759	32862	32573	32811	32913	32603	32740	32806	
1371	0	136	1270	27	1924	413	0	32790	32851	32646	32943	32708	32677	32463	32543	
1372	0	122	1247	29	1961	414	0	32830	32787	32775	32899	32685	32427	32295	32916	
1373	0	165	1305	29	1891	415	0	32854	32801	32719	33023	32726	32106	32183	32719	
1374	0	119	1226	29	2003	416	0	32814	32804	32937	32903	32767	32233	32237	32719	
1375	0	55	1289	29	1941	417	0	32775	32591	32887	32855	32659	32479	32239	32402	
1376	0	158	1237	28	1956	418	0	32820	32615	32895	32863	32746	32639	32367	32573	
1377	0	144	1252	29	1956	419	0	32797	32869	32891	32791	32703	32765	32489	32903	
1378	0	117	1260	27	1928	420	0	32677	32863	32803	32732	32742	32761	32547	33015	
1379	0	95	1292	30	1901	421	0	32630	32717	32742	32847	32834	32669	33133	33159	
1380	0	126	1258	28	1906	422	0	32551	32679	32413	32690	32727	32867	33451	33010	
1381	0	105	1232	28	1955	423	0	32408	32429	32356	32647	32543	33039	33455	32964	
1382	0	114	1217	28	1942	424	0	32598	32655	32438	32628	32549	32733	33087	32903	
1383	0	139	1264	29	1969	425	0	32662	32742	32564	32571	32476	32646	32373	32775	
1384	0	142	1299	29	1930	426	0	32865	32787	32699	32759	32523	32700	32373	32847	
1385	0	120	1271	29	1905	427	0	32982	32837	32947	32719	32743	32683	32599	32943	
1386	0	132	1262	29	1919	428	0	32943	32835	32949	32721	32645	32807	32481	32639	
1387	0	125	1254	29	1956	429	0	32937	32755	32947	32775	32643	32895	32463	32731	
1388	0	100	1266	30	1909	430	0	32883	32775	32903	32662	32457	32883	32467	32630	
1389	0	142	1238	30	1922	431	0	32843	32657	32893	32731	32662	32823	32545	32563	
1390	0	133	1233	27	1914	432	0	32867	32691	32898	32663	32587	32855	32666	32511	
1391	0	134	1229	28	1924	433	0	32767	32663	32693	32621	32679	32916	32727	32503	
1392	0	100	1237	30	1899	434	0	32645	32637	32647	32685	32615	32869	32763	32493	
1393	0	155	1254	30	1944	435	0	32646	32735	32623	32679	32791	32626	32573	32489	
1394	0	99	1231	30	1954	436	0	32646	32855	32643	32839	32571	32638	32495	32578	
1395	0	89	1255	28	1933	437	0	32764	32903	32692	32751	32790	32705	32463	32694	
1396	0	134	1234	28	1907	438	0	32818	32859	32623	32791	32734	32919	32399	32591	
1397	0	126	1261	29	1944	439	0	32791	32755	32619	32793	32802	32893	32469	32566	
1398	0	92	1241	29	1919	440	0	32702	32558	32591	32810	32801	32855	32679	32679	
1399	0	126	1243	29	1914	441	0	32638	32591	32799	32435	32525	32933	32559	32519	
1400	0	124	1228	28	1956	442	0	32533	32735	32635	32423	32647	32773	32748	32660	
1401	0	145	1235	28	1938	443	0	32631	32738	32827	32660	32725	32859	32949	32959	
1402	0	113	1244	29	1923	444	0	32775	32862	32892	32859	32723	33011	33113	32932	
1403	0	134	1257	27	1938	445	0	32801	32852	32978	32807	32790	32973	33029	32943	
1404	0	153	1261	30	1924	446	0	32764	32611	32819	32759	32599	32975	33009	32734	
1405	0	143	1266	29	1910	447	0	32775	32738	32838	32707	32515	32949	32831	32167	
1406	0	128	1254	28	1962	448	0	32750	32839	32733	32470	32411	32853	32810	32263	
1407	0	110	1290	30	1982	449	0	32831	32813	32575	32705	32637	32901	32994	32494	
1408	0	121	1232	27	1948	450	0	32870	32751	32671	32831	32551	32699	32839	32412	
1409	0	130	1192	28	1994	451	0	32848	32561	32679	32899	32825	32598	32866	32247	
1410	0	109	1252	30	1938	452	0	32878	32727	32815	33026	32863	32403	32895	32263	
1411	0	159	1252	29	1955	453	0	32914	32903	32703	33014	32879	32423	33051	32727	
1412	0	135	1233	29	1941	454	0	32863	32827	32671	32999	32799	32615	33154	32955	
1413	0	137	1217	28	1958	455	0	32850	32719	32663	32979	32591	32551	33031	32721	
1414	0	139	1242	28	1941	456	0	32780	32515	32806	32910	32639	32836	32743	32561	
1415	0	120	1223	30	1919	457	0	32677	32609	32903	32967	32431	32853	32567	32615	
1416	0	84	1227	29	1950	458	0	32690	32683	32965	32951	32595	32679	32628	32830	
1417	0	110	1210	28	1940	459	0	32858	32799	32978	32963	32535	32613	32326	32503	
1418	0	136	1260	29	1921	460	0	32958	32887	33020	32894	32621	32483	32343	32499	
1419	0	125	1250	28	1938	461	0	32933	32855	32940	32775	32519	32739	32484	32639	
1420	0	109	1213	29	1945	462	0	32772	32647	32669	32535	32676	32743	32903	32893	
1421	0	115	1227	30	1943	463	0	32763	32846	32671	32590	32735	32691	33423	33133	
1422	0	151	1194	29	1955	464	0	32757	32759	32551	32597	32373	32547	33439	33031	
1423	0	165	1265	30	1989	465	0	32829	32759	32690	32443	32350	32534	32996	32471	
1424	0	102	1240	29	1968	466	0	32869	32679	32755	32311	32325	32524	32570	32749	
1425	0	140	1244	30	1918	467	0	32813	32831	32834	32371	32599	32597	32551	32741	
1426	0	174	1305	29	1964	468	0	32598	32762	32835	32421	32751	32879	32455	32723	
1427	0	137	1230	29	1920	469	0	32588	32789	33026	32603	32866	33197	32135	32460	
1428	0	151	1252	28	1927	470	0	32650	32631	32879	32555	32803	33133	31879	32089	
1429	0	96	1253	29	1958	471	0	32640	32807	32831	32497	32715	33410	31911	31927	
1430	0	102	1290	30	1935	472	0	32800	32780	32731	32789	32815	33135	32033	32123	
1431	0	97	1245	29	1908	473	0	32818	32811	32787	32837	33069	32751	32495	32531	
1432	0	110	1253	29	1919	474	0	32799	32605	32655	32674	32967	32663	32874	32711	
1433	0	114	1246	29	1954	475	0	32784	32797	32784	32854	32860	32671	32999	32591	
1434	0	137	1246	30	1922	476	0	32863	32897	32691	32853	32807	32671	33335	32772	
1435	0	100	1199	30	1870	477	0	32785	32887	32771	32864	32607	32735	33493	33063	
1436	0	116	1239	28	1947	478	0	32734	32837	32799	32809	32525	32613	33467	33524	
1437	0	97	1199	29	1902	479	0	32801	32692	32869	32731	32438	32495	33127	33387	
1438	0	119	1252	29	1936	480	0	32815	32897	32847	32758	32687	32692	32947	33174	
1439	0	104	1219	29	1956	481	0	32833	32869	32711	32634	32745	32787	33031	33679	
1440	0	115	1262	30	1922	482	0	32889	32966	32793	32783	32587	32658	32631	33551	
1441	0	132	1248	29	1923	483	0	32772	32743	32833	32685	32599	32807	32758	33251	
1442	0	125	1244	29	1955	484	0	32637	32730	32751	32638	32711	32582	32751	32663	
1443	0	149	1254	28	1930	485	0	32580	32747	32805	32503	32893	32759	32573	32413	
1444	0	110	1242	28	1946	486	0	32519	32775	32543	32607	32686	33195	32567	32387	
1445	0	135	1235	30	1890	487	0	32662	32839	32487	32647	32575	33139	32767	32763	
1446	0	85	1218	28	1913	488	0	32800	32903	32927	32739	32359	33039	32827	32986	
1447	0	105	1261	29	1942	489	0	32967	32709	33127	32923	32823	32321	33058	32903	
1448	0	140	1240	28	1923	490	0	32970	32773	32981	32943	32977	31781	32805	32525	
1449	0	108	1229	28	1950	491	0	32871	32829	33055	32822	33022	31490	32587	32519	
1450	0	133	1245	28	1913	492	0	32839	32903	33007	32855	33039	31533	32458	32503	
1451	0	90	1235	28	1913	493	0	32809	32819	32997	32717	32559	32258	32194	32471	
1452	0	72	1303	28	1944	494	0	32679	32543	32983	32470	32432	32611	32109	32943	
1453	0	113	1290	29	1940	495	0	32732	32579	33095	32583	32247	32823	32742	33326	
1454	0	133	1219	29	1932	496	0	32797	32811	32903	32524	32260	33003	32615	33091	
1455	0	120	1273	29	1914	497	0	32707	32801	32935	32556	32223	33267	32449	33026	
1456	0	104	1240	29	1970	498	0	32748	32693	32943	32591	32531	33127	32573	32933	
1457	0	126	1248	28	1914	499	0	32810	32742	32839	32709	32861	32955	32554	32767	
1458	0	91	1235	29	1931	500	0	32805	32676	32823	32759	32900	33059	32775	32903	
1459	0	108	1253	29	1953	501	0	32775	32679	32647	32775	32830	33303	33103	32959	
1460	0	105	1214	28	1897	502	0	32647	32707	32583	32733	32887	33266	32903	32835	
1461	0	106	1219	29	1938	503	0	32582	32726	32615	32671	32775	33131	32719	32735	
1462	0	95	1232	29	1954	504	0	32551	32804	32607	32861	32879	32958	32567	32639	
1463	0	143	1227	29	1926	505	0	32487	32509	32527	32720	32893	32951	32415	32454	
1464	0	105	1240	28	1917	506	0	32455	32519	32447	32719	32941	32950	32412	32263	
1465	0	108	1236	29	1899	507	0	32494	32661	32423	32627	32962	32865	32495	32325	
1466	0	103	1240	29	1907	508	0	32567	32745	32541	32769	32599	32785	32510	32375	
1467	0	134	1261	28	1955	509	0	32697	32799	32647	32787	32663	32775	32434	32523	
1468	0	146	1220	30	1944	510	0	32893	32886	32978	32815	32559	32839	32391	32794	
1469	0	123	1276	28	1912	511	0	32950	32822	32957	32949	32735	32839	32647	33154	
1470	0	140	1227	30	1938	512	0	32863	32743	32858	32863	32941	32818	32685	33095	
1471	0	131	1255	29	1912	513	0	32687	32851	32645	32852	32818	32911	32711	32966	
1472	0	96	1233	28	1931	514	0	32694	32882	32539	32685	32722	32807	32808	32903	
1473	0	100	1200	27	1915	515	0	32854	32862	32847	32871	32671	32795	32647	32873	
1474	0	114	1192	29	1927	516	0	32966	32941	33035	32995	32638	32675	32425	33063	
1475	0	100	1246	30	1948	517	0	32918	32931	33030	32967	32786	32627	32434	33089	
1476	0	76	1254	29	1929	518	0	32743	32595	32925	32687	32727	32743	32739	33039	
1477	0	107	1234	28	1940	519	0	32625	32691	32775	32666	32459	32642	32870	32679	
1478	0	104	1236	28	1975	520	0	32729	32943	32711	32621	32711	32599	32923	32631	
1479	0	107	1270	29	1950	521	0	32775	32817	32683	32484	32817	32421	32807	32685	
1480	0	141	1211	28	1919	522	0	32686	32722	32764	32455	32757	32495	32531	32647	
1481	0	146	1202	30	1948	523	0	32582	32681	32850	32343	32373	32631	32207	33167	
1482	0	110	1221	27	1911	524	0	32667	32631	32719	32197	32551	32914	32198	33287	
1483	0	153	1199	29	1965	525	0	32684	32730	32774	32338	32813	32991	32679	33006	
1484	0	116	1238	28	1941	526	0	32695	32413	32775	32271	32870	32943	32709	32815	
1485	0	112	1241	29	1924	527	0	32831	32747	32911	32516	32887	32647	32551	32571	
1486	0	91	1229	30	1941	528	0	32827	32873	32807	32677	32805	32451	32687	32391	
1487	0	110	1224	30	1949	529	0	32858	32815	32639	32774	32903	32487	32797	32433	
1488	0	138	1219	28	1946	530	0	32859	32847	32675	32839	32790	32427	32837	32421	
1489	0	109	1243	29	1928	531	0	32780	32655	32724	33063	32695	32732	32951	32609	
1490	0	150	1238	29	1953	532	0	32700	32741	32647	33146	32423	32807	32949	33078	
1491	0	139	1208	29	1903	533	0	32751	32683	32775	33333	32615	32715	33074	33511	
1492	0	138	1240	29	1939	534	0	32775	32755	32699	33133	32631	32699	32971	33325	
1493	0	94	1252	28	1893	535	0	32774	32755	32633	33083	32573	33183	32571	32892	
1494	0	157	1188	29	1947	536	0	32676	32883	32644	33005	32254	33534	32375	32621	
1495	0	113	1243	29	1935	537	0	32587	32707	32572	32943	32538	33519	32246	31550	
1496	0	137	1246	28	1933	538	0	32634	32646	32811	32810	32844	33148	32279	31353	
1497	0	132	1268	28	1921	539	0	32781	32786	32841	32995	32969	32582	32319	31223	
1498	0	80	1210	30	1954	540	0	32735	32613	32821	32762	32739	32743	32354	31357	
1499	0	119	1224	28	1951	541	0	32778	32645	32814	32903	32461	32747	32154	31471	
1500	0	135	1205	28	1959	542	0	32863	32932	32839	33042	32735	32215	32501	31599	
1501	0	94	1222	29	1914	543	0	32895	32978	32855	33180	32804	31863	32548	31933	
1502	0	124	1249	30	1926	544	0	32956	32923	32788	33167	32887	32100	32890	32637	
1503	0	123	1230	29	1930	545	0	32876	32903	32829	32967	32627	32503	33014	33959	
1504	0	118	1217	29	1946	546	0	32867	32647	32754	33014	32327	32663	33035	34421	
1505	0	148	1252	29	1966	547	0	32964	32949	32647	32885	32686	32429	32929	34323	
1506	0	145	1265	28	1898	548	0	32863	32877	32733	32627	32615	32559	32591	34231	
1507	0	148	1282	29	1924	549	0	32763	32727	32711	32632	32471	32891	32620	33693	
1508	0	144	1203	28	1961	550	0	32616	32507	32591	32531	32454	33046	32653	33263	
1509	0	101	1268	30	1925	551	0	32577	32717	32432	32412	32325	33287	32483	33164	
1510	0	110	1246	30	1947	552	0	32589	32695	32532	32473	32615	33445	32435	33139	
1511	0	125	1244	27	1928	553	0	32638	32633	32599	32503	32550	33610	32219	32855	
1512	0	146	1256	29	1943	554	0	32693	32723	32903	32417	32823	33764	32345	32605	
1513	0	124	1216	30	1952	555	0	32659	32735	32949	32604	32923	33438	32536	32487	
1514	0	125	1258	29	1937	556	0	32644	32551	33057	32709	32761	33127	32559	32447	
1515	0	158	1217	28	1946	557	0	32674	32843	32831	32759	32935	32923	32551	32431	
1516	0	108	1248	29	1907	558	0	32728	32853	32935	32543	32775	32723	32482	32391	
1517	0	152	1263	29	1933	559	0	32732	32827	32854	32627	32879	32807	32534	32490	
1518	0	116	1250	29	1936	560	0	32749	32802	32689	32599	32721	32621	32539	32462	
1519	0	75	1229	30	1965	561	0	32850	32683	32693	32739	32658	32598	32573	32507	
1520	0	120	1282	30	1938	562	0	32949	32775	32669	32627	32549	32463	32659	32726	
1521	0	124	1227	29	1995	563	0	32903	32775	32831	32772	32715	32661	32605	32734	
1522	0	103	1231	29	1955	564	0	32891	32955	32879	32795	32591	32625	32495	32839	
1523	0	105	1239	29	1902	565	0	32854	32935	32851	32759	32732	32607	32676	32689	
1524	0	120	1217	29	1927	566	0	32857	32791	32863	32687	32763	32756	32850	32445	
1525	0	73	1248	29	1949	567	0	32718	32711	32687	32669	32413	32527	32813	32567	
1526	0	91	1223	29	1932	568	0	32692	32584	32627	32695	32647	32572	32935	32535	
1527	0	80	1245	29	1957	569	0	32703	32631	32405	32566	32663	32357	33017	32551	
1528	0	121	1243	30	1893	570	0	32817	32733	32519	32606	32755	32391	32895	32594	
1529	0	148	1251	29	1927	571	0	32831	32757	32467	32671	32601	32495	32579	32749	
1530	0	91	1230	30	1922	572	0	32773	32815	32460	32598	32470	32627	32181	32863	
1531	0	126	1272	30	1899	573	0	32576	32765	32483	32483	32335	32811	31899	32725	
1532	0	76	1231	28	1903	574	0	32505	32419	32550	32420	32549	33003	32071	32575	
1533	0	118	1258	29	1905	575	0	32498	32519	32610	32505	32658	32879	32047	32535	
1534	0	93	1248	30	1953	576	0	32656	32679	32879	32583	32551	32719	31972	32551	
1535	0	126	1246	30	1901	577	0	32826	32719	33017	32611	32593	32859	32246	32722	
1536	0	94	1259	29	1937	578	0	32934	32853	32951	32823	32614	32846	32566	32716	
1537	0	149	1220	29	1946	579	0	32903	32719	32767	32815	32706	32929	32891	33031	
1538	0	133	1229	27	1926	580	0	32743	32683	32869	32903	32846	32999	33023	33436	
1539	0	101	1251	28	1923	581	0	32647	32597	32559	32763	33023	33009	33307	33579	
1540	0	133	1252	28	1932	582	0	32623	32621	32519	32799	32825	32967	33279	33239	
1541	0	98	1242	29	1947	583	0	32605	32759	32494	32676	32783	32899	33143	32971	
1542	0	118	1236	30	1921	584	0	32687	32871	32647	32751	32711	32887	33034	32835	
1543	0	130	1222	29	1916	585	0	32775	32820	32885	32918	32679	32749	32631	32517	
1544	0	108	1245	29	1918	586	0	32903	32867	32866	33039	32421	32698	32466	32258	
1545	0	129	1199	29	1908	587	0	32982	32761	33011	32933	32571	32731	32365	32063	
1546	0	122	1278	29	1952	588	0	33014	32827	32996	33026	32685	32571	32475	31972	
1547	0	119	1242	28	1929	589	0	33026	32962	33037	33019	32549	32533	32270	32075	
1548	0	103	1252	30	1922	590	0	32836	32761	32978	33028	32585	32676	32194	32039	
1549	0	100	1241	29	1907	591	0	32769	32786	32775	32725	32655	32724	32262	32231	
1550	0	110	1238	28	1924	592	0	32768	32739	32667	32798	32743	32999	32481	32387	
1551	0	119	1218	28	1968	593	0	32829	32543	32644	32815	32627	33081	32207	32363	
1552	0	169	1271	28	1938	594	0	32858	32883	32663	32825	32574	32863	32205	32327	
1553	0	113	1245	28	1983	595	0	32847	32894	32687	32942	32596	32685	32423	32317	
1554	0	103	1223	29	1960	596	0	32791	32731	32683	32868	32869	32612	32558	32279	
1555	0	143	1264	29	1962	597	0	32784	32743	32564	32887	32898	32767	32749	32308	
1556	0	107	1235	29	1893	598	0	32885	32613	32623	32866	32699	32663	32876	32420	
1557	0	80	1188	29	1966	599	0	32948	32711	32796	32887	32786	32457	32660	32535	
1558	0	130	1249	30	1925	600	0	33092	32847	32841	32827	32807	32314	32833	32486	
1559	0	142	1194	30	1936	601	0	33062	32847	32982	32695	32895	32361	32732	32615	
1560	0	121	1239	28	1952	602	0	32871	32705	32938	32647	32619	32617	32485	32831	
1561	0	141	1229	29	1921	603	0	32692	32483	32791	32350	32743	32822	32643	32747	
1562	0	147	1268	30	1927	604	0	32833	32534	32923	32427	32519	32725	32903	32850	
1563	0	133	1206	28	1947	605	0	32876	32639	32935	32470	32511	32738	32833	33019	
1564	0	126	1298	29	1942	606	0	32949	32711	33080	32421	32679	32897	33027	33131	
1565	0	110	1259	28	1892	607	0	32964	32589	32834	32623	32697	33095	33311	33338	
1566	0	154	1277	29	1939	608	0	33055	32735	32775	32916	32566	32964	33213	33409	
1567	0	136	1229	29	1928	609	0	32621	32615	32531	32662	32730	33263	32699	33366	
1568	0	97	1225	30	1920	610	0	32428	32658	32551	32457	32645	32658	32327	32809	
1569	0	105	1275	30	1934	611	0	32497	32787	32586	32799	32715	31556	31919	32731	
1570	0	144	1252	29	1936	612	0	32773	32735	32795	32935	32507	31084	31597	32546	
1571	0	54	1225	28	1888	613	0	32656	32647	32918	32775	32423	32031	31615	32263	
1572	0	116	1232	29	1901	614	0	32383	32431	32839	32577	32107	33321	31614	32479	
1573	0	114	1256	30	1941	615	0	32307	32135	32911	32247	32237	33516	31503	32605	
1574	0	161	1273	29	1984	616	0	32365	32175	32804	32391	32341	33583	32003	32719	
1575	0	119	1240	27	1889	617	0	32621	32391	32797	32587	32553	33231	32314	32671	
1576	0	113	1235	28	1970	618	0	32802	32579	32877	32775	32623	33053	32612	32859	
1577	0	97	1224	28	1935	619	0	32732	32836	32865	32866	32799	32882	33063	32915	
1578	0	119	1261	28	1948	620	0	32704	32758	33003	32764	32689	32859	33221	32955	
1579	0	129	1221	30	1917	621	0	32589	32647	32948	32875	32983	32901	33577	33167	
1580	0	113	1230	28	1902	622	0	32450	32668	32942	32771	32959	32738	33671	33101	
1581	0	106	1245	29	1905	623	0	32540	32805	32829	32961	33010	32610	33584	33031	
1582	0	127	1244	29	1957	624	0	32622	33101	32796	33063	32876	32643	33373	32836	
1583	0	145	1262	29	1922	625	0	32620	33087	32879	33199	32791	32535	33167	32847	
1584	0	117	1260	29	1926	626	0	32578	33093	32759	33303	32766	32583	33063	32749	
1585	0	131	1260	28	1903	627	0	32428	33189	32615	33260	32771	32833	33058	32726	
1586	0	83	1257	28	1945	628	0	32154	33005	32331	32997	32559	33145	32791	32519	
1587	0	123	1226	29	1940	629	0	32108	32895	32434	32772	32549	33105	32463	32253	
1588	0	119	1244	29	1920	630	0	32263	32947	32371	33021	32703	32903	32467	32278	
1589	0	119	1238	29	1947	631	0	32313	32731	32527	32989	32948	32924	32623	32181	
1590	0	116	1263	27	1910	632	0	32521	32941	32543	33177	32671	33069	32713	32540	
1591	0	101	1223	28	1924	633	0	32531	33019	32583	33111	32691	33109	32737	32703	
1592	0	118	1240	28	1975	634	0	32506	32914	32487	33235	32823	33173	32634	32643	
1593	0	117	1275	28	1944	635	0	32614	32850	32583	33085	32941	33133	32925	32679	
1594	0	77	1227	29	1934	636	0	32519	32540	32469	32771	33060	33033	33239	32690	
1595	0	132	1242	30	1921	637	0	32573	32852	32668	32829	32741	32674	33135	32698	
1596	0	129	1292	29	1955	638	0	32633	32763	32669	32866	32924	32361	32714	32605	
1597	0	140	1312	29	1936	639	0	32763	32854	32747	32819	32886	32327	32676	32423	
1598	0	111	1230	30	1925	640	0	32924	32871	32692	32783	32903	32431	33037	32507	
1599	0	96	1278	30	1934	641	0	33029	32875	32769	32935	32815	32101	33231	32636	
1600	0	89	1225	29	1939	642	0	33078	32834	32715	32963	32614	32212	32869	32733	
1601	0	106	1244	27	1941	643	0	33047	32743	32739	32821	32594	32485	32711	32832	
1602	0	103	1273	29	1920	644	0	32909	32765	32681	32935	32673	32573	32735	32927	
1603	0	126	1212	29	1918	645	0	32853	32747	32623	32698	32851	32783	32678	32684	
1604	0	100	1242	28	1974	646	0	32974	32869	32698	32679	32687	32679	32429	32762	
1605	0	122	1208	29	1916	647	0	33081	32949	32911	32679	32765	32671	32357	32671	
1606	0	117	1272	28	1936	648	0	33110	32901	33045	32723	32647	32799	31983	32555	
1607	0	103	1209	28	1962	649	0	33045	32893	32967	32590	32729	32891	31997	32637	
1608	0	110	1243	28	1926	650	0	32988	32775	32893	32469	32751	32836	32091	32599	
1609	0	49	1240	28	1955	651	0	32933	32693	32917	32403	32762	32811	32271	32687	
1610	0	99	1233	29	1902	652	0	32915	32692	32918	32277	32727	32951	32043	32093	
1611	0	108	1212	29	1920	653	0	33009	32749	32850	32407	32407	32797	32023	31982	
1612	0	100	1316	28	1950	654	0	32985	32715	32976	32533	32239	32751	32274	32293	
1613	0	135	1247	30	1904	655	0	32960	32523	33007	32478	32335	32796	32310	32287	
1614	0	128	1223	28	1942	656	0	32968	32635	32884	32509	32991	32357	32629	32135	
1615	0	138	1244	28	1957	657	0	33013	32879	32757	32551	32955	31807	32903	32356	
1616	0	127	1220	28	1961	658	0	32972	32875	32839	32669	32823	32245	32851	32314	
1617	0	100	1237	29	1938	659	0	32935	32763	32839	32663	32644	32346	32718	32179	
1618	0	74	1296	29	1948	660	0	33060	32775	32851	32842	32807	32363	32860	32937	
1619	0	119	1273	29	1934	661	0	32957	32733	32725	32919	32775	32731	33079	33769	
1620	0	148	1202	30	1960	662	0	32788	32669	32625	32751	32804	33039	32837	33586	
1621	0	104	1248	29	1962	663	0	32823	32663	32819	32807	32756	32879	32663	33341	
1622	0	120	1260	27	1906	664	0	32855	32518	32887	32674	32499	32912	32613	33255	
1623	0	108	1270	28	1957	665	0	32707	32471	32845	32644	32161	32861	32268	33067	
1624	0	103	1224	29	1968	666	0	32589	32454	32723	32339	32507	33190	32196	32834	
1625	0	85	1236	28	1983	667	0	32634	32642	32629	32514	32589	33117	31783	32695	
1626	0	159	1254	30	1933	668	0	32713	32717	32647	32705	32679	32990	31329	32421	
1627	0	61	1258	29	1946	669	0	32825	32821	32807	32863	32557	32975	31315	32227	
1628	0	127	1219	29	1956	670	0	32895	32967	32935	33159	32559	32820	31335	32479	
1629	0	112	1266	30	1923	671	0	32796	32708	32783	33213	32623	32983	31418	32359	
1630	0	149	1239	27	1925	672	0	32663	32581	32775	33241	32871	32972	31433	32110	
1631	0	141	1272	30	1927	673	0	32775	32695	32719	33149	32772	32757	31485	32359	
1632	0	126	1213	29	1899	674	0	32854	32970	32815	33415	32935	32609	31559	32473	
1633	0	103	1252	29	1930	675	0	32865	32891	32815	33535	32631	32556	31295	32375	
1634	0	101	1241	28	1896	676	0	32877	32900	32903	33577	32620	32607	31134	32565	
1635	0	134	1232	29	1953	677	0	32843	32957	32628	33351	32399	32715	31407	32421	
1636	0	110	1224	28	1916	678	0	32763	32903	32611	33350	32597	32822	31799	32559	
1637	0	136	1250	29	1964	679	0	32731	32626	32647	33087	32495	32633	32103	32775	
1638	0	141	1288	31	1923	680	0	32687	32759	32558	32903	32740	32811	32262	32979	
1639	0	101	1281	30	1910	681	0	32516	32820	32468	32684	32631	33031	32297	33127	
1640	0	133	1267	29	1949	682	0	32720	32902	32406	32621	32862	32903	32133	33255	
1641	0	90	1252	29	1900	683	0	32844	33007	32547	32695	32701	32607	31698	32974	
1642	0	130	1189	30	1941	684	0	32953	32991	32811	32863	32867	32474	31276	32827	
1643	0	133	1239	30	1916	685	0	32903	33009	33117	32692	32659	32566	30881	32819	
1644	0	144	1257	28	1893	686	0	32801	32791	32831	32535	32786	32690	30803	32468	
1645	0	136	1223	28	1970	687	0	32723	32543	32710	32467	32543	32815	30903	32219	
1646	0	122	1269	29	1938	688	0	32724	32591	32582	32219	32611	32869	31599	32275	
1647	0	131	1243	29	1983	689	0	32687	32631	32503	32239	32836	33010	32093	32208	
1648	0	130	1273	28	1894	690	0	32724	32739	32511	32415	32951	32837	32135	32441	
1649	0	114	1257	29	1944	691	0	32873	32742	32571	32397	32639	32838	31845	32285	
1650	0	144	1252	29	1933	692	0	32844	32639	32663	32378	32423	32738	31351	32413	
1651	0	117	1223	28	1943	693	0	32862	32743	32765	32343	32495	32543	31207	32489	
1652	0	71	1193	28	1941	694	0	32970	32773	32879	32623	32644	32382	31196	32543	
1653	0	71	1267	29	1929	695	0	32931	32786	32841	32581	32524	32239	30823	32762	
1654	0	133	1232	29	1940	696	0	32807	32541	33019	32705	32679	32384	30535	32983	
1655	0	136	1220	28	1923	697	0	32745	32667	32993	32637	32599	32373	30085	32836	
1656	0	141	1285	29	1926	698	0	32741	32607	32914	32551	32683	32763	29924	32903	
1657	0	126	1243	29	1956	699	0	32711	32537	32807	32475	32466	33054	29639	32756	
1658	0	112	1246	29	1972	700	0	32727	32775	32928	32423	32631	33110	29559	32770	
1659	0	149	1238	30	1919	701	0	32769	32935	33172	32436	32589	33020	29927	32767	
1660	0	133	1212	29	1969	702	0	32833	32911	33047	32448	32671	33287	30567	33319	
1661	0	108	1267	28	1966	703	0	32708	32754	32871	32461	32581	33261	30663	33244	
1662	0	104	1211	30	1911	704	0	32647	32702	32789	32553	32754	33298	30410	32697	
1663	0	125	1245	29	1989	705	0	32612	32647	32759	32676	32671	33271	30279	32123	
1664	0	166	1191	27	1941	706	0	32625	32732	32739	32783	32919	33128	30700	32236	
1665	0	136	1223	28	1956	707	0	32586	32791	32734	32635	33076	33077	31815	32731	
1666	0	127	1274	29	1950	708	0	32646	32710	32863	32919	32871	32869	32186	32993	
1667	0	109	1238	29	1962	709	0	32762	33014	32839	32987	32839	32407	32107	32807	
1668	0	105	1249	29	1888	710	0	32789	33027	32861	32883	32987	32295	32017	32391	
1669	0	101	1237	29	1925	711	0	32910	32951	33007	33075	32948	32199	31963	32199	
1670	0	96	1291	29	1924	712	0	32903	32875	33037	33067	32647	32369	31892	32431	
1671	0	149	1239	29	1939	713	0	32846	32666	33079	32947	32561	32697	31060	32612	
1672	0	154	1248	29	1942	714	0	32720	32605	32883	32783	32339	32892	30282	33026	
1673	0	121	1267	29	1934	715	0	32764	32607	32799	32847	32435	32689	30151	33500	
1674	0	126	1211	29	1924	716	0	32706	32765	32711	32789	32514	32567	30900	33845	
1675	0	127	1199	28	1926	717	0	32656	32743	32615	32831	32727	32775	31396	33858	
1676	0	125	1227	29	1925	718	0	32534	32663	32679	32761	32517	33055	31040	33763	
1677	0	93	1252	29	1915	719	0	32601	32717	32705	33024	32679	32841	30517	33439	
1678	0	98	1273	30	1924	720	0	32798	32753	32867	33030	32559	32743	30290	33471	
1679	0	127	1264	28	1925	721	0	32874	32812	32863	33013	32631	33085	30135	33263	
1680	0	99	1237	29	1958	722	0	32765	32775	32966	32877	32483	33140	30289	33068	
1681	0	118	1250	28	1924	723	0	32817	32711	32883	32661	32484	32909	30371	32679	
1682	0	155	1220	28	1931	724	0	32826	32751	32927	32859	32348	32527	30491	32579	
1683	0	106	1254	28	1963	725	0	32570	32684	32748	32716	32633	32642	30757	31966	
1684	0	121	1243	29	1904	726	0	32528	32707	32655	32567	32594	33031	31031	31510	
1685	0	127	1249	28	1956	727	0	32900	32935	32870	32879	32623	32459	30967	31779	
1686	0	109	1248	29	1949	728	0	33053	33033	32997	32903	32452	32051	31135	31847	
1687	0	126	1223	30	1920	729	0	32863	32895	32975	32996	32484	31861	30993	32190	
1688	0	82	1193	28	1930	730	0	32790	32841	33043	32870	32615	31943	31062	32559	
1689	0	142	1221	29	1958	731	0	32631	32633	32809	32951	32927	32151	31223	32507	
1690	0	113	1275	29	1956	732	0	32464	32379	32695	32711	32584	32461	31602	32257	
1691	0	131	1203	30	1944	733	0	32464	32479	32690	32642	32669	32603	31690	32255	
1692	0	175	1223	28	1922	734	0	32541	32775	32807	32561	32679	32702	31687	32531	
1693	0	72	1229	29	1938	735	0	32578	32647	32851	32594	32593	32912	31435	33429	
1694	0	125	1278	28	1935	736	0	32631	32724	32884	32429	32615	33125	31533	34246	
1695	0	108	1206	29	1920	737	0	32704	32799	32787	32631	32586	33298	31927	34685	
1696	0	114	1249	29	1901	738	0	32710	32822	32743	32583	32577	33731	32114	34291	
1697	0	137	1230	29	1952	739	0	32787	32883	32702	32694	32645	33615	32135	33470	
1698	0	171	1247	29	1929	740	0	32913	32850	32743	32501	32832	33402	32263	32679	
1699	0	101	1241	28	1940	741	0	32803	32902	32758	32623	32759	33151	32900	32667	
1700	0	136	1263	29	1944	742	0	32765	32865	32615	32415	32670	32950	33554	32662	
1701	0	117	1212	29	1925	743	0	32592	32843	32602	32497	32535	32981	33823	32646	
1702	0	139	1253	30	1925	744	0	32730	32925	32759	32479	32495	33051	34031	32738	
1703	0	101	1209	29	1915	745	0	32940	32877	32847	32850	32978	32861	34823	32802	
1704	0	118	1209	30	1994	746	0	32951	32999	32871	33191	32876	32671	35156	32634	
1705	0	96	1247	29	1985	747	0	32874	32866	32813	33391	32972	32662	35047	32491	
1706	0	109	1252	30	1926	748	0	32903	32783	32791	33250	32691	32751	34439	32413	
1707	0	131	1247	29	1946	749	0	32735	32909	32643	33439	32463	32799	33767	32351	
1708	0	138	1226	30	1895	750	0	32505	32847	32515	33295	32443	32935	33326	32227	
1709	0	126	1264	29	1941	751	0	32596	32775	32446	33015	32527	33073	33073	32159	
1710	0	135	1251	28	1894	752	0	32658	32812	32708	33245	32599	32718	33449	32114	
1711	0	126	1253	28	1880	753	0	32676	32757	32647	33088	32657	32742	35127	32045	
1712	0	81	1252	29	1961	754	0	32707	32653	32836	33095	32644	32681	37132	32012	
1713	0	133	1244	29	1902	755	0	32719	32655	32711	32863	32622	32743	39631	32207	
1714	0	145	1254	30	1933	756	0	32519	32810	32396	32775	32575	32965	40003	32079	
1715	0	109	1249	29	1987	757	0	32557	32719	32343	32743	32548	32690	39476	32117	
1716	0	137	1245	29	1937	758	0	32681	32701	32321	32662	32822	32655	38639	32284	
1717	0	104	1231	28	1953	759	0	32935	32667	32563	32918	32730	32519	37463	32487	
1718	0	143	1234	28	1987	760	0	32951	32703	32591	32801	32719	32551	36359	32543	
1719	0	163	1253	29	1909	761	0	32914	32771	32948	32870	32644	32537	35903	32627	
1720	0	140	1245	30	1918	762	0	33000	32721	32995	32942	32802	32493	35415	32634	
1721	0	140	1255	28	1936	763	0	33051	32570	33141	32791	32871	32647	35332	32559	
1722	0	116	1233	28	1939	764	0	32924	32645	33016	32543	32697	32671	35167	32461	
1723	0	144	1233	29	1927	765	0	32807	32683	32990	32519	33005	32655	34691	32331	
1724	0	128	1225	30	1968	766	0	32857	32703	33092	32438	33004	32599	34151	32535	
1725	0	95	1263	29	1924	767	0	32927	32605	33027	32323	32830	32563	33621	32635	
1726	0	119	1252	29	1911	768	0	32808	32789	33254	32301	32659	32432	32767	32695	
1727	0	112	1262	29	1944	769	0	32702	32839	33175	32283	32479	32671	32061	32813	
1728	0	110	1221	29	1908	770	0	32637	32847	32929	32427	32723	32891	31958	32738	
1729	0	115	1244	29	1943	771	0	32706	32702	32771	32676	32791	32799	32199	32559	
1730	0	101	1262	29	1955	772	0	32759	32919	32759	32933	32765	32866	32446	32407	
1731	0	101	1240	28	1923	773	0	32667	32806	32692	33115	32935	32942	32687	32495	
1732	0	99	1239	29	1912	774	0	32699	32658	32691	33002	32573	32831	32495	32743	
1733	0	132	1212	30	1924	775	0	32767	32722	32839	32969	32547	32691	32251	32902	
1734	0	116	1278	29	1909	776	0	32837	32903	32709	33051	32830	32623	32302	33227	
1735	0	138	1287	28	1959	777	0	32810	32839	32738	33399	32565	32677	32301	33175	
1736	0	101	1249	27	1948	778	0	32775	32789	32553	33725	32551	32788	32231	33071	
1737	0	99	1232	30	1932	779	0	32668	32615	32735	33594	32391	32821	32295	32955	
1738	0	145	1208	29	1953	780	0	32741	32865	32795	33869	32595	32599	32579	32898	
1739	0	115	1220	28	1948	781	0	32706	32939	32895	33763	32743	32755	32883	32687	
1740	0	97	1239	29	1936	782	0	32740	32791	32743	33585	32767	32861	33092	32715	
1741	0	123	1239	29	1963	783	0	32679	32758	32636	33229	32589	32759	32866	32703	
1742	0	144	1252	29	1935	784	0	32608	32535	32687	33207	32721	32613	33127	32631	
1743	0	138	1251	29	1932	785	0	32812	32869	32935	33205	32717	32519	33111	33295	
1744	0	110	1220	29	1892	786	0	32791	32811	32839	32899	32791	32837	33375	33523	
1745	0	145	1252	29	1949	787	0	32575	32681	32743	32717	32631	33259	33007	32818	
1746	0	135	1201	27	1943	788	0	32599	32391	32580	32700	32557	32919	32893	32702	
1747	0	111	1235	28	1927	789	0	32588	32442	32631	32607	32871	32557	32455	32787	
1748	0	118	1262	29	1973	790	0	32615	32647	32327	32431	32981	32347	32438	32564	
1749	0	104	1241	29	1971	791	0	32604	32761	32228	32590	32927	32047	32069	32093	
1750	0	133	1235	29	1891	792	0	32724	32759	32207	32636	32567	32359	31959	32112	
1751	0	105	1244	29	1982	793	0	32740	32804	32431	32518	32557	32821	32194	32305	
1752	0	147	1258	29	1909	794	0	32759	32627	32615	32647	32518	33154	32083	32439	
1753	0	131	1212	30	1960	795	0	32794	32687	32743	32663	32565	33191	32223	32647	
1754	0	117	1258	30	1979	796	0	32760	32799	32671	32457	32743	33267	32625	32585	
1755	0	135	1217	30	1974	797	0	32750	32687	32671	32476	32605	33319	32617	32717	
1756	0	99	1252	29	1892	798	0	32676	32731	32719	32519	32543	33207	32189	32932	
1757	0	84	1264	29	1920	799	0	32629	32545	32711	32439	32455	33127	32578	33199	
1758	0	115	1224	28	1920	800	0	32813	32693	32794	32511	32451	33003	33006	33191	
1759	0	109	1295	29	1925	801	0	32771	32915	32887	32591	32559	32759	33459	33119	
1760	0	129	1250	29	1892	802	0	32775	32814	32742	32643	32685	32708	32075	32999	
1761	0	101	1248	28	1942	803	0	32834	32823	32847	32478	32871	32580	31994	32917	
1762	0	94	1253	28	1909	804	0	32885	32863	32821	32732	32643	32501	31758	32884	
1763	0	113	1267	29	1940	805	0	32956	32723	33055	32839	32679	32583	31823	32807	
1764	0	134	1251	29	1955	806	0	33061	32869	32903	32866	32549	32762	32301	32775	
1765	0	101	1266	31	1915	807	0	32916	33014	33023	33023	32759	32813	33103	32835	
1766	0	72	1231	28	1949	808	0	32935	32870	32955	32939	32859	32807	32898	32756	
1767	0	102	1229	29	1937	809	0	32789	32798	32915	32823	32769	32666	32643	32570	
1768	0	134	1270	28	1953	810	0	32872	32911	32726	33125	32591	32634	32613	32936	
1769	0	156	1219	28	1947	811	0	32669	32762	32743	33085	32475	32687	32343	32982	
1770	0	128	1253	28	1913	812	0	32546	32631	32437	32663	32787	33089	32927	32987	
1771	0	138	1252	28	1927	813	0	32532	32630	32582	32707	32505	33629	33031	32951	
1772	0	103	1235	28	1953	814	0	32775	32684	32789	32695	32605	33428	33535	33347	
1773	0	148	1254	29	1913	815	0	32823	32796	32839	32899	32590	32918	33463	33091	
1774	0	113	1236	29	1911	816	0	32845	32641	32832	32843	32994	32562	33981	31935	
1775	0	99	1232	29	1930	817	0	32705	32879	32709	32486	32647	32541	34147	31430	
1776	0	136	1244	30	1909	818	0	32658	32730	32723	32358	32561	32535	34015	31559	
1777	0	160	1233	27	1956	819	0	32871	32868	32773	32719	33083	32355	34123	31695	
1778	0	163	1261	28	1907	820	0	32887	32757	33031	32758	33018	32486	34183	31975	
1779	0	134	1196	29	1943	821	0	32754	32635	32841	32887	33110	32613	34138	31939	
1780	0	130	1265	29	1956	822	0	32767	32916	32829	32797	33023	32743	33667	31967	
1781	0	130	1228	29	1956	823	0	32469	32789	32727	32681	32831	32791	32754	32082	
1782	0	124	1255	29	1938	824	0	32577	32715	32670	32647	32846	32763	32635	32607	
1783	0	154	1228	29	1906	825	0	32724	32775	32751	32359	32757	32756	32611	33531	
1784	0	144	1262	29	1908	826	0	32877	32849	32687	32471	32890	32767	32853	33815	
1785	0	144	1273	28	1913	827	0	32923	32903	32703	32466	32791	32699	32615	33309	
1786	0	121	1221	29	1951	828	0	32874	32787	32801	32229	32543	32543	32630	33179	
1787	0	145	1206	29	1958	829	0	32809	32793	32789	32231	32635	32477	32787	32963	
1788	0	148	1291	29	1956	830	0	32751	32759	32967	32157	32807	32531	32791	33089	
1789	0	127	1238	29	1944	831	0	32522	32661	32767	32470	32635	32903	32679	33245	
1790	0	126	1254	30	1918	832	0	32571	32527	32604	32711	32673	32967	32603	33335	
1791	0	96	1243	29	1916	833	0	32724	32867	32658	32955	32377	32814	32283	33659	
1792	0	125	1254	27	1911	834	0	32718	32839	32635	33340	32529	32799	32287	34007	
1793	0	143	1217	29	1944	835	0	32654	32861	32676	33654	32471	32862	32185	33655	
1794	0	118	1241	28	1907	836	0	32612	32551	32532	33543	32525	32862	32039	33102	
1795	0	114	1238	29	1903	837	0	32677	32583	32559	33519	32555	32751	32191	32910	
1796	0	99	1204	28	1927	838	0	32805	32647	32623	33266	32724	32663	32519	32911	
1797	0	107	1237	29	1894	839	0	32891	32959	32723	33287	32722	32667	32359	32799	
1798	0	135	1218	28	1916	840	0	32835	32829	32773	33069	32963	32679	32544	32611	
1799	0	78	1210	29	1903	841	0	32895	32791	32734	32919	32980	32853	32655	32647	
1800	0	120	1263	30	1924	842	0	32881	32807	32743	32767	32739	32879	32053	32327	
1801	0	117	1242	29	1945	843	0	32738	32595	32593	32521	32893	32982	31583	31495	
1802	0	109	1187	29	1916	844	0	32775	32756	32623	32434	32774	32950	31662	31887	
1803	0	122	1251	29	1921	845	0	32761	32929	32643	32557	32630	32733	32100	32103	
1804	0	146	1244	29	1926	846	0	32762	32843	32899	32577	32406	32509	32879	32135	
1805	0	119	1220	30	1951	847	0	32617	32675	32614	32339	32769	32615	33593	32183	
1806	0	81	1232	29	1954	848	0	32556	32379	32626	32374	32923	32829	33719	32333	
1807	0	115	1260	29	1923	849	0	32623	32567	32491	32311	32741	33143	33463	32183	
1808	0	114	1286	29	1924	850	0	32637	32754	32642	32296	32591	33108	33062	31821	
1809	0	65	1236	29	1935	851	0	32690	32719	32630	32275	32565	32775	32514	31926	
1810	0	98	1291	29	1906	852	0	32893	32753	32711	32293	32685	32827	32454	32764	
1811	0	121	1270	29	1937	853	0	33094	32895	32759	32487	32609	32711	32658	33359	
1812	0	129	1246	29	1950	854	0	33036	32695	32775	32325	32845	32711	32503	33383	
1813	0	116	1237	28	1914	855	0	32916	32743	32775	32505	32854	32263	31725	33063	
1814	0	117	1254	29	1912	856	0	32805	32692	32789	32439	33069	31934	31235	32693	
1815	0	113	1213	28	1949	857	0	32751	32826	32818	32450	32895	32231	30982	32687	
1816	0	133	1220	30	1940	858	0	32759	32775	32733	32429	32677	32631	31308	33223	
1817	0	127	1241	28	1917	859	0	32711	32578	32701	32375	32647	33124	32723	33245	
1818	0	118	1212	30	1974	860	0	32540	32623	32635	32135	32722	33334	34254	33223	
1819	0	132	1217	30	1913	861	0	32680	32734	32694	32473	32733	33221	35194	33494	
1820	0	132	1297	29	1948	862	0	32854	32759	32811	32647	32636	32991	35335	33475	
1821	0	114	1235	30	1929	863	0	32822	32553	32847	32431	32447	32987	34649	33071	
1822	0	109	1254	29	1901	864	0	32709	32735	32733	32468	32615	32879	34047	32968	
1823	0	120	1222	29	1898	865	0	32730	32911	32869	32623	32717	32609	33729	32775	
1824	0	167	1254	28	1959	866	0	32687	32721	32823	32516	32663	32437	33027	32639	
1825	0	97	1221	29	1893	867	0	32694	32691	32598	32738	32759	32383	32562	32448	
1826	0	116	1207	30	1935	868	0	32951	32818	32599	32707	32713	32175	32609	32281	
1827	0	173	1247	28	1892	869	0	33117	32775	32854	32951	32775	31711	32764	32612	
1828	0	88	1221	29	1934	870	0	33193	32971	32887	32891	32743	31547	33479	32575	
1829	0	134	1285	29	1936	871	0	33148	32980	32724	32725	32695	32349	33721	32575	
1830	0	114	1256	30	1931	872	0	32501	32500	32559	32211	32302	33466	33475	32521	
1831	0	100	1292	28	1903	873	0	32324	32487	32412	32221	32478	33651	33415	32295	
1832	0	135	1236	29	1940	874	0	32591	32757	32515	32869	32631	33397	33915	32005	
1833	0	101	1234	30	1892	875	0	32688	32683	32567	33047	32737	33223	33463	31815	
1834	0	156	1266	30	1968	876	0	32936	32795	32773	32999	32751	33377	33147	31927	
1835	0	111	1235	28	1945	877	0	32837	32903	32772	32647	32799	33375	32311	32035	
1836	0	93	1227	29	1939	878	0	32629	32751	32831	32647	32479	33563	31695	32019	
1837	0	169	1210	29	1906	879	0	32647	32711	32879	32863	32729	33381	31310	32041	
1838	0	129	1222	29	1919	880	0	32833	32937	33095	33041	32942	32916	31323	32254	
1839	0	105	1250	31	1925	881	0	32823	32739	33103	32767	33193	32918	32162	32645	
1840	0	106	1251	29	1923	882	0	32692	32719	33055	32625	32973	33367	32711	34343	
1841	0	89	1211	28	1925	883	0	32647	32668	32879	32333	32874	33279	33007	35335	
1842	0	115	1253	30	1923	884	0	32676	32658	32987	32574	32725	32903	33383	35479	
1843	0	113	1218	29	1944	885	0	32851	32756	33023	32593	32354	32554	33171	35177	
1844	0	144	1221	28	1950	886	0	32896	32634	32967	32931	32351	32429	32733	34487	
1845	0	128	1249	28	1935	887	0	32936	32850	32815	32925	32497	32109	32295	33967	
1846	0	133	1242	28	1910	888	0	32789	32922	32615	32933	32583	32365	32276	33515	
1847	0	163	1250	28	1917	889	0	32703	32783	32677	32829	32932	32467	31893	32997	
1848	0	103	1265	29	1936	890	0	32705	32693	32575	32993	32775	32543	31793	32535	
1849	0	95	1257	28	1934	891	0	32759	32786	32599	32919	32626	32223	31141	32413	
1850	0	95	1224	28	1930	892	0	32722	32635	32527	32743	32567	32505	29119	32009	
1851	0	119	1261	28	1918	893	0	32768	32601	32631	32470	32822	32657	27021	31759	
1852	0	134	1228	30	1909	894	0	32808	32681	32605	32579	32677	32514	27527	31858	
1853	0	178	1198	29	1952	895	0	32783	32783	32579	32425	32633	32679	28050	32039	
1854	0	116	1214	28	1912	896	0	32786	32826	32681	32403	32339	32954	28655	32071	
1855	0	137	1220	29	1970	897	0	32809	32801	32819	32487	32406	32839	28033	32085	
1856	0	92	1212	29	1954	898	0	32946	32613	32958	32351	32258	32743	27291	32467	
1857	0	137	1254	29	1954	899	0	32866	32698	32804	32225	32487	32364	27753	32181	
1858	0	102	1227	28	1909	900	0	32740	32887	32612	32173	32615	32575	28627	32031	
1859	0	69	1210	29	1898	901	0	32783	32873	32581	32425	32662	32495	29687	32221	
1860	0	144	1209	30	1915	902	0	32825	32647	32707	32465	32735	32549	30839	32351	
1861	0	102	1253	27	1924	903	0	32836	32966	32659	32527	32543	32623	31733	32436	
1862	0	97	1260	28	1933	904	0	32817	32996	32853	32719	32721	32583	32509	32483	
1863	0	144	1261	29	1916	905	0	32806	32991	32877	33010	32565	32701	33203	32413	
1864	0	138	1229	30	1912	906	0	32834	32855	33045	33203	32714	32675	33457	32380	
1865	0	133	1227	28	1905	907	0	32858	32775	33083	33425	32548	32693	33668	32391	
1866	0	124	1237	29	1949	908	0	32796	32627	32966	33351	32539	32830	33215	32479	
1867	0	118	1229	30	1916	909	0	32694	32695	33082	33478	32359	32895	33587	32446	
1868	0	156	1264	29	1938	910	0	32655	32855	33007	33497	32402	33047	34433	32402	
1869	0	117	1236	30	1932	911	0	32562	32733	32903	33156	32546	33043	35148	32263	
1870	0	137	1221	28	1968	912	0	32647	32711	32822	33151	32740	32914	35525	32447	
1871	0	152	1194	28	1926	913	0	32827	32703	33025	33242	32621	32631	36228	32719	
1872	0	141	1274	29	1931	914	0	32913	32646	33027	33177	32713	32466	36575	32885	
1873	0	98	1259	30	1940	915	0	32739	32644	32959	32823	32707	32702	36638	32703	
1874	0	90	1248	29	1934	916	0	32580	32723	32819	32679	32615	32775	36627	32551	
1875	0	139	1244	28	1973	917	0	32512	32731	32674	32579	32643	32950	36983	32367	
1876	0	147	1277	29	1920	918	0	32611	32633	32703	32463	32543	32871	37535	32390	
1877	0	177	1254	29	1903	919	0	32784	32609	32933	32229	32406	32839	37037	32739	
1878	0	134	1245	28	1876	920	0	32929	32855	32939	32461	32455	32731	37171	33137	
1879	0	137	1238	29	1925	921	0	32829	32877	32844	32470	32753	32703	36813	32538	
1880	0	111	1260	29	1932	922	0	32726	32733	32807	32483	32541	32895	35346	32335	
1881	0	132	1223	29	1894	923	0	32795	32743	32695	32343	32631	32659	34283	32698	
1882	0	118	1245	29	1933	924	0	32756	32666	32682	32293	32583	32815	33671	32340	
1883	0	122	1261	28	1937	925	0	32764	32660	32637	32373	32823	32847	34262	32254	
1884	0	122	1242	29	1937	926	0	32782	32583	32715	32430	32722	32722	33845	32741	
1885	0	113	1213	29	1920	927	0	32742	32669	32903	32589	32935	32518	32876	33087	
1886	0	128	1228	28	1895	928	0	32878	32877	32870	32575	32868	32466	31309	33523	
1887	0	130	1220	29	1973	929	0	32895	32852	32962	32603	32995	32607	29975	33991	
1888	0	104	1216	28	1869	930	0	32684	32771	32917	32582	33018	32871	29680	33919	
1889	0	124	1206	29	1924	931	0	32601	32502	32903	32455	32749	33213	29207	33827	
1890	0	93	1224	27	1958	932	0	32839	32643	32645	32546	32453	32939	30445	33423	
1891	0	124	1266	29	1961	933	0	32966	32975	32717	32795	32383	32759	31853	33159	
1892	0	106	1209	29	1953	934	0	32787	32826	32711	32880	32474	32389	32133	33183	
1893	0	103	1225	30	1942	935	0	32699	32835	32727	32831	32229	32582	31413	32976	
1894	0	117	1237	28	1921	936	0	32681	32639	32511	32674	31973	33055	30895	32663	
1895	0	110	1239	29	1940	937	0	32730	32799	32525	32827	31900	33095	30535	31777	
1896	0	165	1253	29	1914	938	0	32840	33043	32645	32871	32059	32959	29814	31721	
1897	0	120	1244	28	1913	939	0	32971	33015	32723	32839	32135	32837	31899	31264	
1898	0	134	1260	29	1941	940	0	32976	32919	32769	32655	32491	32967	32979	30695	
1899	0	155	1245	29	1955	941	0	33006	32935	32739	32801	32527	33159	32846	30391	
1900	0	101	1246	29	1959	942	0	32870	32710	32644	32586	32726	33147	23790	30416	
1901	0	75	1262	28	1895	943	0	32656	32748	32541	32687	32776	33044	15232	30537	
1902	0	131	1266	28	1918	944	0	32641	32926	32544	32634	33171	32678	13408	31006	
1903	0	70	1232	30	1921	945	0	32757	32718	32548	32701	33085	32349	52628	31420	
1904	0	127	1231	30	1954	946	0	32833	32766	32666	32803	32962	32740	65532	31991	
1905	0	134	1228	29	1947	947	0	32812	32764	32793	32868	33319	32375	65532	33539	
1906	0	112	1234	29	1915	948	0	32686	32660	32735	32674	33300	32166	60999	34520	
1907	0	87	1231	29	1941	949	0	32468	32653	32941	32466	32990	32363	57223	35247	
1908	0	94	1274	29	1974	950	0	32550	32614	32810	32757	32942	32711	54141	36101	
1909	0	127	1245	29	1956	951	0	32644	32583	32915	32770	32684	33027	51463	37210	
1910	0	117	1269	30	1936	952	0	32772	32879	32839	32738	32459	32901	48692	36963	
1911	0	141	1246	29	1928	953	0	32876	32943	32900	32894	32657	32807	44405	36051	
1912	0	134	1236	29	1970	954	0	32821	32773	32743	32805	32789	32775	45043	34474	
1913	0	90	1282	28	1919	955	0	32748	32747	32655	32813	32647	33159	33503	32954	
1914	0	152	1192	30	1933	956	0	32856	32621	32723	32788	32468	33234	34335	32697	
1915	0	80	1209	28	1952	957	0	32847	32850	32975	32761	32491	33040	34107	32647	
1916	0	81	1226	28	1934	958	0	32720	32806	32782	32713	32626	32807	38870	32725	
1917	0	90	1233	28	1898	959	0	32612	32660	32775	32851	32436	32956	34170	31799	
1918	0	111	1257	30	1922	960	0	32555	32410	32711	32954	32775	32972	33491	31247	
1919	0	124	1213	28	1931	961	0	32657	32454	32866	32975	32684	32867	34207	31383	
1920	0	122	1259	29	1923	962	0	32979	32710	32874	32811	32961	32783	27941	31434	
1921	0	100	1193	30	1945	963	0	32894	32962	32940	33048	32970	32480	25669	31409	
1922	0	85	1290	29	1944	964	0	32690	32781	32934	32855	32863	32316	18878	31393	
1923	0	147	1303	29	1921	965	0	32622	32678	32801	32723	32773	32732	23730	31842	
1924	0	125	1258	28	1926	966	0	32610	32613	32885	32775	32671	33412	20423	32214	
1925	0	130	1262	28	1952	967	0	32729	32696	32852	32962	32387	33233	19783	32558	
1926	0	96	1244	29	1915	968	0	32887	32657	32759	32882	32759	33083	18193	32699	
1927	0	97	1179	29	1933	969	0	32864	32621	32859	32516	32631	32964	17370	32613	
1928	0	112	1245	29	1920	970	0	32770	32605	32813	32601	32699	32839	19076	32644	
1929	0	122	1244	29	1935	971	0	32916	32866	32826	32738	32679	32775	17620	32382	
1930	0	85	1240	29	1902	972	0	32832	32919	32730	32892	32831	32515	22822	32859	
1931	0	133	1247	28	1932	973	0	32718	32748	32687	32830	32564	32481	27487	32969	
1932	0	107	1296	29	1932	974	0	32692	32741	32521	32756	32749	32521	32463	33057	
1933	0	126	1241	29	1924	975	0	32758	32811	32581	32791	32711	32406	31223	33213	
1934	0	70	1250	28	1957	976	0	32742	32839	32647	33089	32820	32340	31412	33194	
1935	0	130	1238	27	1942	977	0	32701	32607	32605	32855	32663	32838	34695	33063	
1936	0	70	1218	28	1923	978	0	32856	32715	32848	32824	32657	33038	40217	33327	
1937	0	77	1272	29	1953	979	0	32877	32857	32711	32937	32594	32940	38490	33367	
1938	0	127	1223	28	1940	980	0	32836	32951	32799	32727	32765	32572	39303	33173	
1939	0	97	1242	28	1930	981	0	32785	32887	32660	32645	32470	32719	38735	33072	
1940	0	104	1256	29	1941	982	0	32716	32775	32518	32495	32553	32804	32743	32851	
1941	0	80	1242	27	1913	983	0	32676	32587	32629	32540	32482	32844	30567	32581	
1942	0	112	1227	28	1936	984	0	32620	32551	32601	32534	32420	32759	23209	32328	
1943	0	142	1231	29	1895	985	0	32615	32549	32748	32312	32278	32774	30047	32334	
1944	0	116	1245	29	1924	986	0	32655	32713	32731	32489	32610	32694	27227	32357	
1945	0	101	1225	30	1951	987	0	32741	32884	32847	32421	32703	32703	26599	32522	
1946	0	145	1265	29	1944	988	0	32804	32924	32761	32463	32735	32729	22135	32672	
1947	0	116	1252	29	1888	989	0	32708	32767	32866	32583	32578	32738	22579	32367	
1948	0	125	1228	29	1935	990	0	32671	32783	32727	32948	32302	32760	22729	32827	
1949	0	102	1256	28	1960	991	0	32712	32719	32891	33171	32535	32547	22495	32711	
1950	0	125	1264	29	1904	992	0	32840	32711	32965	33159	32602	32375	25707	32407	
1951	0	125	1255	28	1900	993	0	32804	32825	32718	33308	32946	32590	30428	32311	
1952	0	101	1205	29	1938	994	0	32785	32823	32676	33285	32745	32553	37206	32422	
1953	0	107	1266	29	1934	995	0	32782	32870	32699	33116	32791	32730	35815	32545	
1954	0	137	1271	30	2020	996	0	32715	32871	32674	33079	32577	32949	34625	32471	
1955	0	105	1295	29	1932	997	0	32524	32692	32703	32688	32486	33380	40108	32447	
1956	0	99	1278	29	1924	998	0	32511	32847	32699	32716	32446	33331	44375	32545	
1957	0	137	1251	29	1941	999	0	32728	32861	32775	33005	32717	33063	44824	32566	
1958	0	140	1249	28	1922	1000	0	32766	32703	32833	32919	32671	32838	45062	32797	
1959	0	116	1262	28	1976	1001	0	32700	32711	32835	32810	32868	32847	40684	32835	
1960	0	132	1280	30	1954	1002	0	32759	32854	32643	32647	32639	32858	37561	32775	
1961	0	120	1240	29	1946	1003	0	32824	32769	32752	32679	32685	32714	26670	32655	
1962	0	137	1231	29	1953	1004	0	32884	32818	32760	32561	32313	32647	17607	32876	
1963	0	115	1207	28	1934	1005	0	32911	32860	32912	32617	32573	32599	23207	32788	
1964	0	97	1236	29	1922	1006	0	32846	32749	32767	32607	32525	32599	25764	32807	
1965	0	121	1248	29	1899	1007	0	32689	32669	32746	32523	32578	32713	21209	32691	
1966	0	121	1231	28	1945	1008	0	32677	32451	32582	32647	32519	32887	20999	32700	
1967	0	159	1216	29	1918	1009	0	32775	32615	32621	32727	32775	32769	24950	32543	
1968	0	108	1254	29	1945	1010	0	32826	32895	32736	32723	32683	32647	21621	32531	
1969	0	133	1207	30	1924	1011	0	32753	32813	32757	32879	32797	32646	24857	32589	
1970	0	152	1216	28	1931	1012	0	32769	32821	32690	32909	32733	32549	26266	32553	
1971	0	156	1257	28	1928	1013	0	32850	32871	32685	32998	32788	32703	30453	32458	
1972	0	121	1316	29	1942	1014	0	32727	32729	32896	32810	32718	32852	37921	32512	
1973	0	83	1257	28	1931	1015	0	32683	32713	32710	32751	32703	33023	34242	32376	
1974	0	119	1260	29	1927	1016	0	32617	32511	32533	32583	32599	32945	38219	32493	
1975	0	130	1289	30	1938	1017	0	32833	32629	32747	32609	32894	32871	42277	32591	
1976	0	142	1231	28	1948	1018	0	32850	32847	32753	32501	32911	32703	44327	32543	
1977	0	112	1226	28	1967	1019	0	32839	32742	32869	32596	32879	32849	40785	32612	
1978	0	102	1246	28	1932	1020	0	32774	32762	32805	32596	32775	32696	44871	32819	
1979	0	123	1269	29	1955	1021	0	32701	32761	32723	32453	32711	32711	40703	32820	
1980	0	69	1256	30	1931	1022	0	32710	32591	32726	32621	32667	32710	41431	32903	
1981	0	158	1237	30	1942	1023	0	32718	32563	32699	32560	32647	32647	31181	32757	
1982	0	124	1188	29	1974	1024	0	32759	32626	32758	32588	32801	32696	29772	32762	
1983	0	123	1252	29	1948	1025	0	32825	32715	32801	32475	32926	32533	31840	32983	
1984	0	132	1268	29	1928	1026	0	32957	32884	32703	32679	32912	32541	29740	32885	
1985	0	87	1240	28	1949	1027	0	32811	32838	32709	32735	32677	32532	26788	32965	
1986	0	137	1224	29	1938	1028	0	32836	32890	32782	32639	32679	32699	23343	33037	
1987	0	111	1263	30	1937	1029	0	32719	32647	32605	32591	32423	32818	24303	33010	
1988	0	98	1263	30	1956	1030	0	32599	32537	32485	32527	32690	33047	22809	32792	
1989	0	165	1229	29	1912	1031	0	32605	32630	32623	32428	32542	33055	25751	32807	
1990	0	126	1206	29	1961	1032	0	32666	32863	32687	32382	32544	32876	26919	32847	
1991	0	96	1222	29	1929	1033	0	32802	32912	32786	32573	32463	32935	33876	32696	
1992	0	131	1267	28	1901	1034	0	32924	32982	32791	32934	32726	32769	36559	32625	
1993	0	121	1269	29	1954	1035	0	32884	32876	32756	32711	32833	32767	34631	32298	
1994	0	142	1273	28	1924	1036	0	32832	32668	32602	32683	32894	32805	37495	32382	
1995	0	86	1240	29	1925	1037	0	32836	32788	32774	32754	32943	32609	42604	32450	
1996	0	67	1242	29	1962	1038	0	32772	32831	32807	32517	32742	32535	43030	32381	
1997	0	93	1260	29	1928	1039	0	32840	32910	32868	32566	32621	32638	46119	32495	
1998	0	82	1278	29	1937	1040	0	32769	32775	32755	32603	32711	32610	44639	32573	
1999	0	85	1217	30	1946	1041	0	32801	32764	32887	32500	32967	32609	46599	32890	
2000	0	130	1235	29	1956	1042	0	32850	32658	32871	32643	32781	32787	39631	33068	
2001	0	110	1204	28	1874	1043	0	32770	32683	32855	32530	32655	33271	33850	33103	
2002	0	188	1246	28	1950	1044	0	32716	32809	32721	32533	32582	33084	29473	33149	
2003	0	138	1245	30	1940	1045	0	32679	32863	32812	32383	32547	32807	31407	33091	
2004	0	120	1280	28	1921	1046	0	32786	32775	32941	32637	32646	32470	31045	33031	
2005	0	122	1249	30	1937	1047	0	32822	32627	32775	32801	32645	32420	26729	32847	
2006	0	145	1232	27	1968	1048	0	32727	32603	32827	32655	32788	32451	23227	32554	
2007	0	124	1212	29	1944	1049	0	32775	32514	32733	32823	32503	32671	23687	32231	
2008	0	73	1229	28	1946	1050	0	32818	32635	32809	32883	32671	32947	24764	32319	
2009	0	102	1236	28	1952	1051	0	32772	32868	32775	32775	32753	32946	21860	32239	
2010	0	107	1249	30	1961	1052	0	32815	32914	32890	32817	32734	32847	25991	32525	
2011	0	105	1218	29	1902	1053	0	32876	32841	32664	32741	32747	33040	29933	33111	
2012	0	138	1247	30	1902	1054	0	32726	32775	32757	32742	32486	32993	36121	33431	
2013	0	133	1283	29	1967	1055	0	32580	32654	32721	32554	32427	32893	31145	33059	
2014	0	78	1231	28	1931	1056	0	32551	32463	32565	32767	32358	32850	35335	32958	
2015	0	101	1251	28	1943	1057	0	32636	32631	32557	32796	32556	32839	38617	32985	
2016	0	147	1216	29	1933	1058	0	32690	32800	32629	33038	32423	32695	42413	32839	
2017	0	164	1215	29	1942	1059	0	32741	32877	32916	33149	32742	32645	41790	32935	
2018	0	130	1221	29	1924	1060	0	32824	32998	33042	33095	32700	32474	42711	32734	
2019	0	123	1212	29	1971	1061	0	32950	32943	32903	33196	32857	32551	41681	32711	
2020	0	111	1251	28	1907	1062	0	32800	32773	32951	33027	32580	32589	39381	32613	
2021	0	100	1209	29	1907	1063	0	32751	32693	32888	33086	32569	32775	34359	32595	
2022	0	99	1255	29	1905	1064	0	32756	32796	32799	32881	32412	32841	30963	32430	
2023	0	126	1284	29	1921	1065	0	32689	32623	32647	32939	32592	32967	32412	32108	
2024	0	133	1273	28	1913	1066	0	32745	32814	32699	32918	32692	32964	30522	31775	
2025	0	127	1238	28	1924	1067	0	32861	32887	32622	32860	32757	32783	28779	31783	
2026	0	125	1295	29	1876	1068	0	32813	32791	32663	32791	32799	32785	24663	32447	
2027	0	146	1249	28	1922	1069	0	32790	32685	32763	32769	32736	32753	26402	32903	
2028	0	105	1214	29	1933	1070	0	32754	32647	32733	32703	32631	32865	25399	32903	
2029	0	76	1271	29	1973	1071	0	32786	32495	32859	32605	32769	32603	24163	32575	
2030	0	125	1271	28	1923	1072	0	32816	32516	32839	32699	32844	32541	21043	32508	
2031	0	106	1275	28	1923	1073	0	32738	32678	32868	32601	32609	32865	25701	32605	
2032	0	138	1212	29	1862	1074	0	32728	32889	32943	32687	32869	32743	32655	32914	
2033	0	91	1233	30	1894	1075	0	32708	32836	32884	32684	32599	32878	34071	32725	
2034	0	103	1263	30	2006	1076	0	32742	32738	32975	32635	32503	32535	40750	32647	
2035	0	100	1260	30	1927	1077	0	32854	32855	32791	32821	32423	32542	42991	32025	
2036	0	119	1236	30	1924	1078	0	32861	32613	32756	32799	32533	32607	44741	32089	
2037	0	100	1256	30	1912	1079	0	32900	32635	32797	33007	32541	32687	40647	32283	
2038	0	139	1273	28	1929	1080	0	32878	32754	32579	32946	32802	32572	39809	32460	
2039	0	88	1233	28	1912	1081	0	32703	32861	32620	32751	32823	32644	39933	32546	
2040	0	123	1232	28	1922	1082	0	32562	32979	32530	32911	32943	32613	37833	32756	
2041	0	123	1200	28	1922	1083	0	32584	32917	32820	32945	32999	32485	33892	32983	
2042	0	99	1252	28	1925	1084	0	32719	32938	32858	32821	32818	32638	28218	33372	
2043	0	108	1226	28	1949	1085	0	32738	32796	32698	32837	32751	33029	29239	33771	
2044	0	142	1196	28	1972	1086	0	32665	32813	32786	32748	32682	33155	31873	33879	
2045	0	120	1254	28	1929	1087	0	32701	32914	32729	32873	32995	32903	28596	33606	
2046	0	117	1258	29	1958	1088	0	32982	32765	32871	32875	32903	33015	26182	32734	
2047	0	143	1268	29	1964	1089	0	33063	32881	32703	32703	32614	32979	26196	32479	
2048	0	128	1253	28	1961	1090	0	32985	32921	32601	32576	32645	32736	26309	32155	
2049	0	165	1259	30	1936	1091	0	32960	32971	32623	32925	32711	32532	27749	31991	
2050	0	132	1215	29	1924	1092	0	32847	32997	32611	32839	32588	32252	29807	32372	
2051	0	130	1234	28	1942	1093	0	32854	32999	32666	32736	32342	32391	32268	33033	
2052	0	133	1242	30	1888	1094	0	32978	32686	32685	32647	32473	32439	40023	34001	
2053	0	89	1244	28	1984	1095	0	32855	32602	32647	32799	32117	32951	37415	34211	
2054	0	95	1205	28	1949	1096	0	32737	32807	32716	32679	32047	33143	34391	33283	
2055	0	144	1284	29	1937	1097	0	32784	32860	32885	32659	32239	32913	35311	32399	
2056	0	116	1231	29	1943	1098	0	32818	32771	32857	32598	32699	32931	40150	32103	
2057	0	106	1250	27	1959	1099	0	32800	32557	33181	32487	32859	32964	40639	31831	
2058	0	126	1218	28	1949	1100	0	32883	32481	33102	32610	33220	32903	41415	32463	
2059	0	98	1224	29	1937	1101	0	32890	32559	32999	32647	33255	32743	40837	33058	
2060	0	100	1259	29	1969	1102	0	32882	32559	32912	32726	33210	32717	37239	33299	
2061	0	167	1252	30	1934	1103	0	32769	32530	33012	32604	32956	32875	34421	32915	
2062	0	123	1245	29	1906	1104	0	32738	32543	32900	32687	32863	33026	29653	32820	
2063	0	118	1268	31	1934	1105	0	32664	32503	32939	32595	32728	33051	33095	33407	
2064	0	142	1272	28	1926	1106	0	32663	32449	33063	32619	32807	32979	31549	33791	
2065	0	88	1247	29	1933	1107	0	32558	32484	33039	32804	32556	32757	26525	33350	
2066	0	133	1304	27	1935	1108	0	32684	32573	33201	32743	32311	32638	25516	33183	
2067	0	111	1288	29	1918	1109	0	32798	32632	33101	32707	32189	32783	25043	33121	
2068	0	129	1264	28	1956	1110	0	32707	32383	32967	32590	32407	32761	24247	32982	
2069	0	150	1232	29	1958	1111	0	32531	32335	32817	32405	32447	32926	22406	32471	
2070	0	172	1237	28	1930	1112	0	32578	32343	32836	32519	32724	32859	28306	32367	
2071	0	161	1280	30	1936	1113	0	32677	32559	33027	32681	32669	32715	30295	32758	
2072	0	127	1238	29	1958	1114	0	32538	32690	32842	32727	32772	32742	37239	33447	
2073	0	91	1238	30	1926	1115	0	32500	32644	32823	32811	32640	32742	34709	33090	
2074	0	81	1247	29	1970	1116	0	32527	32725	32685	32767	32647	33081	32726	32555	
2075	0	131	1256	30	1936	1117	0	32453	32756	32613	33076	32503	33447	35197	32166	
2076	0	132	1252	30	1906	1118	0	32391	32733	32434	33143	32583	33423	37660	32470	
2077	0	107	1222	29	1959	1119	0	32408	32823	32404	32961	32642	33109	40883	32044	
2078	0	108	1243	29	1924	1120	0	32492	32804	32255	33009	33045	32497	38940	31812	
2079	0	108	1232	29	1944	1121	0	32545	32959	32298	33053	33364	31711	42385	31055	
2080	0	100	1225	29	1956	1122	0	32646	32901	32287	33090	33159	31687	37831	30066	
2081	0	134	1258	29	1916	1123	0	32800	33086	32388	33396	32775	31165	32289	31188	
2082	0	99	1239	28	1962	1124	0	32670	33095	32391	33516	32189	31732	26663	32951	
2083	0	150	1259	30	1938	1125	0	32419	32989	32159	32871	31796	32711	28939	33412	
2084	0	103	1241	29	1927	1126	0	32401	32847	32383	32599	31775	32923	28676	33300	
2085	0	124	1253	28	1987	1127	0	32729	32911	32445	32647	32355	32871	25558	33480	
2086	0	75	1261	29	1928	1128	0	32896	32933	32469	32754	32532	33287	22797	32559	
2087	0	131	1232	29	1919	1129	0	32742	32834	32551	32769	32686	33239	18484	32142	
2088	0	120	1220	29	1956	1130	0	32631	32862	32556	32879	32807	33044	18770	32983	
2089	0	81	1226	29	1944	1131	0	32524	32740	32683	32961	32943	33104	19079	34002	
2090	0	120	1200	28	1940	1132	0	32590	32661	32660	32912	33159	33086	22089	34780	
2091	0	129	1229	28	1960	1133	0	32700	32575	32579	32711	32964	33055	27337	33972	
2092	0	103	1206	30	1964	1134	0	32777	32626	32755	32663	32959	33052	30318	33132	
2093	0	118	1242	30	1955	1135	0	32892	32834	32822	32693	33165	33018	30876	32932	
2094	0	100	1295	28	1939	1136	0	33045	32987	33055	32678	33187	33209	33587	33108	
2095	0	112	1237	30	1910	1137	0	33084	33032	32942	32775	33017	33100	38253	33021	
2096	0	120	1274	28	1941	1138	0	33097	32987	33004	32599	33173	33020	40791	32871	
2097	0	132	1243	30	1940	1139	0	33075	32983	32935	32735	33237	32794	39711	32831	
2098	0	149	1257	29	1956	1140	0	33125	32934	32934	32764	33047	32588	38386	32422	
2099	0	148	1248	28	1924	1141	0	33062	32731	32903	32667	32643	32583	38327	32652	
2100	0	71	1241	28	1942	1142	0	33081	32759	32937	32631	32734	32632	35480	32707	
2101	0	163	1221	28	1912	1143	0	33069	32797	32959	32699	32674	32706	31471	32381	
2102	0	113	1255	29	1875	1144	0	32978	32858	33005	32664	32701	32722	29428	32381	
2103	0	114	1253	29	1940	1145	0	32849	32900	32959	32549	32527	32718	32884	32085	
2104	0	114	1205	29	1948	1146	0	32859	32858	32962	32591	32710	32560	34005	32215	
2105	0	110	1226	29	1921	1147	0	32944	32956	32887	32503	32543	32527	32327	32229	
2106	0	102	1248	28	1909	1148	0	32972	32927	32799	32551	32695	32762	29940	32553	
2107	0	90	1270	28	1920	1149	0	32865	32827	32687	32383	32551	33135	28759	32198	
2108	0	124	1245	29	1892	1150	0	32786	32519	32681	32457	32639	33255	30041	31938	
2109	0	110	1222	28	1944	1151	0	32934	32621	32858	32391	32319	33095	27655	31967	
2110	0	135	1282	29	1920	1152	0	32960	32832	32839	32582	32421	33018	28242	31747	
2111	0	149	1220	29	1936	1153	0	32854	32942	32861	32743	32402	32989	30304	32252	
2112	0	101	1224	29	1938	1154	0	32728	32815	32849	32801	32749	32703	34774	32479	
2113	0	95	1211	30	1898	1155	0	32582	32721	32753	32509	32519	32501	33365	32935	
2114	0	120	1222	27	1959	1156	0	32480	32471	32647	32525	32543	32757	36135	33571	
2115	0	117	1237	29	1932	1157	0	32692	32571	32511	32561	32734	32757	40378	33932	
2116	0	105	1241	28	1935	1158	0	32677	32711	32687	32537	32527	32763	42375	33238	
2117	0	112	1262	30	1907	1159	0	32799	32807	32703	32749	32615	32876	41951	32996	
2118	0	123	1230	30	1936	1160	0	32829	32901	32813	32767	32655	32446	42749	32991	
2119	0	108	1260	29	1919	1161	0	32761	32837	32793	32767	32612	32725	42119	32981	
2120	0	105	1230	28	1956	1162	0	32732	32719	32762	32701	32500	32629	37991	32847	
2121	0	132	1266	29	1953	1163	0	32740	32505	32773	32745	32775	32469	31786	32549	
2122	0	136	1251	29	1949	1164	0	32708	32635	32729	33001	32812	32375	32363	32375	
2123	0	136	1260	30	1945	1165	0	32772	32903	32703	32931	33057	32113	29914	32538	
2124	0	113	1266	28	1945	1166	0	32805	32834	32685	32978	32937	32359	29959	32399	
2125	0	92	1273	30	1900	1167	0	32738	32817	32772	32901	32495	32453	30567	32539	
2126	0	103	1243	29	1930	1168	0	32784	32870	32655	32829	32509	32391	25346	32511	
2127	0	128	1243	29	1936	1169	0	32700	32709	32585	32787	32687	32499	27181	32687	
2128	0	125	1271	29	1964	1170	0	32676	32794	32615	32791	32691	32645	25733	32751	
2129	0	133	1229	28	1912	1171	0	32807	32788	32687	32911	32811	32633	28387	32487	
2130	0	151	1194	29	1947	1172	0	32741	32714	32743	32831	32969	32567	34615	32293	
2131	0	113	1247	31	1943	1173	0	32809	32775	32823	32864	32916	32208	31578	32576	
2132	0	109	1205	29	1926	1174	0	32811	32617	32791	32866	32797	32106	31911	32949	
2133	0	113	1239	29	1925	1175	0	32805	32654	32799	32743	32736	32335	35860	32823	
2134	0	115	1242	28	1949	1176	0	32903	32731	32843	32843	32759	32551	35671	32708	
2135	0	122	1231	27	1906	1177	0	32876	32775	32823	32875	32535	33031	39267	32708	
2136	0	95	1220	29	1938	1178	0	32781	32735	32743	32960	32205	33494	34271	32686	
2137	0	86	1262	30	1917	1179	0	32717	32587	32767	32816	32164	33815	37183	32384	
2138	0	62	1247	31	1959	1180	0	32600	32513	32775	33047	32263	33509	39843	32159	
2139	0	93	1265	28	1930	1181	0	32607	32469	32832	32895	32576	33338	39135	32128	
2140	0	112	1206	29	1955	1182	0	32694	32599	32884	32985	32791	32873	39419	32231	
2141	0	116	1205	29	1950	1183	0	32794	32721	32991	32874	33279	32695	34874	32314	
2142	0	126	1237	29	1904	1184	0	32768	32837	32759	32895	33259	32520	30356	32388	
2143	0	136	1242	28	1944	1185	0	32771	32759	32709	32869	33504	32263	34128	32813	
2144	0	124	1265	30	1944	1186	0	32609	32703	32790	32682	32998	32221	30143	32998	
2145	0	150	1271	30	1890	1187	0	32580	32695	32871	32711	32455	32493	26649	33311	
2146	0	111	1243	29	1985	1188	0	32726	32595	32759	32775	32066	32748	24774	34102	
2147	0	99	1273	29	1932	1189	0	32742	32500	32827	32848	32541	32769	28519	33935	
2148	0	130	1245	29	1966	1190	0	32832	32630	32775	32978	32654	32791	30754	33838	
2149	0	106	1241	29	1956	1191	0	32756	32658	32863	32831	32527	32939	28023	33330	
2150	0	126	1250	30	1951	1192	0	32656	32598	32870	32756	32621	33126	27545	32966	
2151	0	119	1244	30	1945	1193	0	32696	32694	32932	32741	32796	33196	29515	32793	
2152	0	91	1201	28	1933	1194	0	32814	32805	32975	32848	32850	33153	36619	33159	
2153	0	135	1267	30	1933	1195	0	32802	32679	32956	32771	32816	33281	38596	33302	
2154	0	115	1223	28	1942	1196	0	32762	32527	32844	32837	32486	33351	38735	33138	
2155	0	127	1276	27	1951	1197	0	32786	32767	32847	32965	32644	33095	38919	32947	
2156	0	147	1254	29	1931	1198	0	32894	32982	32795	32948	32916	32599	43311	32639	
2157	0	112	1287	28	1948	1199	0	32818	32767	32871	32966	33036	32519	38279	32225	
2158	0	139	1244	28	1929	1200	0	32710	32805	32795	33114	32935	32589	39746	32071	
2159	0	126	1238	28	1942	1201	0	32831	32655	32719	33058	32791	32765	34023	31923	
2160	0	116	1205	30	1924	1202	0	32903	32771	32621	33126	32831	32696	34933	32203	
2161	0	113	1240	29	1947	1203	0	32808	32805	32665	33081	32789	32535	31634	32361	
2162	0	127	1216	29	1929	1204	0	32867	32743	32551	32955	32913	32597	29223	32318	
2163	0	119	1236	29	1974	1205	0	32836	32773	32462	32997	32939	32685	28795	32093	
2164	0	111	1237	27	1934	1206	0	32743	32735	32542	33069	33018	32811	28741	31845	
2165	0	76	1233	30	1928	1207	0	32765	32551	32629	32932	32887	32710	27511	32159	
2166	0	108	1252	27	1938	1208	0	32796	32654	32765	33070	32927	32399	22637	32743	
2167	0	160	1248	30	1967	1209	0	32743	32807	32892	32815	32814	32348	22817	32615	
2168	0	114	1263	30	1900	1210	0	32665	32692	32791	32640	32775	32371	24011	32854	
2169	0	126	1217	29	1941	1211	0	32472	32562	32927	32545	32422	32613	25154	32775	
2170	0	128	1291	29	1935	1212	0	32639	32751	32967	32813	32426	32585	29231	32667	
2171	0	131	1259	29	1928	1213	0	32796	32600	33048	33159	32480	32764	35071	32854	
2172	0	140	1240	29	1954	1214	0	32893	32811	32911	32823	32278	33024	38832	32878	
2173	0	132	1236	29	1944	1215	0	32924	32825	32806	32643	32799	33124	40100	33061	
2174	0	132	1203	29	1976	1216	0	32893	32877	32887	32876	33257	32966	37527	32901	
2175	0	101	1264	28	1904	1217	0	32757	32639	32833	32955	33107	32948	43399	32798	
2176	0	128	1266	29	1923	1218	0	32511	32849	32839	33057	33110	32919	43911	32799	
2177	0	126	1266	27	1970	1219	0	32464	32813	32749	32965	32871	32645	43671	32843	
2178	0	123	1244	28	1961	1220	0	32474	32731	32836	32993	32903	32540	41751	33010	
2179	0	125	1232	29	1921	1221	0	32705	32796	32761	32884	32918	32567	40279	33004	
2180	0	117	1270	28	1897	1222	0	32836	32583	32836	32751	32846	32676	37319	33158	
2181	0	136	1262	29	1976	1223	0	32892	32608	32813	32807	32729	32932	32065	32999	
2182	0	103	1242	30	1952	1224	0	32895	32607	32786	32903	32810	33032	27314	32773	
2183	0	124	1242	30	1950	1225	0	32895	32799	32647	32967	32766	33001	27405	32546	
2184	0	119	1233	28	1898	1226	0	32850	32727	32617	33148	32803	32831	31255	32571	
2185	0	113	1220	29	1967	1227	0	32740	32743	32609	33184	32698	32731	26869	32615	
2186	0	169	1237	29	1926	1228	0	32619	32702	32681	33232	32769	32519	20878	32543	
2187	0	148	1245	29	1889	1229	0	32552	32763	32639	33285	32891	32455	21479	32487	
2188	0	85	1264	31	1930	1230	0	32607	32555	32642	33145	32743	32225	20284	32684	
2189	0	145	1291	29	1899	1231	0	32754	32687	32479	33283	32751	31970	19550	32673	
2190	0	172	1231	28	1917	1232	0	32783	32979	32647	33327	32967	31688	22946	32675	
2191	0	115	1236	29	1919	1233	0	32879	33028	32547	33511	33050	31584	28238	32770	
2192	0	117	1240	29	1954	1234	0	32966	32889	32590	33400	32981	32135	36403	32655	
2193	0	79	1217	29	1989	1235	0	32975	32799	32532	33238	32932	32639	32085	32683	
2194	0	143	1225	28	1971	1236	0	32916	32599	32540	33046	33129	33068	36210	32724	
2195	0	100	1264	28	1942	1237	0	32742	32530	32495	33007	32940	33307	38638	32645	
2196	0	103	1248	29	1939	1238	0	32751	32547	32673	32476	32775	33577	43767	32743	
2197	0	135	1264	29	1951	1239	0	32838	32567	32959	32388	32535	33431	45423	32655	
2198	0	103	1212	29	1920	1240	0	32753	32799	32977	32681	32759	33309	45023	32731	
2199	0	118	1263	29	1912	1241	0	32614	32813	33061	32543	32723	33012	42257	32580	
2200	0	104	1250	30	1913	1242	0	32562	32670	32924	32805	32752	33045	40949	32749	
2201	0	169	1239	28	1945	1243	0	32569	32637	32841	33090	32628	33359	31847	32446	
2202	0	95	1296	28	1963	1244	0	32624	32806	32615	33602	32870	33622	25678	32436	
2203	0	117	1222	29	1963	1245	0	32671	32785	32748	34045	32893	33536	32604	32631	
2204	0	138	1231	28	1924	1246	0	32733	32958	32759	34103	32892	33449	32229	32927	
2205	0	110	1206	29	1919	1247	0	32852	33116	32883	34271	32959	33371	25971	32687	
2206	0	98	1254	29	1942	1248	0	32753	32959	32836	34083	32987	32962	24642	32739	
2207	0	130	1220	29	1946	1249	0	32742	32827	32775	34082	32975	32677	26159	32935	
2208	0	156	1298	29	1945	1250	0	32653	32526	32715	33923	32990	32521	28226	33015	
2209	0	120	1271	29	1922	1251	0	32796	32605	32686	33735	33005	32492	27879	32887	
2210	0	120	1248	28	1925	1252	0	32708	32748	32735	33373	33022	32586	26631	32743	
2211	0	71	1208	29	1935	1253	0	32690	32793	32615	33255	33110	32575	30215	32786	
2212	0	143	1224	29	1919	1254	0	32703	32735	32444	33013	32730	32609	43877	32809	
2213	0	155	1265	29	1934	1255	0	32782	32824	32478	32955	32625	32543	35492	32868	
2214	0	132	1271	29	1931	1256	0	32826	32879	32577	32783	32635	32383	36175	33011	
2215	0	70	1242	29	1925	1257	0	32820	32711	32566	32833	32671	32263	45294	32846	
2216	0	153	1234	29	1939	1258	0	32686	32839	32732	32699	32583	32258	49461	32455	
2217	0	106	1260	30	1933	1259	0	32629	32898	32730	32654	32407	32123	46807	32620	
2218	0	108	1267	27	1928	1260	0	32605	32755	32817	32511	32151	32135	40361	32660	
2219	0	98	1239	30	1929	1261	0	32632	32527	32799	32505	32418	32481	36330	32628	
2220	0	87	1278	28	1924	1262	0	32578	32717	32871	32575	32467	32558	31268	32701	
2221	0	151	1230	27	1938	1263	0	32642	32850	32846	32521	32784	32740	29625	32668	
2222	0	169	1263	29	1976	1264	0	32714	32784	32871	32470	32769	32713	22853	32756	
2223	0	115	1240	28	1932	1265	0	32724	32791	32821	32389	32790	32628	28846	32883	
2224	0	81	1219	29	1926	1266	0	32696	32657	32724	32313	32533	32860	29204	32647	
2225	0	141	1246	29	1953	1267	0	32811	32738	32713	32183	32471	32895	25427	32879	
2226	0	125	1236	29	1969	1268	0	32906	32933	32852	32279	32603	32925	23446	33011	
2227	0	107	1220	29	1894	1269	0	32877	32837	32925	32355	32498	32959	22450	32852	
2228	0	99	1248	29	1898	1270	0	32878	32775	32946	32321	32500	32937	22260	32780	
2229	0	125	1265	27	1949	1271	0	32887	32703	33099	32391	32463	33159	24103	32727	
2230	0	124	1251	28	1956	1272	0	32983	32855	32999	32271	32847	33295	24103	32799	
2231	0	61	1240	29	1958	1273	0	32940	32765	33047	32324	32775	33197	24564	32757	
2232	0	84	1270	30	1967	1274	0	32896	32758	32846	32424	32585	33075	39674	32655	
2233	0	161	1273	29	1936	1275	0	32676	32621	32576	32372	32634	32994	38885	32552	
2234	0	131	1234	29	1956	1276	0	32736	32823	32386	32421	32674	32999	36703	32561	
2235	0	121	1246	29	1911	1277	0	32711	32899	32386	32404	32706	32953	42899	32610	
2236	0	135	1237	29	1920	1278	0	32564	32828	32325	32359	32752	32943	42200	32613	
2237	0	106	1230	30	1925	1279	0	32519	32759	32540	32506	32679	32887	50799	32501	
2238	0	90	1190	28	1920	1280	0	32623	32692	32638	32286	32518	32796	47719	32629	
2239	0	131	1285	29	1912	1281	0	32901	32633	32894	32375	32284	32554	48087	32739	
2240	0	134	1267	28	1966	1282	0	32992	32839	32978	32341	32253	32598	40943	32823	
2241	0	110	1229	28	1954	1283	0	33195	32996	33106	32446	31949	32633	26964	32738	
2242	0	134	1260	29	1932	1284	0	33320	32908	33130	32332	32030	32357	21565	32458	
2243	0	116	1288	29	1946	1285	0	33126	32885	33172	32178	32214	32293	34457	32722	
2244	0	137	1260	29	1973	1286	0	32924	32615	33148	32221	32283	32370	27879	32637	
2245	0	88	1229	27	1932	1287	0	32780	32645	33159	32133	32430	32457	27975	32735	
2246	0	128	1227	28	1925	1288	0	32749	32844	32959	32211	32439	32644	26044	32665	
2247	0	86	1247	29	1917	1289	0	32748	32867	33131	32231	32521	32809	22569	32564	
2248	0	104	1270	29	1907	1290	0	32769	32773	33142	32162	32365	32919	24848	32610	
2249	0	116	1221	28	1861	1291	0	32656	32549	33171	32051	32325	33101	23341	32578	
2250	0	119	1246	29	1918	1292	0	32576	32591	33101	32055	32509	33095	30138	32519	
2251	0	132	1231	29	1942	1293	0	32647	32890	33141	32317	32689	33318	30494	32548	
2252	0	123	1228	28	1915	1294	0	32758	32871	33140	32461	32681	33470	40206	32829	
2253	0	101	1265	28	1951	1295	0	32758	32890	33135	32471	32135	33596	31675	32817	
2254	0	140	1248	30	1948	1296	0	32783	32707	33063	32543	32335	33769	37733	32858	
2255	0	79	1242	28	1921	1297	0	32791	32742	32887	32530	32391	33595	40011	32762	
2256	0	162	1220	30	1925	1298	0	32821	32961	32743	32461	32457	33217	42430	32759	
2257	0	91	1281	29	1900	1299	0	32791	33051	32799	32461	32319	32757	48775	32995	
2258	0	95	1262	29	1970	1300	0	32653	32800	32740	32410	32415	32495	42631	33087	
2259	0	125	1243	28	1954	1301	0	32569	32775	32805	32389	32401	32249	41012	33261	
2260	0	127	1284	29	1963	1302	0	32548	32562	32591	32189	32566	32429	34040	33039	
2261	0	174	1251	29	1954	1303	0	32590	32628	32485	32298	32692	32543	31055	33033	
2262	0	165	1219	28	1926	1304	0	32749	32724	32407	32193	32578	32480	23990	32873	
2263	0	133	1235	29	1980	1305	0	32791	32620	32546	32047	32774	32585	30779	32892	
2264	0	109	1252	29	1944	1306	0	32721	32511	32621	32215	32551	32647	30735	32738	
2265	0	153	1247	29	1890	1307	0	32509	32571	32639	32115	32508	32581	24885	32727	
2266	0	105	1228	27	1968	1308	0	32369	32555	32532	32053	32467	32506	21392	32543	
2267	0	123	1227	28	1949	1309	0	32521	32619	32511	32327	32341	32450	22070	32620	
2268	0	84	1274	28	1961	1310	0	32839	32708	32550	32506	32473	32655	16390	32807	
2269	0	178	1253	29	1921	1311	0	33067	32831	32621	32706	32228	32758	20231	32795	
2270	0	133	1223	29	1937	1312	0	33122	33218	32713	33063	32532	32827	27621	32687	
2271	0	100	1288	29	1995	1313	0	32952	33018	32549	33039	32391	32767	24007	32391	
2272	0	82	1251	29	1937	1314	0	32750	32821	32572	32911	32630	32815	38981	32526	
2273	0	134	1286	29	1942	1315	0	32716	32879	32704	32653	32768	32729	39074	32716	
2274	0	143	1254	28	1951	1316	0	32953	32868	32679	32815	33006	32775	39263	32679	
2275	0	120	1268	29	1944	1317	0	33002	32967	32743	32722	32832	32590	41730	32748	
2276	0	98	1235	29	1974	1318	0	32915	32890	32751	32684	32711	32644	44780	32691	
2277	0	147	1273	28	1870	1319	0	32690	32897	32835	32509	32543	32684	43796	32758	
2278	0	80	1251	29	1932	1320	0	32823	32812	32717	32375	32726	32911	33439	32444	
2279	0	138	1259	28	1894	1321	0	32916	32864	32684	32716	32584	32901	37691	32606	
2280	0	109	1280	30	1927	1322	0	32876	32637	32735	33031	32730	32979	37511	32791	
2281	0	80	1239	29	1912	1323	0	32647	32558	32725	33002	32566	32963	41605	32793	
2282	0	139	1236	28	1947	1324	0	32619	32762	32694	33060	32527	33071	29719	32799	
2283	0	100	1270	30	1944	1325	0	32660	32833	32527	33274	32303	32990	30708	32915	
2284	0	155	1245	29	1978	1326	0	32508	32727	32506	33255	32343	32791	37071	33084	
2285	0	84	1271	29	1915	1327	0	32316	32671	32277	33313	32455	32641	31948	33202	
2286	0	122	1232	28	1953	1328	0	32324	32637	32295	33103	32715	32507	30415	32922	
2287	0	116	1238	28	1958	1329	0	32546	32619	32171	32959	32761	32491	30907	32699	
2288	0	132	1221	28	1966	1330	0	32560	32434	31965	32903	32911	32599	27395	32541	
2289	0	139	1217	29	1952	1331	0	32514	32455	31921	32731	33087	32871	23890	32462	
2290	0	111	1298	30	1976	1332	0	32627	32537	32039	32439	33023	32959	25653	32359	
2291	0	128	1196	28	1918	1333	0	32537	32583	32115	32293	32731	32823	28399	32355	
2292	0	159	1220	28	1928	1334	0	32646	32620	32223	32196	32764	32742	24496	32102	
2293	0	92	1211	29	1943	1335	0	32674	32668	32231	32326	32656	32698	26427	32465	
2294	0	147	1203	28	1955	1336	0	32712	32655	32518	32253	32923	32443	34734	32731	
2295	0	112	1277	28	1888	1337	0	32711	32601	32732	32326	32695	32546	38473	32964	
2296	0	122	1216	30	1955	1338	0	32647	32714	32749	32285	32691	32553	40774	33007	
2297	0	104	1229	29	1943	1339	0	32743	32838	33223	32359	32405	32551	41239	33107	
2298	0	95	1269	28	1960	1340	0	32745	32829	33407	32263	32412	32577	41902	32775	
2299	0	128	1255	28	1914	1341	0	33048	32685	33516	32453	32596	32475	39013	32719	
2300	0	84	1243	29	1948	1342	0	33191	32694	33767	32386	32391	32307	34775	32719	
2301	0	140	1254	28	1970	1343	0	33252	32750	33887	32281	32413	32310	32112	32903	
2302	0	78	1205	29	1921	1344	0	33262	32704	33747	32297	32550	32713	24288	32594	
2303	0	145	1250	28	1951	1345	0	33007	32683	33687	32391	32876	32868	43444	32655	
2304	0	133	1226	29	1956	1346	0	33076	32894	33739	32491	32973	33077	36249	32463	
2305	0	99	1259	30	1953	1347	0	33085	32887	33831	32679	32887	32945	21353	32407	
2306	0	112	1261	29	1954	1348	0	32942	32922	33566	32815	32711	33043	23422	32631	
2307	0	130	1236	29	1923	1349	0	32773	32939	33508	32775	32367	32924	17010	32642	
2308	0	115	1303	29	1948	1350	0	32606	32850	33309	32759	32487	33055	18061	32658	
2309	0	116	1258	30	1921	1351	0	32694	32795	33082	32735	32355	33115	20157	32596	
2310	0	117	1179	29	1947	1352	0	32712	32762	32967	32641	32615	33050	26525	32715	
2311	0	135	1276	29	1897	1353	0	32751	32751	32813	32660	32799	33039	30906	32903	
2312	0	134	1264	29	1930	1354	0	32730	32787	32786	32701	32938	32838	48553	32933	
2313	0	106	1203	29	1934	1355	0	32801	32839	32684	32679	33031	32898	49063	32996	
2314	0	84	1249	28	1919	1356	0	32801	32608	32506	32695	32971	32848	35379	32738	
2315	0	121	1268	29	1912	1357	0	32752	32601	32457	32775	32869	32895	35688	32772	
2316	0	108	1248	29	1940	1358	0	32700	32725	32484	32621	32850	32602	44935	32885	
2317	0	118	1249	29	1936	1359	0	32598	32871	32533	32730	32819	32402	46286	32921	
2318	0	123	1242	30	1941	1360	0	32623	32838	32462	32569	32566	32263	39799	32911	
2319	0	91	1242	29	1969	1361	0	32583	32797	32339	32512	32590	32416	38815	32888	
2320	0	106	1234	28	1957	1362	0	32676	32751	32538	32488	32505	32482	38469	32903	
2321	0	96	1246	30	1933	1363	0	32832	32733	32607	32364	32638	32642	38308	32877	
2322	0	111	1237	29	1959	1364	0	32797	32593	32617	32559	32384	32729	29045	32793	
2323	0	130	1246	29	1950	1365	0	32864	32495	32676	32460	32684	32950	31750	32953	
2324	0	166	1228	29	1914	1366	0	33016	32722	32543	32606	32566	33047	28397	33002	
2325	0	119	1238	29	1955	1367	0	32971	32897	32677	32622	32509	33098	25099	32725	
2326	0	141	1224	29	1915	1368	0	32902	32868	32707	32553	32298	33215	23355	32493	
2327	0	107	1262	27	1965	1369	0	32959	32827	32750	32628	32566	33007	15219	32807	
2328	0	87	1265	29	1950	1370	0	32864	32791	32658	32671	32591	33061	12044	32929	
2329	0	141	1246	28	1918	1371	0	32623	32575	32571	32613	32684	33037	14688	32813	
2330	0	119	1216	29	1911	1372	0	32712	32676	32581	32823	32795	32991	20319	32695	
2331	0	111	1248	29	1939	1373	0	32869	32837	32737	32852	32828	33168	29922	32416	
2332	0	122	1223	28	1952	1374	0	32769	32896	32872	32937	32708	33181	40912	32623	
2333	0	119	1252	30	1964	1375	0	32805	32919	32818	32871	32758	33188	39299	32748	
2334	0	140	1220	30	1910	1376	0	32720	32868	32804	32703	32607	33085	46708	32826	
2335	0	94	1240	27	1911	1377	0	32813	32868	32761	32855	32914	33023	54247	32759	
2336	0	100	1212	28	1954	1378	0	32853	32914	32739	32756	33047	32903	46720	32775	
2337	0	137	1224	28	1946	1379	0	32793	32709	32601	32807	33004	32943	49487	32801	
2338	0	128	1214	29	1968	1380	0	32604	32615	32595	32660	32814	32860	53638	32755	
2339	0	114	1249	29	1925	1381	0	32644	32672	32494	32628	32756	32863	51703	32834	
2340	0	83	1254	28	1938	1382	0	32647	32903	32591	32612	32669	32759	38732	33084	
2341	0	125	1249	29	1913	1383	0	32716	32861	32573	32704	32647	32799	27559	33028	
2342	0	69	1248	29	1957	1384	0	32599	32765	32425	32663	32436	32738	17066	33097	
2343	0	149	1294	29	1923	1385	0	32556	32769	32461	32600	32583	32559	22410	32943	
2344	0	109	1232	29	1932	1386	0	32555	32553	32465	32570	32493	32492	21783	32711	
2345	0	123	1208	27	1930	1387	0	32579	32543	32426	32607	32329	32318	20029	32967	
2346	0	92	1249	28	1961	1388	0	32662	32847	32534	32551	32434	32210	21732	32735	
2347	0	105	1297	29	1946	1389	0	32772	32900	32544	32655	32339	32231	22121	32782	
2348	0	100	1252	29	1936	1390	0	32836	32871	32619	32605	32459	32271	24223	32534	
2349	0	79	1278	28	1939	1391	0	32718	32751	32497	32735	32599	32485	21367	32319	
2350	0	132	1237	28	1933	1392	0	32689	32604	32676	32493	32696	32527	28335	32219	
2351	0	109	1236	29	1930	1393	0	32657	32634	32601	32756	32804	32558	31454	32349	
2352	0	136	1233	30	1914	1394	0	32784	32839	32856	32711	32764	32600	40007	32405	
2353	0	140	1264	29	1988	1395	0	32743	32713	32742	32679	32967	32717	32759	32361	
2354	0	117	1275	30	1962	1396	0	32866	32703	32797	32495	32991	32930	35219	32199	
2355	0	141	1225	28	1928	1397	0	32872	32607	32838	32593	33127	32903	36276	32277	
2356	0	99	1248	29	1948	1398	0	32895	32670	32833	32746	32762	32935	40066	32535	
2357	0	107	1273	29	1916	1399	0	32830	32813	32739	32621	32782	33206	41239	32983	
2358	0	127	1221	30	1929	1400	0	32749	32955	32742	32647	32493	33220	44787	33475	
2359	0	119	1274	29	1983	1401	0	32686	32860	32642	32658	32349	33127	43287	33387	
2360	0	135	1278	28	1960	1402	0	32695	32933	32820	32691	32209	32912	40681	32949	
2361	0	118	1258	29	1942	1403	0	32695	32666	32695	32613	32571	32903	39843	32747	
2362	0	104	1196	28	1928	1404	0	32780	32738	32846	32632	32701	32692	31648	32607	
2363	0	97	1214	29	1950	1405	0	32718	32842	32775	32626	32687	32571	32749	32567	
2364	0	119	1226	29	1890	1406	0	32703	32751	32870	32466	32775	32626	30450	32539	
2365	0	129	1256	29	1941	1407	0	32735	32621	32935	32573	32730	32903	27903	32663	
2366	0	111	1235	29	1921	1408	0	32780	32826	32957	32591	32887	32871	24595	32705	
2367	0	132	1227	29	1945	1409	0	32690	32754	32984	32497	32765	32887	21140	32977	
2368	0	121	1230	29	1921	1410	0	32605	32647	32874	32654	32672	32956	19663	32983	
2369	0	124	1246	28	1907	1411	0	32677	32767	32711	32748	32603	32865	20287	32994	
2370	0	128	1234	28	1880	1412	0	32646	32639	32716	32812	32654	32723	22543	32812	
2371	0	80	1212	28	1918	1413	0	32666	32686	32674	32805	32727	32709	25446	33141	
2372	0	133	1228	30	1926	1414	0	32729	32861	32601	32792	32713	32610	37931	33278	
2373	0	133	1251	29	1965	1415	0	32808	32865	32695	32935	32768	32557	32844	33055	
2374	0	114	1258	29	1974	1416	0	32871	32891	32887	32804	32855	32531	34387	32797	
2375	0	92	1235	30	1919	1417	0	32813	32865	32812	32949	32751	32695	38710	32825	
2376	0	94	1260	30	1912	1418	0	32826	32639	32791	32809	32821	32574	41095	32927	
2377	0	114	1226	29	1918	1419	0	32722	32565	32695	32839	32803	32609	48535	32739	
2378	0	81	1252	28	1934	1420	0	32747	32647	32857	32706	32828	32601	46195	32679	
2379	0	119	1240	29	1943	1421	0	32711	32756	32637	32740	32751	32623	40895	32603	
2380	0	144	1235	29	1922	1422	0	32760	32989	32703	32827	32762	32710	45236	32450	
2381	0	146	1233	29	1935	1423	0	32730	32811	32759	32833	32815	32782	38778	32790	
2382	0	156	1216	28	1970	1424	0	32715	32708	32769	32734	32739	32887	25953	32966	
2383	0	123	1230	29	1918	1425	0	32830	32738	32756	32727	32758	32927	31023	32932	
2384	0	103	1190	29	1958	1426	0	32744	32601	32706	32694	32564	32991	29084	32570	
2385	0	82	1246	28	1928	1427	0	32700	32584	32676	32772	32636	32955	19319	32212	
2386	0	103	1259	29	1946	1428	0	32688	32724	32658	32903	32566	32822	21593	32683	
2387	0	125	1228	28	1917	1429	0	32808	32864	32731	32749	32445	32751	16615	33383	
2388	0	108	1247	29	1918	1430	0	32811	32819	32887	33030	32636	32762	24052	33001	
2389	0	99	1248	30	1901	1431	0	32790	32902	32919	33023	32867	32515	22891	32885	
2390	0	125	1205	28	1892	1432	0	32765	32636	32773	32714	33135	32660	29765	32951	
2391	0	157	1295	29	1946	1433	0	32716	32593	32756	32552	33001	32868	34999	32637	
2392	0	122	1226	28	1916	1434	0	32747	32721	32831	32634	32599	32991	56055	32471	
2393	0	109	1232	30	1936	1435	0	32713	32884	32858	32733	32583	32811	46727	32252	
2394	0	133	1252	29	1929	1436	0	32769	32833	32803	32692	32515	32559	50199	32551	
2395	0	126	1278	29	1925	1437	0	32778	32850	32903	32839	32903	32694	50391	32820	
2396	0	89	1284	29	1942	1438	0	32647	32719	32855	32772	32893	32647	50387	32790	
2397	0	118	1295	27	1922	1439	0	32628	32775	32727	32546	32982	32973	47583	31743	
2398	0	102	1237	29	1888	1440	0	32730	32787	32569	32727	32979	32903	43990	31591	
2399	0	103	1266	29	1890	1441	0	32775	32839	32690	32813	32793	32858	38205	31176	
2400	0	143	1212	28	1956	1442	0	32814	32870	32711	32827	32837	32480	33422	31002	
2401	0	115	1219	30	1918	1443	0	32738	32615	32796	32860	32772	31810	28608	31206	
2402	0	130	1249	29	1939	1444	0	32792	32788	32617	32728	32835	31646	15388	31086	
2403	0	69	1191	29	1935	1445	0	32836	32844	32612	32684	32578	32116	25032	30953	
2404	0	105	1239	29	1928	1446	0	32881	32727	32749	32505	32637	32218	24779	31853	
2405	0	107	1276	28	1929	1447	0	32866	32735	32878	32692	32698	32554	20295	33415	
2406	0	111	1214	29	1918	1448	0	32824	32556	32844	32711	32356	32903	20525	35053	
2407	0	129	1264	28	1933	1449	0	32641	32607	32878	32775	32421	33119	20515	35638	
2408	0	102	1274	28	1933	1450	0	32583	32732	32703	32684	32276	33353	17103	35214	
2409	0	140	1238	29	1954	1451	0	32677	32669	32727	32695	32474	33375	18482	34409	
2410	0	118	1277	29	1956	1452	0	32677	32783	32755	32790	32113	33636	25250	34117	
2411	0	152	1197	28	1956	1453	0	32836	32931	32849	32851	32405	33500	29761	34183	
2412	0	184	1234	30	1934	1454	0	32868	32733	32816	32711	32525	33092	39583	33940	
2413	0	148	1233	29	1968	1455	0	32852	32817	32850	32991	32544	32893	31324	33337	
2414	0	119	1265	30	1912	1456	0	32935	32829	32870	32855	32659	32421	36673	32433	
2415	0	126	1254	29	1921	1457	0	33015	32930	32838	32735	32879	32558	43312	32031	
2416	0	101	1222	29	1963	1458	0	32997	32927	32753	32848	32802	32801	46118	31976	
2417	0	152	1217	29	1931	1459	0	32952	32964	32874	32812	32671	32875	48597	32012	
2418	0	75	1226	29	1939	1460	0	32608	32572	32635	32789	32891	32660	47959	31174	
2419	0	89	1293	29	1943	1461	0	32508	32564	32687	32604	32679	32868	45207	30877	
2420	0	152	1263	30	1950	1462	0	32454	32675	32523	32602	32691	33125	39421	30413	
2421	0	104	1233	30	1905	1463	0	32428	32717	32329	32647	32815	33127	37927	30303	
2422	0	134	1262	29	1956	1464	0	32470	32767	32410	32740	32587	33133	23621	30790	
2423	0	88	1273	29	1937	1465	0	32587	32744	32493	32621	32297	33159	31662	31878	
2424	0	92	1272	29	1905	1466	0	32628	32617	32695	32725	32438	32967	28885	32847	
2425	0	68	1208	29	1946	1467	0	32655	32570	32631	32775	32923	32601	25770	33303	
2426	0	168	1253	29	1898	1468	0	32604	32446	32889	32973	33461	32329	24193	34357	
2427	0	150	1215	28	1900	1469	0	32711	32615	32900	32845	33159	32685	21047	35481	
2428	0	110	1261	29	1894	1470	0	32703	32775	32887	32931	32887	33193	22487	35327	
2429	0	114	1228	29	1914	1471	0	32705	32695	32794	32775	32724	32765	20915	34020	
2430	0	121	1222	30	1936	1472	0	32630	32647	32719	32454	32585	32581	23383	32503	
2431	0	132	1213	28	1965	1473	0	32582	32447	32571	32358	32643	32919	26900	31621	
2432	0	140	1244	27	1964	1474	0	32688	32741	32725	32586	32729	32640	40856	32326	
2433	0	82	1263	30	1907	1475	0	32834	32959	32799	32719	32980	32258	30875	32513	
2434	0	103	1249	29	1915	1476	0	32788	32895	32835	32853	32999	32619	30765	32705	
2435	0	141	1220	30	1941	1477	0	32775	32914	32916	32763	32740	32950	35346	32815	
2436	0	113	1252	30	1903	1478	0	32862	32812	32887	32854	32873	33021	38255	32799	
2437	0	154	1239	29	1926	1479	0	32934	32866	32845	32695	32900	32598	42503	32813	
2438	0	135	1270	29	1968	1480	0	32920	33014	32948	32991	33183	32338	40564	33647	
2439	0	143	1228	29	1929	1481	0	32850	32967	32913	32932	32903	32335	38862	34343	
2440	0	106	1227	29	1964	1482	0	32706	32935	32765	32918	32724	32775	31815	33391	
2441	0	113	1263	29	1907	1483	0	32694	32601	32638	32823	32614	32607	29074	32975	
2442	0	111	1252	29	1928	1484	0	32792	32773	32500	32572	32443	32686	12780	32485	
2443	0	55	1212	29	1928	1485	0	32696	32634	32586	32474	32671	32854	27324	32421	
2444	0	103	1282	29	1943	1486	0	32529	32523	32572	32346	32471	32758	23783	32221	
2445	0	131	1248	28	1948	1487	0	32534	32486	32761	32146	32508	32305	23138	31933	
2446	0	116	1240	29	1920	1488	0	32647	32471	32846	32426	32661	32060	19878	31662	
2447	0	162	1231	29	1923	1489	0	32854	32811	32967	32703	32655	32151	20603	31327	
2448	0	128	1249	29	1941	1490	0	32964	32863	32985	32841	32932	32525	23343	31495	
2449	0	102	1223	28	1923	1491	0	32898	32702	32918	32734	32799	32493	22706	32253	
2450	0	117	1258	30	1910	1492	0	32834	32509	32810	32470	32634	32207	25349	33303	
2451	0	132	1201	30	1885	1493	0	32826	32772	32839	32722	32566	32287	29994	33721	
2452	0	185	1286	29	1960	1494	0	32932	33013	32714	32824	32470	32647	43821	32929	
2453	0	119	1252	28	1945	1495	0	32927	32973	32947	32812	32730	32884	34162	32721	
2454	0	153	1216	28	1929	1496	0	32935	32993	33053	32903	32665	33033	36081	32903	
2455	0	118	1242	30	1952	1497	0	32750	32665	32946	32593	32767	33204	42251	32861	
2456	0	124	1246	28	1955	1498	0	32520	32692	32620	32314	32756	33270	48519	32217	
2457	0	140	1230	29	1916	1499	0	32471	32540	32743	32361	32751	33077	49895	32302	
