# OpenSignals Text File Format
# {"00:07:80:3B:46:38": {"sensor": ["CUSTOM/0.5/1.0/V", "CUSTOM/0.5/1.0/V", "CUSTOM/0.5/1.0/V", "CUSTOM/0.5/1.0/V", "CUSTOM/0.5/1.0/V", "CUSTOM/0.5/1.0/V", "CUSTOM/0.5/1.0/V", "CUSTOM/0.5/1.0/V"], "device name": "EMGs", "column": ["nSeq", "DI", "RA_L", "RA_R", "OE_L", "OE:R", "IL_L", "IL_R", "MF_L", "MF_R"], "sync interval": 2, "time": "17:45:7.377", "comments": "", "device connection": "BTH00:07:80:3B:46:38", "channels": [1, 2, 3, 4, 5, 6, 7, 8], "date": "2017-6-1", "mode": 0, "digital IO": [0, 1], "firmware version": 772, "device": "biosignalsplux", "position": 0, "sampling rate": 1000, "label": ["RA_L", "RA_R", "OE_L", "OE:R", "IL_L", "IL_R", "MF_L", "MF_R"], "resolution": [16, 16, 16, 16, 16, 16, 16, 16], "special": [{}, {}, {}, {}, {}, {}, {}, {}]}}
# EndOfHeader
0	0	33305	32679	32182	33015	32493	31879	29684	33577	
1	0	33154	32635	31935	33313	32637	32700	30573	36478	
2	0	33105	32549	32263	33293	32799	32383	31831	37796	
3	0	32933	32694	32508	32775	33307	31226	32231	37559	
4	0	32727	32591	32423	32863	33869	32303	33254	37605	
5	0	32628	32564	32437	32886	33719	32422	33159	34103	
6	0	32630	32820	32588	32799	33172	32178	33685	34071	
7	0	32731	32839	32662	32889	32495	32565	35422	32685	
8	0	32801	32783	33023	32741	31591	33189	37427	30208	
9	0	32689	32711	33383	32756	32390	32653	38007	31117	
10	0	32498	32838	33114	32469	32503	31419	36327	31162	
11	0	32391	32639	32581	32599	32300	29671	31876	28479	
12	0	32466	32759	32781	32556	32287	31666	29460	29260	
13	0	32382	32679	33031	32522	31659	33055	29748	28702	
14	0	32373	32763	33109	32556	31945	34221	30435	31322	
15	0	32687	32813	33166	32513	32236	34564	32031	32055	
16	0	32969	32805	33662	32463	33254	34144	32462	31767	
17	0	32930	32823	33447	32407	32999	34087	33997	31219	
18	0	32692	32631	33006	32295	33212	34285	33319	32162	
19	0	32854	32671	32637	32415	33647	34390	30606	32183	
20	0	32997	32643	32669	32271	33407	33959	28631	33186	
21	0	32967	32743	32484	32263	34017	34381	28429	34839	
22	0	32895	32732	32319	32601	33159	33563	32711	34935	
23	0	32919	32677	32287	32647	32564	33255	34263	32986	
24	0	32751	32735	32375	32719	32407	33331	34287	31711	
25	0	32718	32802	32438	32999	32932	32919	34263	32532	
26	0	32720	32709	32561	33116	32580	32677	34807	33619	
27	0	32730	32726	32525	32891	32278	32007	34608	33063	
28	0	32950	32759	32819	32937	32340	31707	33751	32658	
29	0	32850	32829	32938	32940	32993	31607	33215	32412	
30	0	32741	32789	32867	32709	33339	31871	32538	32751	
31	0	32689	32658	32919	32733	33584	32371	32278	33631	
32	0	32827	32732	32981	32711	33109	31957	32092	32850	
33	0	32940	32703	33061	32538	33083	32109	31549	32751	
34	0	33004	32856	32955	32516	33178	30667	31959	33471	
35	0	32779	32607	32769	32607	32923	30855	34089	33935	
36	0	32663	32687	32692	32287	32468	31900	34447	33246	
37	0	32707	32771	32540	32311	31837	32269	33703	32403	
38	0	32713	32637	32541	32397	32310	32603	33047	32373	
39	0	32808	32858	33057	32239	32179	31807	33937	35267	
40	0	32628	32818	32599	32609	32175	31801	32956	37273	
41	0	32418	32627	32465	32639	32491	31783	32570	38047	
42	0	32427	32746	32657	32484	32695	32091	32293	36519	
43	0	32617	32740	33180	32492	32587	34136	31193	36197	
44	0	32684	32858	33181	32345	33926	36871	30354	34037	
45	0	32730	32831	33309	32343	33991	37890	30503	32967	
46	0	32765	32775	33140	32578	33475	34533	32287	28517	
47	0	32592	32679	32707	32820	33487	34299	33685	28013	
48	0	32807	32675	32423	32946	31987	33701	35543	27063	
49	0	32944	32755	32396	32945	31195	32620	35146	23887	
50	0	32959	32621	32559	32916	31364	31383	33027	24340	
51	0	32909	32697	32551	33121	32204	32579	30157	28630	
52	0	32999	32791	32667	32942	32931	33470	29997	32445	
53	0	32900	32735	32341	32742	32823	32935	31471	33901	
54	0	32880	32603	32099	32884	32734	32078	33091	34460	
55	0	32823	32639	31991	32915	33072	32367	33154	35351	
56	0	32852	32700	32429	32684	33121	32540	33203	34846	
57	0	32910	32735	32484	32555	32661	32785	32927	33723	
58	0	32862	32667	32471	32623	32318	31879	32692	33543	
59	0	32844	32695	32429	33097	32663	31443	34064	32903	
60	0	32788	32663	32527	33039	33012	32215	35234	32463	
61	0	32716	32758	32617	32814	33181	32429	33738	31878	
62	0	32775	32692	32647	32807	33111	32463	32351	32727	
63	0	32829	32738	32754	32644	32987	32609	31213	33876	
64	0	32747	32726	32663	32391	33268	32508	30925	33897	
65	0	32669	32591	32644	32489	33087	32660	32219	33433	
66	0	32599	32751	32519	32443	32543	32423	32171	32591	
67	0	32602	32627	32591	32510	32385	32205	32458	31701	
68	0	32652	32753	32734	32738	32437	31981	33515	31744	
69	0	32646	32724	32900	32564	32699	32426	33097	32900	
70	0	32739	32831	32919	32711	33159	32231	33298	33278	
71	0	32630	32756	32999	32665	33485	32391	33405	33595	
72	0	32604	32900	33029	32615	32549	32375	34331	34420	
73	0	32631	32811	32887	32583	32056	31497	33746	36730	
74	0	32609	32799	32840	32412	32293	30921	32159	37165	
75	0	32703	32817	32932	32637	32699	31279	31839	35733	
76	0	32800	32734	33039	32543	32595	32530	32407	31879	
77	0	32766	32738	33079	32482	32695	34375	32263	30626	
78	0	32706	32582	32967	32742	33018	36303	32260	32617	
79	0	32765	32692	33095	32599	33198	35924	32919	32557	
80	0	32807	32661	33002	32705	33427	34435	33111	31323	
81	0	32708	32741	32797	32695	33295	33359	33063	31503	
82	0	32749	32703	32721	32713	31941	32484	32739	30195	
83	0	32822	32805	32607	32655	31621	31959	33026	31009	
84	0	32828	32684	32598	32491	31623	32677	32201	31691	
85	0	32816	32647	32599	32623	32575	33622	31341	32047	
86	0	32839	32763	32516	32638	33634	33511	31258	32237	
87	0	32781	32671	32471	32586	32655	33978	31908	32035	
88	0	32745	32735	32427	32804	33085	33030	32337	31683	
89	0	32631	32715	32527	32734	32978	32380	33241	32371	
90	0	32761	32692	32623	32515	32685	31781	34221	32784	
91	0	32736	32761	32515	32631	32903	31301	34615	32047	
92	0	32728	32694	32595	32701	32771	31556	33503	32743	
93	0	32691	32809	32595	32647	33082	31895	32807	33431	
94	0	32717	32772	32811	32743	32973	32981	31691	32671	
95	0	32678	32663	32806	32629	33453	33884	32204	32855	
96	0	32702	32667	33039	32687	33653	33847	32860	33125	
97	0	32673	32647	32851	32477	32583	32183	32387	33325	
98	0	32812	32711	33042	32331	32179	32079	34439	33309	
99	0	32762	32763	32957	32421	32383	32273	35415	32503	
100	0	32765	32679	32809	32443	32943	31507	35660	32963	
101	0	32858	32863	32691	32421	33016	30979	34684	34103	
102	0	32911	32931	32903	32604	33359	30656	31948	35262	
103	0	32782	32735	32799	32761	33267	30844	30837	35223	
104	0	32884	32783	32797	32769	32866	33371	30727	35003	
105	0	32940	32723	32804	32667	32666	34595	30709	34089	
106	0	32865	32711	32802	32791	32508	33911	31945	32887	
107	0	32725	32701	32473	32709	32635	33882	32355	31430	
108	0	32806	32667	32569	32493	32545	34395	31461	30435	
109	0	32869	32741	32511	32524	32557	35205	31660	31029	
110	0	32839	32725	32647	32582	32322	34493	32924	31479	
111	0	32878	32675	32691	32519	31935	32205	33927	32220	
112	0	32901	32838	32605	32698	32535	30573	34128	31239	
113	0	32773	32717	32390	32709	32745	30375	33573	31421	
114	0	32893	32825	32471	32900	32467	30206	33862	31239	
115	0	32925	32847	32519	32845	33109	31751	33007	29595	
116	0	32819	32740	32507	32479	33572	34876	32949	29263	
117	0	32840	32799	32583	32434	33015	33726	32303	31751	
118	0	32715	32647	32719	32687	33135	34411	31474	33503	
119	0	32710	32647	32837	32676	32655	34493	32013	35775	
120	0	32647	32745	32702	32795	32915	33759	32199	36885	
121	0	32534	32655	32540	32835	32866	32811	32548	36721	
122	0	32582	32771	32709	32673	32637	31916	33703	36407	
123	0	32677	32799	32863	32788	31988	32284	33727	33201	
124	0	32766	32740	32881	32733	31508	31460	33201	32126	
125	0	32758	32861	32783	32692	30695	30687	33701	30241	
126	0	32619	32663	32703	33015	31791	32477	33023	28076	
127	0	32610	32675	32839	33202	33684	35290	31423	30866	
128	0	32713	32711	32775	33007	33997	35795	31120	32438	
129	0	32635	32524	32510	33071	33636	33652	29063	31246	
130	0	32766	32585	32539	32951	33759	31418	29772	31533	
131	0	32950	32543	32823	32782	34287	31623	33714	31557	
132	0	32903	32587	32613	32942	33191	31969	34806	31634	
133	0	32900	32641	32771	32916	32931	31719	33167	32343	
134	0	32911	32495	32733	32775	33083	33990	32767	33343	
135	0	32859	32640	32916	32795	33036	35553	33067	33349	
136	0	32799	32729	32755	32701	32627	34167	32962	32343	
137	0	32847	32647	32791	32533	32363	33616	33303	32821	
138	0	32861	32757	32797	32546	32375	32378	33883	33097	
139	0	32857	32793	32727	32486	32647	31838	34470	34066	
140	0	32801	32775	32708	32405	32667	31845	33671	34002	
141	0	32821	32811	32467	32423	33021	32263	32764	32751	
142	0	32953	32763	32471	32495	33015	32758	31863	32671	
143	0	33045	32903	32647	32359	32532	32081	31635	33778	
144	0	33116	32877	32703	32475	32685	30959	31903	34609	
145	0	32980	32877	32594	32381	32831	30772	32327	34273	
146	0	33027	32887	32965	32473	32411	29697	33857	35451	
147	0	32993	32916	33226	32551	33031	31623	33695	35059	
148	0	32773	32723	33017	32405	32373	32638	35057	32630	
149	0	32704	32615	33085	32611	32311	33622	34791	34852	
150	0	32607	32622	33065	32503	32083	32793	34047	32500	
151	0	32510	32791	33007	32479	32015	33067	33735	30539	
152	0	32562	32791	32786	32355	33063	33635	33262	31751	
153	0	32444	32666	32463	32572	33196	32967	33107	31849	
154	0	32621	32791	32563	32380	32877	32162	32307	32149	
155	0	32650	32655	32519	32207	33024	33055	31037	32057	
156	0	32537	32815	32541	32465	32477	32135	31007	29909	
157	0	32141	32685	32621	32810	32659	34051	31281	28227	
158	0	32157	32535	32825	33311	33142	35770	30468	29716	
159	0	32252	32679	32655	33211	33231	35238	30477	31423	
160	0	32446	32692	32745	33311	31835	34133	30632	30815	
161	0	32581	32581	32775	33188	32551	35308	29458	32211	
162	0	32933	32766	32911	32722	32799	32735	30116	34439	
163	0	33058	32742	32863	32693	33236	31675	32591	35658	
164	0	33153	32821	32638	32539	32723	30759	33415	35605	
165	0	33065	32660	32375	32932	31879	30145	34722	32979	
166	0	32903	32615	32243	32860	31847	30884	36231	31559	
167	0	33001	32677	32479	32751	32687	31770	36270	31553	
168	0	32935	32727	32423	32829	32869	32812	34979	31991	
169	0	32843	32727	32399	32823	32647	34247	33145	32074	
170	0	32810	32615	32443	32869	33081	35094	31967	32071	
171	0	32806	32719	32495	33012	33477	35113	31053	31250	
172	0	32621	32603	32564	32978	33575	34409	30697	30617	
173	0	32486	32694	32580	32995	33626	33257	30925	31775	
174	0	32609	32735	32943	32941	32723	32354	31166	33347	
175	0	32706	32627	32963	32698	32220	31859	32028	32756	
176	0	32721	32783	33117	32674	32026	30991	32881	34375	
177	0	32793	32765	33255	32413	31991	32455	33117	35425	
178	0	32768	32847	33434	32455	32295	32231	34759	34529	
179	0	32823	32983	33315	32197	32734	31359	35315	34777	
180	0	32850	32845	33391	32063	32353	31159	33756	34621	
181	0	32630	32763	33471	32233	33407	32849	33751	34191	
182	0	32673	32903	33175	32151	33564	33908	33359	34047	
183	0	32671	32759	32834	32165	34045	33309	32583	32365	
184	0	32711	32683	32564	32276	33535	33031	32953	31303	
185	0	32757	32636	32545	32222	32719	31687	33665	32643	
186	0	32702	32721	32430	32207	33093	30371	33181	33503	
187	0	32729	32708	32245	32511	33159	29607	33223	34237	
188	0	32711	32603	32359	32471	33885	31343	32375	33987	
189	0	32775	32794	32135	32277	32594	32609	33056	32263	
190	0	32965	32943	32303	32564	32298	34501	32412	32405	
191	0	33017	32753	32377	32885	32382	36415	32533	33706	
192	0	32903	32797	32072	32887	32309	35804	31057	32070	
193	0	32775	32666	31829	32862	32382	34647	31086	28477	
194	0	32761	32690	31910	32751	32064	32495	32454	33036	
195	0	32712	32690	32009	32482	31573	31716	33227	32279	
196	0	32700	32647	32717	32233	31003	31889	33079	31905	
197	0	32616	32670	32854	32799	32933	35071	33351	30969	
198	0	32750	32655	33371	33017	33927	35044	33443	32435	
199	0	32743	32615	33176	32997	33303	31493	32338	31643	
200	0	32722	32711	32951	33455	33587	32077	31226	30546	
201	0	32792	32559	32717	33343	33111	32466	31830	32382	
202	0	32665	32567	32717	33263	32237	30718	32391	32717	
203	0	32617	32583	32607	33415	32543	30983	31649	32519	
204	0	32767	32613	32719	33075	33251	33535	31954	33597	
205	0	32935	32911	32781	33077	33117	34814	31727	35183	
206	0	32929	32871	33063	32985	32679	33884	31527	34755	
207	0	32964	32756	32883	32771	33075	33143	32745	33215	
208	0	32943	32851	33287	32782	32675	32150	34815	32013	
209	0	32765	32807	33260	32871	32615	31460	34723	30503	
210	0	32787	32734	33203	32474	32413	31151	34618	30571	
211	0	32820	32854	33343	32023	32015	31665	36247	31613	
212	0	32902	32791	33487	31879	32612	32156	35228	33059	
213	0	32862	32687	33551	31982	32579	31151	33511	33197	
214	0	32914	32807	33114	32077	33013	32167	32873	32975	
215	0	32809	32887	32861	32183	32950	31620	32298	32433	
216	0	32724	32741	32287	32571	32791	31925	32231	31084	
217	0	32646	32647	32011	32759	32455	31425	32527	33361	
218	0	32433	32452	31422	33199	32932	33339	31420	34589	
219	0	32375	32511	31582	33329	32467	33082	32533	34997	
220	0	32300	32447	31818	33019	31823	33057	32989	34781	
221	0	32273	32500	31884	32886	33287	36439	32239	33750	
222	0	32474	32559	32611	32617	33231	35024	32106	32543	
223	0	32464	32674	32788	32493	33175	33552	30919	32835	
224	0	32786	32806	32911	32772	32307	30574	30041	34119	
225	0	32756	32661	32740	32595	31439	30679	30537	33063	
226	0	32751	32685	32791	32551	31315	32983	31515	32998	
227	0	32844	32820	32704	32709	31876	34251	31759	31617	
228	0	32802	32692	32403	32820	32719	35463	31894	31291	
229	0	32793	32647	32199	32783	33538	35692	32190	31575	
230	0	32892	32647	32179	32183	34927	34574	30751	34134	
231	0	33116	33077	32412	32007	34631	33235	30903	34743	
232	0	33182	33018	32615	31679	34285	32014	31331	33080	
233	0	33073	33159	32789	31943	33341	32676	32403	31687	
234	0	32757	33047	32583	32467	32559	33026	35180	32163	
235	0	32669	32846	32695	32661	31544	31545	37263	31623	
236	0	32601	32955	33005	32795	31341	30911	37181	32607	
237	0	32441	32811	32813	32647	32276	30795	34383	34759	
238	0	32397	32739	32765	32589	32671	30790	33799	33037	
239	0	32521	32669	33311	32228	32643	32005	33518	31443	
240	0	32729	32731	33263	32269	32655	33577	33063	31311	
241	0	32791	32695	33303	32463	32865	33614	33029	30595	
242	0	32827	32863	33611	32449	31726	32115	32615	31411	
243	0	32970	32950	33716	32742	32375	33295	31939	32303	
244	0	33028	32839	33495	32791	32575	35419	30404	32486	
245	0	32935	32690	32933	32698	32289	32727	30095	29111	
246	0	32917	32510	32557	32802	32060	32917	32399	25877	
247	0	32944	32697	32062	32742	32605	34372	34768	27658	
248	0	32831	32617	31956	32757	33911	34061	36103	33609	
249	0	32963	32581	31896	32673	33855	34562	34033	34226	
250	0	33132	32763	31941	32404	31984	32235	33303	34717	
251	0	33263	32722	31972	32615	31994	31975	33750	36413	
252	0	33120	32636	32203	32951	33402	33879	33063	35345	
253	0	32910	32478	32174	32926	34248	32630	30095	35495	
254	0	32955	32687	32729	33159	33859	30630	28989	35707	
255	0	33010	32791	33111	32995	33391	29956	30658	32871	
256	0	32932	32613	33033	32924	33387	31606	32186	31424	
257	0	32815	32645	33060	33211	33572	33303	33638	32263	
258	0	32730	32573	33231	32887	33637	33011	34919	34599	
259	0	32617	32679	33233	32642	33637	31788	34541	31431	
260	0	32668	32584	32762	32228	32681	30983	35079	31330	
261	0	32825	32719	33150	31967	32404	31070	34718	33142	
262	0	32871	32948	33229	31326	32910	31367	33333	36407	
263	0	32523	32867	33255	31499	32708	31839	32935	35260	
264	0	32398	32903	33655	31951	32903	32427	33614	35040	
265	0	32317	32771	33844	32514	32799	32245	33823	33287	
266	0	32383	32933	33992	32813	32679	32403	33211	33126	
267	0	32506	32674	33862	33623	32180	32135	31606	30487	
268	0	32461	32503	33581	34501	31809	32545	30713	27959	
269	0	32562	32448	32713	35535	31813	33611	31385	26612	
270	0	32609	32292	32455	35244	31743	34291	32319	28447	
271	0	32825	32423	32565	34439	31927	35815	32472	30162	
272	0	33108	32380	32979	33701	31591	36407	32383	30711	
273	0	33218	32476	32391	33107	31952	34927	32548	31653	
274	0	32820	32452	31918	32986	32999	33734	32149	32885	
275	0	32907	32660	31831	32850	33239	32831	30229	33293	
276	0	32850	32694	32007	32635	33679	32493	29751	33332	
277	0	32845	32775	31919	32263	34116	31724	30628	33811	
278	0	32661	32838	31609	31945	32793	31439	33836	34613	
279	0	32481	32786	31731	32342	32666	33203	34779	35287	
280	0	32538	32757	32199	32159	32903	31620	33683	34470	
281	0	32615	32815	32679	32460	33212	31351	33346	34598	
282	0	32827	32791	33091	32891	33238	31347	33693	34941	
283	0	33087	32887	33127	32903	32391	31959	31355	36044	
284	0	32996	32804	33037	32787	33027	33823	31495	35735	
285	0	32820	32877	32911	32379	33331	33359	32263	33527	
286	0	32827	32967	32817	32135	33243	32707	33046	32687	
287	0	32740	32949	32684	32122	33110	33431	33799	29415	
288	0	32665	32854	32420	32055	32487	34446	34986	29934	
289	0	32647	32921	32490	31795	32490	34815	36411	31661	
290	0	32668	32884	32699	32191	31902	32173	35931	29878	
291	0	32616	32919	32583	32239	32020	32037	34007	31346	
292	0	32575	32839	32890	32143	32891	33285	33661	31730	
293	0	32712	32820	33053	32151	33215	32411	32961	34335	
294	0	32600	32787	33415	31996	33707	31346	31997	35503	
295	0	32530	32717	32830	31865	33040	29049	32135	32054	
296	0	32567	32759	32725	32013	31974	29071	31711	29468	
297	0	32388	32685	32599	31871	31270	30633	31875	31515	
298	0	32367	32769	32362	32163	32337	34316	30313	35335	
299	0	32559	32623	32231	32135	33167	35375	30623	34391	
300	0	32623	32690	32087	32285	33193	35063	31021	31695	
301	0	32637	32725	32375	32418	33254	35943	32467	32181	
302	0	32662	32591	32523	32322	32479	34571	33847	32135	
303	0	32680	32703	32655	32407	32007	33317	32997	30343	
304	0	32748	32775	32591	32457	32511	32943	33395	31893	
305	0	33067	32647	32933	32437	32786	32959	33406	32759	
306	0	33143	32685	32847	32997	32902	32996	32761	32228	
307	0	33015	32574	32519	33279	32855	32999	31922	33059	
308	0	33051	32695	32276	33009	32691	32373	30692	33382	
309	0	33130	32698	32579	33121	32587	32203	31572	33159	
310	0	32919	32714	32527	33058	32823	32449	32597	33132	
311	0	32935	32743	32604	33046	32405	32991	33039	33999	
312	0	32935	32847	32575	32851	32413	32407	32918	33517	
313	0	32884	32775	32495	32893	32175	31708	33183	32511	
314	0	32838	32860	32511	32923	32527	31618	32701	31985	
315	0	32918	32954	32573	32791	33275	31463	33187	33014	
316	0	32990	32791	32551	32959	33385	31874	33502	34501	
317	0	32854	32775	32591	33037	33711	32979	32583	34806	
318	0	32745	32668	32434	33031	33047	31979	30231	36533	
319	0	32666	32653	32591	32862	32287	31509	31391	35189	
320	0	32609	32734	32647	32913	32309	31324	32935	32949	
321	0	32596	32915	32807	32982	31945	31019	33617	32655	
322	0	32645	32685	33095	32794	32463	32419	33523	32581	
323	0	32662	32881	32894	32638	33022	32348	32447	34479	
324	0	32612	32895	32756	32420	34013	33795	32677	33127	
325	0	32518	32687	32890	32179	33991	33886	33351	30959	
326	0	32586	32839	33217	31924	32292	31367	33730	34066	
327	0	32903	32903	33447	32015	31777	29823	34159	34885	
328	0	32865	32957	33607	31977	32015	32100	33567	32331	
329	0	32734	32947	32911	31911	32504	33700	32615	31157	
330	0	32535	32739	32516	32323	32397	33937	33311	29391	
331	0	32556	32644	32692	32591	33363	34181	33295	28295	
332	0	32468	32591	32428	32549	33885	35655	33095	29880	
333	0	32597	32459	32223	32605	33743	38316	33413	31527	
334	0	32513	32461	32183	32503	32655	37391	34034	30023	
335	0	32599	32412	32420	32548	32668	35535	34262	26565	
336	0	32591	32639	32436	33015	32615	34600	32867	28945	
337	0	32741	32581	32989	33355	33302	33567	31366	33047	
338	0	32800	32501	33110	33231	33308	33076	30724	32391	
339	0	32851	32557	33353	33626	32205	31039	29675	30213	
340	0	32770	32454	32877	33659	32023	31812	28863	31983	
341	0	32978	32578	32869	33191	31911	31919	27787	35109	
342	0	33045	32730	32565	32769	31933	31059	28278	34919	
343	0	32903	32589	32167	32639	33004	31078	33991	33129	
344	0	33073	32701	32171	32775	32503	31599	36468	33207	
345	0	33068	32645	32306	32974	32871	32705	35223	35111	
346	0	32919	32838	32196	33157	33068	32258	33759	35415	
347	0	32843	32763	32333	33207	33192	32023	33927	33551	
348	0	32924	32903	32543	32982	33251	32159	34907	33622	
349	0	32903	32955	32679	32997	33329	32103	34871	34251	
350	0	32876	32695	32932	32879	32658	31842	34673	33367	
351	0	32726	32685	32829	32839	32759	31613	33065	31783	
352	0	32743	32705	32951	32529	32601	31439	33032	32047	
353	0	32741	32647	32927	32621	32767	32010	31935	32639	
354	0	32741	32895	32895	32551	31972	32669	31583	32457	
355	0	32725	32919	32817	32406	32487	33821	31927	32595	
356	0	32705	32694	32772	32391	33146	33559	32337	33391	
357	0	32727	32855	33109	32359	33367	33353	32727	34951	
358	0	32832	32895	33192	32209	33247	31860	33211	36385	
359	0	32754	32810	33232	32263	32858	30527	34431	36871	
360	0	32549	32711	32963	32380	32455	31890	34502	35730	
361	0	32705	32709	33043	32278	32443	33700	34564	32223	
362	0	32759	32829	33013	32409	32511	33874	33047	30420	
363	0	32551	32635	32567	32332	32863	34131	31163	29983	
364	0	32521	32791	32438	32431	32607	31839	31148	30247	
365	0	32639	32822	32351	32454	32009	29777	32887	30303	
366	0	32820	32703	32694	32225	32356	28284	32089	33742	
367	0	32706	32714	32717	32437	33223	30943	29307	35813	
368	0	32612	32590	32767	32217	33555	33842	29375	33154	
369	0	32692	32588	32722	32083	33431	35892	31614	29964	
370	0	32773	32679	32850	32271	32559	37099	32628	31567	
371	0	32766	32565	32884	32254	31689	36309	32887	32598	
372	0	32708	32739	32839	32306	31737	35783	33735	31287	
373	0	32641	32692	32811	32767	31756	33109	34002	27860	
374	0	32644	32751	32915	32855	32610	32527	34726	28234	
375	0	32868	32862	32707	32701	33167	31660	34453	31913	
376	0	32830	32829	32564	32903	33447	31661	34047	32127	
377	0	33047	32877	32479	32767	33031	31775	33967	32063	
378	0	32900	32879	31920	33055	32220	31701	33711	33009	
379	0	32932	32813	32067	33199	32013	32356	33011	33927	
380	0	32899	32611	31790	33138	32127	34355	32436	35412	
381	0	32854	32717	32181	33431	32311	33836	31823	34586	
382	0	32769	32573	32133	33207	32533	32945	31519	32830	
383	0	32770	32631	32247	33279	33511	32791	31838	32717	
384	0	32758	32551	32372	32998	34333	32431	31937	32583	
385	0	32798	32565	32635	32839	33842	32983	32356	32899	
386	0	32820	32676	32795	32655	34175	33379	32581	32813	
387	0	32773	32838	32965	32830	33311	31547	32413	32866	
388	0	32788	32671	32827	32918	33242	32153	32419	33821	
389	0	32788	32807	32751	32629	32775	32952	32221	34659	
390	0	32740	32783	32775	32815	33255	32807	32239	33863	
391	0	32742	32670	32927	32783	33439	33003	32413	33497	
392	0	32767	32748	32831	32489	32836	32479	31981	33681	
393	0	32812	32623	33010	32484	32263	32485	33171	33423	
394	0	32895	32765	33057	32358	31271	31517	34924	33399	
395	0	32922	32869	32983	32105	31675	31212	34311	34107	
396	0	32710	32799	33033	32285	33487	32037	31415	34239	
397	0	32561	32663	33135	32435	33978	32335	28467	31943	
398	0	32621	32691	33213	32462	33411	33159	31746	29382	
399	0	32705	32802	33184	32495	32218	33211	35379	31967	
400	0	32798	32877	32991	32487	32071	32791	34111	32017	
401	0	32748	32804	32951	32513	32582	32965	31759	31269	
402	0	32793	32929	32767	32562	32247	32660	31063	29601	
403	0	32671	32842	32685	32598	32215	32151	32867	30367	
404	0	32621	32723	32466	32695	32391	33584	34439	32391	
405	0	32785	32786	32593	32677	31991	34595	35775	32717	
406	0	32706	32745	32775	32615	31879	34399	35029	32437	
407	0	32719	32631	32625	32553	32694	33327	33581	33821	
408	0	32663	32674	32636	32451	33610	32845	32495	33871	
409	0	32761	32577	32578	32181	33511	32245	32513	33159	
410	0	32866	32645	32532	32443	32767	31846	32461	32933	
411	0	32824	32709	32619	32515	32297	32703	32919	32871	
412	0	32879	32809	32534	32514	32002	32063	32903	33580	
413	0	32812	32717	32495	32571	32791	32187	32110	34063	
414	0	32761	32623	32335	32615	32709	32763	31794	31863	
415	0	32749	32715	32438	33119	32751	32786	31584	33260	
416	0	32660	32705	32461	33061	32751	32586	31339	35058	
417	0	32716	32624	32715	32948	32894	32227	32901	33667	
418	0	32773	32741	32759	32971	32763	32911	33587	31495	
419	0	32823	32693	32804	32933	33685	34423	34523	30826	
420	0	32808	32772	32797	32838	33791	33766	34327	30573	
421	0	32719	32783	33015	32823	33987	32854	32381	30023	
422	0	32729	32727	32775	32707	33652	32671	32259	30612	
423	0	32736	32839	32849	32660	32485	32655	33551	31467	
424	0	32697	32647	32915	32673	32558	32987	32925	31996	
425	0	32615	32719	32925	32483	32756	32217	31785	33248	
426	0	32673	32671	32863	32566	32537	32787	31679	34131	
427	0	32846	32850	32873	32541	32015	32578	31666	34511	
428	0	32866	32715	32761	32698	32479	32299	31806	34607	
429	0	32915	32703	32635	32657	32643	32372	32469	34929	
430	0	32961	32751	32891	32487	32820	32027	32793	35087	
431	0	32937	32743	32847	32499	32871	30982	33527	33508	
432	0	32871	32926	32927	32674	32476	30047	33251	33662	
433	0	32839	32863	32709	32599	32213	30019	31875	33555	
434	0	32751	32773	32647	32647	32596	31479	31926	32157	
435	0	32738	32844	32534	32602	32909	34500	32917	31857	
436	0	32705	32695	32599	32751	33964	38227	33362	34815	
437	0	32698	32723	32533	32844	33718	37270	33615	35071	
438	0	32771	32684	32615	32670	32921	34511	32461	31501	
439	0	32764	32679	32479	32967	32479	33610	32089	29719	
440	0	32769	32635	32586	32919	32223	33390	32871	29181	
441	0	32739	32605	32571	32807	31837	31789	33798	29199	
442	0	32725	32629	32498	32551	31787	32175	33313	28655	
443	0	32732	32713	32658	32431	32617	31807	32527	30965	
444	0	32698	32693	32669	32599	32802	31355	33039	31893	
445	0	32647	32703	32500	32450	32847	31054	31591	33367	
446	0	32694	32732	32644	32467	32730	31175	30425	34797	
447	0	32692	32701	32599	32253	31772	31060	30963	33311	
448	0	32727	32766	32894	32383	32327	31833	31239	31997	
449	0	32677	32577	32770	32543	32533	34575	32567	31171	
450	0	32663	32759	32851	32349	32815	35180	31670	33879	
451	0	32687	32715	32799	32431	33234	34754	32195	33666	
452	0	32695	32647	32825	32509	33302	32881	32150	32959	
453	0	32847	32751	32869	32443	32311	32546	34333	33667	
454	0	32814	32669	32879	32691	31945	32975	35620	34629	
455	0	32653	32767	32655	32955	32074	33377	33862	34134	
456	0	32765	32823	32685	33101	32769	33503	33279	33616	
457	0	32931	32900	32690	33106	33037	33085	34751	31203	
458	0	33087	32951	32722	33167	32875	32111	34902	31356	
459	0	33033	32749	32695	32969	33558	31719	34331	32775	
460	0	32919	32756	32756	33077	33895	32607	33173	32671	
461	0	32801	32693	32631	33095	33410	33084	32607	33110	
462	0	32802	32675	32629	32824	32875	32722	31799	32706	
463	0	32791	32673	32647	32887	33039	32421	31916	31821	
464	0	32793	32647	32836	32831	33207	32087	32623	32279	
465	0	32818	32838	32903	32660	32852	31867	33225	31969	
466	0	32726	32758	32789	32738	33263	32815	33612	31762	
467	0	32775	32783	32715	32756	33470	33799	32223	32799	
468	0	32721	32743	32955	32751	32772	33371	31700	33578	
469	0	32667	32742	32879	32635	32948	32242	31775	34311	
470	0	32537	32787	32743	32427	33121	31447	31604	35638	
471	0	32481	32690	32739	32491	32876	29667	32877	36174	
472	0	32751	32946	32903	32439	31892	28608	33619	36055	
473	0	32709	32804	32893	32391	32183	30074	34345	33787	
474	0	32629	32685	32708	32547	32563	32499	33489	33267	
475	0	32730	32667	32689	32471	31959	33149	33206	30751	
476	0	32709	32639	32551	32330	32295	35311	33076	30533	
477	0	32748	32738	32629	32341	33095	34527	31927	29843	
478	0	32786	32587	32732	32517	32767	34115	32391	29850	
479	0	32745	32566	32502	32642	32503	35486	32281	31303	
480	0	32694	32655	32374	33001	33031	35335	32329	29945	
481	0	32752	32698	32484	33068	32875	35623	32791	30181	
482	0	32621	32775	32497	32910	32476	34695	31767	30806	
483	0	32630	32630	32599	32935	32301	33791	32089	31103	
484	0	32703	32711	32519	32927	31826	33124	31405	32068	
485	0	32788	32679	32740	32733	31494	32583	30565	34155	
486	0	32863	32695	32788	32399	32236	32095	31175	34447	
487	0	32918	32658	33055	32021	32969	31675	31359	34684	
488	0	32903	32799	32787	32180	32793	32276	30288	34595	
489	0	32764	32751	32564	32287	33615	32285	31610	35332	
490	0	32801	32647	32764	32479	33818	31718	34215	32735	
491	0	32799	32815	32711	33023	33274	31691	34543	30687	
492	0	32829	32743	32759	33068	33479	32749	34115	33223	
493	0	32846	32841	32756	32871	33184	33388	33735	32013	
494	0	32823	32859	32675	33093	33206	32782	33747	31659	
495	0	32756	32745	32635	32935	33023	32110	34959	30677	
496	0	32759	32766	32669	32647	32519	32289	35319	30395	
497	0	32718	32679	32615	32621	31749	32311	34580	31735	
498	0	32796	32748	32715	32437	32242	32103	33266	33815	
499	0	32783	32679	32615	32581	33377	32707	33137	34146	
500	0	32809	32762	32735	32622	33327	32471	33035	33227	
501	0	32924	32727	32775	32431	33055	32485	33820	32544	
502	0	32812	32823	32893	32563	32709	32876	33343	31723	
503	0	32781	32847	32914	32436	32175	32053	32146	32471	
504	0	32772	32852	33029	32521	31964	30579	31594	34860	
505	0	32808	32851	33126	32569	31873	30367	32018	36556	
506	0	32702	32679	32847	32527	32667	31389	32447	36288	
507	0	32762	32749	32727	32569	34156	35186	33055	34918	
508	0	32724	32719	32644	32555	33879	35258	32087	34175	
509	0	32800	32841	32791	32391	32399	31559	32075	32895	
510	0	32672	32563	32620	32667	32835	32467	32801	32591	
511	0	32727	32476	32742	32719	33359	34060	32381	34455	
512	0	32638	32607	32623	32619	33477	34199	32236	34727	
513	0	32647	32613	32705	32695	33089	33938	31607	32823	
514	0	32612	32690	32663	32809	32627	34093	31660	29879	
515	0	32561	32639	32687	32822	32087	33341	33060	28055	
516	0	32596	32540	32738	32924	31891	33764	31851	28599	
517	0	32751	32751	33025	32849	30637	33495	30898	28895	
518	0	32833	32725	32943	32674	30727	32053	31026	29639	
519	0	32880	32707	33007	32836	32215	30378	30497	31390	
520	0	32721	32690	32818	32793	32877	31431	30911	32173	
521	0	32807	32655	32943	32698	33937	33814	31677	33383	
522	0	32903	32873	32813	32698	34327	32823	32770	33699	
523	0	32921	32767	32685	32571	33887	32667	33485	33207	
524	0	32821	32767	32297	32403	33809	33109	33865	33453	
525	0	32810	32877	32348	32407	32681	33652	35299	32223	
526	0	32829	32709	32301	32415	32621	33917	35175	31693	
527	0	32772	32734	32276	32400	32638	33080	34871	33205	
528	0	32753	32602	32297	32748	32839	32260	34322	32516	
529	0	32676	32579	32301	32807	32548	31751	34687	31847	
530	0	32740	32775	32258	32935	32641	32011	33741	32588	
531	0	32799	32826	32533	33007	32359	32022	32668	33148	
532	0	32804	32773	32527	33008	32734	32439	32013	33223	
533	0	32809	32771	32566	33031	32702	32135	31865	33799	
534	0	32714	32726	32629	32990	32942	32262	31983	34141	
535	0	32743	32823	32669	32911	32614	32349	32605	34791	
536	0	32737	32647	32797	32839	32391	32303	32551	36180	
537	0	32791	32783	32653	32903	32540	32411	32647	34159	
538	0	32697	32709	32765	33004	33096	32623	32447	31615	
539	0	32810	32647	32893	32548	32353	32507	32831	33023	
540	0	32740	32725	32987	32467	32511	32903	32610	33727	
541	0	32711	32647	32865	32317	32551	33983	32850	31794	
542	0	32721	32740	32835	32096	32443	34311	32086	31763	
543	0	32753	32703	32879	32125	32615	33479	31035	32295	
544	0	32877	32635	33495	32391	34043	33447	31295	31906	
545	0	32671	32797	33082	32457	33959	33055	30788	32759	
546	0	32607	32623	33047	32858	33276	31785	30726	34031	
547	0	32793	32803	33281	32854	31814	29284	30647	34787	
548	0	32733	32710	33080	32700	32041	28761	33978	33389	
549	0	32643	32578	32663	32797	33091	30433	37716	32260	
550	0	32661	32803	32732	32727	33769	33375	37623	34036	
551	0	32656	32871	32524	32495	32723	36583	36615	32940	
552	0	32698	33023	32594	32501	32647	38277	35119	30439	
553	0	32790	32953	32562	32457	32292	36402	33079	28758	
554	0	32736	32823	32677	32099	32140	33318	31359	29357	
555	0	32682	32773	32557	32193	33156	33204	30306	30279	
556	0	32695	32719	32692	32117	32903	32357	30703	31525	
557	0	32690	32641	32525	31886	32450	32075	31889	31468	
558	0	32634	32603	32515	31903	32715	32293	32327	32131	
559	0	32696	32509	32615	32135	32756	32223	32482	32575	
560	0	32731	32719	32791	32431	33015	32407	32595	33332	
561	0	32855	32705	32628	32759	32887	32115	33003	32903	
562	0	32898	32719	32631	33083	32967	32171	32782	33487	
563	0	32903	32701	32455	33156	32710	31997	33031	34209	
564	0	33093	32655	32463	33919	32822	31797	32642	34460	
565	0	33026	32597	32471	34054	32743	31471	32969	33927	
566	0	32940	32751	32539	33783	32825	31095	33039	33839	
567	0	32831	32697	32439	33852	32833	32103	32823	34687	
568	0	32807	32719	32525	33678	32379	30698	33082	34605	
569	0	32775	32667	32454	33527	31787	31007	32461	32663	
570	0	32761	32671	32556	33311	32611	34863	31367	30295	
571	0	32775	32724	32708	32863	32263	36197	32879	29646	
572	0	32766	32716	32722	32772	32492	36385	31482	29745	
573	0	32797	32647	32599	32679	32389	35091	29255	30836	
574	0	32863	32781	32775	32450	32204	33633	31679	32372	
575	0	32740	32790	32790	32431	33302	31618	31900	32915	
576	0	32807	32901	32983	32261	33935	30919	31837	34015	
577	0	32839	32773	32943	32352	33254	31158	33743	36147	
578	0	32805	32670	32871	32342	32243	31887	35180	35149	
579	0	32669	32740	32783	32205	31234	32303	35259	32739	
580	0	32766	32854	32859	32207	31599	33616	33483	30759	
581	0	32665	32839	32911	32293	32799	34695	33334	32001	
582	0	32618	32718	32747	32405	34367	33775	32473	33364	
583	0	32614	32658	32543	32250	35138	33227	31177	32983	
584	0	32592	32719	32630	32471	35577	33206	31907	32070	
585	0	32630	32834	32676	32343	34098	32359	32554	32102	
586	0	32617	32871	32775	32087	32453	31383	33543	33727	
587	0	32625	32877	32757	32159	32207	31691	33375	33110	
588	0	32677	32887	32893	32233	32309	32109	33519	33038	
589	0	32636	32695	32802	32191	32007	31751	33977	31655	
590	0	32759	32679	33223	32423	31879	32058	34287	31603	
591	0	32827	32843	33397	32381	33019	32118	33158	32873	
592	0	32742	32743	33097	32272	33080	32615	32845	32629	
593	0	32945	32903	32979	32382	32932	33554	32365	32151	
594	0	32951	32773	32871	32519	32837	33911	32023	32001	
595	0	32991	32805	32646	32463	32422	33375	32587	31717	
596	0	33010	32759	32549	32731	32178	33203	32374	31307	
597	0	33045	32719	32391	32935	31974	32813	32671	32177	
598	0	32997	32733	32085	32735	32173	32019	32839	33367	
599	0	32958	32623	32069	32745	32511	31716	32516	34375	
600	0	32922	32775	32079	32669	32359	30639	32607	35055	
601	0	32873	32719	32167	32891	32690	31023	32909	35239	
602	0	32793	32713	32228	33180	32703	31791	32631	34178	
603	0	32830	32655	32363	33137	32468	33380	32647	32635	
604	0	32689	32689	32413	33133	32808	34816	32430	33855	
605	0	32585	32574	32498	32973	33298	36263	32482	33173	
606	0	32577	32652	32530	33351	33375	36199	32925	30239	
607	0	32636	32717	32722	33175	33063	35031	32811	28589	
608	0	32681	32725	32749	32920	32279	33209	32551	29063	
609	0	32525	32463	32788	32993	33069	33423	31482	33184	
610	0	32477	32550	32755	32721	31702	32772	31611	31887	
611	0	32658	32591	32980	32684	30743	32295	32647	31503	
612	0	32736	32708	33055	32500	30677	31470	31669	32015	
613	0	32771	32591	33031	32466	32375	31463	30489	32827	
614	0	32749	32675	32974	32587	34207	32637	31395	34305	
615	0	32791	32751	33086	32559	34388	32093	32425	33981	
616	0	32841	32809	33069	32474	33943	31239	34951	33855	
617	0	32698	32679	32855	32756	33997	31967	36309	32535	
618	0	32694	32799	32771	32775	33207	31991	35060	32495	
619	0	32755	32834	32989	32531	33175	32391	33131	32839	
620	0	32647	32783	32997	32692	33485	32427	33007	32747	
621	0	32671	32831	33025	32474	32775	32363	33209	32361	
622	0	32743	32735	32869	32203	33395	33735	32258	32605	
623	0	32870	32846	32887	32167	32751	32846	33159	31929	
624	0	32727	32902	32703	32335	32935	33579	34693	32791	
625	0	32797	32806	32855	32279	32317	32826	33781	32797	
626	0	32809	32818	32602	32063	32383	32231	32818	32935	
627	0	32806	32803	32543	32387	31930	31351	32255	33075	
628	0	32741	32679	32427	32821	32271	32583	31895	33443	
629	0	32711	32738	32585	32823	32495	32413	32088	33499	
630	0	32686	32754	32575	33082	32182	32068	32323	33498	
631	0	32711	32698	32647	32875	32362	31338	32851	33695	
632	0	32775	32684	32661	32741	32135	30043	32676	33911	
633	0	32788	32722	32647	32467	32495	30559	32659	33742	
634	0	32713	32711	32708	32113	33099	33683	32743	34724	
635	0	32703	32873	32838	32319	33466	34975	31957	34773	
636	0	32717	32751	33033	32495	33671	34149	32404	33619	
637	0	32788	32761	32925	32455	32747	33359	33129	31761	
638	0	32775	32791	32850	32982	32893	34078	32967	33303	
639	0	32677	32683	32667	33303	32885	36015	32532	32882	
640	0	32620	32569	32636	33155	32525	35903	32164	29855	
641	0	32684	32631	32610	33004	31247	34015	32194	26940	
642	0	32878	32694	32759	33030	31031	33511	31332	25914	
643	0	32819	32758	32798	32943	31693	32715	32333	28311	
644	0	32815	32749	32743	33039	32834	32217	31471	31361	
645	0	32948	32755	32783	32817	33334	32614	30622	32647	
646	0	32941	32911	32852	32761	32925	32367	29737	32671	
647	0	32791	32703	32654	32847	33469	32386	28751	34490	
648	0	32822	32676	32671	32911	33828	32487	27891	35565	
649	0	32865	32662	32647	32788	33403	32283	29420	34965	
650	0	32729	32658	32443	32678	32807	32050	33921	33792	
651	0	32857	32659	32530	32683	32830	31915	38871	32921	
652	0	32854	32604	32487	32513	32972	31970	40778	33309	
653	0	32844	32717	32551	32615	32813	32043	38919	33399	
654	0	32780	32775	32535	32711	33146	31936	36651	33437	
655	0	32759	32837	32701	32679	34013	32579	35172	33165	
656	0	32767	32759	32642	32591	33927	32647	34373	33068	
657	0	32768	32850	32646	32487	32913	32647	33445	32799	
658	0	32836	32773	32745	32445	32555	32557	32933	33698	
659	0	32730	32871	32810	32375	32415	32714	32475	33607	
660	0	32743	32731	32885	32358	32293	32771	32313	31949	
661	0	32636	32815	32839	32301	32391	33035	32225	31670	
662	0	32570	32747	32575	32274	32124	32565	31841	32713	
663	0	32623	32757	32718	32251	32263	32391	32031	32900	
664	0	32626	32797	32836	32150	32642	33047	32123	32866	
665	0	32639	32758	32985	32158	32593	33373	32359	32281	
666	0	32644	32709	33049	32125	33009	32886	32293	32209	
667	0	32588	32727	32877	32159	32873	32359	32588	33379	
668	0	32612	32775	32691	32263	32799	32246	32612	33396	
669	0	32708	32731	32946	32403	32647	32641	32359	33499	
670	0	32794	32727	32878	32452	32623	32347	31399	33723	
671	0	32845	32701	32647	32806	32591	31119	30553	33700	
672	0	32737	32617	32615	33059	32703	31291	31925	32801	
673	0	32692	32695	32293	33382	32455	32284	33351	32262	
674	0	32769	32564	32431	33754	32491	34551	33097	31415	
675	0	32710	32646	32586	33876	32607	36101	32587	32496	
676	0	32740	32639	32460	33746	32457	34909	33269	31835	
677	0	32767	32551	32583	33406	31792	32303	32903	30669	
678	0	32732	32677	32647	33110	32189	31900	29119	32423	
679	0	32726	32660	32685	32771	32402	31733	29203	31870	
680	0	32701	32421	32747	32743	32209	33473	30463	30634	
681	0	32748	32642	32810	32593	31044	33959	30959	32883	
682	0	32948	32839	33030	32657	30491	33383	31023	35710	
683	0	32941	32785	32895	32583	33115	33935	30656	33573	
684	0	32890	32699	32828	32557	35159	33254	32492	30086	
685	0	32903	32788	32799	32714	35559	33330	34809	31075	
686	0	32924	32941	32837	32576	35431	32885	38335	32165	
687	0	32971	32917	32703	32534	34899	32551	37165	32495	
688	0	32812	32863	32540	32527	34342	32391	35287	32789	
689	0	32844	32836	32679	32438	33283	31935	35821	33127	
690	0	32891	32729	32801	32285	32823	31652	34439	33347	
691	0	32828	32829	32633	32455	32638	32111	32838	33693	
692	0	32758	32803	32615	32258	32671	32667	31381	33971	
693	0	32788	32684	32571	32381	32603	32146	30978	33017	
694	0	32849	32884	32642	32365	32171	31699	31975	32790	
695	0	32837	32819	32735	32463	32100	32007	32733	32727	
696	0	32722	32735	32746	32502	32391	32698	32223	33703	
697	0	32681	32765	32793	32423	32116	32284	32231	34031	
698	0	32738	32781	32812	32437	32345	32525	32549	35191	
699	0	32784	32758	32642	32369	32807	32807	32719	34195	
700	0	32708	32804	32645	32547	32671	33380	32575	32263	
701	0	32722	32791	32803	32467	32567	33866	32683	32739	
702	0	32775	32809	32747	32413	32039	33185	32887	31223	
703	0	32804	32758	32863	32157	31895	33019	32735	31821	
704	0	32708	32670	32771	32324	32207	32970	32975	31029	
705	0	32775	32553	32806	32551	32315	32479	32855	30865	
706	0	32687	32567	32775	32711	32505	31887	32627	31949	
707	0	32695	32599	32885	32843	32588	32093	32839	33007	
708	0	32757	32759	32967	32764	32662	32915	32438	33357	
709	0	32727	32623	33031	33023	32735	34052	32249	33453	
710	0	32674	32533	32881	33097	32817	34695	32055	33861	
711	0	32544	32611	32727	32914	32339	33973	32171	32986	
712	0	32662	32692	32843	33127	32077	33036	32698	31500	
713	0	32679	32691	32747	33335	31943	31565	34067	32070	
714	0	32764	32689	32821	33336	32709	31292	32897	33439	
715	0	32792	32735	32809	33569	33618	32007	31479	33367	
716	0	32740	32703	32645	33259	34567	32526	31927	31495	
717	0	32658	32647	32564	32839	33925	32949	32671	30973	
718	0	32764	32722	32502	32903	32854	32548	32481	31543	
719	0	32765	32667	32495	32599	32966	32065	32903	32845	
720	0	32832	32699	32359	32219	32599	32755	32495	33355	
721	0	32783	32775	32339	32375	33031	32775	32380	32639	
722	0	32788	32769	32391	32388	32792	32919	33703	33231	
723	0	32775	32735	32487	32356	33350	33875	32871	35012	
724	0	32837	32821	32483	32546	33259	33031	33502	35431	
725	0	32823	32739	32525	32566	32471	31363	35757	33983	
726	0	32754	32797	32487	32454	32647	31483	35293	31297	
727	0	32811	32769	32715	32642	32363	32454	32057	29999	
728	0	32791	32709	32719	32737	32519	33015	29228	31935	
729	0	32735	32759	32791	32623	32597	33313	27679	32819	
730	0	32590	32740	32804	32591	32647	34183	30627	35300	
731	0	32628	32567	32748	32640	32855	33815	33987	37447	
732	0	32725	32731	32923	32631	32613	32623	34357	34874	
733	0	32792	32795	32957	32639	32850	32429	32567	32467	
734	0	32874	32833	32969	32482	32316	31634	32964	29126	
735	0	32784	32867	32836	32335	31983	32647	34375	27309	
736	0	32797	32942	32877	32375	32558	32877	34687	28566	
737	0	32863	32867	33007	32353	32671	33435	34615	30519	
738	0	32756	32845	32811	32571	32609	33871	34015	31571	
739	0	32680	32851	32857	32511	32065	33665	34102	31931	
740	0	32764	32737	32871	32263	31854	32415	33263	31731	
741	0	32656	32663	32730	32391	32588	32111	32423	30895	
742	0	32639	32698	32671	32524	33295	32986	30227	32620	
743	0	32660	32723	32661	32541	33925	33431	30493	32079	
744	0	32678	32751	32499	32699	33359	33185	32509	31870	
745	0	32745	32674	32591	32771	32117	31961	31295	32707	
746	0	32663	32590	32583	32771	32835	33398	30599	32442	
747	0	32718	32572	32703	32899	32805	34810	28453	32551	
748	0	32916	32710	32647	32897	31183	33285	30164	32955	
749	0	32845	32553	32699	32775	31357	32063	31223	32751	
750	0	32789	32589	32647	33015	33413	32381	30703	33830	
751	0	32783	32636	32711	32946	33924	32470	32071	36005	
752	0	32813	32687	32639	32901	33655	32227	35449	36772	
753	0	32870	32783	32701	32799	33807	31906	36967	34884	
754	0	32876	32677	32633	32501	33543	32074	37060	33531	
755	0	32903	32734	32724	32677	32391	32071	36403	33235	
756	0	32795	32668	32643	32590	32401	32245	35002	33231	
757	0	32821	32768	32663	32602	31585	32653	34374	34719	
758	0	32811	32667	32589	32693	32165	32050	33511	35520	
759	0	32751	32743	32691	32766	32837	31893	31615	32645	
760	0	32850	32797	32783	32557	33543	31680	30909	32233	
761	0	32820	32879	32969	32775	34452	33332	31583	34770	
762	0	32640	32743	32903	32671	34295	33543	32898	32950	
763	0	32701	32775	32925	32805	33490	34243	35207	30267	
764	0	32754	32701	32671	32803	32692	33394	35990	30979	
765	0	32788	32807	32676	32511	32132	32135	34999	32517	
766	0	32771	32806	32499	32693	32128	32367	33647	31826	
767	0	32782	32809	32543	32495	32275	31751	32567	31911	
768	0	32848	32903	32531	32334	32383	31012	32535	31975	
769	0	32752	32677	32391	32581	32495	31659	32319	30231	
770	0	32740	32611	32391	32749	33019	34234	31791	30751	
771	0	32684	32637	32497	32677	32967	35066	31359	32677	
772	0	32724	32703	32637	32619	32031	33036	31657	33221	
773	0	32773	32685	32769	32558	31103	32079	31973	32807	
774	0	32830	32846	32809	32575	30500	30892	29599	33379	
775	0	32769	32805	32916	32647	31601	32911	30085	34373	
776	0	32806	32769	33069	32495	31879	32971	31675	33375	
777	0	32814	32679	32903	32627	32431	32845	32255	32567	
778	0	32733	32679	32801	32658	33491	35663	31458	31639	
779	0	32630	32567	32514	32935	34559	36276	32022	31438	
780	0	32657	32706	32563	32851	35307	34381	32247	31367	
781	0	32714	32687	32505	32597	33719	32485	33647	31255	
782	0	32796	32759	32692	32711	33358	32354	32892	32031	
783	0	32689	32763	32591	32767	33527	31661	32695	32164	
784	0	32704	32789	32775	32585	33647	31893	33891	32827	
785	0	32826	32719	32816	32687	34153	32257	33015	33443	
786	0	32746	32815	32821	32615	33735	32513	32275	33165	
787	0	32677	32807	32737	32663	33047	32575	32855	33319	
788	0	32738	32804	32693	32722	32911	32215	33815	32993	
789	0	32847	32733	32821	32485	31975	32107	35135	32391	
790	0	32868	32879	32789	32531	32037	32385	35447	32277	
791	0	32786	32804	32687	32492	32074	32163	35061	32919	
792	0	32784	32807	32529	32824	32121	32391	33923	33730	
793	0	32796	32727	32687	32863	32263	31951	33197	34052	
794	0	32645	32653	32699	32717	32599	31783	32543	34128	
795	0	32724	32719	32879	32847	32302	31220	31491	34803	
796	0	32761	32790	32903	32639	32199	31017	31055	34345	
797	0	32790	32699	32969	32743	32407	31501	31351	32347	
798	0	32838	32695	32937	32627	32763	33863	31884	29864	
799	0	32775	32773	32811	32503	32261	35634	32052	29823	
800	0	32756	32701	32718	32740	32645	35793	33287	30957	
801	0	32775	32559	32735	32711	33061	34625	33569	29957	
802	0	32783	32559	32791	32584	32887	32962	33215	30365	
803	0	32698	32687	32658	32690	32039	32239	33879	32572	
804	0	32783	32677	32801	32799	31742	32975	33366	34167	
805	0	32695	32703	32807	32537	32114	33238	32287	35139	
806	0	32740	32716	32749	32692	32369	32717	30946	34235	
807	0	32812	32660	32852	32751	32917	32797	29091	32740	
808	0	32919	32791	32947	32643	33189	32343	28095	32295	
809	0	32848	32745	32870	32646	33638	32321	31075	32481	
810	0	32702	32687	32734	32641	33257	32581	32991	32951	
811	0	32679	32783	32717	32562	32988	33042	32869	33371	
812	0	32674	32711	32695	32548	33217	33446	34727	32861	
813	0	32743	32903	32663	32391	33591	32831	35663	32577	
814	0	32710	32807	32635	32741	32861	32055	32933	31879	
815	0	32775	32891	32615	32717	32831	31847	32211	32812	
816	0	32749	32710	32674	32598	33247	32916	32599	32694	
817	0	32783	32709	32695	32867	32448	31900	33250	32969	
818	0	32765	32749	32738	32775	32323	30759	34436	33063	
819	0	32686	32729	32668	32551	31787	30364	34246	33989	
820	0	32672	32775	32740	32609	32749	32486	33669	37015	
821	0	32586	32643	32647	32599	33227	32951	33094	36812	
822	0	32817	32679	32786	32564	33287	34108	32135	35941	
823	0	32881	32865	32513	32415	32718	35261	33477	34007	
824	0	32804	32740	32434	32527	32305	34701	34377	30631	
825	0	32704	32723	32199	32597	31751	34239	34335	28685	
826	0	32762	32623	32278	32592	31727	33167	32199	27937	
827	0	32820	32647	32245	32685	31781	32459	29949	28348	
828	0	32730	32604	32285	32571	32903	32729	28999	28876	
829	0	32613	32669	32321	32759	33879	33439	28349	29905	
830	0	32646	32726	32303	32734	33860	33003	28412	31035	
831	0	32724	32829	32506	32806	32673	32639	31312	31107	
832	0	32797	32831	32634	32627	31854	32749	33215	32617	
833	0	32924	32921	32797	32663	31750	32756	33238	35177	
834	0	32841	32797	32834	32734	32703	33129	32375	37450	
835	0	32911	32731	32887	32507	32731	31837	34798	36055	
836	0	32827	32681	33005	32719	33597	31420	35231	35791	
837	0	32668	32677	32841	32866	33773	31751	35933	35711	
838	0	32599	32647	32854	32885	34169	32059	36853	33655	
839	0	32719	32695	32823	32735	32835	31563	35601	33389	
840	0	32756	32687	32791	32823	33084	30941	33014	32199	
841	0	32701	32583	32638	32831	33055	31479	32151	33391	
842	0	32711	32591	32829	32687	32483	31593	32647	33513	
843	0	32756	32647	32772	33003	32895	32829	33415	32330	
844	0	32839	32756	32717	32839	32803	33367	32503	31681	
845	0	32955	32879	32818	32515	31725	33054	30658	30797	
846	0	32807	32804	32531	32785	31358	35026	30684	30803	
847	0	32683	32730	32534	32721	32500	35495	32191	28829	
848	0	32764	32735	32439	32487	33100	33533	31663	28719	
849	0	32751	32839	32467	32623	32797	32499	32876	30514	
850	0	32895	32876	32389	32501	33601	33031	34980	31718	
851	0	32771	32743	32333	32437	33873	33295	35813	32457	
852	0	32772	32773	32441	32635	33149	32722	35675	33959	
853	0	32787	32662	32509	32690	32691	32620	34479	33731	
854	0	32752	32709	32593	32571	32442	32411	33499	32851	
855	0	32698	32775	32615	32669	32378	32553	32756	33735	
856	0	32676	32740	32621	32661	32547	32509	32570	33735	
857	0	32681	32709	32631	32762	32751	32963	31903	33095	
858	0	32912	32871	32790	32533	32135	32860	31662	32631	
859	0	32836	32775	32825	32747	32177	32837	31476	32019	
860	0	32817	32708	32836	32992	31831	32711	31879	31005	
861	0	32770	32699	32899	32948	32159	32619	31143	31458	
862	0	32674	32647	32871	32967	33047	33194	30270	31846	
863	0	32757	32564	32843	32823	33211	33095	29965	32301	
864	0	32782	32692	32861	32714	32743	31575	29979	33607	
865	0	32809	32695	32787	32439	32107	30822	30789	35813	
866	0	32782	32695	32971	32524	32343	30798	34561	35869	
867	0	32748	32615	32825	32620	32914	32431	36908	38759	
868	0	32732	32557	32929	32533	34170	34529	34549	40061	
869	0	32672	32700	32727	32755	34372	32997	31830	39559	
870	0	32605	32711	32751	32767	33677	32614	31714	33769	
871	0	32590	32683	32671	32490	33543	33359	33351	29563	
872	0	32590	32607	32705	32428	32439	34738	32310	28366	
873	0	32603	32562	32594	32399	32535	33959	31031	28127	
874	0	32530	32615	32475	32303	33213	33894	30108	30188	
875	0	32552	32803	32415	32411	33383	32727	29898	29814	
876	0	32802	32883	32562	32525	32169	31924	32524	30151	
877	0	32804	32887	32537	32743	32037	31811	34682	30756	
878	0	32698	32838	32463	32661	32063	31062	35479	30802	
879	0	32739	32967	32391	32479	32051	31354	34567	31279	
880	0	32783	32943	32500	32577	32073	32813	34009	32335	
881	0	32732	32863	32434	32577	32241	34079	34483	32864	
882	0	32792	32949	32642	32519	32359	34153	33319	33099	
883	0	32854	32935	32603	32692	32182	33185	31652	32863	
884	0	32850	33019	32663	32511	31986	32412	29697	33299	
885	0	32781	33010	32681	32297	31463	32083	30445	33159	
886	0	32657	33063	32747	32226	32622	32166	34087	33035	
887	0	32614	32835	32533	32063	33533	33209	34731	32647	
888	0	32565	32802	32643	32275	33563	34363	33238	32679	
889	0	32709	32933	32677	32157	32628	33531	32439	32418	
890	0	32799	32892	32673	31975	32503	33031	32379	31383	
891	0	32707	32885	32549	32193	33159	33468	31737	30558	
892	0	32796	32855	32725	32181	33099	33367	31471	31126	
893	0	32821	32722	32815	32169	32306	32743	31687	30715	
894	0	32858	32775	33014	32639	32551	32231	31975	31441	
895	0	32944	32799	33099	32838	32343	30892	35602	34149	
896	0	32940	32653	33303	32877	33316	31341	34913	35905	
897	0	32914	32662	33271	33187	33145	32156	33111	37867	
898	0	32925	32524	33423	33159	33639	34063	33353	36983	
899	0	33031	32539	33639	32999	33213	34721	31623	35391	
900	0	32967	32646	33723	33124	32019	32583	29879	33888	
901	0	33006	32668	33589	33026	31123	31951	31012	31587	
902	0	32917	32401	33651	33159	32121	33311	30583	31821	
903	0	32954	32455	33671	33187	32569	33484	28643	32407	
904	0	33012	32474	33671	33303	33463	32898	26802	33091	
905	0	33016	32552	33415	33285	35446	32854	30916	33918	
906	0	33057	32607	33039	33319	34280	31917	38803	32046	
907	0	32900	32591	32643	33263	34051	31617	39726	31238	
908	0	32841	32399	32481	33543	34720	31894	40477	31254	
909	0	32908	32417	32383	33311	33814	32737	41313	30681	
910	0	33095	32475	32373	33349	32969	32063	39719	29074	
911	0	32927	32703	32479	33166	32543	31543	37113	30471	
912	0	32645	32606	32253	33191	32956	31191	35029	31750	
913	0	32498	32679	32172	33083	33301	31551	33671	31215	
914	0	32530	32591	31844	33221	32966	33375	32306	31495	
915	0	32664	32647	31895	33047	32523	34439	30966	32167	
916	0	32769	32797	31841	32861	32659	34592	29682	33479	
917	0	32818	32717	31879	32749	32461	33298	28815	33063	
918	0	32689	32723	31767	32339	32797	32866	29539	32735	
919	0	32669	32738	31921	32023	32239	32631	30759	33311	
920	0	32638	32850	31805	31935	32399	32987	31199	33261	
921	0	32701	32821	31903	31843	32863	34221	30895	32979	
922	0	32712	32783	32055	31839	32271	32228	30215	34078	
923	0	32765	32823	32465	31765	31687	32519	30082	31623	
924	0	32498	32690	32457	32127	32037	33865	31326	31103	
925	0	32504	32741	32545	32108	31826	33455	33071	33285	
926	0	32482	32629	32679	32194	31991	33061	31257	34683	
927	0	32518	32703	32530	32355	31613	31042	29953	34559	
928	0	32494	32799	32711	32325	31231	30528	31332	35298	
929	0	32501	32647	32625	32747	31655	31799	32006	35951	
930	0	32556	32647	32681	32903	32561	32023	29924	35300	
931	0	32691	32764	32809	32954	32977	31517	32119	33943	
932	0	32781	32840	33010	33045	31826	31205	34823	34349	
933	0	32728	32692	33081	33183	32969	32242	33749	31802	
934	0	32730	32644	33168	32759	34561	34134	31484	29042	
935	0	32723	32625	33126	32767	34286	36724	30997	27677	
936	0	32795	32786	33251	32783	32977	36113	32231	28157	
937	0	32846	32855	33098	32607	32435	33725	31426	28723	
938	0	32897	32748	32951	32801	32812	31982	32824	28951	
939	0	32933	32793	33029	32717	32409	31447	37175	31111	
940	0	32839	32743	32887	32789	32863	32575	36637	33748	
941	0	32747	32579	32819	32707	34045	33141	34929	35389	
942	0	32647	32711	32833	32745	34614	33274	32943	35069	
943	0	32758	32827	32917	32719	34213	32925	31879	34831	
944	0	32757	32800	32551	32549	33774	32401	34983	33715	
945	0	32771	32863	32463	32783	32868	32079	35997	33191	
946	0	32881	32877	32431	32757	32583	32260	34651	32790	
947	0	32749	32879	32423	32807	32463	32333	33956	32729	
948	0	32775	32844	32461	32679	32575	32580	33983	32607	
949	0	32856	32807	32613	32671	32383	32571	34471	32375	
950	0	32852	32703	32771	32826	32312	32959	34453	32311	
951	0	32868	32783	33071	32615	32199	33079	32953	32285	
952	0	32818	32795	32971	32519	32415	32287	32135	32631	
953	0	32751	32751	32949	32495	32594	31991	32482	33375	
954	0	32628	32614	32854	32495	32615	31494	33327	35261	
955	0	32669	32663	33106	32421	31838	30270	33653	35490	
956	0	32767	32820	33047	32571	32583	31837	33763	34287	
957	0	32861	32838	33077	32551	33055	31751	32803	34365	
958	0	32833	32623	32876	32594	33311	31479	31979	33455	
959	0	32771	32653	32716	32599	33704	33294	29460	35439	
960	0	32634	32665	32439	32493	32970	36862	26548	35847	
961	0	32570	32703	32535	32543	32229	37965	25948	30025	
962	0	32688	32695	32599	32381	31682	35803	27437	27727	
963	0	32690	32758	32721	32519	31415	34405	29848	28367	
964	0	32785	32743	32627	32563	31374	32701	31235	28895	
965	0	32833	32738	32707	32727	31429	31746	32951	31415	
966	0	32787	32743	32567	32933	32478	31951	34461	31006	
967	0	32807	32793	32497	32869	33331	32687	36103	32974	
968	0	32790	32727	32529	32971	32917	31879	35039	33607	
969	0	32743	32775	32692	32868	32447	31615	34182	32691	
970	0	32753	32703	32615	32845	32595	31847	33347	32543	
971	0	32780	32745	32557	32781	33584	31935	33062	32983	
972	0	32712	32703	32463	32570	34376	32367	34055	32249	
973	0	32896	32751	32598	32577	34303	32821	33157	32037	
974	0	32876	32659	32719	32579	33619	32215	31680	33627	
975	0	32852	32629	32807	32413	32775	32076	31921	34135	
976	0	32809	32761	32613	32623	32151	33390	32402	32526	
977	0	32636	32619	32546	32587	32694	33861	33415	32151	
978	0	32672	32618	32647	32663	31602	32709	33320	32847	
979	0	32791	32742	32703	32673	31111	32307	33423	34271	
980	0	32864	32740	32735	32459	31527	32827	32931	34157	
981	0	32793	32837	32879	32595	32723	33601	33397	32671	
982	0	32781	32786	32923	32607	32309	32591	33063	31791	
983	0	32847	32839	33141	32595	33239	32647	32967	31749	
984	0	32775	32590	32997	32751	35047	33094	31943	31836	
985	0	32734	32605	33181	32613	34366	32979	31425	32371	
986	0	32804	32679	33175	32610	33132	32724	31157	33047	
987	0	32783	32738	33319	32628	32287	32836	30198	32863	
988	0	32858	32830	33447	32615	31917	32262	28793	32935	
989	0	32769	32647	33549	32645	32570	32375	31751	33223	
990	0	32698	32644	33220	32735	32388	31983	37103	32707	
991	0	32697	32711	33101	32527	32351	32567	36484	32531	
992	0	32686	32631	32937	32727	32999	32959	37932	32839	
993	0	32709	32724	32935	32758	32297	32114	34552	32559	
994	0	32806	32698	32740	32571	32795	32492	32467	33607	
995	0	32810	32753	32655	32667	32404	33159	31948	33915	
996	0	32916	32863	32876	32727	31975	33249	29970	32941	
997	0	32917	32859	32951	32806	32207	32922	29101	32315	
998	0	32887	32787	32822	33031	32631	32874	29911	31924	
999	0	32836	32823	32716	32989	33831	33110	31194	31412	
1000	0	32825	32795	32559	32867	33662	32994	33060	31759	
1001	0	32796	32903	32639	33015	34535	32607	37047	32671	
1002	0	32623	32796	32502	32970	34669	31361	39889	33987	
1003	0	32446	32479	32468	32821	33965	31781	38053	35127	
1004	0	32562	32703	32503	32638	32135	31916	35876	34615	
1005	0	32538	32669	32345	32693	32165	32583	33626	34754	
1006	0	32567	32621	32548	32630	32127	32263	31807	34485	
1007	0	32624	32609	32511	32391	32559	32059	30018	33927	
1008	0	32751	32713	32567	32543	32859	31941	28739	34381	
1009	0	32857	32709	32485	32535	32668	33009	30941	34375	
1010	0	32852	32707	32421	32314	32687	33701	33607	32243	
1011	0	32815	32615	32373	32439	32427	33551	33495	29959	
1012	0	32889	32634	32471	32354	32893	34004	32577	29975	
1013	0	32847	32751	32607	32335	32727	33711	32821	30268	
1014	0	32782	32887	32690	32563	32263	33373	32797	31431	
1015	0	32742	32807	32783	32615	32028	33343	33175	30452	
1016	0	32759	32727	32715	32783	32178	33619	32583	29471	
1017	0	32814	32647	32549	32787	32956	34143	31482	32751	
1018	0	32753	32759	32473	32655	33027	34311	31039	32242	
1019	0	32791	32732	32473	32871	32673	33959	29662	29671	
1020	0	32926	32751	32534	32769	32378	32551	30492	29318	
1021	0	32885	32655	32711	32583	32902	32063	31133	30460	
1022	0	32825	32759	32783	32691	32340	31826	29686	31770	
1023	0	32655	32735	32751	32647	31001	32487	29187	32941	
1024	0	32677	32819	32661	32703	30514	33639	30127	34047	
1025	0	32810	32702	32679	32647	31154	33413	31436	32923	
1026	0	32879	32852	32810	32513	32876	32564	29903	32301	
1027	0	32901	32855	32808	32546	35197	32388	31675	32550	
1028	0	32818	32829	32887	32463	35071	31791	34785	34343	
1029	0	32692	32594	32878	32707	35823	32253	38103	34073	
1030	0	32685	32439	32855	32717	33890	31455	40487	33522	
1031	0	32728	32611	32903	32567	31863	29882	38007	35495	
1032	0	32706	32598	32887	32771	32001	30687	34096	37573	
1033	0	32639	32621	32809	32815	32381	32064	31363	38815	
1034	0	32726	32731	32879	32470	32541	33071	31143	36140	
1035	0	32655	32578	32729	32726	33783	33504	32247	34247	
1036	0	32783	32759	32837	32598	33051	31809	31943	33895	
1037	0	32820	32818	32892	32452	33121	32391	34423	32876	
1038	0	32703	32761	32737	32647	33565	32843	37581	29369	
1039	0	32770	32711	32642	32615	33299	32281	35259	28115	
1040	0	32804	32621	32667	32863	33136	34135	32871	29524	
1041	0	32776	32815	32506	32786	32133	35079	32555	30151	
1042	0	32732	32839	32338	32783	32695	36604	32839	30326	
1043	0	32647	32805	32375	33037	32461	35463	32914	30201	
1044	0	32632	32684	32459	32860	32319	33677	32307	32534	
1045	0	32758	32682	32621	32535	32437	32603	32356	33107	
1046	0	32759	32751	32755	32708	32373	32229	32190	31697	
1047	0	32756	32773	32671	32639	32479	31815	31719	31917	
1048	0	32792	32785	32671	32455	32451	31643	31742	32811	
1049	0	32827	32899	32706	32656	32351	31607	31435	33695	
1050	0	32726	32785	32607	32703	32122	31443	32051	32639	
1051	0	32647	32617	32593	32659	31876	31850	31551	32291	
1052	0	32647	32691	32511	32795	32039	32903	31153	32134	
1053	0	32810	32847	32775	32748	31814	33734	30799	31729	
1054	0	32946	32784	32943	32493	30910	33027	30727	32053	
1055	0	32926	32767	32829	32647	30855	32743	31429	33092	
1056	0	32925	32711	32884	32580	32043	32541	33029	36103	
1057	0	32840	32735	32943	32402	33444	33059	32031	37794	
1058	0	32598	32658	32903	32628	34651	33266	31791	37557	
1059	0	32726	32826	33013	32612	34307	32586	31863	36903	
1060	0	32734	32811	32973	32349	35177	31297	33830	36827	
1061	0	32623	32782	32518	32589	35402	30484	37337	35094	
1062	0	32625	32629	32538	32595	34793	30678	35714	32797	
1063	0	32885	32717	32719	32444	32635	30203	33365	32805	
1064	0	33093	32738	32811	32462	31617	32839	31980	33299	
1065	0	32825	32735	32623	32589	32329	35207	33236	30294	
1066	0	32614	32679	32561	32760	32835	34991	34439	26182	
1067	0	32684	32711	32663	33097	32871	35367	35654	27276	
1068	0	32698	32599	32670	33123	33095	35117	34639	26767	
1069	0	32635	32635	32555	32856	32132	34139	32671	27721	
1070	0	32745	32791	32583	32935	32135	33159	32217	30527	
1071	0	32740	32799	32711	32835	32049	33238	32306	30179	
1072	0	32661	32737	32611	32635	32316	33021	31804	30550	
1073	0	32585	32826	32666	32871	32487	32468	31495	32073	
1074	0	32686	32711	32551	32723	32383	32293	31479	33287	
1075	0	32769	32711	32603	32658	32369	32145	32191	33564	
1076	0	32754	32581	32540	32563	32541	32221	32461	33859	
1077	0	32686	32647	32516	32685	32556	32067	33219	35035	
1078	0	32748	32799	32716	32639	32719	32483	32955	35191	
1079	0	32636	32839	32551	32479	32898	32647	32611	33906	
1080	0	32773	32799	32711	32659	32967	32543	31719	32617	
1081	0	32788	32694	32703	32543	32688	32695	31421	32159	
1082	0	32774	32767	32838	32569	32576	32527	32604	31526	
1083	0	32722	32771	32899	32631	31942	31973	33735	31717	
1084	0	32733	32789	33108	32615	31999	31612	32079	32951	
1085	0	32794	32742	33082	32630	31751	31303	29947	34106	
1086	0	32716	32677	32884	32481	32095	32879	27315	36879	
1087	0	32732	32711	32943	32723	32063	33995	28056	36247	
1088	0	32721	32647	32755	32693	33123	34951	28903	34299	
1089	0	32724	32775	32948	32487	32863	32987	31437	33219	
1090	0	32813	32775	32967	32615	33437	32317	33135	33003	
1091	0	32702	32734	32912	32871	34063	31942	38623	31791	
1092	0	32671	32699	32732	32797	34514	32482	40170	31745	
1093	0	32764	32679	32771	32511	34491	32767	37463	33254	
1094	0	32795	32596	32837	32805	34087	32587	35869	33199	
1095	0	32783	32469	32749	32837	32661	33343	34724	32087	
1096	0	32925	32677	32787	32543	32100	33057	33490	30695	
1097	0	32885	32767	32617	32645	31822	32068	32980	30902	
1098	0	32786	32743	32484	32740	32103	31367	34178	32867	
1099	0	32775	32705	32491	32498	32775	31084	33229	33671	
1100	0	32908	32749	32579	32638	33568	32218	30509	33873	
1101	0	32995	32814	32540	32629	33223	32663	29852	34242	
1102	0	32893	32797	32565	32639	33082	34051	31450	33611	
1103	0	32727	32709	32527	32823	32989	34123	32775	33455	
1104	0	32688	32659	32602	32800	32669	33547	33139	32643	
1105	0	32710	32655	32663	32596	32732	33715	34126	31479	
1106	0	32775	32698	32817	32647	32599	33863	35379	30590	
1107	0	32762	32775	32647	32516	32225	33063	34675	29717	
1108	0	32687	32727	32583	32617	32247	33170	34113	30503	
1109	0	32594	32811	32625	32739	31989	32563	33783	31317	
1110	0	32748	32755	32748	32641	31477	31743	32089	32306	
1111	0	32732	32671	32611	32755	32013	32239	29166	33079	
1112	0	32751	32789	32695	32759	31759	32583	26637	33718	
1113	0	32682	32708	32663	32680	32105	32937	25256	33039	
1114	0	32836	32757	32844	32655	32562	32809	27006	31495	
1115	0	32886	32662	32773	32598	33074	32055	29191	32699	
1116	0	32828	32662	32719	32617	33637	32733	29701	33615	
1117	0	32777	32687	32647	32659	34130	33309	30338	33810	
1118	0	32868	32727	32893	32527	33788	34213	33616	32876	
1119	0	32845	32839	32862	32653	32135	33509	36396	32602	
1120	0	32767	32839	32715	32739	32214	33099	37190	33785	
1121	0	32826	32709	32781	32707	32013	32413	35973	33098	
1122	0	32835	32687	32756	32561	34159	32434	34995	32468	
1123	0	32789	32679	32711	32807	34420	32679	36199	32959	
1124	0	32897	32690	32647	32748	32759	31579	33828	33651	
1125	0	32935	32639	32543	32615	31975	31943	33001	33927	
1126	0	32734	32631	32339	32679	32175	32479	33719	32321	
1127	0	32658	32644	32525	32719	32143	31839	35988	31515	
1128	0	32683	32759	32639	32507	32657	32215	35436	32257	
1129	0	32736	32783	32909	32430	33863	32079	33383	32245	
1130	0	32766	32759	33135	32380	33551	32295	35207	31807	
1131	0	32636	32614	32968	32356	34034	34365	34035	35067	
1132	0	32600	32629	33014	32726	33831	34038	32614	38335	
1133	0	32726	32823	33174	32861	33453	32727	30756	37207	
1134	0	32806	32799	33101	32783	32903	32540	30685	35290	
1135	0	32795	32767	32823	32804	33395	33372	32621	32495	
1136	0	32782	32671	32715	32668	32727	31702	31623	29223	
1137	0	32727	32645	32324	32667	32254	32092	32135	30343	
1138	0	32772	32879	32347	32807	32015	32871	33413	31077	
1139	0	32752	32793	32256	32739	32276	33255	33511	28351	
1140	0	32761	32684	32301	32949	32301	34087	33311	28223	
1141	0	32788	32831	32449	32897	32059	33322	31916	30199	
1142	0	32809	32877	32511	32743	32347	33183	31820	30863	
1143	0	32750	32855	32694	32714	32967	33639	31551	31239	
1144	0	32728	32741	32815	32534	32767	33220	32463	31471	
1145	0	32678	32727	32795	32735	32839	33203	31660	31767	
1146	0	32677	32732	32707	32687	32245	32571	29339	32528	
1147	0	32785	32766	32711	32431	31783	32189	28667	33487	
1148	0	32784	32785	32615	32623	31218	31909	30855	35239	
1149	0	32615	32647	32439	32655	31191	31807	33658	34605	
1150	0	32694	32628	32601	32304	31719	31719	32703	32871	
1151	0	32750	32638	32537	32620	33616	32207	30034	32935	
1152	0	32717	32642	32791	32605	34613	32983	30932	33799	
1153	0	32796	32613	32785	32773	32597	31919	33347	33025	
1154	0	32796	32723	32591	32742	32120	32943	35691	35227	
1155	0	32900	32748	32677	32450	32487	32974	35527	35135	
1156	0	32908	32844	32667	32637	33317	32303	33647	31933	
1157	0	32838	32706	32759	32578	32879	33415	33443	31723	
1158	0	32684	32818	32749	32716	33754	33868	34391	32870	
1159	0	32624	32669	32663	32631	34335	33567	34935	32335	
1160	0	32647	32855	32639	32579	34091	33003	34218	31417	
1161	0	32774	32762	32821	32674	33183	32159	32322	32193	
1162	0	32725	32727	32711	32719	32167	32345	31997	33193	
1163	0	32767	32839	32831	32723	32318	32047	32330	33603	
1164	0	32807	32788	32875	33027	31437	32309	32011	33475	
1165	0	32778	32717	32902	32950	31917	32895	32041	34479	
1166	0	32767	32754	32935	32783	32455	32715	33569	32706	
1167	0	32780	32700	32863	32775	32455	32327	32826	31047	
1168	0	32747	32732	32799	32821	33360	32462	33494	32215	
1169	0	32723	32591	32658	32871	33270	32669	34529	32271	
1170	0	32701	32593	32843	32589	33550	32594	32857	32022	
1171	0	32788	32647	32985	32567	33631	32647	31671	32346	
1172	0	32822	32740	32909	32503	33023	32631	31315	32457	
1173	0	32764	32676	32745	32309	32978	34252	30235	33275	
1174	0	32716	32556	32621	32491	33167	35703	32347	32370	
1175	0	32807	32683	32629	32445	33017	34411	34182	31539	
1176	0	32831	32679	32549	32633	32574	32631	34727	32594	
1177	0	32836	32697	32647	32589	32229	32269	34651	31923	
1178	0	32822	32771	32507	32636	32391	32747	33857	31367	
1179	0	32773	32771	32483	32669	32775	33159	32844	32663	
1180	0	32704	32695	32551	32725	33099	33028	33375	32540	
1181	0	32719	32751	32727	32663	32962	32839	33095	31387	
1182	0	32690	32839	32678	32429	32806	32742	32501	31035	
1183	0	32647	32643	32684	32743	32463	32493	31222	33415	
1184	0	32555	32659	32682	32882	32378	32540	30108	37511	
1185	0	32642	32567	32825	32647	32083	31155	30035	38279	
1186	0	32839	32647	32959	32633	32346	30561	31014	32847	
1187	0	32745	32739	33007	32663	32335	31204	34466	29957	
1188	0	32742	32775	32937	32459	32011	31479	33287	31692	
1189	0	32767	32927	32898	32478	31399	32007	31838	34222	
1190	0	32846	32826	32959	32747	31841	32735	29999	34615	
1191	0	32780	32871	32811	32995	32677	33831	31517	31469	
1192	0	32731	32807	32695	33133	32133	33833	33139	29111	
1193	0	32769	32795	32575	32778	32148	32710	31581	30493	
1194	0	32765	32783	32727	32837	32903	32590	31327	32462	
1195	0	32672	32696	32491	32967	34116	33197	31068	33646	
1196	0	32690	32647	32497	32745	34477	33873	32635	32415	
1197	0	32860	32690	32639	32823	34695	33545	35215	32252	
1198	0	32893	32659	32585	32599	33961	33707	36270	31891	
1199	0	32871	32839	32445	32639	34723	33763	36572	31938	
1200	0	32858	32895	32599	32445	34529	33380	35343	31444	
1201	0	32775	32700	32427	32695	32859	32707	36498	31053	
1202	0	32831	32639	32534	32601	32407	31890	35021	33152	
1203	0	32775	32646	32559	32425	32122	31783	32515	33511	
1204	0	32903	32683	32774	32463	31822	31147	31092	33654	
1205	0	32887	32762	32703	32421	32231	31703	30652	34592	
1206	0	32778	32773	32804	32564	32417	32377	31602	34183	
1207	0	32719	32729	32739	32695	32612	33373	32692	32333	
1208	0	32601	32647	32885	32839	32742	33247	32860	30511	
1209	0	32756	32807	33028	32612	32459	32210	32565	31655	
1210	0	32703	32775	32924	32611	32781	32436	31418	34011	
1211	0	32543	32686	32647	32747	32879	33159	31783	34084	
1212	0	32697	32679	32799	32587	32147	31584	32122	35308	
1213	0	32721	32621	32702	32721	30532	29333	33983	35684	
1214	0	32807	32732	32832	32569	31367	30329	32711	36695	
1215	0	32940	32835	32993	32326	31175	28580	30819	37577	
1216	0	32862	32660	32793	32364	32005	32147	28868	35315	
1217	0	32720	32483	32413	32490	34231	37932	29061	32221	
1218	0	32903	32567	32553	32698	34743	39222	29482	32475	
1219	0	33017	32775	32647	32532	35079	38976	31803	32241	
1220	0	32877	32795	32677	32717	34393	36604	35703	32045	
1221	0	32653	32759	32567	32803	32757	34599	34183	28969	
1222	0	32556	32599	32455	32791	32561	33513	33864	24775	
1223	0	32524	32581	32454	32941	31717	31943	35975	23943	
1224	0	32543	32679	32487	33003	32119	31965	36908	26949	
1225	0	32681	32903	32659	32975	32580	32106	36303	31019	
1226	0	32818	32879	32867	32809	32191	31605	35207	33903	
1227	0	32807	32852	32863	33050	32215	31815	33659	31831	
1228	0	32716	32743	32914	32959	32613	32162	33061	31225	
1229	0	32734	32695	32863	32727	32318	32287	33044	32342	
1230	0	32860	32775	32910	32791	32578	32306	32251	32988	
1231	0	32901	32623	32846	32903	33309	32167	31675	33796	
1232	0	32817	32619	32647	32804	33225	31847	32335	33955	
1233	0	32845	32647	32735	32757	32903	32149	32517	34061	
1234	0	32810	32791	32659	32663	32793	32807	32235	34491	
1235	0	32751	32812	32647	32443	32863	32747	32343	34343	
1236	0	32764	32639	32637	32491	32791	32542	31783	33541	
1237	0	32733	32719	32685	32429	32813	32503	31823	33375	
1238	0	32751	32773	32693	32553	32887	32385	32573	33515	
1239	0	32793	32749	32850	32489	32879	32514	33175	33465	
1240	0	32861	32735	32751	32300	32615	32470	33367	32327	
1241	0	32816	32734	32827	32477	31943	32515	33316	32866	
1242	0	32751	32667	32599	32383	31903	32840	32487	33563	
1243	0	32625	32566	32605	32359	31935	32683	30926	33726	
1244	0	32582	32653	32646	32591	31834	32517	28895	34423	
1245	0	32636	32621	32859	32502	31797	32235	27126	35047	
1246	0	32913	32815	33005	32471	31583	30715	28061	34735	
1247	0	32860	32903	32878	32559	34073	32634	30015	33428	
1248	0	32729	32893	32863	32599	34563	32951	34379	32695	
1249	0	32726	32763	32871	32743	33910	32987	33951	30887	
1250	0	32727	32621	32696	32611	34487	33909	30891	30517	
1251	0	32676	32685	32522	32943	33539	33251	31955	30679	
1252	0	32745	32677	32628	32804	32263	32935	31586	31852	
1253	0	32827	32767	32583	32807	31859	32903	34947	33151	
1254	0	32808	32675	32746	32798	32335	32655	38023	34343	
1255	0	32784	32742	32889	32727	31421	31963	37599	34137	
1256	0	32730	32935	32983	32767	32743	32298	35594	33767	
1257	0	32743	32786	32865	32791	33463	32295	35231	33895	
1258	0	32684	32783	32749	32741	33441	33343	33861	33791	
1259	0	32705	32617	32575	32799	34011	34146	31321	32188	
1260	0	32782	32719	32553	32698	33431	33193	33045	30255	
1261	0	32884	32701	32610	32814	32743	32534	34423	30681	
1262	0	32877	32647	32617	32647	32759	32519	33191	31876	
1263	0	32831	32606	32543	32756	32526	32483	33285	32535	
1264	0	32824	32775	32465	32693	32335	32647	32775	32621	
1265	0	32847	32811	32559	32553	32635	32553	32741	31919	
1266	0	32749	32703	32484	32571	32631	32721	33453	32041	
1267	0	32713	32821	32607	32541	32461	32623	33053	32031	
1268	0	32707	32700	32691	32275	32815	33027	32605	32025	
1269	0	32688	32751	32751	32519	32367	32975	32565	32402	
1270	0	32673	32709	32837	32619	31719	32757	33241	32562	
1271	0	32727	32719	32804	32516	30855	32443	32711	32337	
1272	0	32708	32597	32741	32678	30887	32452	31276	32109	
1273	0	32698	32644	32835	32759	31367	32927	29843	32197	
1274	0	32722	32769	32783	32543	31843	32747	29182	31520	
1275	0	32775	32828	32847	32663	32703	32911	29951	31141	
1276	0	32850	32765	32871	32631	33447	33251	29527	32769	
1277	0	32831	32873	33087	32476	34263	33361	27480	35378	
1278	0	32807	32916	33287	32537	32116	32495	29557	34927	
1279	0	32662	32831	32980	32750	33943	33425	33585	34219	
1280	0	32700	32797	32748	32642	35873	34039	37311	35107	
1281	0	32538	32607	32646	32847	36783	32883	35829	34447	
1282	0	32655	32617	32715	32991	35197	31775	34994	32439	
1283	0	32895	32854	32509	32730	34359	31447	36131	32807	
1284	0	32826	32839	32434	32919	32076	31542	38583	32639	
1285	0	32775	32726	32148	32852	31463	32481	37890	30875	
1286	0	32659	32647	32247	32701	32261	33350	34927	30125	
1287	0	32713	32757	32347	32469	32396	33007	32749	32727	
1288	0	32718	32694	32410	32685	32305	31923	31895	34898	
1289	0	32753	32711	32270	32773	32669	32373	31463	35345	
1290	0	32729	32643	32413	32669	32655	33155	31935	32901	
1291	0	32796	32599	32391	32735	32365	33126	31561	32991	
1292	0	32718	32815	32525	33005	32423	32935	31277	34475	
1293	0	32735	32655	32719	32799	32687	33461	31171	33935	
1294	0	32647	32611	32903	32791	32540	33095	31993	31684	
1295	0	32677	32591	32873	32647	32335	32635	32117	29888	
1296	0	32788	32554	32951	32519	31763	31942	32933	29503	
1297	0	32820	32723	32990	32708	31491	31775	32303	29799	
1298	0	32839	32797	32893	32677	32484	33273	32071	32012	
1299	0	32845	32682	32815	32679	32892	33351	32106	33959	
1300	0	32775	32751	32687	32633	32678	32639	31631	34246	
1301	0	32716	32765	32791	32775	32831	32241	31049	34583	
1302	0	32768	32775	32715	32760	32175	31786	31083	33633	
1303	0	32760	32847	32789	32589	32531	31893	31991	33079	
1304	0	32775	32834	32819	32619	32562	32666	32911	32593	
1305	0	32665	32787	32862	32643	32685	33495	33747	32476	
1306	0	32664	32735	32847	32598	32943	33814	33867	32396	
1307	0	32743	32715	32771	32647	33054	33924	34884	30159	
1308	0	32785	32703	32809	32691	33179	34727	34134	29039	
1309	0	32828	32694	32883	32647	32525	34223	33713	30927	
1310	0	32824	32669	32925	32391	32231	33295	33397	32335	
1311	0	32767	32766	32742	32428	32629	32575	32404	32703	
1312	0	32774	32855	32775	32327	33639	32334	31849	33453	
1313	0	32712	32804	32692	32199	33647	33143	30531	35748	
1314	0	32770	32748	32727	32422	33026	33597	30159	35036	
1315	0	32877	32833	32575	32607	31843	33831	28997	32765	
1316	0	32949	32727	32754	32799	31965	33238	26537	31267	
1317	0	32806	32675	32551	32837	32997	32245	26391	32439	
1318	0	32554	32555	32164	33177	34453	32208	31909	32971	
1319	0	32658	32596	32327	32950	33927	31102	39431	31325	
1320	0	32725	32723	32399	32924	32719	31036	40879	33402	
1321	0	32718	32626	32573	32735	32595	31699	38689	34962	
1322	0	32824	32789	32647	32727	32157	31835	35762	34279	
1323	0	32833	32823	32792	32756	31821	30361	34139	32503	
1324	0	32855	32707	32851	32567	32287	30999	33671	32363	
1325	0	32758	32685	33030	32692	32369	31569	33315	31647	
1326	0	32767	32695	32975	32780	32675	32165	32868	32513	
1327	0	32707	32783	32877	32531	32527	32771	32215	33431	
1328	0	32784	32759	32823	32691	32732	34123	31748	33100	
1329	0	32703	32762	32674	32671	32911	35974	32326	32087	
1330	0	32754	32715	32715	32479	32845	34886	31751	32599	
1331	0	32825	32690	32789	32663	32647	32871	31993	32535	
1332	0	32742	32639	32811	32603	32867	32073	33119	31727	
1333	0	32718	32610	32807	32695	33131	33787	32863	31013	
1334	0	32729	32804	32822	32732	33072	34883	32706	32964	
1335	0	32829	32803	32924	32617	33153	34586	32057	32003	
1336	0	32831	32741	32825	32698	32797	32775	31590	30269	
1337	0	32769	32723	32727	32686	33124	32771	29861	30983	
1338	0	32783	32605	32664	32871	32615	32439	30431	30677	
1339	0	32717	32644	32615	32823	32171	32699	32735	31367	
1340	0	32671	32660	32717	32543	32031	32263	32407	32654	
1341	0	32703	32709	32621	32639	32271	32450	31983	32819	
1342	0	32871	32703	32630	32607	32876	32327	32703	33009	
1343	0	32800	32642	32643	32594	33227	32734	33060	33788	
1344	0	32791	32669	32689	32676	33055	32813	33852	33959	
1345	0	32807	32671	32529	32482	32748	31932	32185	33685	
1346	0	32789	32711	32615	32655	32967	31653	32775	34258	
1347	0	32790	32757	32679	32579	33280	32239	32999	33141	
1348	0	32850	32795	32735	32423	32287	32453	32191	31751	
1349	0	32860	32839	32796	32479	32103	32327	31711	31223	
1350	0	32676	32801	32585	32677	32418	32333	33735	30588	
1351	0	32613	32715	32550	32707	32935	32461	35267	30806	
1352	0	32588	32719	32695	32727	33043	32505	35287	31689	
1353	0	32584	32701	32604	32585	33437	32917	34535	31738	
1354	0	32662	32725	32694	32692	33005	32427	33741	33548	
1355	0	32802	32716	32769	32647	32856	32423	32279	38365	
1356	0	32808	32823	32951	32515	32957	32321	32854	39098	
1357	0	32684	32601	32801	32569	33373	32612	33597	36329	
1358	0	32721	32715	32879	32505	32457	32655	34071	34009	
1359	0	32786	32676	32711	32644	32471	33447	32663	32451	
1360	0	32850	32669	32773	32667	32443	33276	30341	34109	
1361	0	32838	32815	32679	32677	32639	33959	30486	34263	
1362	0	32855	32881	32701	32959	32247	33214	29623	31095	
1363	0	32782	32771	32713	32999	32322	32959	29364	30461	
1364	0	32707	32741	32612	32733	32311	33702	29825	30151	
1365	0	32634	32615	32675	32797	33117	33607	32327	30629	
1366	0	32630	32639	32525	32787	32571	33479	32927	31039	
1367	0	32802	32679	32568	32658	32727	33139	32460	29967	
1368	0	32887	32715	32603	32839	32786	32813	30989	29999	
1369	0	32867	32711	32511	32707	32789	32459	33134	32475	
1370	0	32804	32667	32519	32534	33903	32953	37963	34330	
1371	0	32769	32723	32487	32647	33703	32839	37377	34075	
1372	0	32708	32673	32655	32655	33616	32295	35527	33415	
1373	0	32775	32643	32701	32412	32711	32135	34165	33159	
1374	0	32883	32629	32827	32658	32479	31983	32871	31699	
1375	0	32927	32775	32803	32583	32661	32383	32051	31136	
1376	0	32801	32898	32771	32477	32639	32583	32748	31687	
1377	0	32726	32831	32631	32711	32546	32553	33063	32951	
1378	0	32727	32815	32801	32847	32519	32428	33287	33330	
1379	0	32743	32638	32789	32732	32543	32463	32903	33991	
1380	0	32734	32606	32884	32797	32646	32415	32796	34927	
1381	0	32729	32807	32937	32759	32477	32303	32703	35180	
1382	0	32791	32793	32775	32551	32479	31628	32527	33945	
1383	0	32775	32783	32754	32567	32621	31666	32668	32972	
1384	0	32698	32804	32701	32547	32655	31630	33074	32047	
1385	0	32638	32743	32628	32413	32903	32372	33060	33943	
1386	0	32652	32749	32559	32620	32845	32695	32996	34543	
1387	0	32745	32762	32565	32535	32591	33430	33211	32179	
1388	0	32714	32749	32633	32519	32383	33511	31927	32571	
1389	0	32684	32603	32582	32523	32914	33023	30313	32455	
1390	0	32775	32684	32799	32633	32963	32946	28087	31999	
1391	0	32820	32730	32811	32389	33055	33692	29063	31062	
1392	0	32777	32720	32883	32478	32989	35207	32167	31007	
1393	0	32870	32615	32867	32590	33114	36487	32863	32119	
1394	0	32868	32732	32829	32628	32300	34831	31829	31679	
1395	0	32863	32732	32653	32877	31809	32487	30619	30596	
1396	0	32719	32659	32791	32895	31682	32370	33687	30082	
1397	0	32677	32690	32679	32842	31830	32630	34695	30253	
1398	0	32758	32793	32530	32935	32085	32255	33176	31356	
1399	0	32767	32718	32601	32903	31103	31462	33245	31623	
1400	0	32788	32739	32479	32815	31870	31501	34333	31622	
1401	0	32781	32671	32588	32999	33343	32115	35247	33122	
1402	0	32791	32589	32507	32855	34225	32602	32909	33695	
1403	0	32773	32739	32567	32573	34007	32639	32549	33661	
1404	0	32695	32755	32559	32725	34823	32751	32833	33543	
1405	0	32711	32743	32740	32679	35025	32763	32867	33757	
1406	0	32754	32850	32807	32663	33659	32431	34019	33652	
1407	0	32797	32847	32775	32735	32918	32455	33779	32823	
1408	0	32775	32647	32767	32581	32813	32974	33287	32103	
1409	0	32775	32775	32791	32623	32567	32912	33267	32167	
1410	0	32700	32807	32742	32692	32361	32743	32736	33139	
1411	0	32662	32775	32702	32477	32335	32437	33631	32842	
1412	0	32669	32799	32791	32591	32367	32511	34001	32091	
1413	0	32682	32717	32647	32711	32595	32667	33662	32981	
1414	0	32721	32839	32725	32412	32709	32799	32836	33427	
1415	0	32797	32805	32693	32620	32509	32739	32477	33708	
1416	0	32738	32687	32765	32743	32735	32797	32867	34377	
1417	0	32681	32711	32681	32603	32935	33127	32372	34356	
1418	0	32801	32745	32825	32725	33103	32943	31661	33943	
1419	0	32870	32692	32786	32590	32199	32371	31699	33385	
1420	0	32901	32849	32858	32681	32103	32558	30431	35286	
1421	0	32786	32669	32823	32647	32889	33875	29638	35383	
1422	0	32884	32715	32815	32543	33015	32366	28854	31709	
1423	0	32895	32757	32790	32696	33798	31871	28711	31079	
1424	0	32848	32660	32759	32743	33991	32319	32303	33191	
1425	0	32812	32715	32743	32639	32556	32009	36287	35303	
1426	0	32843	32692	32612	32679	31907	32271	35125	36114	
1427	0	32791	32587	32717	32791	31735	32739	33487	32228	
1428	0	32738	32647	32645	32655	32121	32758	34917	28729	
1429	0	32749	32797	32767	32690	31855	32557	36259	27835	
1430	0	32756	32646	32723	32645	32289	32709	35319	27700	
1431	0	32756	32811	32660	32815	32228	33455	34099	29599	
1432	0	32687	32659	32604	32806	32279	33783	34006	31407	
1433	0	32723	32798	32708	32745	32751	33276	32759	32135	
1434	0	32695	32684	32591	32679	33305	33401	32324	32213	
1435	0	32677	32668	32747	32582	33091	33479	31701	31457	
1436	0	32700	32771	32687	32725	33053	33125	30215	31364	
1437	0	32780	32735	32771	32735	33213	32883	31557	32078	
1438	0	32738	32659	32583	32535	32793	32583	31866	33116	
1439	0	32727	32717	32660	32611	32832	32415	31695	34427	
1440	0	32774	32663	32647	32566	33159	32439	32495	36218	
1441	0	32788	32799	32709	32415	32897	32703	33036	34691	
1442	0	32754	32685	32659	32491	32572	32579	32669	32527	
1443	0	32807	32715	32705	32558	32658	32932	32837	32323	
1444	0	32782	32784	32647	32654	33119	32747	32727	32607	
1445	0	32783	32835	32719	32726	33058	32433	32738	33045	
1446	0	32745	32679	32623	32807	32553	32413	31983	33111	
1447	0	32791	32705	32733	32583	32757	32804	31119	33279	
1448	0	32722	32759	32822	32647	32541	32465	31663	33181	
1449	0	32712	32635	32773	32615	32429	32903	32775	33099	
1450	0	32844	32748	32735	32743	32276	32663	33223	33671	
1451	0	32772	32707	32612	32715	32726	32743	32877	32647	
1452	0	32719	32687	32659	32742	32675	32063	32326	32191	
1453	0	32786	32884	32690	32667	33308	31972	33299	31868	
1454	0	32742	32701	32732	32643	33845	32071	34874	31655	
1455	0	32796	32917	32743	32391	32540	30962	33999	31492	
1456	0	32694	32761	32743	32639	32495	32289	32636	31943	
1457	0	32802	32775	32647	32786	33107	33819	31618	35016	
1458	0	32729	32738	32671	32668	33090	33415	32143	36178	
1459	0	32679	32586	32642	32667	33317	32729	31463	36471	
1460	0	32736	32711	32678	32523	32807	33857	31111	37290	
1461	0	32730	32676	32672	32709	32409	33819	28818	34815	
1462	0	32783	32716	32838	32709	32022	32956	29165	30971	
1463	0	32825	32815	32628	32740	31230	32969	35924	28409	
1464	0	32807	32762	32691	32855	31527	33583	39943	27591	
1465	0	32655	32592	32687	32831	32461	34237	37815	29572	
1466	0	32679	32775	32628	32679	32299	34418	34087	30855	
1467	0	32789	32658	32619	32831	32493	33735	30863	30350	
1468	0	32679	32643	32662	32871	32079	33472	29591	30676	
1469	0	32647	32799	32720	32671	32679	33026	30932	32313	
1470	0	32846	32799	32839	32716	31660	31715	31614	32636	
1471	0	32836	32764	32998	32575	32943	32525	30398	32853	
1472	0	32748	32742	32775	32573	35127	33027	31391	32477	
1473	0	32709	32727	32775	32699	34631	32884	32443	32553	
1474	0	32754	32629	32848	32610	34130	32549	32733	33047	
1475	0	32679	32726	32775	32658	32767	32263	35122	32789	
1476	0	32767	32655	32644	32602	31951	31825	34404	32503	
1477	0	32720	32660	32667	32588	32703	31954	32916	33159	
1478	0	32703	32727	32567	32479	33053	31999	32247	35493	
1479	0	32734	32691	32671	32567	32807	32390	31717	35033	
1480	0	32841	32707	32695	32598	33575	32647	33111	33173	
1481	0	32829	32775	32689	32559	33473	32559	34994	33447	
1482	0	32820	32611	32647	32726	33014	32007	36895	32690	
1483	0	32830	32766	32533	32669	32439	32236	35146	32102	
1484	0	32838	32759	32605	32743	33138	32831	34631	31955	
1485	0	32831	32647	32565	32673	33853	33206	34620	32423	
1486	0	32756	32723	32598	32633	33611	32981	33439	32330	
1487	0	32673	32606	32610	32437	33343	32775	32091	32973	
1488	0	32719	32827	32815	32608	33063	32935	31815	33543	
1489	0	32754	32734	32746	32493	32483	32903	32372	32993	
1490	0	32867	32771	32813	32599	31176	31679	32259	32119	
1491	0	32836	32711	32855	32732	31467	32135	31853	32070	
1492	0	32758	32555	32639	32796	31821	32607	31291	32551	
1493	0	32800	32804	32733	32783	32167	32691	30908	33215	
1494	0	32770	32727	32719	32711	32429	32883	30406	33989	
1495	0	32728	32671	32718	32598	32556	32687	31263	34471	
1496	0	32748	32838	32767	32687	32545	32687	31925	33979	
1497	0	32781	32807	32731	32750	32601	32519	32545	32836	
1498	0	32747	32721	32743	32647	32567	32615	33482	31933	
1499	0	32719	32726	32559	32676	32967	32775	33317	32344	
1500	0	32708	32693	32741	32751	33063	33020	33239	32183	
1501	0	32820	32769	32933	32660	32097	32749	33431	31611	
1502	0	32841	32861	32895	32643	32283	33184	32945	31557	
1503	0	32826	32819	32919	32807	32572	33205	31847	31595	
1504	0	32800	32711	32825	32821	32775	33030	32215	32091	
1505	0	32763	32751	32927	32809	32869	32821	32597	32327	
1506	0	32791	32559	32863	32859	33245	32943	32891	32723	
1507	0	32764	32662	32775	32718	32999	32669	32873	32364	
1508	0	32725	32635	32802	32797	32565	32559	32564	32309	
1509	0	32682	32603	32694	32793	32711	32647	31781	32642	
1510	0	32692	32642	32738	32711	32916	33020	31071	32399	
1511	0	32799	32693	32703	32719	32485	33085	31869	31597	
1512	0	32820	32621	32742	32585	32575	33077	32100	31484	
1513	0	32802	32727	32711	32485	32248	32861	31879	32631	
1514	0	32595	32543	32625	32775	32967	32828	31607	32413	
1515	0	32450	32543	32485	32817	32977	32853	32023	32939	
1516	0	32626	32708	32575	32635	32255	32647	31849	34172	
1517	0	32601	32655	32444	32746	32433	32543	32193	35834	
1518	0	32664	32825	32515	32583	32391	32073	32771	37199	
1519	0	32596	32841	32437	32391	32903	32471	33147	36373	
1520	0	32703	32847	32518	32391	33285	31949	33127	34247	
1521	0	32571	32775	32423	32503	33695	32823	33003	32745	
1522	0	32565	32886	32387	32375	33119	33411	33191	31879	
1523	0	32585	32834	32439	32347	32892	33575	34815	32257	
1524	0	32765	32903	32477	32295	32471	32919	36143	33247	
1525	0	32769	32809	32455	32305	32415	32647	36013	33084	
1526	0	32716	32872	32429	32435	33100	33145	34119	32578	
1527	0	32727	32916	32399	32431	33157	33484	33004	31163	
1528	0	32658	33031	32307	32109	32719	33012	32326	30934	
1529	0	32678	32831	32388	32327	32135	32734	32701	31111	
1530	0	32687	32974	32413	32279	31943	32370	32439	30487	
1531	0	32815	32983	32495	32263	31871	32299	32062	30781	
1532	0	32803	32831	32493	32335	32059	32443	32690	30446	
1533	0	32781	32903	32485	32405	32355	32863	31603	30255	
1534	0	32718	32859	32445	32466	33335	33644	31041	30615	
1535	0	32701	32835	32547	32439	33012	33089	31140	31515	
1536	0	32699	32855	32519	32495	32655	32987	31747	31947	
1537	0	32767	32854	32686	32407	31915	33071	31785	32412	
1538	0	32972	32887	32834	32714	31796	33485	31226	31927	
1539	0	33015	32733	32903	32839	32749	34183	31599	32287	
1540	0	33088	32606	33066	32969	32695	33630	32135	33366	
1541	0	33084	32639	33108	32822	32766	33044	34681	35317	
1542	0	32903	32543	33043	32951	33951	33043	35535	34793	
1543	0	32852	32399	33045	33207	34343	33002	34231	32885	
1544	0	32900	32567	33224	33117	34861	32701	32599	32894	
1545	0	33097	32575	33235	33234	34139	31678	33607	31727	
1546	0	33185	32429	33431	33362	32988	31003	33956	32004	
1547	0	33207	32429	33330	33294	32771	31066	34054	33911	
1548	0	33252	32540	33541	33305	32703	30948	34687	32389	
1549	0	33348	32445	33607	33226	32586	30687	32935	31751	
1550	0	33260	32575	33687	33213	32903	31885	32538	31607	
1551	0	33076	32551	33531	33274	32681	32933	35239	31103	
1552	0	32968	32453	33567	33341	32642	33148	34396	31995	
1553	0	32959	32683	33467	33099	33179	33853	32210	32467	
1554	0	32885	32623	33335	33149	33147	34019	32057	33627	
1555	0	32807	32551	33091	33082	32849	33205	32167	33089	
1556	0	32743	32614	32858	32830	32869	32975	32353	32993	
1557	0	32694	32615	32607	32847	32927	32980	31975	32758	
1558	0	32573	32738	32535	32629	33111	32851	32059	33119	
1559	0	32492	32740	32465	32755	32801	32731	31791	33025	
1560	0	32492	32647	32387	32701	32640	32630	31795	33375	
1561	0	32532	32767	32387	32382	32511	32695	32595	33073	
1562	0	32550	32788	32511	32437	32705	32806	33254	32387	
1563	0	32597	33003	32415	32423	32483	32681	33366	31955	
1564	0	32567	32971	32462	32503	32546	32789	32810	32356	
1565	0	32617	32850	32253	32434	32463	32764	33103	32493	
1566	0	32494	32879	32383	32373	32640	32679	32729	32527	
1567	0	32492	32758	32347	32409	32677	32881	32383	32559	
1568	0	32458	32775	32359	32399	32493	32751	31411	32627	
1569	0	32492	32805	32341	32407	32149	32549	31239	32427	
1570	0	32507	32629	32551	32475	32043	32697	31015	33595	
1571	0	32601	32740	32539	32517	32123	32767	31484	33915	
1572	0	32601	32624	32511	32410	32375	32727	32679	33042	
1573	0	32658	32679	32532	32485	32837	32775	33590	32738	
1574	0	32718	32794	32639	32283	32903	32951	34159	32566	
1575	0	32679	32647	32562	32511	33257	32839	33625	33367	
1576	0	32671	32711	32547	32491	32887	32569	33029	33095	
1577	0	32783	32759	32461	32405	32867	32221	31863	32564	
1578	0	32748	32844	32549	32517	32727	31567	31391	32012	
1579	0	32780	32740	32567	32597	32709	31575	29039	32268	
1580	0	32789	32671	32571	32447	33382	32285	27865	34233	
1581	0	32709	32748	32723	32742	33081	32903	30804	35447	
1582	0	32813	32724	32679	32857	32919	33620	34216	34995	
1583	0	32855	32647	32679	32679	32901	34391	35287	35034	
1584	0	32863	32639	32641	32855	32791	34023	35499	35309	
1585	0	32886	32676	32759	32820	32469	33427	35967	33245	
1586	0	32903	32806	32863	32765	32375	33911	34767	29965	
1587	0	32835	32737	32661	32603	32903	33891	33391	29165	
1588	0	32828	32855	32739	32698	32631	33351	32995	29439	
1589	0	32775	32891	32639	32871	32453	33250	32631	30591	
1590	0	32831	32647	32769	32610	32647	32813	33139	31073	
1591	0	32711	32767	32738	32723	32642	32319	33139	31404	
1592	0	32709	32783	32743	32631	32599	32182	33236	31727	
1593	0	32695	32819	32729	32631	32614	32324	32863	32539	
1594	0	32762	32753	32799	32681	32879	32285	32639	32609	
1595	0	32751	32715	32804	32516	32807	32326	32874	32882	
1596	0	32760	32759	32669	32694	32734	32439	32467	32885	
1597	0	32754	32698	32743	32719	32451	32445	32769	33091	
1598	0	32780	32655	32705	32767	32391	32655	32064	33159	
1599	0	32814	32695	32773	32645	32391	32887	31079	33004	
1600	0	32793	32709	32687	32783	32518	32978	31533	32723	
1601	0	32751	32737	32711	32759	32713	32635	32413	32931	
1602	0	32743	32745	32599	32631	33701	33855	33495	32815	
1603	0	32707	32687	32561	32837	32221	33927	34035	32467	
1604	0	32794	32729	32711	32719	32610	33491	31963	33379	
1605	0	32875	32862	32801	32509	32850	31355	28863	34592	
1606	0	32815	32867	32827	32612	33241	30637	28439	33965	
1607	0	32673	32711	32769	32703	33975	31083	30471	32823	
1608	0	32738	32829	32689	32524	33516	30553	32367	34951	
1609	0	32709	32766	32681	32569	32995	29503	34654	36580	
1610	0	32725	32837	32843	32373	32565	29199	36961	34930	
1611	0	32704	32751	32717	32593	32854	31764	37168	30554	
1612	0	32771	32667	32831	32565	32659	33372	35815	30045	
1613	0	32742	32647	32733	32481	32419	34577	33965	31997	
1614	0	32615	32521	32621	32911	33227	36861	32335	32161	
1615	0	32646	32620	32707	32683	32839	36394	31811	31342	
1616	0	32752	32719	32661	32463	32775	35346	31895	30882	
1617	0	32733	32733	32703	32579	32530	34593	32047	29895	
1618	0	32763	32767	32690	32605	32275	34183	32087	29573	
1619	0	32797	32590	32707	32617	32763	34090	31855	30335	
1620	0	32847	32756	32727	32661	32599	33319	32511	31885	
1621	0	32825	32772	32726	32542	32391	32519	33909	32894	
1622	0	32747	32663	32637	32818	32567	32135	34105	33103	
1623	0	32731	32700	32489	32791	32738	32149	33319	33263	
1624	0	32808	32623	32663	32721	32863	32263	32851	33171	
1625	0	32898	32759	32631	32691	32695	32156	32807	33263	
1626	0	32796	32759	32797	32698	32533	32233	32399	33871	
1627	0	32806	32733	32847	32772	32663	32325	32815	33701	
1628	0	32783	32775	32859	32775	32733	32367	32914	33081	
1629	0	32757	32725	32763	32641	32813	32543	32967	33111	
1630	0	32710	32799	32855	32690	32698	32422	32725	33221	
1631	0	32711	32671	32666	32699	32742	32465	32501	33027	
1632	0	32712	32823	32791	32497	32537	32585	33259	32639	
1633	0	32743	32775	32703	32727	32739	32579	33526	32871	
1634	0	32763	32684	32715	32722	32735	32439	33819	32517	
1635	0	32853	32775	32623	32743	32719	32590	33618	31727	
1636	0	32847	32710	32686	32743	32925	32596	33157	31570	
1637	0	32837	32767	32599	32619	32775	32655	32031	32321	
1638	0	32729	32693	32671	32775	32767	32903	30883	32573	
1639	0	32734	32666	32695	32819	32135	32747	29615	33513	
1640	0	32929	32912	32903	32504	32118	32398	28378	35689	
1641	0	32866	32775	32799	32614	32977	33027	28511	36941	
1642	0	32903	32671	32843	32623	33063	32567	29583	36271	
1643	0	32802	32734	32615	32579	33441	33175	29509	35383	
1644	0	32690	32613	32655	32818	34351	34119	30583	33281	
1645	0	32731	32637	32621	32903	33194	33109	29924	31156	
1646	0	32753	32684	32758	32628	31812	31634	32590	31071	
1647	0	32709	32711	32711	32743	31975	31366	36199	30631	
1648	0	32614	32803	32611	32675	32667	32186	35963	31623	
1649	0	32700	32775	32613	32463	33083	32991	35030	31799	
1650	0	32807	32796	32639	32644	32527	33113	35207	32676	
1651	0	32839	32800	32709	32655	32276	33039	36703	33078	
1652	0	32751	32767	32617	32577	32948	32517	37497	31975	
1653	0	32735	32647	32670	32645	33415	32279	36215	31535	
1654	0	32721	32767	32515	32659	33194	32287	35771	31143	
1655	0	32712	32719	32632	32567	32475	32346	35295	30647	
1656	0	32727	32609	32559	32815	32351	32647	34207	31258	
1657	0	32749	32701	32679	32787	32775	32663	33287	31431	
1658	0	32738	32691	32699	32615	33343	33074	31617	32210	
1659	0	32765	32599	32715	32735	33063	32999	30599	32811	
1660	0	32804	32863	32694	32735	33111	33147	31072	32438	
1661	0	32805	32775	32785	32533	33047	33215	31677	32682	
1662	0	32763	32705	32735	32775	33029	32925	32244	32901	
1663	0	32836	32756	32838	32775	32781	32974	32426	32537	
1664	0	32821	32679	32775	32551	32903	32951	32499	32477	
1665	0	32780	32766	32813	32671	32687	32847	32317	32588	
1666	0	32741	32765	32589	32709	32527	32871	32183	33003	
1667	0	32771	32615	32663	32573	32406	32791	32118	33103	
1668	0	32745	32693	32647	32639	32421	32769	31471	33679	
1669	0	32826	32679	32766	32413	32671	32787	31958	33389	
1670	0	32855	32787	32715	32588	32740	32861	32858	33209	
1671	0	32751	32783	32724	32623	32731	32855	33383	33139	
1672	0	32821	32711	32626	32555	32601	32743	34078	33391	
1673	0	32764	32805	32727	32597	32179	32570	33911	33141	
1674	0	32748	32663	32766	32461	32349	32695	34015	32487	
1675	0	32739	32711	32629	32719	32751	33050	33471	31781	
1676	0	32737	32739	32774	32703	32854	33183	30365	32135	
1677	0	32708	32827	32791	32603	32853	33311	27055	31993	
1678	0	32806	32847	32799	32811	32543	33004	26723	32673	
1679	0	32818	32719	32671	32823	33199	32967	28230	33843	
1680	0	32745	32705	32647	32775	33543	32863	29217	34231	
1681	0	32735	32743	32709	32756	32674	32343	31178	34327	
1682	0	32690	32711	32655	32789	32431	32251	34107	33835	
1683	0	32708	32738	32647	32540	31847	31503	35559	33000	
1684	0	32815	32732	32694	32703	31572	31458	34500	33833	
1685	0	32871	32748	32758	32655	32022	32479	32775	32772	
1686	0	32737	32775	32715	32791	33167	33015	32743	32033	
1687	0	32692	32765	32626	32581	33987	34156	34071	30620	
1688	0	32754	32639	32775	32727	33659	34415	35477	30375	
1689	0	32792	32690	32677	32700	33991	33650	36383	31759	
1690	0	32775	32796	32743	32647	33283	32534	36127	32501	
1691	0	32742	32675	32695	32719	32727	32190	34706	32499	
1692	0	32759	32775	32786	32695	32407	32148	33651	31577	
1693	0	32683	32775	32612	32663	32579	32551	33391	32559	
1694	0	32647	32663	32691	32791	32775	33049	33127	33778	
1695	0	32687	32709	32646	32691	32925	32971	32789	33375	
1696	0	32724	32647	32718	32553	32689	32895	32553	31799	
1697	0	32805	32749	32637	32694	32759	32873	32671	31727	
1698	0	32794	32791	32703	32685	32703	32741	32883	32155	
1699	0	32754	32742	32612	32557	32590	32775	32657	32303	
1700	0	32735	32723	32663	32671	32819	32607	32575	32094	
1701	0	32710	32647	32647	32754	32801	32764	32579	32365	
1702	0	32775	32628	32797	32747	32584	32807	32775	32201	
1703	0	32793	32727	32813	32791	32743	32747	32263	32573	
1704	0	32849	32626	32813	32731	32642	32759	31767	32259	
1705	0	32770	32719	32706	32686	32539	32453	31814	32066	
1706	0	32773	32653	32725	32551	32461	32075	33373	32341	
1707	0	32760	32799	32829	32615	32631	31991	33295	33495	
1708	0	32767	32766	32785	32423	32771	32111	32089	35094	
1709	0	32725	32814	32919	32645	32547	31719	31924	35542	
1710	0	32709	32799	32751	32665	32959	33213	32343	35804	
1711	0	32695	32703	32754	32600	33131	33799	32259	37863	
1712	0	32739	32647	32711	32513	32580	33092	30907	38004	
1713	0	32772	32767	32782	32751	33170	33661	30107	37252	
1714	0	32767	32733	32725	32743	33063	34631	29887	35919	
1715	0	32647	32539	32479	32895	33284	34127	31788	33665	
1716	0	32799	32702	32657	32772	32647	32731	33756	28972	
1717	0	32876	32711	32629	32647	32242	31591	34999	26503	
1718	0	32840	32642	32642	32695	32203	30855	33991	25070	
1719	0	32743	32674	32487	32521	32343	31719	33437	25674	
1720	0	32799	32731	32557	32551	32343	32236	33131	26963	
1721	0	32786	32647	32503	32711	32239	32443	32887	28511	
1722	0	32763	32724	32615	32590	32685	33003	32475	30015	
1723	0	32756	32643	32623	32573	32757	33274	32398	31602	
1724	0	32740	32681	32613	32577	32827	33414	32687	32895	
1725	0	32742	32807	32629	32447	32967	33455	33189	33479	
1726	0	32771	32823	32685	32483	33029	33644	33155	33505	
1727	0	32782	32723	32694	32797	32797	33107	33031	33415	
1728	0	32855	32709	32783	32745	32895	32726	33241	33547	
1729	0	32855	32821	32647	32663	32789	32605	33781	33667	
1730	0	32822	32773	32753	32802	32687	32713	33484	33515	
1731	0	32836	32785	32773	32759	32959	32635	33466	33575	
1732	0	32846	32773	32839	32583	32869	32730	33555	33615	
1733	0	32775	32727	32727	32759	32723	32605	33437	33407	
1734	0	32730	32791	32813	32731	32877	32694	33431	33398	
1735	0	32719	32847	32731	32626	32935	32611	33055	33311	
1736	0	32708	32701	32763	32811	32871	32671	32333	33679	
1737	0	32681	32701	32791	32838	32803	32597	32162	33683	
1738	0	32724	32671	32735	32644	33011	32684	32204	33409	
1739	0	32727	32719	32718	32775	32622	32701	31765	32929	
1740	0	32818	32787	32730	32731	32594	32525	31393	33199	
1741	0	32783	32647	32703	32597	32463	32436	32401	33683	
1742	0	32759	32864	32743	32599	32724	32543	33326	33415	
1743	0	32676	32726	32620	32719	33133	32821	32974	32867	
1744	0	32721	32613	32607	32567	33095	32850	32921	32911	
1745	0	32834	32694	32719	32684	33007	32722	33099	33841	
1746	0	32818	32775	32719	32723	32609	32573	32583	33797	
1747	0	32821	32691	32769	32566	32343	32897	31492	32963	
1748	0	32764	32693	32703	32690	32674	33329	30847	32553	
1749	0	32797	32621	32770	32715	32871	33511	30538	34215	
1750	0	32801	32647	32670	32609	32727	33427	30659	36514	
1751	0	32769	32699	32643	32613	32851	33340	32471	34655	
1752	0	32711	32706	32539	32743	32708	32847	34050	32846	
1753	0	32748	32671	32530	32677	32285	31869	34722	31031	
1754	0	32698	32767	32702	32465	32303	32209	34663	30180	
1755	0	32690	32706	32691	32671	33079	32839	33579	30416	
1756	0	32767	32676	32775	32581	33397	32607	32871	30259	
1757	0	32759	32725	32922	32611	33711	32247	32350	29877	
1758	0	32725	32643	32894	32786	33479	32098	32692	30087	
1759	0	32683	32724	32709	32870	32415	32135	33463	31039	
1760	0	32661	32703	32703	32683	32105	32405	34147	32414	
1761	0	32644	32679	32595	32819	31876	32407	34279	33099	
1762	0	32752	32718	32757	32798	31833	32530	32388	33125	
1763	0	32833	32791	32673	32755	32083	32607	32998	33477	
1764	0	32843	32811	32763	32685	32757	33187	33369	32903	
1765	0	32740	32745	32647	32583	33099	33132	33083	32719	
1766	0	32817	32865	32695	32606	32775	32943	33222	32525	
1767	0	32757	32790	32595	32581	32762	32837	32359	32367	
1768	0	32749	32687	32743	32487	32489	32899	32850	32535	
1769	0	32807	32823	32791	32517	32429	32807	32739	32135	
1770	0	32826	32740	32765	32501	32785	32948	32315	32151	
1771	0	32745	32659	32703	32671	32970	32903	31439	33181	
1772	0	32801	32719	32669	32495	32482	32806	30406	33299	
1773	0	32790	32753	32775	32695	32678	32803	29991	33319	
1774	0	32755	32813	32689	32676	32452	32871	30333	33883	
1775	0	32752	32719	32599	32661	32988	33029	31486	34156	
1776	0	32808	32735	32754	32645	33959	33015	34078	34157	
1777	0	32727	32711	32603	32799	34027	33213	35303	33964	
1778	0	32745	32607	32703	32835	33487	33155	34327	33844	
1779	0	32750	32673	32607	32751	32809	32943	34023	32225	
1780	0	32829	32669	32743	32695	32603	32623	33303	32007	
1781	0	32743	32685	32800	32675	32613	32044	32409	31738	
1782	0	32768	32711	32661	32751	32687	31975	31809	31671	
1783	0	32731	32705	32660	32589	32813	32043	32169	32117	
1784	0	32703	32583	32577	32687	33069	32437	32375	32157	
1785	0	32678	32726	32597	32751	32941	32989	32983	31903	
1786	0	32786	32783	32679	32662	32949	33734	32911	33513	
1787	0	32680	32678	32661	32461	33150	34011	32754	33132	
1788	0	32713	32781	32709	32664	32611	33191	32677	32621	
1789	0	32736	32749	32581	32717	32342	32967	33563	32873	
1790	0	32778	32642	32692	32572	32419	32687	32771	33108	
1791	0	32844	32767	32727	32698	32492	31973	32303	33075	
1792	0	32781	32723	32895	32598	32409	32087	33267	32457	
1793	0	32696	32829	32774	32681	32428	32599	33906	32527	
1794	0	32775	32671	32895	32711	32543	33007	33991	32487	
1795	0	32745	32707	32772	32665	32463	32901	33483	32225	
1796	0	32806	32730	32804	32615	32459	32991	33223	31935	
1797	0	32809	32655	32878	32612	32711	33172	32742	31140	
1798	0	32856	32735	32797	32639	33005	32903	31493	31431	
1799	0	32788	32707	32819	32615	33127	32791	31303	31732	
1800	0	32850	32637	32742	32731	33177	32791	30926	31767	
1801	0	32799	32735	32727	32654	32894	32551	30172	32841	
1802	0	32823	32761	32743	32735	33039	32785	30153	33055	
1803	0	32732	32791	32761	32837	32533	32404	32580	32967	
1804	0	32747	32799	32662	32673	31997	31927	33499	33783	
1805	0	32748	32634	32671	32801	31526	31999	32449	35031	
1806	0	32759	32661	32775	32818	31603	32079	31250	36134	
1807	0	32745	32759	32637	32756	32543	33301	31182	35231	
1808	0	32724	32738	32643	32731	33392	34746	30909	34525	
1809	0	32797	32662	32615	32734	33655	34740	32700	33509	
1810	0	32804	32679	32699	32640	33847	33197	36580	32823	
1811	0	32734	32597	32577	32735	33403	31751	38351	30743	
1812	0	32679	32658	32647	32759	32794	31511	36591	30445	
1813	0	32726	32722	32708	32738	32831	31950	33579	31985	
1814	0	32834	32675	32631	32655	32731	32287	32711	31799	
1815	0	32835	32767	32663	32475	33255	32629	33399	30695	
1816	0	32784	32812	32540	32711	33119	33026	33719	29911	
1817	0	32803	32647	32699	32689	32647	32685	33447	30175	
1818	0	32753	32719	32743	32711	32775	32982	32577	31555	
1819	0	32772	32691	32775	32646	32839	32631	32369	32387	
1820	0	32838	32699	32886	32735	32707	32380	32215	32607	
1821	0	32807	32775	32839	32754	32479	32783	32167	33245	
1822	0	32767	32801	32839	32647	32543	32870	32199	33497	
1823	0	32794	32718	32801	32723	32715	33045	32279	32859	
1824	0	32738	32822	32855	32647	32671	33053	32599	32173	
1825	0	32759	32738	32749	32505	32713	32785	32863	32569	
1826	0	32812	32769	32732	32695	32749	32835	32429	33005	
1827	0	32826	32740	32566	32687	32687	32807	32639	32973	
1828	0	32834	32699	32615	32518	32627	33078	32694	32527	
1829	0	32890	32707	32687	32644	32735	32950	32771	33009	
1830	0	32879	32625	32706	32509	32679	32729	32544	35589	
1831	0	32884	32791	32596	32623	32707	32870	32556	35799	
1832	0	32743	32859	32699	32617	32671	32738	32429	34839	
1833	0	32658	32698	32710	32685	32813	32829	32007	33460	
1834	0	32655	32775	32667	32611	32789	32740	31747	32646	
1835	0	32676	32631	32671	32647	32583	32565	31635	31991	
1836	0	32657	32763	32791	32766	32709	32322	32278	31215	
1837	0	32715	32691	32837	32623	32589	32252	32484	31655	
1838	0	32710	32609	32754	32655	32637	32349	32663	31526	
1839	0	32767	32731	32919	32551	32685	32587	32903	31639	
1840	0	32771	32715	32838	32722	32769	32719	33268	32068	
1841	0	32799	32805	32800	32687	32919	32735	33412	32443	
1842	0	32820	32767	32813	32582	32835	32821	33134	32150	
1843	0	32775	32708	32791	32647	32803	32738	32921	32063	
1844	0	32772	32775	32493	32775	32871	32855	32565	32183	
1845	0	32828	32717	32549	32595	32759	32767	32343	32466	
1846	0	32775	32619	32549	32711	32611	32929	32956	32865	
1847	0	32725	32719	32662	32697	32820	32997	33074	32725	
1848	0	32749	32727	32673	32465	32791	33055	32946	32891	
1849	0	32703	32631	32675	32671	32623	32892	32506	32865	
1850	0	32721	32655	32677	32647	32829	33007	32629	32353	
1851	0	32736	32719	32711	32711	32815	32914	33559	32399	
1852	0	32767	32685	32839	32462	32756	33037	33863	32327	
1853	0	32754	32675	32726	32670	32903	32791	33236	32735	
1854	0	32799	32775	32715	32743	32732	32162	32680	32743	
1855	0	32719	32775	32743	32886	32579	31719	32157	32759	
1856	0	32716	32626	32627	32636	32767	31941	31595	33335	
1857	0	32758	32791	32749	32719	32683	32255	31580	33457	
1858	0	32807	32877	32749	32767	32693	32407	31503	33867	
1859	0	32791	32733	32773	32564	32844	33111	31839	33795	
1860	0	32748	32791	32687	32639	32957	33498	31879	33895	
1861	0	32772	32647	32715	32726	32775	33357	33077	33104	
1862	0	32812	32685	32731	32535	32615	33659	33407	32644	
1863	0	32764	32727	32679	32633	32929	33579	33267	33287	
1864	0	32714	32703	32610	32647	32853	33318	33341	33427	
1865	0	32700	32775	32506	32527	32804	33383	32997	32389	
1866	0	32693	32855	32677	32634	32807	32686	32661	32663	
1867	0	32722	32679	32717	32687	32735	32612	32647	32635	
1868	0	32739	32775	32716	32775	32771	32961	32791	31169	
1869	0	32717	32775	32695	32527	32607	32487	33220	29767	
1870	0	32759	32692	32747	32683	32521	32309	33106	30914	
1871	0	32812	32719	32756	32699	32643	32507	33003	31885	
1872	0	32787	32671	32659	32551	32531	32485	33007	32607	
1873	0	32710	32629	32667	32813	32698	32567	32878	32313	
1874	0	32742	32717	32558	32788	32691	32631	32949	32311	
1875	0	32741	32631	32613	32666	32855	32729	32795	33183	
1876	0	32752	32775	32581	32815	32847	32725	33167	33195	
1877	0	32775	32821	32765	32743	32969	32747	33037	32875	
1878	0	32811	32695	32687	32601	32874	32815	33127	32755	
1879	0	32748	32793	32775	32637	32925	32855	33115	32573	
1880	0	32717	32787	32677	32641	32879	32847	32948	32479	
1881	0	32775	32671	32751	32463	32916	32899	33030	32700	
1882	0	32837	32687	32743	32575	32813	32837	32619	32507	
1883	0	32831	32737	32725	32593	32610	32789	32347	32373	
1884	0	32796	32659	32713	32591	32655	32589	32483	32274	
1885	0	32772	32622	32751	32639	32596	32639	32734	32667	
1886	0	32725	32747	32683	32505	32679	32733	33119	33551	
1887	0	32784	32747	32783	32719	32579	32733	32815	35231	
1888	0	32703	32693	32735	32827	32738	32935	33223	35917	
1889	0	32705	32743	32775	32583	32495	32691	32845	34715	
1890	0	32759	32686	32639	32811	32723	32895	31946	33719	
1891	0	32820	32775	32655	32753	32831	32901	32237	33568	
1892	0	32726	32738	32613	32619	32819	33050	33563	33223	
1893	0	32727	32567	32634	32755	32964	33251	33158	33287	
1894	0	32754	32700	32628	32663	32932	32919	32631	32028	
1895	0	32743	32727	32676	32525	32647	31767	32071	29887	
1896	0	32737	32683	32714	32695	32457	31145	30863	30757	
1897	0	32723	32761	32663	32660	32621	31623	30163	31890	
1898	0	32760	32742	32723	32735	32731	32443	29903	31599	
1899	0	32731	32647	32606	32563	32919	33367	31559	32319	
1900	0	32766	32775	32659	32733	32941	33995	33628	32628	
1901	0	32766	32701	32615	32689	32846	33479	34063	32111	
1902	0	32836	32775	32715	32732	32742	32938	33613	31807	
1903	0	32728	32815	32663	32729	32740	32635	33367	30887	
1904	0	32693	32734	32747	32647	32687	32847	33359	31621	
1905	0	32807	32723	32691	32730	32851	32701	33633	32925	
1906	0	32802	32615	32782	32631	32727	32763	33471	32647	
1907	0	32763	32817	32831	32661	32943	32727	33207	32819	
1908	0	32750	32799	32767	32694	32764	32805	33299	32979	
1909	0	32779	32805	32775	32706	32775	32690	32879	32519	
1910	0	32847	32775	32686	32530	32479	32723	32998	32367	
1911	0	32807	32706	32706	32631	32799	32735	33039	32423	
1912	0	32799	32795	32740	32551	32871	32791	32929	32540	
1913	0	32803	32823	32687	32706	32925	32775	33035	32623	
1914	0	32763	32773	32699	32725	32789	32767	32879	32855	
1915	0	32744	32790	32788	32551	32903	32836	32839	33039	
1916	0	32687	32663	32743	32639	32919	32729	32771	33223	
1917	0	32721	32775	32775	32607	32719	32803	32676	33159	
1918	0	32716	32673	32751	32715	32805	32711	32919	33071	
1919	0	32717	32756	32727	32669	32710	32796	32923	32956	
1920	0	32767	32655	32691	32631	32695	32764	33219	32783	
1921	0	32794	32827	32687	32623	32803	32770	33077	32975	
1922	0	32773	32871	32787	32567	32795	32843	32847	32993	
1923	0	32743	32735	32663	32724	32785	32679	32647	33061	
1924	0	32725	32823	32775	32743	32823	32807	32327	32925	
1925	0	32793	32739	32700	32607	32903	32719	32421	32845	
1926	0	32807	32823	32742	32661	32810	32919	32941	32723	
1927	0	32800	32759	32626	32539	32873	32910	32679	32076	
1928	0	32782	32587	32725	32743	32667	32791	32503	31991	
1929	0	32793	32685	32667	32694	32818	32839	32308	31819	
1930	0	32778	32596	32706	32587	32724	32813	32763	32135	
1931	0	32812	32770	32751	32647	32915	32982	32940	32959	
1932	0	32777	32679	32628	32683	32893	32865	32039	33650	
1933	0	32782	32599	32668	32642	32815	32743	31100	32727	
1934	0	32785	32731	32823	32577	32597	32863	30921	32549	
1935	0	32748	32793	32731	32734	32615	32689	32059	33439	
1936	0	32775	32734	32813	32743	32626	32686	32515	33559	
1937	0	32764	32783	32717	32562	32694	32617	32581	32732	
1938	0	32761	32719	32663	32647	32617	32437	32455	32586	
1939	0	32695	32743	32538	32679	32531	32533	30939	32642	
1940	0	32695	32743	32662	32631	32926	32743	30867	33541	
1941	0	32678	32635	32635	32847	33111	32860	32591	34867	
1942	0	32741	32737	32626	32803	32623	33144	35391	33590	
1943	0	32807	32791	32739	32563	32172	33031	36487	32399	
1944	0	32839	32662	32804	32597	31823	32443	35505	33594	
1945	0	32817	32713	32655	32627	32135	32375	34970	34143	
1946	0	32822	32673	32676	32737	32565	32625	34411	32311	
1947	0	32769	32657	32575	32609	33183	32613	33039	30756	
1948	0	32804	32703	32625	32791	33206	32647	31900	31439	
1949	0	32772	32739	32622	32701	32939	32611	31597	32519	
1950	0	32768	32690	32710	32557	33275	32775	31859	32039	
1951	0	32731	32706	32659	32727	33031	32663	32391	31605	
1952	0	32753	32690	32707	32747	32967	32705	32711	32109	
1953	0	32743	32739	32759	32467	32817	32717	32615	32497	
1954	0	32769	32850	32698	32707	32837	32874	32935	32335	
1955	0	32765	32758	32773	32691	32879	32839	32825	32303	
1956	0	32773	32839	32823	32609	32711	32817	32647	32255	
1957	0	32754	32749	32804	32727	32967	32807	32619	32479	
1958	0	32764	32879	32815	32717	32945	32952	32515	32470	
1959	0	32802	32796	32797	32593	32847	32815	32791	32083	
1960	0	32822	32708	32669	32711	32669	32839	32773	32341	
1961	0	32879	32755	32749	32669	32879	32833	32727	32515	
1962	0	32827	32743	32685	32495	32807	32850	32886	32387	
1963	0	32840	32693	32782	32755	32783	32844	32683	32474	
1964	0	32773	32727	32736	32594	32783	32663	32657	32571	
1965	0	32769	32671	32703	32734	32585	32743	32596	32845	
1966	0	32701	32711	32703	32647	32751	32775	32572	32674	
1967	0	32703	32582	32593	32739	32615	32775	31931	33278	
1968	0	32775	32753	32721	32647	32701	32881	32171	33415	
1969	0	32857	32823	32814	32541	32599	32921	32903	32822	
1970	0	32825	32895	32727	32619	32784	32973	33321	32197	
1971	0	32798	32823	32643	32503	32879	32901	33407	32301	
1972	0	32739	32706	32657	32679	32763	32885	33303	33043	
1973	0	32775	32794	32631	32706	32833	32732	33326	33123	
1974	0	32715	32602	32591	32567	32612	32628	32783	33615	
1975	0	32642	32742	32567	32710	32709	32579	31863	33338	
1976	0	32644	32647	32730	32595	32767	32847	31271	32655	
1977	0	32605	32834	32695	32720	32818	33092	32071	32559	
1978	0	32687	32643	32751	32691	32969	33113	32258	32231	
1979	0	32732	32707	32835	32683	32759	32884	32835	32221	
1980	0	32751	32643	32864	32807	32740	32425	31879	32935	
1981	0	32775	32701	32739	32562	32716	32487	32068	33925	
1982	0	32732	32550	32647	32702	32605	32497	32189	33342	
1983	0	32725	32658	32740	32592	32676	32343	32839	32687	
1984	0	32759	32647	32647	32685	32540	32421	33026	32603	
1985	0	32743	32827	32723	32770	32775	32541	33185	32039	
1986	0	32773	32771	32615	32711	32695	32719	32466	32157	
1987	0	32769	32685	32722	32767	32727	32719	32167	32239	
1988	0	32804	32757	32807	32545	32691	32735	32654	32412	
1989	0	32806	32691	32802	32671	32819	32786	33159	32499	
1990	0	32825	32711	32703	32572	32829	32719	33940	32818	
1991	0	32831	32620	32619	32671	32679	32887	33707	32773	
1992	0	32762	32724	32676	32671	32756	32775	33463	32601	
1993	0	32727	32668	32589	32580	32843	32895	33175	32735	
1994	0	32751	32805	32633	32643	32807	32873	33241	32679	
1995	0	32699	32871	32647	32643	32887	32893	33039	32484	
1996	0	32752	32775	32671	32489	32730	32751	32903	32598	
1997	0	32765	32804	32571	32599	32925	32837	32967	32519	
1998	0	32768	32786	32659	32579	32863	32813	32876	32647	
1999	0	32743	32823	32621	32749	32879	32758	32783	32631	
2000	0	32724	32695	32727	32671	32717	32803	32579	32658	
2001	0	32730	32774	32716	32611	32835	32724	32508	32793	
2002	0	32694	32703	32706	32655	32691	32743	32380	32525	
2003	0	32735	32762	32799	32607	32765	32715	32609	32527	
2004	0	32717	32703	32756	32743	32892	32791	32967	32506	
2005	0	32775	32711	32859	32503	32671	32839	32885	32621	
2006	0	32736	32687	32818	32703	32818	32761	32671	32594	
2007	0	32741	32729	32775	32679	32782	32809	32943	32517	
2008	0	32830	32669	32715	32635	32789	32829	32775	32607	
2009	0	32837	32775	32687	32683	32678	32811	32889	32501	
2010	0	32903	32639	32715	32557	32706	32927	32911	32535	
2011	0	32852	32775	32635	32591	32827	32725	33047	32535	
2012	0	32835	32700	32775	32547	32797	32789	32742	32439	
2013	0	32724	32700	32685	32749	32783	32711	32575	32527	
2014	0	32711	32667	32729	32686	32611	32745	32271	33085	
2015	0	32745	32783	32674	32587	32771	32791	31859	32955	
2016	0	32647	32767	32711	32740	32711	32723	31751	32495	
2017	0	32679	32851	32655	32743	32879	32783	31623	32583	
2018	0	32719	32727	32807	32607	32711	32583	32151	33149	
2019	0	32750	32639	32791	32823	32815	32591	32736	33383	
2020	0	32727	32731	32751	32811	32687	32573	33206	33664	
2021	0	32711	32692	32663	32633	32763	32708	33351	33111	
2022	0	32790	32756	32791	32712	32669	32903	33181	32995	
2023	0	32819	32705	32687	32655	32876	32839	33350	32866	
2024	0	32780	32797	32823	32735	32924	32903	33115	32548	
2025	0	32807	32801	32767	32805	32892	32855	33151	32223	
2026	0	32746	32775	32845	32543	32751	32829	32876	32391	
2027	0	32703	32748	32839	32639	32819	32829	33031	32637	
2028	0	32739	32702	32834	32554	32722	32703	33091	32356	
2029	0	32745	32775	32759	32530	32759	32831	32911	32071	
2030	0	32709	32703	32646	32623	32683	32823	32997	32207	
2031	0	32687	32719	32706	32631	32715	32797	32655	32169	
2032	0	32680	32703	32663	32661	32783	32735	32823	32295	
2033	0	32728	32709	32658	32647	32863	32827	32548	32391	
2034	0	32701	32751	32621	32593	32673	32727	32262	32807	
2035	0	32679	32619	32711	32678	32727	32757	32461	32943	
2036	0	32711	32727	32623	32707	32743	32774	32211	33011	
2037	0	32751	32607	32754	32775	32762	32711	32507	32891	
2038	0	32748	32731	32685	32755	32642	32647	32511	32595	
2039	0	32772	32623	32703	32726	32839	32775	32981	32676	
2040	0	32791	32703	32568	32647	32749	32735	32922	32743	
2041	0	32820	32599	32647	32615	32847	32851	32980	32543	
2042	0	32855	32692	32580	32503	32827	32871	32743	32637	
2043	0	32918	32639	32555	32669	32701	32927	32599	32613	
2044	0	32927	32748	32653	32615	32799	32871	32837	32634	
2045	0	32815	32735	32683	32692	32775	32807	32985	32711	
2046	0	32739	32815	32728	32677	32671	32694	32575	32790	
2047	0	32783	32831	32639	32603	32479	32599	32223	32751	
2048	0	32720	32703	32591	32646	32667	32775	33106	32535	
2049	0	32743	32775	32662	32631	32754	32799	33731	32441	
2050	0	32775	32653	32711	32519	32711	32897	33579	32547	
2051	0	32754	32751	32762	32769	32582	32903	33119	32571	
2052	0	32676	32614	32717	32743	32759	32763	33143	32959	
2053	0	32689	32681	32738	32615	32749	32787	32879	32380	
2054	0	32794	32589	32663	32771	32767	32591	32169	32443	
2055	0	32685	32729	32771	32836	32635	32767	31327	33575	
2056	0	32815	32639	32743	32674	32823	32711	31058	33223	
2057	0	32773	32708	32871	32818	32831	32623	31349	32727	
2058	0	32838	32705	32855	32703	32709	32549	32775	32879	
2059	0	32890	32671	32739	32623	32837	32619	34082	33359	
2060	0	32797	32759	32771	32663	32735	32231	33763	33063	
2061	0	32745	32785	32711	32655	32939	32386	32807	32701	
2062	0	32769	32781	32685	32540	32759	32775	32839	32335	
2063	0	32690	32857	32671	32714	32847	32957	32250	32887	
2064	0	32658	32757	32695	32711	32855	33135	31623	33567	
2065	0	32775	32727	32620	32607	32845	33473	32093	34675	
2066	0	32679	32689	32625	32661	32647	33644	32775	34487	
2067	0	32634	32729	32631	32563	32551	32883	33055	32615	
2068	0	32759	32623	32686	32677	32535	32561	32479	30932	
2069	0	32762	32775	32771	32759	32597	32617	32615	30735	
2070	0	32741	32647	32775	32594	32557	32587	33079	31166	
2071	0	32775	32711	32767	32749	32757	32500	33439	31099	
2072	0	32790	32852	32693	32713	32846	32647	33411	31671	
2073	0	32775	32815	32775	32535	32903	32815	32967	32038	
2074	0	32775	32657	32731	32671	32802	32819	33159	32199	
2075	0	32797	32786	32787	32571	32859	32775	32847	32209	
2076	0	32772	32743	32775	32663	32814	32669	33427	32369	
2077	0	32738	32811	32767	32681	32899	32751	32957	32451	
2078	0	32742	32665	32829	32675	32903	32749	32811	32679	
2079	0	32804	32707	32703	32679	32723	32759	32748	32501	
2080	0	32802	32647	32717	32539	32903	32819	32839	32775	
2081	0	32775	32748	32599	32631	32825	32791	32711	32978	
2082	0	32895	32695	32741	32715	32855	32786	32989	33019	
2083	0	32796	32861	32673	32574	32735	32847	33039	32989	
2084	0	32836	32715	32735	32658	32638	32826	33151	33467	
2085	0	32713	32787	32599	32479	32759	32731	33049	33451	
2086	0	32752	32623	32720	32644	32807	32748	33079	32868	
2087	0	32730	32763	32700	32487	32694	32727	32647	32835	
2088	0	32697	32717	32733	32711	32791	32695	32815	32647	
2089	0	32734	32791	32703	32721	32711	32826	32647	32775	
2090	0	32676	32789	32615	32657	32711	32594	32662	32703	
2091	0	32735	32839	32647	32679	32810	32759	32463	32606	
2092	0	32751	32647	32613	32566	32807	32647	32763	32775	
2093	0	32764	32685	32647	32755	32678	32663	32183	32837	
2094	0	32671	32570	32607	32788	32775	32713	32175	32861	
2095	0	32788	32771	32820	32641	32739	32701	31963	32543	
2096	0	32808	32679	32895	32681	32844	32895	32038	32018	
2097	0	32815	32758	32841	32805	32738	32885	32359	32075	
2098	0	32771	32679	32759	32775	32782	32914	32488	31911	
2099	0	32672	32669	32805	32751	32914	32871	32879	32143	
2100	0	32683	32647	32729	32559	32764	32703	33231	32581	
2101	0	32767	32735	32843	32695	32659	32861	33146	32543	
2102	0	32727	32659	32695	32663	32694	32765	32745	32314	
2103	0	32790	32751	32775	32565	32699	32871	33135	32578	
2104	0	32703	32731	32831	32731	32687	32626	33239	33315	
2105	0	32799	32647	32772	32727	32711	32615	33239	33781	
2106	0	32790	32671	32739	32583	32751	32706	32876	33431	
2107	0	32855	32813	32707	32567	32746	32790	31895	32891	
2108	0	32845	32671	32701	32647	32764	32716	32159	32523	
2109	0	32847	32711	32669	32691	32583	32694	32589	32221	
2110	0	32841	32716	32707	32559	32835	32751	32858	32981	
2111	0	32969	32867	32621	32727	32647	32775	33497	33636	
2112	0	32924	32813	32799	32743	32879	32827	33437	33101	
2113	0	32863	32620	32550	32562	32936	32831	33345	32479	
2114	0	32722	32692	32535	32790	32770	32935	33367	32182	
2115	0	32677	32607	32633	32691	32940	32831	33023	32445	
2116	0	32720	32709	32532	32575	32959	32797	32900	32423	
2117	0	32580	32850	32597	32661	32775	32823	32599	32407	
2118	0	32690	32663	32542	32685	32971	32693	32103	32647	
2119	0	32695	32799	32676	32766	32859	32735	32233	32592	
2120	0	32748	32823	32663	32579	32647	32679	32143	32391	
2121	0	32748	32655	32623	32788	32687	32748	31695	32439	
2122	0	32733	32803	32727	32683	32791	32703	31661	32301	
2123	0	32764	32643	32749	32543	32647	32719	32021	32292	
2124	0	32726	32814	32775	32595	32738	32797	33086	32623	
2125	0	32681	32858	32759	32647	32684	32683	33551	32375	
2126	0	32725	32711	32732	32642	32692	32863	33679	31893	
2127	0	32751	32804	32711	32574	32765	32867	33503	32233	
2128	0	32727	32647	32739	32723	32591	32748	33017	33855	
2129	0	32721	32701	32719	32861	32518	32527	32386	34484	
2130	0	32735	32626	32695	32604	32647	32669	31761	33981	
2131	0	32756	32511	32767	32727	32775	32687	31822	32955	
2132	0	32770	32759	32679	32820	32700	32799	32715	32245	
2133	0	32775	32675	32719	32673	32887	32791	32933	32231	
2134	0	32756	32772	32725	32738	32806	32861	33257	32012	
2135	0	32759	32767	32724	32607	32903	32887	32834	32171	
2136	0	32787	32845	32714	32739	32735	32751	32895	32455	
2137	0	32803	32837	32743	32671	32903	32775	32855	32629	
2138	0	32788	32743	32695	32579	32873	32771	32963	32439	
2139	0	32783	32748	32772	32703	32939	32892	33117	32281	
2140	0	32824	32775	32741	32741	32709	32870	32903	32307	
2141	0	32827	32829	32807	32579	32889	32799	33018	32131	
2142	0	32881	32723	32839	32676	32719	32739	32742	32605	
2143	0	32751	32707	32699	32669	32699	32751	32751	32762	
2144	0	32718	32647	32671	32726	32643	32748	32455	32903	
2145	0	32857	32679	32699	32669	32717	32799	32547	32885	
2146	0	32765	32644	32823	32613	32691	32683	32643	32917	
2147	0	32743	32715	32692	32745	32741	32727	33085	33075	
