# OpenSignals Text File Format
# {"00:07:80:3B:46:38": {"sensor": ["CUSTOM/0.5/1.0/V", "CUSTOM/0.5/1.0/V", "CUSTOM/0.5/1.0/V", "CUSTOM/0.5/1.0/V", "CUSTOM/0.5/1.0/V", "CUSTOM/0.5/1.0/V", "CUSTOM/0.5/1.0/V", "CUSTOM/0.5/1.0/V"], "device name": "EMGs", "column": ["nSeq", "DI", "RA_L", "RA_R", "OE_L", "OE:R", "IL_L", "IL_R", "MF_L", "MF_R"], "sync interval": 2, "time": "18:4:59.583", "comments": "", "device connection": "BTH00:07:80:3B:46:38", "channels": [1, 2, 3, 4, 5, 6, 7, 8], "date": "2017-6-1", "mode": 0, "digital IO": [0, 1], "firmware version": 772, "device": "biosignalsplux", "position": 0, "sampling rate": 1000, "label": ["RA_L", "RA_R", "OE_L", "OE:R", "IL_L", "IL_R", "MF_L", "MF_R"], "resolution": [16, 16, 16, 16, 16, 16, 16, 16], "special": [{}, {}, {}, {}, {}, {}, {}, {}]}}
# EndOfHeader
0	0	32658	32819	32671	32647	32583	32855	32637	32807	
1	0	32740	32875	32629	32681	32719	32903	32727	32797	
2	0	32738	32743	32598	32549	32775	32743	32841	32605	
3	0	32773	32711	32692	32742	32741	32739	32855	32727	
4	0	32775	32799	32786	32725	32823	32738	32805	32695	
5	0	32778	32821	32708	32633	32835	32807	32855	32516	
6	0	32857	32703	32727	32647	32837	32893	32795	32673	
7	0	32820	32725	32709	32639	32847	32775	32647	32658	
8	0	32841	32743	32775	32692	32717	32839	32738	32549	
9	0	32827	32715	32615	32487	32857	32754	32707	32675	
10	0	32836	32719	32677	32749	32719	32819	32671	32754	
11	0	32834	32796	32775	32757	32855	32775	32655	32693	
12	0	32844	32805	32734	32725	32831	32647	32863	32683	
13	0	32803	32703	32689	32700	32850	32767	32811	32605	
14	0	32770	32743	32715	32708	32742	32711	32823	32577	
15	0	32793	32727	32711	32719	32839	32734	32831	32647	
16	0	32836	32707	32687	32589	32765	32754	32819	32543	
17	0	32807	32789	32604	32673	32823	32677	32927	32647	
18	0	32796	32794	32642	32683	32851	32750	32795	32647	
19	0	32773	32695	32705	32639	32847	32751	32695	32695	
20	0	32775	32823	32615	32644	32827	32775	32631	32564	
21	0	32769	32735	32699	32590	32855	32831	32791	32711	
22	0	32756	32759	32678	32599	32807	32735	32823	32657	
23	0	32737	32829	32715	32647	32634	32887	32799	32467	
24	0	32775	32711	32711	32738	32623	32767	32853	32603	
25	0	32755	32727	32748	32533	32795	32775	32807	32570	
26	0	32834	32771	32755	32663	32775	32623	32775	32753	
27	0	32802	32723	32795	32713	32637	32857	32775	32843	
28	0	32838	32729	32655	32567	32706	32927	32805	32730	
29	0	32831	32839	32598	32767	32802	32623	32839	32599	
30	0	32823	32790	32681	32723	32765	32481	32827	32711	
31	0	32775	32758	32740	32763	32823	32517	32775	32662	
32	0	32782	32796	32756	32631	32775	32595	32715	32633	
33	0	32747	32743	32735	32718	32819	32745	32684	32683	
34	0	32801	32762	32739	32708	32824	32749	32615	32647	
35	0	32741	32805	32743	32679	32876	32758	32754	32695	
36	0	32809	32676	32829	32730	32796	32769	32775	32539	
37	0	32794	32775	32825	32698	32745	32903	32755	32797	
38	0	32832	32823	32722	32535	32743	32855	32709	32919	
39	0	32824	32721	32703	32647	32844	32775	32787	32695	
40	0	32750	32789	32717	32667	32679	32819	32873	32751	
41	0	32800	32839	32719	32619	32774	32727	32935	32820	
42	0	32714	32761	32755	32579	32867	32755	32855	32692	
43	0	32756	32767	32743	32692	32855	32775	32775	32609	
44	0	32748	32807	32732	32715	32807	32799	32791	32487	
45	0	32727	32735	32659	32551	32823	32799	32657	32603	
46	0	32741	32775	32551	32519	32767	32711	32583	32694	
47	0	32718	32731	32626	32676	32566	32895	32719	32647	
48	0	32711	32701	32692	32682	32615	32903	32714	32647	
49	0	32687	32755	32781	32553	32839	32759	32743	32765	
50	0	32749	32785	32767	32796	32781	32807	32795	32694	
51	0	32773	32771	32751	32692	32807	32775	32803	32659	
52	0	32751	32807	32719	32703	32833	32717	32773	32836	
53	0	32759	32789	32685	32611	32811	32738	32803	32647	
54	0	32707	32814	32630	32679	32711	32730	32883	32677	
55	0	32796	32742	32596	32673	32639	32719	32807	32717	
56	0	32775	32775	32692	32579	32767	32763	32969	32631	
57	0	32775	32774	32755	32655	32831	32719	32838	32583	
58	0	32785	32679	32743	32693	32868	32747	32642	32636	
59	0	32797	32783	32751	32599	32741	32831	32679	32487	
60	0	32676	32887	32709	32700	32751	32841	32630	32644	
61	0	32749	32806	32667	32647	32775	32868	32819	32659	
62	0	32757	32743	32681	32719	32815	32831	32775	32575	
63	0	32773	32775	32717	32474	32663	32918	32839	32627	
64	0	32740	32775	32703	32663	32667	32879	32802	32754	
65	0	32734	32719	32773	32693	32823	32751	32838	32559	
66	0	32749	32731	32743	32621	32811	32663	32877	32695	
67	0	32801	32795	32739	32667	32847	32491	32647	32717	
68	0	32809	32739	32803	32545	32871	32739	32583	32809	
69	0	32751	32793	32757	32647	32823	32719	32793	32615	
70	0	32758	32756	32791	32692	32831	32740	32719	32739	
71	0	32736	32791	32790	32557	32915	32531	32772	32743	
72	0	32704	32775	32743	32765	32916	32477	32925	32788	
73	0	32748	32790	32711	32797	32695	32765	32707	32655	
74	0	32754	32807	32655	32615	32775	32868	32629	32758	
75	0	32739	32733	32756	32708	32815	32743	32590	32735	
76	0	32793	32771	32675	32676	32841	32847	32791	32612	
77	0	32752	32801	32711	32647	32845	32765	32815	32599	
78	0	32754	32743	32718	32635	32773	32783	32769	32571	
79	0	32830	32823	32757	32583	32749	32859	32828	32755	
80	0	32742	32769	32759	32843	32581	32799	32759	32647	
81	0	32768	32763	32667	32749	32692	32815	32775	32685	
82	0	32759	32727	32685	32767	32835	32813	32773	32613	
83	0	32716	32839	32639	32657	32823	32759	32645	32755	
84	0	32764	32755	32735	32763	32751	32759	32583	32745	
85	0	32767	32715	32739	32717	32709	32855	32663	32578	
86	0	32731	32730	32743	32647	32756	32804	32619	32605	
87	0	32710	32821	32668	32621	32679	32765	32790	32767	
88	0	32795	32759	32749	32607	32630	32735	32799	32582	
89	0	32775	32851	32662	32474	32751	32817	32804	32637	
90	0	32775	32789	32679	32547	32838	32773	32791	32621	
91	0	32716	32799	32673	32621	32797	32775	32859	32571	
92	0	32743	32783	32694	32530	32799	32764	32899	32722	
93	0	32817	32775	32703	32769	32791	32782	32684	32711	
94	0	32775	32757	32751	32722	32813	32711	32623	32738	
95	0	32826	32839	32753	32595	32767	32785	32766	32523	
96	0	32745	32709	32693	32725	32850	32791	32897	32738	
97	0	32740	32759	32722	32738	32832	32775	32759	32732	
98	0	32791	32767	32735	32535	32679	32668	32849	32627	
99	0	32741	32756	32758	32749	32763	32799	32855	32757	
100	0	32700	32790	32801	32691	32839	32725	32807	32630	
101	0	32724	32794	32647	32707	32701	32731	32869	32724	
102	0	32791	32765	32711	32566	32834	32766	32844	32639	
103	0	32770	32730	32601	32757	32783	32657	32810	32535	
104	0	32804	32807	32751	32696	32711	32788	32775	32601	
105	0	32775	32823	32753	32515	32663	32783	32662	32617	
106	0	32754	32743	32749	32620	32707	32715	32663	32699	
107	0	32759	32757	32740	32661	32821	32741	32594	32726	
108	0	32799	32851	32738	32599	32823	32743	32759	32566	
109	0	32717	32722	32723	32759	32771	32795	32802	32759	
110	0	32770	32783	32687	32740	32735	32756	32823	32721	
111	0	32790	32844	32607	32623	32935	32759	32869	32484	
112	0	32771	32767	32677	32631	32871	32658	32775	32631	
113	0	32861	32773	32671	32629	32645	32758	32743	32765	
114	0	32836	32775	32629	32619	32671	32791	32751	32557	
115	0	32796	32751	32703	32511	32866	32791	32687	32663	
116	0	32773	32775	32767	32657	32795	32839	32615	32719	
117	0	32775	32733	32771	32595	32763	32903	32835	32757	
118	0	32778	32815	32772	32743	32808	32823	32855	32572	
119	0	32778	32769	32671	32699	32731	32879	32827	32690	
120	0	32752	32807	32620	32543	32802	32719	32893	32701	
121	0	32723	32882	32679	32695	32723	32803	32751	32707	
122	0	32713	32726	32757	32627	32705	32866	32763	32837	
123	0	32740	32735	32775	32681	32813	32754	32807	32693	
124	0	32755	32867	32775	32630	32903	32685	32603	32597	
125	0	32795	32765	32801	32727	32929	32643	32551	32615	
126	0	32775	32823	32770	32655	32805	32615	32780	32637	
127	0	32780	32815	32807	32815	32690	32599	32803	32839	
128	0	32716	32767	32655	32685	32821	32722	32823	32641	
129	0	32719	32891	32815	32645	32735	32647	32854	32553	
130	0	32703	32791	32761	32735	32759	32723	32837	32694	
131	0	32763	32749	32743	32756	32755	32703	32637	32551	
132	0	32721	32802	32637	32533	32785	32783	32634	32687	
133	0	32767	32751	32671	32660	32775	32791	32787	32803	
134	0	32794	32790	32613	32654	32751	32629	32765	32513	
135	0	32775	32683	32631	32509	32726	32671	32763	32711	
136	0	32731	32759	32587	32709	32717	32749	32887	32743	
137	0	32767	32775	32647	32723	32823	32817	32965	32639	
138	0	32740	32737	32639	32555	32808	32871	32833	32690	
139	0	32773	32787	32683	32703	32807	32725	32750	32671	
140	0	32780	32743	32705	32715	32809	32827	32681	32617	
141	0	32819	32766	32663	32575	32615	32950	32623	32447	
142	0	32750	32855	32759	32692	32647	32951	32759	32674	
143	0	32772	32773	32766	32556	32694	32804	32743	32627	
144	0	32769	32855	32719	32738	32775	32795	32755	32714	
145	0	32772	32767	32714	32743	32772	32914	32799	32583	
146	0	32729	32735	32767	32483	32655	32743	32809	32645	
147	0	32696	32775	32763	32751	32759	32830	32775	32549	
148	0	32711	32805	32685	32721	32759	32830	32703	32699	
149	0	32736	32758	32642	32595	32623	32859	32717	32759	
150	0	32745	32801	32695	32612	32663	32826	32610	32775	
151	0	32716	32823	32788	32705	32775	32743	32607	32851	
152	0	32810	32749	32741	32822	32711	32911	32692	32534	
153	0	32766	32745	32716	32506	32723	32739	32775	32699	
154	0	32787	32775	32698	32677	32775	32614	32717	32791	
155	0	32799	32742	32692	32579	32897	32583	32835	32563	
156	0	32807	32723	32685	32687	32870	32773	32911	32769	
157	0	32803	32775	32717	32763	32735	32953	32831	32783	
158	0	32785	32770	32719	32525	32771	32799	32635	32547	
159	0	32778	32775	32797	32703	32787	32743	32617	32647	
160	0	32772	32863	32673	32707	32729	32503	32674	32695	
161	0	32748	32758	32694	32599	32742	32535	32767	32535	
162	0	32775	32775	32695	32731	32685	32601	32834	32668	
163	0	32730	32727	32631	32727	32733	32786	32730	32615	
164	0	32712	32751	32625	32647	32838	32723	32775	32615	
165	0	32710	32775	32791	32727	32844	32791	32766	32708	
166	0	32753	32850	32789	32747	32775	32675	32711	32860	
167	0	32718	32747	32743	32551	32765	32821	32767	32719	
168	0	32704	32795	32732	32723	32719	32898	32775	32725	
169	0	32780	32831	32775	32719	32782	32871	32795	32547	
170	0	32781	32741	32815	32545	32807	32823	32800	32671	
171	0	32767	32775	32830	32683	32814	32782	32748	32647	
172	0	32748	32759	32819	32677	32671	32647	32643	32775	
173	0	32732	32763	32666	32491	32660	32721	32692	32646	
174	0	32749	32807	32635	32623	32711	32749	32623	32610	
175	0	32832	32801	32659	32681	32769	32729	32612	32598	
176	0	32782	32711	32710	32631	32754	32871	32679	32730	
177	0	32717	32751	32788	32679	32647	32797	32629	32823	
178	0	32768	32703	32681	32667	32711	32887	32755	32740	
179	0	32759	32719	32719	32607	32799	32725	32859	32695	
180	0	32755	32791	32727	32679	32799	32797	32887	32724	
181	0	32722	32895	32743	32626	32647	32829	32860	32668	
182	0	32707	32797	32623	32717	32797	32684	32839	32623	
183	0	32708	32769	32646	32562	32846	32724	32669	32527	
184	0	32742	32855	32739	32635	32771	32820	32633	32631	
185	0	32787	32703	32740	32799	32845	32745	32694	32723	
186	0	32717	32767	32775	32735	32806	32820	32743	32603	
187	0	32793	32844	32805	32677	32674	32830	32749	32623	
188	0	32778	32774	32695	32485	32881	32839	32647	32692	
189	0	32769	32711	32674	32705	32747	32799	32663	32519	
190	0	32783	32783	32742	32669	32834	32786	32701	32617	
191	0	32783	32735	32687	32638	32662	32736	32695	32631	
192	0	32828	32787	32788	32655	32903	32759	32684	32721	
193	0	32822	32863	32641	32559	32691	32845	32669	32791	
194	0	32807	32787	32695	32749	32709	32796	32607	32597	
195	0	32743	32711	32727	32685	32762	32783	32597	32633	
196	0	32790	32811	32711	32603	32684	32647	32599	32693	
197	0	32731	32775	32631	32735	32611	32700	32754	32477	
198	0	32741	32791	32717	32683	32629	32694	32747	32609	
199	0	32701	32822	32743	32524	32734	32873	32701	32751	
200	0	32761	32759	32821	32603	32807	32884	32694	32743	
201	0	32796	32743	32679	32717	32706	32852	32679	32767	
202	0	32815	32765	32679	32647	32803	32843	32850	32602	
203	0	32722	32863	32749	32647	32679	32751	32855	32695	
204	0	32770	32791	32796	32647	32827	32610	32818	32619	
205	0	32738	32750	32802	32727	32807	32570	32711	32698	
206	0	32759	32805	32727	32647	32846	32663	32747	32786	
207	0	32751	32843	32711	32703	32775	32775	32806	32574	
208	0	32756	32748	32684	32711	32871	32730	32813	32593	
209	0	32751	32706	32727	32711	32853	32765	32874	32527	
210	0	32766	32786	32699	32631	32815	32829	32927	32663	
211	0	32799	32719	32711	32482	32615	32844	32893	32735	
212	0	32824	32743	32690	32655	32836	32865	32835	32599	
213	0	32743	32751	32698	32641	32643	32835	32735	32683	
214	0	32724	32775	32660	32559	32753	32755	32835	32861	
215	0	32751	32791	32687	32741	32895	32471	32798	32717	
216	0	32705	32741	32634	32701	32898	32609	32695	32870	
217	0	32783	32698	32594	32479	32703	32631	32631	32727	
218	0	32745	32683	32581	32677	32683	32765	32783	32647	
219	0	32765	32771	32655	32566	32671	32755	32815	32726	
220	0	32786	32718	32647	32731	32701	32677	32814	32617	
221	0	32765	32748	32583	32738	32647	32605	32815	32679	
222	0	32801	32715	32703	32567	32687	32747	32851	32743	
223	0	32755	32747	32835	32759	32825	32662	32844	32647	
224	0	32800	32797	32726	32708	32855	32838	32787	32703	
225	0	32765	32835	32773	32644	32823	32875	32790	32580	
226	0	32840	32757	32679	32636	32827	32743	32677	32615	
227	0	32756	32814	32647	32748	32775	32775	32671	32535	
228	0	32720	32839	32671	32784	32699	32879	32639	32623	
229	0	32771	32875	32787	32706	32799	32691	32655	32727	
230	0	32749	32711	32733	32655	32819	32751	32687	32687	
231	0	32736	32819	32647	32742	32805	32786	32617	32662	
232	0	32790	32789	32683	32735	32771	32717	32563	32519	
233	0	32790	32767	32669	32612	32847	32767	32628	32711	
234	0	32751	32739	32703	32820	32702	32711	32799	32754	
235	0	32727	32869	32702	32754	32679	32807	32755	32583	
236	0	32737	32816	32711	32647	32679	32865	32767	32703	
237	0	32743	32758	32775	32768	32655	32775	32795	32683	
238	0	32828	32815	32823	32719	32823	32807	32773	32655	
239	0	32823	32827	32815	32690	32725	32830	32767	32595	
240	0	32756	32757	32675	32551	32770	32805	32831	32807	
241	0	32784	32835	32691	32655	32763	32855	32877	32581	
242	0	32798	32791	32719	32611	32775	32811	32871	32684	
243	0	32746	32803	32669	32688	32869	32688	32795	32711	
244	0	32781	32791	32551	32663	32805	32751	32724	32695	
245	0	32786	32743	32546	32575	32763	32801	32666	32647	
246	0	32790	32787	32526	32721	32639	32788	32644	32581	
247	0	32791	32766	32567	32721	32655	32755	32791	32575	
248	0	32831	32755	32703	32611	32646	32891	32724	32839	
249	0	32722	32791	32695	32583	32791	32901	32727	32855	
250	0	32743	32871	32681	32727	32725	32745	32597	32635	
251	0	32780	32775	32647	32659	32843	32829	32605	32726	
252	0	32810	32739	32595	32583	32847	32806	32758	32540	
253	0	32759	32829	32627	32695	32850	32853	32783	32583	
254	0	32711	32759	32577	32647	32726	32786	32767	32671	
255	0	32736	32847	32691	32455	32717	32661	32711	32647	
256	0	32761	32899	32677	32570	32763	32549	32775	32631	
257	0	32764	32709	32571	32505	32663	32615	32855	32765	
258	0	32830	32791	32634	32450	32667	32615	32807	32759	
259	0	32788	32743	32525	32583	32635	32687	32668	32558	
260	0	32738	32830	32479	32823	32679	32739	32567	32679	
261	0	32785	32788	32531	32658	32855	32839	32641	32713	
262	0	32813	32687	32575	32811	32775	32835	32657	32635	
263	0	32705	32703	32570	32758	32679	32869	32576	32723	
264	0	32613	32667	32661	32660	32711	32903	32799	32749	
265	0	32563	32694	32917	32819	32727	32939	32769	32741	
266	0	32721	32727	32962	32644	32739	32859	32749	32734	
267	0	32716	32759	32919	32738	32775	32807	32791	32764	
268	0	32711	32787	33031	32775	32676	32764	32775	32578	
269	0	32711	32805	32991	32764	32677	32701	32871	32611	
270	0	32727	32845	32943	32695	32756	32807	32885	32703	
271	0	32790	32859	32716	32719	32911	32725	32858	32647	
272	0	32877	32725	32700	32669	32791	32793	32775	32678	
273	0	32820	32774	32687	32511	32834	32573	32858	32599	
274	0	32767	32775	32775	32442	32817	32725	32887	32511	
275	0	32759	32751	32839	32608	32807	32717	32723	32757	
276	0	32837	32791	32851	32500	32685	32694	32549	32790	
277	0	32845	32899	32931	32413	32871	32683	32590	32631	
278	0	32801	32787	32798	32591	32919	32679	32655	32757	
279	0	32796	32858	32491	32514	32855	32811	32703	32682	
280	0	32706	32871	32163	32359	32775	32807	32806	32621	
281	0	32612	32771	32135	32590	32815	32815	32836	32620	
282	0	32619	32693	32299	32493	32634	32790	32854	32707	
283	0	32632	32658	32431	32679	32731	32903	32733	32563	
284	0	32647	32571	32613	32715	32630	32903	32709	32615	
285	0	32745	32645	32607	33197	32516	32775	32763	32661	
286	0	32844	32759	32741	33283	32767	32807	32871	32483	
287	0	32587	32805	32637	33219	32801	32799	32803	32611	
288	0	32630	32819	32836	32941	32724	32809	32561	32647	
289	0	32871	32847	33355	33088	32775	32877	32762	32501	
290	0	32831	32876	33635	32621	32869	32735	32755	32546	
291	0	32937	32926	33665	32307	32967	32751	32669	32455	
292	0	32993	32860	33119	32143	32799	32567	32671	32612	
293	0	33079	32769	33053	32443	32925	32500	32949	32535	
294	0	33005	32647	32835	32508	33012	32507	32829	32575	
295	0	33006	32677	32679	32518	33051	32549	32829	32887	
296	0	33039	32718	32443	32711	32931	32699	32827	33025	
297	0	32820	32701	32391	32623	32761	32847	32943	32813	
298	0	32556	32887	32187	32443	32771	32775	32966	32725	
299	0	32486	32741	32228	32585	32660	32647	32603	32597	
300	0	32551	32751	32687	32895	32495	32884	32471	32367	
301	0	32799	32734	32775	33054	32575	33047	32583	32591	
302	0	32832	32881	32399	32817	32597	32956	32543	32791	
303	0	32696	32914	32677	32867	32583	32886	32512	32963	
304	0	32658	32983	32863	32692	32623	32620	32663	32838	
305	0	32535	32949	32751	32479	32567	32715	32639	32606	
306	0	32788	32751	33316	32491	32725	32647	32735	32731	
307	0	32807	32716	33131	32447	32759	32735	32855	32870	
308	0	32832	32693	32463	32375	32835	32903	32855	32775	
309	0	32864	32763	32251	32343	32855	32875	32914	32747	
310	0	32871	32823	32783	32635	32869	32875	32841	32456	
311	0	32877	32655	32726	32609	32814	32735	32775	32477	
312	0	32828	32567	32630	32543	32911	32847	32755	32561	
313	0	32719	32755	32519	32711	32889	32831	32673	32620	
314	0	32681	32705	32359	32996	32847	32594	32679	32551	
315	0	32467	32743	32707	32765	32921	32436	32727	32541	
316	0	32292	32787	32740	32791	32773	32607	32812	32659	
317	0	32559	32734	32871	32756	32723	32903	32799	32957	
318	0	32676	32751	33023	32839	32802	33063	32799	32795	
319	0	32893	32795	33109	32727	32749	32933	32771	32587	
320	0	33007	32751	32970	32911	32759	32824	32811	32807	
321	0	32958	32790	32703	33020	32647	32695	32613	32703	
322	0	32917	32762	32577	32825	32787	32732	32602	32687	
323	0	32935	32683	32455	32943	32683	32813	32749	32679	
324	0	32869	32799	32611	32749	32717	32850	32955	32560	
325	0	32787	32916	32767	32231	32789	32803	32979	32436	
326	0	32739	32949	32526	32343	32807	32703	32894	32679	
327	0	32683	32755	32327	32087	32769	32802	32835	32509	
328	0	32668	32831	32327	31933	32623	32789	32711	32797	
329	0	32716	32767	32463	32135	32735	32831	32735	32983	
330	0	32684	32735	32757	32307	32810	32815	32695	32871	
331	0	32653	32807	32570	32427	32735	32867	32580	32681	
332	0	32714	32756	32709	32679	32721	33011	32571	32803	
333	0	32749	32799	32633	32647	32759	32879	32557	32687	
334	0	32784	32902	32554	32670	32733	32983	32515	32748	
335	0	32802	32795	32637	32607	32530	32895	32487	32711	
336	0	32677	32676	32783	32991	32691	32753	32967	32617	
337	0	32674	32732	32587	32959	32819	32671	33117	32466	
338	0	32638	32723	32679	33023	32887	32413	32987	32450	
339	0	32679	32596	32571	33135	32835	32559	33019	32510	
340	0	32736	32793	32347	33099	32775	32646	33021	32281	
341	0	32716	32841	33036	32711	32819	32755	32999	32207	
342	0	32701	32695	33223	32807	32843	32823	32791	32607	
343	0	32873	32732	33435	32661	32828	32763	32315	32954	
344	0	33055	32790	33347	32509	32751	32892	32057	33074	
345	0	33063	32726	32871	32551	32695	32913	32127	33101	
346	0	32988	32803	32575	32605	32700	32815	32263	32829	
347	0	32838	32865	32477	32877	32871	32389	32636	32615	
348	0	32647	33047	32554	32757	33041	32031	32815	32671	
349	0	32590	33015	32797	32551	32927	32151	32759	32841	
350	0	32668	32851	32816	32773	32773	32389	32724	32951	
351	0	32646	32869	32837	32963	32793	32415	32748	32775	
352	0	32635	32787	32758	32903	32855	32535	32813	32675	
353	0	32570	32851	32711	32743	32707	32969	32957	32511	
354	0	32620	32819	32540	32659	32586	32927	32935	32487	
355	0	32688	32821	32595	32527	32703	32911	32879	32861	
356	0	32725	32879	32571	32775	32727	32929	32948	32639	
357	0	32734	32925	32573	32700	32647	33389	32867	32435	
358	0	32701	32855	32663	32387	32599	33422	32495	32117	
359	0	32751	32815	32775	32197	32735	33274	32679	32324	
360	0	32811	32828	32599	32055	32731	32911	32763	32291	
361	0	32843	32789	32580	32039	32679	32739	32798	32535	
362	0	32788	32839	32735	32214	32631	32775	32659	32699	
363	0	32775	32671	32743	32333	32749	32679	32685	32607	
364	0	32738	32723	32829	32348	32971	32451	32759	32855	
365	0	32775	32515	32759	32309	32847	32630	32715	32818	
366	0	32761	32551	32692	32663	32711	32802	32895	33092	
367	0	32781	32511	32721	32859	32497	32881	32719	33071	
368	0	32698	32679	32727	32943	32559	32627	32627	33575	
369	0	32725	32531	32687	33415	32698	32700	32719	33575	
370	0	32713	32591	32689	33719	32743	33062	32711	33182	
371	0	32722	32599	32621	33553	32715	32899	32631	32527	
372	0	32745	32726	32719	33397	32727	32707	32935	31949	
373	0	32765	32861	32691	33199	32799	32799	32895	31911	
374	0	32742	32715	32735	33055	32839	32909	32827	32057	
375	0	32715	32587	32679	32684	32815	32893	32627	32135	
376	0	32694	32530	32615	32794	32735	32957	32718	32483	
377	0	32725	32595	32829	32638	32810	32711	32767	32637	
378	0	32847	32607	32787	32423	32791	32684	32759	32663	
379	0	32900	32683	32635	32402	32893	32837	32911	32726	
380	0	32762	32723	32543	32319	32935	32925	32973	32628	
381	0	32652	32731	32647	32489	32925	32911	32771	32789	
382	0	32679	32801	32783	32459	32887	32701	32615	32613	
383	0	32796	32747	32867	32318	32899	32742	32615	32687	
384	0	32834	32805	32795	32485	32743	32807	32655	32692	
385	0	32751	32759	32711	32369	32729	32771	32844	32883	
386	0	32705	32772	32631	32342	32658	32769	32786	32735	
387	0	32773	32813	32559	32518	32697	32815	32757	32823	
388	0	32754	32815	32562	32511	32726	32719	32886	32743	
389	0	32748	32914	32647	32607	32615	32703	32751	32791	
390	0	32686	32919	32771	32598	32639	32683	32564	32627	
391	0	32759	32927	32754	32543	32671	32795	32743	32751	
392	0	32853	32769	32727	32575	32631	32667	32703	32717	
393	0	32757	32822	32660	32423	32581	32743	32751	32511	
394	0	32774	32803	32667	32637	32647	32673	32703	32700	
395	0	32736	32911	32658	32551	32733	32759	32717	32809	
396	0	32804	32903	32743	32565	32698	32719	32786	32571	
397	0	32919	32839	32698	32543	32742	32661	32775	32671	
398	0	32790	32842	32719	32613	32703	32730	32767	32695	
399	0	32770	32851	32630	32671	32665	32745	32798	32627	
400	0	32739	32871	32639	32918	32635	32647	32722	32727	
401	0	32665	32855	32625	32927	32719	32763	32575	32721	
402	0	32687	32903	32559	32806	32759	32642	32569	32527	
403	0	32716	32997	32615	32807	32717	32694	32630	32673	
404	0	32680	32847	32602	32881	32787	32687	32605	32775	
405	0	32635	32839	32567	32583	32743	32783	32602	32565	
406	0	32709	32903	32679	32607	32771	32825	32723	32647	
407	0	32764	32787	32771	32635	32843	32705	32707	32687	
408	0	32847	32919	32815	32493	32894	32773	32671	32715	
409	0	32948	32755	32713	32631	32821	32756	32794	32738	
410	0	32918	32675	32875	32719	32823	32845	32903	32819	
411	0	32799	32723	32815	32859	32847	32663	32851	32660	
412	0	32806	32751	32775	32783	32871	32710	32631	32683	
413	0	32757	32845	32715	32647	32634	32743	32583	32758	
414	0	32751	32759	32711	32794	32773	32717	32716	32545	
415	0	32733	32833	32647	32604	32835	32546	32807	32507	
416	0	32692	32767	32711	32804	32791	32773	32813	32543	
417	0	32741	32826	32862	32819	32846	32727	32801	32754	
418	0	32833	32759	32871	32758	32701	32759	32694	32677	
419	0	32775	32763	32789	32739	32612	32598	32671	32711	
420	0	32757	32813	32695	32715	32679	32815	32623	32575	
421	0	32742	32683	32694	32875	32721	32824	32624	32727	
422	0	32647	32762	32767	32765	32791	32903	32787	32763	
423	0	32628	32702	32747	32518	32805	32771	32751	32527	
424	0	32647	32813	32655	32637	32791	32727	32731	32665	
425	0	32634	32839	32613	32627	32823	32735	32767	32665	
426	0	32642	32791	32700	32615	32757	32837	32838	32586	
427	0	32706	32835	32791	32590	32775	32811	32835	32676	
428	0	32720	32797	32739	32497	32769	32803	32891	32719	
429	0	32782	32739	32647	32581	32716	32845	32876	32599	
430	0	32775	32731	32615	32539	32617	32755	32855	32663	
431	0	32771	32731	32620	32576	32713	32799	32823	32629	
432	0	32887	32679	32583	32557	32766	32759	32749	32730	
433	0	32840	32769	32590	32495	32815	32785	32671	32671	
434	0	32848	32751	32667	32671	32788	32735	32628	32541	
435	0	32859	32739	32817	32691	32816	32669	32629	32621	
436	0	32762	32775	32701	32548	32803	32829	32575	32798	
437	0	32799	32713	32715	32761	32797	32783	32783	32719	
438	0	32811	32775	32804	32749	32698	32854	32764	32694	
439	0	32761	32885	32831	32532	32791	32909	32747	32647	
440	0	32768	32737	32697	32631	32661	32666	32759	32721	
441	0	32856	32775	32595	32715	32799	32799	32747	32726	
442	0	32775	32855	32557	32695	32739	32735	32769	32479	
443	0	32804	32725	32569	32570	32692	32762	32789	32663	
444	0	32769	32791	32569	32692	32676	32958	32813	32871	
445	0	32735	32831	32565	32604	32659	32751	32887	32661	
446	0	32831	32735	32628	32647	32679	32851	32735	32703	
447	0	32784	32797	32695	32659	32695	32759	32630	32795	
448	0	32722	32765	32731	32419	32719	32738	32723	32655	
449	0	32769	32749	32733	32631	32805	32735	32663	32743	
450	0	32845	32695	32705	32729	32797	32736	32727	32727	
451	0	32749	32743	32653	32551	32735	32679	32743	32612	
452	0	32782	32757	32879	32834	32748	32775	32823	32663	
453	0	32766	32788	32843	32867	32813	32711	32885	32583	
454	0	32763	32839	32639	32713	32805	32715	32790	32549	
455	0	32814	32791	32751	32775	32629	32828	32751	32659	
456	0	32831	32775	32877	32719	32749	32919	32813	32673	
457	0	32804	32821	32735	32568	32807	32877	32736	32565	
458	0	32726	32836	32626	32663	32891	32817	32607	32675	
459	0	32698	32799	32549	32835	32831	32748	32563	32799	
460	0	32692	32749	32511	32759	32807	32604	32748	32555	
461	0	32827	32663	32758	32771	32860	32685	32827	32703	
462	0	32841	32801	32858	32708	32839	32644	32788	32662	
463	0	32838	32647	32691	32683	32717	32807	32775	32485	
464	0	32813	32807	32655	32523	32703	32735	32818	32639	
465	0	32796	32834	32615	32604	32819	32797	32969	32583	
466	0	32743	32796	32671	32571	32879	32705	32941	32575	
467	0	32804	32847	32677	32386	32775	32855	32631	32871	
468	0	32788	32834	32624	32573	32723	32854	32557	32771	
469	0	32782	32839	32619	32639	32692	32927	32599	32734	
470	0	32767	32815	32727	32503	32705	32933	32775	32533	
471	0	32707	32751	32667	32531	32581	32940	32751	32749	
472	0	32660	32818	32743	32587	32646	32923	32828	32811	
473	0	32655	32789	32767	32915	32575	32751	32863	32605	
474	0	32741	32871	32775	32943	32621	32772	32641	32659	
475	0	32790	32746	32727	32722	32764	32583	32607	32671	
476	0	32775	32766	32615	32973	32711	32639	32687	32756	
477	0	32668	32759	32759	32999	32831	32451	32803	32479	
478	0	32775	32822	32807	32861	32911	32439	32931	32679	
479	0	32799	32847	32791	32759	32887	32477	32899	32655	
480	0	32784	32873	32719	32637	32834	32751	32693	32553	
481	0	32799	32828	32773	32578	32691	32870	32597	32566	
482	0	32810	32751	32698	32609	32790	32871	32647	32607	
483	0	32761	32858	32662	32673	32807	32861	32807	32755	
484	0	32711	32821	32722	32847	32884	32775	32795	32577	
485	0	32810	32733	32858	32581	32691	32835	32751	32647	
486	0	32870	32692	32839	32611	32775	32806	32603	32671	
487	0	32836	32739	32767	32554	32797	32853	32647	32719	
488	0	32771	32671	32775	32506	32727	32707	32717	32531	
489	0	32751	32676	32641	32631	32822	32789	32783	32667	
490	0	32750	32731	32647	32663	32764	32799	32775	32729	
491	0	32726	32759	32671	32487	32759	32773	32859	32542	
492	0	32703	32737	32607	32679	32809	32831	32775	32729	
493	0	32749	32783	32660	32589	32655	32706	32794	32759	
494	0	32767	32853	32641	32577	32765	32775	32817	32703	
495	0	32771	32796	32641	32466	32703	32867	32903	32749	
496	0	32745	32703	32598	32502	32740	32769	32923	32571	
497	0	32701	32790	32589	32524	32817	32879	32803	32644	
498	0	32612	32725	32557	32615	32893	32813	32631	32751	
499	0	32692	32711	32583	32491	32810	32703	32621	32705	
500	0	32758	32799	32690	32647	32709	32808	32641	32663	
501	0	32781	32819	32716	32644	32599	32802	32717	32719	
502	0	32741	32701	32675	32551	32583	32834	32711	32698	
503	0	32809	32711	32919	32747	32775	32830	32807	32721	
504	0	32866	32804	33047	32709	32847	32822	32789	32609	
505	0	32879	32765	32785	32703	32865	32900	32975	32695	
506	0	32867	32831	32634	32747	32869	32789	32879	32695	
507	0	32787	32751	32655	32703	32827	32775	32700	32567	
508	0	32717	32775	32679	32933	32629	32700	32647	32533	
509	0	32604	32815	32812	32933	32647	32807	32791	32608	
510	0	32759	32791	32821	32883	32711	32671	32831	32775	
511	0	32852	32852	32751	32927	32807	32775	32871	32625	
512	0	32762	32743	32664	32689	32883	32733	32891	32719	
513	0	32703	32834	32613	32381	32837	32927	32719	32875	
514	0	32705	32775	32601	32621	32818	32889	32637	32630	
515	0	32689	32842	32535	32563	32855	32813	32647	32687	
516	0	32773	32734	32404	32423	32919	32439	32679	32727	
517	0	32763	32747	32611	32499	32919	32495	32757	32527	
518	0	32722	32796	32821	32379	32903	32607	32851	32735	
519	0	32795	32647	32823	32452	32837	32716	32821	32692	
520	0	32706	32771	32713	32559	32830	32495	32731	32628	
521	0	32751	32835	32775	32615	32879	32605	32737	32703	
522	0	32791	32667	32813	32789	32832	32687	32813	32727	
523	0	32756	32647	32684	32807	32845	32807	32833	32455	
524	0	32813	32637	32647	32759	32766	32807	32789	32549	
525	0	32869	32647	32862	32887	32655	32806	32855	32575	
526	0	32823	32783	32771	32877	32583	32903	32757	32588	
527	0	32807	32839	32838	32756	32604	32829	32647	32489	
528	0	32888	32822	32818	32863	32751	32877	32567	32549	
529	0	32795	32895	32695	32756	32807	32869	32735	32758	
530	0	32710	32813	32631	32615	32853	32655	32647	32983	
531	0	32684	32821	32722	32639	32762	32710	32719	32821	
532	0	32628	32757	32703	32471	32763	32851	32741	32859	
533	0	32602	32762	32795	32687	32791	32819	32665	32891	
534	0	32692	32916	32742	32749	32833	32731	32598	32795	
535	0	32720	32791	32775	32575	32759	32774	32637	32598	
536	0	32877	32831	32775	32711	32719	32935	32662	32505	
537	0	32753	32862	32675	32804	32719	32943	32826	32614	
538	0	32725	32801	32720	32679	32813	32979	32800	32503	
539	0	32679	32827	32605	32841	32903	32815	32757	32647	
540	0	32687	32879	32773	32721	32847	32716	32735	32679	
541	0	32795	32755	32796	32719	32679	32663	32703	32747	
542	0	32726	32789	32591	32491	32703	32726	32775	32647	
543	0	32665	32866	32551	32749	32747	32833	32775	32819	
544	0	32762	32726	32757	32671	32867	32591	32871	32747	
545	0	32696	32803	32564	32479	32806	32717	32807	32543	
546	0	32755	32775	32587	32551	32883	32543	32809	32663	
547	0	32804	32799	32599	32587	32729	32708	32824	32773	
548	0	32749	32791	32579	32535	32711	32775	32863	32572	
549	0	32819	32793	32711	32644	32731	32719	32827	32599	
550	0	32843	32695	32643	32707	32727	32807	32836	32639	
551	0	32762	32724	32642	32532	32743	32735	32739	32694	
552	0	32765	32711	32747	32687	32775	32773	32671	32593	
553	0	32735	32663	32887	32593	32639	32727	32599	32655	
554	0	32781	32783	32807	32647	32647	32742	32571	32583	
555	0	32769	32747	32775	32663	32630	32755	32766	32637	
556	0	32797	32850	32859	32519	32749	32727	32821	32647	
557	0	32807	32763	32707	32571	32775	32867	32788	32535	
558	0	32871	32813	32735	32655	32615	32903	32791	32803	
559	0	32742	32857	32705	32506	32607	32927	32783	32843	
560	0	32775	32871	32663	32625	32582	32847	32619	32815	
561	0	32807	32861	32606	32637	32583	32753	32671	32702	
562	0	32670	32711	32599	32807	32740	32771	32711	32551	
563	0	32658	32842	32461	32773	32687	32762	32708	32719	
564	0	32745	32802	32607	32775	32703	32671	32831	32422	
565	0	32767	32727	32551	32891	32691	32632	32860	32751	
566	0	32706	32666	32476	32775	32691	32695	32775	32637	
567	0	32673	32683	32687	32863	32767	32817	32827	32543	
568	0	32752	32795	32756	32733	32605	32764	32754	32429	
569	0	32770	32811	32702	32575	32599	32863	32647	32504	
570	0	32812	32855	32582	32546	32647	32699	32791	32675	
571	0	32832	32913	32571	32611	32684	32711	32791	32583	
572	0	32966	32855	32851	32572	32768	32677	32814	32599	
573	0	32839	32804	32775	32391	32783	32829	32799	32684	
574	0	32736	32791	32707	32449	32811	32716	32738	32887	
575	0	32763	32717	32723	32493	32887	32748	32819	32827	
576	0	32828	32785	32903	32305	32900	32759	32788	32775	
577	0	32939	32755	32962	32305	32693	32931	32646	32742	
578	0	32918	32847	32756	32409	32823	32823	32757	32775	
579	0	32809	32853	32787	32591	32895	32773	32749	32589	
580	0	32797	32715	32763	32935	32866	32807	32807	32455	
581	0	32729	32703	32635	32903	32805	32832	32767	32739	
582	0	32772	32646	32705	32964	32762	32927	32804	32911	
583	0	32786	32647	32775	33309	32815	32673	32795	32647	
584	0	32788	32663	32719	33208	32858	32717	32806	32731	
585	0	32711	32677	32567	33111	32855	32685	32759	32843	
586	0	32627	32806	32506	32914	32895	32698	32903	32567	
587	0	32612	32893	32583	32717	32923	32567	32835	32652	
588	0	32549	32889	32483	32469	32934	32603	32738	32567	
589	0	32713	32834	32615	32607	32819	32647	32627	32662	
590	0	32706	32795	32591	32579	32831	32867	32791	32445	
591	0	32703	32839	32607	32511	32767	32902	32763	32605	
592	0	32775	32783	32631	32647	32830	32751	32807	32589	
593	0	32743	32797	32770	32682	32850	32839	32791	32615	
594	0	32759	32841	32751	32412	32811	32812	32765	32695	
595	0	32817	32838	32693	32635	32596	32839	32763	32671	
596	0	32750	32795	32759	32607	32607	32770	32767	32741	
597	0	32724	32833	32821	32719	32655	32617	32843	32679	
598	0	32771	32751	32671	32527	32694	32763	32861	32755	
599	0	32767	32839	32679	32513	32675	32799	32703	32783	
600	0	32756	32759	32629	32583	32743	32775	32575	32615	
601	0	32807	32804	32663	32550	32793	32685	32559	32709	
602	0	32775	32827	32694	32735	32839	32846	32571	32819	
603	0	32750	32789	32599	32754	32745	32723	32763	32543	
604	0	32713	32827	32575	32479	32633	32765	32807	32647	
605	0	32711	32823	32619	32605	32703	32854	32762	32793	
606	0	32635	32694	32713	32510	32647	32863	32771	32577	
607	0	32679	32852	32829	32351	32723	32767	32739	32831	
608	0	32742	32791	32715	32511	32765	32831	32749	32783	
609	0	32743	32703	32711	32563	32877	32797	32775	32669	
610	0	32899	32775	32881	32637	32813	32775	32679	32689	
611	0	32925	32741	32891	32483	32632	32791	32723	32647	
612	0	32788	32757	32823	32709	32621	32671	32836	32549	
613	0	32800	32813	32749	32925	32679	32742	32875	32687	
614	0	32832	32679	32809	32807	32623	32786	32845	32679	
615	0	32745	32643	32694	32903	32862	32718	32851	32546	
616	0	32831	32769	32757	32873	32838	32795	32698	32615	
617	0	32694	32686	32737	32718	32775	32623	32551	32623	
618	0	32772	32787	32783	32691	32829	32685	32591	32527	
619	0	32799	32823	32760	32678	32863	32635	32799	32755	
620	0	32775	32706	32748	32681	32743	32751	32765	32747	
621	0	32740	32839	32597	32420	32788	32815	32795	32644	
622	0	32813	32803	32583	32645	32759	32803	32835	32702	
623	0	32832	32775	32498	32551	32763	32831	32883	32697	
624	0	32756	32757	32621	32423	32761	32862	32811	32747	
625	0	32775	32714	32877	32663	32697	32849	32789	32732	
626	0	32721	32775	32827	32653	32668	32789	32633	32775	
627	0	32748	32789	32677	32699	32799	32791	32695	32765	
628	0	32713	32831	32719	32724	32791	32795	32767	32711	
629	0	32814	32801	32771	32591	32756	32719	32823	32541	
630	0	32709	32762	32735	32819	32676	32743	32895	32635	
631	0	32679	32745	32732	32871	32718	32732	32733	32683	
632	0	32710	32673	32794	32806	32749	32787	32743	32501	
633	0	32706	32734	32666	32854	32774	32845	32653	32610	
634	0	32769	32743	32639	32801	32765	32759	32598	32628	
635	0	32801	32818	32708	32681	32787	32767	32542	32749	
636	0	32723	32871	32749	32871	32847	32773	32538	32751	
637	0	32719	32791	32631	32821	32807	32751	32707	32475	
638	0	32788	32836	32677	32615	32735	32763	32827	32679	
639	0	32859	32751	32729	32743	32831	32567	32995	32644	
640	0	32779	32719	32581	32647	32812	32660	32926	32727	
641	0	32765	32754	32623	32559	32758	32663	32775	32578	
642	0	32711	32687	32743	32663	32785	32813	32684	32679	
643	0	32660	32783	32738	32663	32738	32775	32557	32815	
644	0	32756	32719	32679	32686	32735	32977	32743	32595	
645	0	32811	32805	32655	32775	32823	32775	32823	32747	
646	0	32776	32823	32770	32783	32736	32771	32789	32671	
647	0	32739	32739	32607	32701	32791	32820	32604	32775	
648	0	32722	32782	32803	32660	32739	32831	32719	32722	
649	0	32736	32765	32759	32569	32862	32671	32783	32684	
650	0	32767	32745	32765	32634	32953	32206	32591	32613	
651	0	32749	32828	32751	32623	32879	32327	32775	32767	
652	0	32741	32835	32629	32607	32823	32657	32759	32725	
653	0	32715	32811	32628	32647	32707	32799	32757	32621	
654	0	32687	32818	32638	32647	32755	32994	32647	32747	
655	0	32775	32807	32743	32703	32647	32990	32871	32663	
656	0	32750	32726	32571	32511	32719	32881	32837	32767	
657	0	32775	32775	32687	32524	32647	32895	32875	32561	
658	0	32797	32771	32643	32515	32765	32953	32695	32655	
659	0	32788	32763	32763	32467	32819	32875	32894	32619	
660	0	32794	32679	32682	32539	32813	32709	32837	32669	
661	0	32735	32645	32765	32594	32775	32713	32583	32519	
662	0	32718	32687	32663	32743	32807	32711	32671	32699	
663	0	32749	32739	32759	32703	32743	32639	32739	32605	
664	0	32786	32839	32674	32725	32811	32711	32663	32647	
665	0	32749	32827	32759	32775	32826	32831	32677	32631	
666	0	32773	32782	32647	32764	32819	32829	32799	32615	
667	0	32703	32721	32557	32583	32771	32805	32690	32599	
668	0	32715	32775	32667	32551	32759	32902	32647	32775	
669	0	32812	32822	32587	32511	32765	32918	32807	32711	
670	0	32678	32727	32647	32489	32764	32759	32743	32723	
671	0	32718	32702	32807	32727	32759	32727	32621	32647	
672	0	32791	32717	32873	32659	32799	32690	32806	32749	
673	0	32800	32811	32773	32755	32839	32790	32813	32679	
674	0	32739	32811	32726	32775	32775	32799	32780	32685	
675	0	32781	32767	32829	32563	32775	32851	32783	32747	
676	0	32759	32765	32723	32687	32903	32807	32791	32623	
677	0	32713	32846	32767	32621	32783	32751	32731	32874	
678	0	32692	32823	32768	32807	32801	32691	32668	32743	
679	0	32803	32807	32799	32695	32814	32718	32799	32709	
680	0	32784	32736	32735	32713	32815	32615	32807	32671	
681	0	32743	32839	32775	32507	32811	32683	32788	32445	
682	0	32786	32813	32698	32643	32811	32735	32631	32605	
683	0	32759	32723	32592	32693	32866	32647	32631	32629	
684	0	32780	32786	32595	32579	32773	32738	32749	32532	
685	0	32793	32775	32711	32675	32679	32749	32643	32621	
686	0	32736	32807	32786	32791	32679	32771	32809	32663	
687	0	32713	32766	32745	32669	32804	32803	32843	32749	
688	0	32760	32773	32715	32663	32860	32825	32862	32773	
689	0	32761	32815	32455	32545	32807	32836	32750	32729	
690	0	32792	32727	32558	32677	32868	32911	32803	32733	
691	0	32802	32711	32804	32609	32687	32747	32834	32547	
692	0	32781	32756	32836	32661	32827	32787	32754	32679	
693	0	32820	32717	32751	32461	32671	32819	32783	32775	
694	0	32804	32743	32695	32563	32795	32716	32860	32646	
695	0	32761	32743	32718	32567	32775	32795	32775	32615	
696	0	32668	32791	32795	32527	32839	32695	32799	32738	
697	0	32775	32789	32733	32683	32743	32775	32727	32495	
698	0	32655	32735	32617	32666	32679	32775	32595	32582	
699	0	32708	32685	32705	32703	32709	32829	32739	32807	
700	0	32847	32692	32799	32727	32863	32812	32775	32598	
701	0	32749	32742	32742	32471	32793	32739	32815	32579	
702	0	32677	32819	32785	32615	32743	32769	32916	32583	
703	0	32709	32797	32807	32661	32749	32773	32847	32683	
704	0	32695	32851	32676	32500	32703	32813	32749	32619	
705	0	32782	32838	32681	32660	32607	33018	32612	32599	
706	0	32749	32839	32599	32682	32683	32807	32566	32495	
707	0	32746	32819	32633	32493	32743	32815	32557	32671	
708	0	32747	32679	32724	32623	32715	32767	32804	32663	
709	0	32756	32747	32695	32564	32789	32943	32851	32663	
710	0	32713	32567	32574	32903	32862	32677	32978	32459	
711	0	32722	32724	32679	32965	32969	32415	32817	32682	
712	0	32745	32765	32641	32767	32982	32429	32549	32775	
713	0	32773	32724	32575	32801	32739	32679	32519	32783	
714	0	32789	32810	32735	32775	32730	32796	32483	32814	
715	0	32786	32919	32821	32605	32710	32668	32498	32847	
716	0	32797	32823	32827	32671	32821	32263	32719	32634	
717	0	32804	32843	32743	32623	32829	32319	32765	32815	
718	0	32814	32780	32709	32436	32877	32532	32719	32683	
719	0	32768	32735	32646	32647	32847	32677	32812	32711	
720	0	32695	32807	32633	32621	32762	32981	32893	32527	
721	0	32722	32711	32579	32551	32790	32955	32901	32834	
722	0	32677	32759	32619	32751	32818	32875	32957	32911	
723	0	32670	32791	32639	32839	32868	32927	32815	32596	
724	0	32751	32901	32595	32759	32653	32940	32703	32557	
725	0	32861	32733	32671	32775	32815	32915	32801	32519	
726	0	32804	32710	32775	32879	32827	32887	32895	32553	
727	0	32816	32773	32966	32827	32740	32895	32871	32587	
728	0	32838	32781	32997	32823	32663	32954	32694	32791	
729	0	32772	32847	32791	32751	32823	32720	32687	32679	
730	0	32829	32723	32661	32766	32695	32755	32718	32671	
731	0	32783	32739	32539	32501	32764	32799	32683	32676	
732	0	32810	32775	32667	32671	32759	32768	32611	32771	
733	0	32759	32764	32668	32527	32827	32743	32506	32757	
734	0	32715	32775	32666	32628	32799	32839	32590	32583	
735	0	32727	32807	32673	32595	32803	32788	32834	32700	
736	0	32759	32729	32679	32643	32851	32751	32803	32690	
737	0	32734	32725	32742	32601	32871	32738	32817	32524	
738	0	32762	32831	32743	32747	32730	32887	32775	32613	
739	0	32796	32803	32631	32647	32578	32801	32775	32717	
740	0	32751	32829	32611	32732	32669	32705	32765	32579	
741	0	32759	32771	32807	32695	32875	32749	32916	32660	
742	0	32757	32739	32775	32731	32903	32803	32918	32804	
743	0	32722	32807	32757	32757	32893	32807	32918	32663	
744	0	32677	32803	32708	32591	32743	32802	32852	32641	
745	0	32692	32757	32675	32621	32742	32838	32723	32823	
746	0	32745	32823	32636	32575	32703	32761	32643	32599	
747	0	32769	32903	32675	32547	32791	32796	32663	32706	
748	0	32790	32749	32711	32670	32759	32747	32575	32674	
749	0	32815	32822	32658	32579	32747	32759	32615	32615	
750	0	32819	32751	32679	32527	32877	32773	32769	32750	
751	0	32802	32739	32635	32623	32828	32745	32681	32687	
752	0	32731	32754	32647	32677	32771	32799	32695	32533	
753	0	32805	32813	32739	32637	32619	32743	32738	32763	
754	0	32759	32750	32731	32722	32667	32692	32759	32703	
755	0	32740	32818	32823	32679	32687	32737	32775	32527	
756	0	32685	32819	32751	32655	32615	32691	32775	32617	
757	0	32662	32875	32790	32743	32717	32735	32623	32546	
758	0	32695	32859	32706	32620	32868	32733	32623	32609	
759	0	32750	32838	32717	32734	32884	32717	32818	32527	
760	0	32796	32807	32654	32555	32831	32676	32755	32701	
761	0	32749	32715	32743	32679	32771	32719	32863	32701	
762	0	32742	32679	32716	32613	32685	32761	32893	32854	
763	0	32784	32719	32687	32412	32612	32801	32820	32621	
764	0	32750	32749	32749	32603	32605	32711	32659	32587	
765	0	32783	32767	32870	32623	32607	32579	32558	32711	
766	0	32735	32683	32787	32423	32638	32812	32703	32655	
767	0	32738	32694	32801	32541	32667	32879	32807	32661	
768	0	32765	32713	32715	32543	32687	32793	32802	32596	
769	0	32768	32735	32749	32775	32707	32832	32813	32647	
770	0	32771	32775	32658	32710	32745	32827	32911	32299	
771	0	32781	32789	32535	32590	32711	32902	32767	32399	
772	0	32810	32859	32514	32935	32615	32903	32639	32603	
773	0	32735	32878	32645	32937	32750	32683	32629	32487	
774	0	32735	32717	32799	32699	32701	32850	32695	32727	
775	0	32741	32834	32782	32895	32775	32815	32721	32755	
776	0	32792	32835	32703	32863	32727	32828	32700	32951	
777	0	32871	32738	32715	32751	32761	32795	32727	33039	
778	0	32775	32783	32763	32767	32807	32657	32767	32957	
779	0	32698	32759	32724	32543	32803	32684	32796	32951	
780	0	32677	32745	32678	32644	32756	32711	32663	32975	
781	0	32732	32775	32711	32605	32750	32817	32669	32939	
782	0	32798	32740	32587	32493	32743	32876	32671	32758	
783	0	32844	32711	32599	32677	32731	32795	32847	32529	
784	0	32826	32879	32647	32739	32787	32790	32813	32543	
785	0	32735	32771	32747	32749	32854	32755	32877	32495	
786	0	32803	32807	32855	32775	32767	32725	32813	32417	
787	0	32852	32915	32935	32611	32859	32765	32861	32566	
788	0	32807	32819	32758	32567	32873	32493	32829	32662	
789	0	32720	32869	32756	32749	32869	32567	32591	32605	
790	0	32727	32715	32783	32593	32807	32579	32632	32638	
791	0	32724	32689	32839	32727	32809	32731	32847	32583	
792	0	32831	32685	32646	32756	32841	32831	32839	32463	
793	0	32813	32771	32459	32800	32743	32895	32971	32774	
794	0	32692	32823	32541	32535	32749	32885	32727	32767	
795	0	32722	32771	32775	32500	32607	32670	32571	32725	
796	0	32724	32767	32959	32617	32690	32827	32551	32713	
797	0	32815	32799	32821	32378	32743	32957	32679	32443	
798	0	32775	32751	32571	32498	32879	32647	32594	32363	
799	0	32734	32847	32391	32519	32844	32663	32765	32705	
800	0	32743	32839	32555	32599	32850	32830	32706	32775	
801	0	32790	32719	32830	32613	32773	32717	32683	32743	
802	0	32741	32807	32786	32707	32806	32739	32694	32511	
803	0	32715	32731	32823	32665	32805	32771	32918	32455	
804	0	32737	32739	32787	32519	32717	32887	32757	32727	
805	0	32795	32791	32743	32683	32665	32854	32641	32565	
806	0	32773	32735	32726	32735	32655	32903	32623	32745	
807	0	32863	32757	32721	32583	32567	32895	32807	32787	
808	0	32852	32691	32719	32690	32631	32724	32802	32787	
809	0	32804	32647	32743	32669	32724	32711	32893	32737	
810	0	32767	32690	32627	32735	32841	32723	32891	32655	
811	0	32686	32787	32571	32853	32831	32823	32877	32765	
812	0	32745	32741	32655	32963	32749	32805	32763	32937	
813	0	32677	32802	32727	32615	32769	32681	32699	32647	
814	0	32721	32865	32798	32703	32809	32799	32967	32431	
815	0	32647	32767	32771	32524	32738	32871	32785	32587	
816	0	32840	32789	32757	32511	32847	32743	32563	32623	
817	0	32915	32887	32628	32663	32852	32839	32751	32657	
818	0	32807	32951	32605	32636	32871	32843	32879	32587	
819	0	32783	32941	32518	32496	32786	32706	32788	32745	
820	0	32753	32895	32599	32647	32790	32668	32716	32783	
821	0	32726	32923	32594	32765	32767	32741	32699	32719	
822	0	32638	32903	32598	32814	32551	32831	32637	32879	
823	0	32644	32887	32671	32927	32667	32887	32623	33071	
824	0	32725	32847	32599	32903	32807	32863	32637	32858	
825	0	32707	32767	32534	32647	32802	32903	32771	32719	
826	0	32655	32837	32628	32525	32634	32852	32711	32759	
827	0	32738	32871	32844	32669	32743	32807	32727	32658	
828	0	32740	32875	32797	32691	32716	32863	32753	32715	
829	0	32730	32877	32903	32519	32751	32836	32751	32684	
830	0	32766	32738	32931	32775	32660	32835	32743	32535	
831	0	32864	32735	32935	32836	32683	32821	32801	32519	
832	0	32775	32647	32846	32894	32787	32853	32767	32460	
833	0	32738	32647	32765	32605	32675	32773	32711	32623	
834	0	32745	32583	32919	32660	32743	32823	32757	32583	
835	0	32700	32723	33073	32658	32701	32783	32702	32455	
836	0	32692	32785	33012	32587	32803	32595	32601	32639	
837	0	32633	32707	32823	32543	32866	32374	32487	32755	
838	0	32615	32775	32755	32391	32799	32537	32557	32953	
839	0	32509	32693	32815	32514	32707	32686	32505	32671	
840	0	32554	32724	32824	32408	32675	32603	32511	32769	
841	0	32584	32671	32964	32229	32530	32709	32509	32743	
842	0	32665	32615	32978	32391	32518	32703	32487	32603	
843	0	32633	32660	32829	32258	32503	32715	32669	32634	
844	0	32694	32591	32867	32303	32742	32711	32638	32643	
845	0	32695	32631	32883	32459	32749	32511	32615	32492	
846	0	32708	32653	32887	32391	32726	32543	32516	32604	
847	0	32788	32692	32743	32359	32715	32717	32495	32668	
848	0	32711	32567	32713	32391	32823	32595	32535	32711	
849	0	32712	32603	32711	32489	32625	32708	32773	32591	
850	0	32762	32607	32763	32439	32636	32845	32743	32413	
851	0	32788	32658	32742	32373	32671	32823	32818	32559	
852	0	32732	32709	32581	32623	32857	32879	32958	32500	
853	0	32751	32775	32573	32727	32917	32695	33019	32463	
854	0	32793	32694	32597	32931	32991	32555	32885	32677	
855	0	32815	32787	32621	32931	32911	32687	32943	32925	
856	0	32903	32841	32531	33005	32921	32466	32983	32483	
857	0	32966	32867	32406	32895	32989	32610	32931	32709	
858	0	32999	32863	32439	33259	32891	33133	32868	32895	
859	0	32978	33010	32422	33195	32831	33244	33159	32931	
860	0	33036	32933	32541	33031	32823	33153	33259	32388	
861	0	33117	32898	32466	33084	32963	32972	33287	32135	
862	0	33124	32983	32359	33010	33063	32773	33446	32391	
863	0	33324	32866	32356	32979	33287	32733	33614	32309	
864	0	33270	32855	32275	32903	33343	32647	33543	32391	
865	0	33263	32919	32294	32924	33119	32717	33547	32551	
866	0	33158	32879	32359	32847	33110	32723	33351	32445	
867	0	33121	32863	32431	32965	33091	32767	33060	32751	
868	0	33176	32783	32287	33003	33099	32775	32987	32679	
869	0	33118	32811	32276	32918	33121	32764	33207	32566	
870	0	33041	32831	32321	33199	33117	32811	33267	32479	
871	0	32941	32747	32423	33047	32990	32707	33131	32663	
872	0	32825	32837	32515	32812	32855	32731	33003	32743	
873	0	32690	32795	32633	32850	32740	32589	32715	32527	
874	0	32607	32823	32815	32791	32671	32703	32612	32670	
875	0	32570	32819	32879	32565	32642	32732	32407	32790	
876	0	32590	32711	32863	32548	32474	32854	32355	32702	
877	0	32524	32764	32927	32481	32647	32841	32390	32748	
878	0	32509	32805	32938	32509	32677	32791	32435	32930	
879	0	32496	32783	32911	32558	32525	32877	32423	32927	
880	0	32500	32693	32871	32479	32614	32863	32340	32903	
881	0	32444	32858	32903	32295	32519	32813	32308	32741	
882	0	32450	32819	32813	32421	32535	32851	32287	32799	
883	0	32438	32647	32897	32383	32407	32859	32375	32819	
884	0	32446	32725	33019	32293	32465	32745	32398	32615	
885	0	32406	32773	32807	32455	32524	32804	32483	32714	
886	0	32500	32804	32876	32477	32541	32855	32539	32793	
887	0	32553	32861	32919	32493	32468	32719	32415	32667	
888	0	32568	32818	33111	32279	32550	32871	32366	32765	
889	0	32534	32763	32955	32475	32549	32918	32284	32710	
890	0	32593	32847	32903	32436	32505	32852	32322	32755	
891	0	32663	32863	32796	32469	32463	32918	32303	32834	
892	0	32679	32826	32639	32687	32533	32871	32575	32643	
893	0	32647	32827	32769	32783	32487	32775	32609	32775	
894	0	32678	32819	32733	32809	32571	32745	32655	32813	
895	0	32711	32891	32647	32764	32562	32679	32498	32633	
896	0	32748	32823	32637	32585	32579	32735	32519	32743	
897	0	32756	32825	32615	32863	32679	32783	32551	32751	
898	0	32786	32783	32727	32751	32775	32711	32738	32695	
899	0	32775	32770	32687	32671	32754	32767	32807	32671	
900	0	32753	32775	32685	32583	32847	32667	32769	32623	
901	0	32765	32791	32712	32671	32935	32735	32887	32563	
902	0	32809	32811	32665	32701	32863	32765	32861	32615	
903	0	32807	32775	32639	32460	32737	32703	32887	32519	
904	0	32839	32827	32643	32647	32735	32870	32903	32743	
905	0	32807	32675	32611	32719	32856	32713	32822	32694	
906	0	32794	32759	32660	32583	32878	32789	32707	32479	
907	0	32789	32629	32661	32765	32927	32796	32843	32605	
908	0	32690	32668	32647	32795	32730	32743	32843	32551	
909	0	32763	32783	32628	32693	32846	32743	32803	32439	
910	0	32884	32775	32775	32769	32845	32723	32811	32815	
911	0	32789	32669	32719	32739	32775	32862	32831	32852	
912	0	32809	32743	32731	32583	32700	32743	32806	32758	
913	0	32827	32783	32698	32775	32739	32787	32835	32827	
914	0	32753	32743	32601	32714	32863	32677	32870	32621	
915	0	32747	32815	32539	32531	32832	32691	32799	32639	
916	0	32803	32799	32698	32716	32877	32597	32681	32599	
917	0	32761	32805	32854	32701	32789	32555	32671	32747	
918	0	32743	32877	32735	32550	32843	32647	32673	32629	
919	0	32803	32742	32785	32783	32863	32773	32703	32620	
920	0	32852	32711	32692	32595	32823	32866	32791	32550	
921	0	32834	32815	32557	32426	32684	32774	32769	32631	
922	0	32775	32727	32495	32687	32669	32773	32775	32571	
923	0	32754	32775	32667	32667	32757	32721	32825	32518	
924	0	32735	32852	32647	32669	32878	32813	32850	32690	
925	0	32726	32765	32677	32807	32867	32807	32692	32702	
926	0	32710	32816	32807	32805	32925	32867	32635	32804	
927	0	32795	32818	32898	32610	32791	32847	32795	32581	
928	0	32815	32834	32762	32644	32695	32938	32727	32831	
929	0	32731	32693	32647	32407	32715	32785	32775	32807	
930	0	32699	32710	32621	32576	32799	32847	32863	32427	
931	0	32756	32698	32628	32607	32771	32870	32739	32482	
932	0	32785	32597	32587	32725	32797	32742	32699	32279	
933	0	32839	32683	32579	32711	32799	32707	32806	32431	
934	0	32756	32703	32463	32491	32855	32796	32807	32311	
935	0	32748	32723	32572	32733	32970	32637	32717	32503	
936	0	32743	32787	32669	32769	32869	32609	32711	32819	
937	0	32758	32702	32687	32607	32859	32679	32911	32735	
938	0	32762	32845	32759	32804	32639	32935	32869	33065	
939	0	32749	32775	32775	32684	32677	32823	32638	33026	
940	0	32801	32723	32807	32484	32726	32791	32469	33007	
941	0	32804	32733	32871	32639	32775	32837	32535	32932	
942	0	32773	32795	32802	32543	32694	32841	32760	32655	
943	0	32708	32919	32679	32587	32615	32827	32809	32775	
944	0	32738	32863	32722	32587	32756	32911	32798	32775	
945	0	32735	32823	32693	32805	32839	32951	32813	32607	
946	0	32758	32839	32613	32830	32703	32836	32767	32783	
947	0	32773	32803	32727	32901	32757	32581	32847	32621	
948	0	32791	32916	32615	32971	32903	32551	32685	32647	
949	0	32766	32827	32639	32671	32929	32349	32667	32429	
950	0	32743	32855	32639	32607	32794	32527	32854	32582	
951	0	32724	32797	32677	32455	32735	32619	32847	32631	
952	0	32853	32743	32646	32633	32675	32756	32803	32475	
953	0	32767	32786	32601	32615	32738	32707	32791	32773	
954	0	32757	32855	32695	32471	32767	32855	32855	32903	
955	0	32730	32839	32641	32567	32751	32788	32892	32698	
956	0	32743	32743	32577	32527	32769	32914	32679	32263	
957	0	32854	32795	32599	32738	32647	32903	32815	32493	
958	0	32804	32731	32799	32843	32767	33018	32615	32723	
959	0	32751	32751	32791	32834	32772	32919	32794	32683	
960	0	32751	32767	32755	32843	32733	32706	32759	32682	
961	0	32711	32795	32660	32829	32743	32751	32701	32607	
962	0	32759	32710	32630	32811	32745	32646	32571	32659	
963	0	32788	32759	32634	32791	32892	32602	32701	32605	
964	0	32797	32708	32635	32775	32791	32727	32758	32581	
965	0	32724	32738	32757	32775	32801	32943	32743	32585	
966	0	32836	32783	32661	32684	32646	32889	32535	32838	
967	0	32759	32831	32673	32519	32761	32935	32759	32839	
968	0	32751	32835	32659	32367	32623	32916	32775	32697	
969	0	32748	32814	32631	32383	32801	32735	32739	32425	
970	0	32799	32916	32739	32508	32822	32571	32903	32631	
971	0	32725	32829	32700	32647	32903	32466	32715	32714	
972	0	32770	32813	32797	32659	32720	32665	32607	32723	
973	0	32739	32791	32654	32645	32773	32821	32727	32489	
974	0	32757	32668	32727	32667	32683	32743	32827	32791	
975	0	32852	32659	32646	32719	32788	32799	32786	32593	
976	0	32733	32721	32709	32743	32597	32850	32663	32655	
977	0	32743	32707	32647	32789	32679	32967	32847	32703	
978	0	32775	32751	32665	32679	32551	32879	32791	32747	
979	0	32721	32847	32703	32831	32839	32606	32775	32733	
980	0	32783	32810	32887	32653	32783	32617	32795	32855	
981	0	32831	32676	32851	32527	32767	32791	32854	32634	
982	0	32839	32683	32775	32551	32681	32798	32769	32543	
983	0	32662	32759	32705	32735	32831	32647	32607	32647	
984	0	32725	32775	32631	32606	32845	32475	32854	32647	
985	0	32766	32775	32821	32683	32850	32577	32761	32669	
986	0	32703	32687	32775	32751	32615	32673	32598	32742	
987	0	32663	32823	32767	32711	32543	32762	32711	32626	
988	0	32740	32935	32979	32500	32711	32775	32773	32619	
989	0	32850	32783	32783	32423	32847	32786	32807	32679	
990	0	32881	32711	32599	32647	32647	32845	32694	32839	
991	0	32817	32791	32633	32791	32697	32919	32743	32695	
992	0	32808	32763	32607	32555	32827	32775	32735	32647	
993	0	32756	32759	32710	32645	32815	32797	32735	32647	
994	0	32692	32801	32691	32539	32812	32799	32799	32871	
995	0	32844	32667	32710	32471	32875	32743	32633	32782	
996	0	32773	32727	32733	32615	32758	32898	32638	32475	
997	0	32798	32749	32710	32796	32860	32711	32769	32579	
998	0	32749	32711	32797	32683	32743	32685	32787	32575	
999	0	32735	32795	32647	32791	32790	32726	32775	32555	
1000	0	32802	32741	32727	32806	32749	32791	32823	32660	
1001	0	32749	32791	32655	32533	32811	32748	33015	32477	
1002	0	32745	32910	32589	32764	32687	32751	32923	32709	
1003	0	32790	32831	32623	32769	32631	32837	32679	32900	
1004	0	32773	32895	32569	32463	32719	32756	32575	32691	
1005	0	32729	32914	32551	32733	32775	32599	32499	32703	
1006	0	32733	32914	32574	32695	32844	32559	32681	32799	
1007	0	32694	32807	32593	32797	32815	32645	32723	32735	
1008	0	32745	32823	32607	32903	32775	32708	32839	32740	
1009	0	32747	32828	32563	32791	32735	33021	32819	32327	
1010	0	32697	32805	32543	32935	32723	33407	32667	32283	
1011	0	32729	32822	32605	32511	32903	32903	32661	32655	
1012	0	32738	32749	32669	32527	32873	32703	32854	32495	
1013	0	32847	32804	32799	32525	32867	32575	32866	32217	
1014	0	32835	32685	32747	32761	32895	32639	32914	32447	
1015	0	32700	32757	32773	32793	32839	32597	32927	32687	
1016	0	32617	32695	32685	32543	32669	32791	32775	32769	
1017	0	32655	32803	32775	32642	32695	32815	32411	33071	
1018	0	32726	32814	32957	32725	32703	32831	32527	33159	
1019	0	32805	32767	32801	32535	32869	32876	32815	33095	
1020	0	32736	32839	32647	32533	32829	32817	32811	32659	
1021	0	32732	32741	32643	32407	32822	32787	32926	32684	
1022	0	32760	32738	32775	32525	32814	32614	33085	32553	
1023	0	32817	32751	32679	32655	32775	32727	32850	32603	
1024	0	32798	32725	32615	32518	32807	32701	32647	32719	
1025	0	32762	32743	32687	32676	32567	32793	32595	32655	
1026	0	32807	32699	32720	32623	32615	32836	32620	32511	
1027	0	32751	32807	32708	32411	32711	32823	32703	32535	
1028	0	32757	32823	32735	32605	32901	32853	32775	32719	
1029	0	32804	32799	32769	32513	32831	32679	32767	32519	
1030	0	32921	32839	32679	32595	32757	32647	32695	32871	
1031	0	32796	32742	32603	32767	32879	32614	32855	32717	
1032	0	32764	32615	32796	32711	32749	32711	32883	32668	
1033	0	32720	32685	32823	32839	32831	32593	32723	32756	
1034	0	32816	32765	32828	32887	32916	32447	32671	32699	
1035	0	32790	32877	32855	32871	32847	32711	32745	32626	
1036	0	32792	32823	32742	32625	32639	32991	32819	32555	
1037	0	32773	32815	32707	32839	32507	32945	32727	32599	
1038	0	32744	32731	32663	32839	32575	32855	32703	32603	
1039	0	32734	32775	32708	32743	32669	32685	32705	32627	
1040	0	32775	32723	32679	32601	32757	32946	32692	32607	
1041	0	32743	32819	32647	32823	32821	32951	32693	32598	
1042	0	32804	32735	32617	32855	32783	32813	32809	32671	
1043	0	32775	32785	32695	32556	32643	32827	32730	32647	
1044	0	32742	32735	32801	32717	32567	32847	32847	32673	
1045	0	32786	32844	32762	32703	32690	32695	32863	32775	
1046	0	32772	32799	32758	32735	32719	32775	32751	32537	
1047	0	32731	32863	32802	32715	32671	32763	32615	32711	
1048	0	32765	32773	32799	32579	32667	32847	32871	32681	
1049	0	32775	32835	32607	32724	32727	32740	32821	32685	
1050	0	32695	32850	32575	32631	32666	32775	32823	32773	
1051	0	32729	32823	32773	32670	32679	32711	32743	32559	
1052	0	32714	32791	32830	32567	32710	32791	32660	32607	
1053	0	32708	32723	32765	32767	32773	32903	32508	32783	
1054	0	32692	32807	32839	32589	32847	32789	32695	32601	
1055	0	32724	32766	32785	32359	32843	32775	32799	32711	
1056	0	32823	32713	32853	32603	32895	32740	32881	32771	
1057	0	32935	32753	32805	32561	32877	32642	32879	32476	
1058	0	32964	32797	32719	32605	32775	32656	32690	32550	
1059	0	32854	32733	32711	32583	32687	32673	32671	32597	
1060	0	32820	32829	32759	32619	32671	32533	32807	32662	
1061	0	32733	32706	32685	32707	32681	32749	32983	32775	
1062	0	32758	32835	32644	32685	32645	32665	32715	32787	
1063	0	32708	32711	32554	32879	32701	32630	32527	32436	
1064	0	32730	32731	32531	32787	32637	32606	32558	32463	
1065	0	32749	32715	32575	32797	32637	32749	32828	32391	
1066	0	32722	32743	32603	32742	32846	32579	32933	32521	
1067	0	32715	32647	32611	32769	32749	32655	32804	32580	
1068	0	32684	32660	32707	32783	32713	32951	32775	32860	
1069	0	32620	32775	32551	32823	32583	33043	32679	32878	
1070	0	32577	32895	32767	32903	32547	32926	32497	32807	
1071	0	32722	32982	32735	32783	32589	32871	32687	33143	
1072	0	32801	32887	32863	32687	32583	32803	32815	33060	
1073	0	32863	32791	32903	32609	32809	32487	32775	32979	
1074	0	32786	32694	32759	32541	32831	32443	32562	32701	
1075	0	32731	32727	32619	32531	32983	32501	32861	32550	
1076	0	32729	32819	32671	32623	32877	32943	32859	32039	
1077	0	32647	32811	32527	32679	32877	33318	32868	32183	
1078	0	32769	32893	32829	32695	32898	33117	32695	32539	
1079	0	32718	32863	32751	32662	32997	32701	32879	32775	
1080	0	32786	32756	32799	32588	32839	32676	32815	32871	
1081	0	32795	32721	32653	32599	32772	32771	32645	32667	
1082	0	32822	32719	32715	32614	32796	32794	32929	32711	
1083	0	32832	32691	32663	32593	32663	32775	32887	32527	
1084	0	32729	32715	32661	32590	32703	32743	32783	32443	
1085	0	32767	32731	32522	32692	32831	32756	32751	32682	
1086	0	32709	32789	32615	32597	32783	32702	32839	32669	
1087	0	32759	32727	32642	32547	32733	32696	32775	32719	
1088	0	32807	32739	32811	32608	32839	32800	32635	32481	
1089	0	32749	32647	32707	32511	32799	32887	32837	32661	
1090	0	32730	32661	32735	32519	32587	32847	32775	32607	
1091	0	32735	32733	32534	32567	32683	32791	32733	32553	
1092	0	32799	32775	32612	32583	32695	32951	32677	32745	
1093	0	32766	32819	32695	32622	32663	32971	32858	32631	
1094	0	32687	32879	32715	32695	32759	32775	32701	32767	
1095	0	32733	32923	32725	32631	32805	32655	32611	32798	
1096	0	32701	32884	32757	32643	32739	32623	32687	32827	
1097	0	32815	32819	32647	32669	32686	32590	32823	32543	
1098	0	32855	32756	32679	32835	32847	32726	32817	32847	
1099	0	32855	32747	32503	32919	32751	32775	32705	32791	
1100	0	32781	32772	32639	32900	32809	32811	32595	32681	
1101	0	32663	32775	32461	32811	32803	32735	32811	32613	
1102	0	32601	32787	32593	32685	32677	32775	32733	32886	
1103	0	32647	32775	32621	32788	32730	32743	32735	32591	
1104	0	32791	32671	33117	32607	32773	32818	32791	32489	
1105	0	32822	32735	33065	32463	32867	32954	32791	32527	
1106	0	32804	32827	32831	32487	32691	32876	32763	32759	
1107	0	32787	32795	32647	32508	32759	32879	32562	32595	
1108	0	32758	32753	32655	32605	32710	32801	32751	32634	
1109	0	32733	32765	32731	32540	32838	32369	32743	32660	
1110	0	32749	32731	32740	32642	32743	32390	32495	32701	
1111	0	32722	32694	32774	32775	32858	32735	32743	32799	
1112	0	32742	32751	32711	32829	32789	32842	32749	32646	
1113	0	32838	32844	32859	32733	32731	32875	32811	32479	
1114	0	32815	32975	32799	32741	32787	32959	32647	32532	
1115	0	32871	32775	32703	32551	32607	32935	32826	32983	
1116	0	32854	32727	32635	32542	32694	32927	32719	33059	
1117	0	32826	32756	32715	32693	32551	32941	32551	32725	
1118	0	32807	32735	32535	32711	32703	32916	32724	32738	
1119	0	32766	32703	32623	32647	32726	32775	32955	32692	
1120	0	32738	32695	32595	32839	32815	32735	32797	32711	
1121	0	32756	32876	32605	32738	32823	32607	32691	32603	
1122	0	32729	32885	32694	32805	32804	32582	32875	32615	
1123	0	32712	32827	32805	32828	32775	32621	32807	32491	
1124	0	32684	32729	32742	32643	32809	32643	32579	32701	
1125	0	32731	32685	32525	32315	32803	32676	32831	32646	
1126	0	32711	32802	32703	32447	32807	32741	32795	32631	
1127	0	32842	32831	32831	32519	32823	32791	32670	32879	
1128	0	32804	32898	32751	32484	32850	32757	32846	32694	
1129	0	32759	32791	32633	32599	32823	33047	32787	32597	
1130	0	32768	32758	32704	32731	32764	33187	32860	32466	
1131	0	32842	32657	32765	32967	32845	32847	32819	32647	
1132	0	32831	32759	32663	32951	32687	32691	32851	32700	
1133	0	32775	32835	32627	32925	32757	32662	32819	32593	
1134	0	32793	32826	32635	32795	32671	32603	32591	32530	
1135	0	32791	32871	32740	32715	32798	32659	32773	32745	
1136	0	32815	32948	32647	32606	32835	32668	32803	32669	
1137	0	32789	32871	33010	32555	32917	32725	32871	32647	
1138	0	32846	32879	32788	32479	32830	32817	32647	32439	
1139	0	32804	32763	32743	32450	32733	32742	32767	32642	
1140	0	32820	32759	32583	32484	32769	32807	32819	32717	
1141	0	32750	32799	32669	32671	32631	32877	32738	32598	
1142	0	32684	32775	32655	32644	32805	32967	32786	32759	
1143	0	32767	32751	32639	32611	32775	32919	32675	32621	
1144	0	32839	32755	32764	32615	32815	32892	32815	32863	
1145	0	32839	32711	32647	32592	32807	32850	32787	32855	
1146	0	32801	32758	32671	32614	32731	32820	32767	32903	
1147	0	32774	32738	32559	32647	32831	32760	32663	32691	
1148	0	32778	32775	32751	32786	32635	32807	32709	32903	
1149	0	32783	32847	32727	32839	32876	32711	32775	32631	
1150	0	32775	32839	32743	32562	32679	32695	32691	32563	
1151	0	32745	32711	32699	32445	32757	32703	32870	32551	
1152	0	32769	32691	32679	32619	32631	32757	32791	32629	
1153	0	32740	32818	32725	32775	32807	32758	32787	32647	
1154	0	32720	32833	32643	32699	32727	32815	32731	32644	
1155	0	32713	32771	32679	32743	32812	32817	32595	32531	
1156	0	32775	32807	32793	32787	32719	32828	32821	32611	
1157	0	32815	32765	32663	32599	32754	32811	32775	32695	
1158	0	32754	32847	32691	32418	32853	32732	32565	32665	
1159	0	32799	32949	32615	32519	32747	32846	32903	32813	
1160	0	32744	32831	32695	32519	32830	33069	32819	32604	
1161	0	32881	32851	32583	32430	32813	32871	32775	32731	
1162	0	32764	32775	32743	32283	32882	32583	32543	32591	
1163	0	32639	32787	32903	32581	32989	32227	32807	32722	
1164	0	32673	32807	32711	32733	32887	32421	32839	32679	
1165	0	32672	32695	32717	32999	32740	32583	32759	32533	
1166	0	32703	32683	32623	33159	32796	32630	32605	32751	
1167	0	32807	32639	32703	33039	32703	32641	32863	32743	
1168	0	32870	32642	32673	32975	32885	32647	32759	32487	
1169	0	32807	32783	32688	32935	32759	32589	32615	32684	
1170	0	32719	32823	32745	32775	32655	32617	32735	32636	
1171	0	32775	32765	32831	32831	32671	32837	32789	32564	
1172	0	32791	32823	32691	32677	32707	32903	32629	32583	
1173	0	32745	32865	32820	32495	32784	32834	32695	32795	
1174	0	32789	32839	32747	32623	32733	32823	32694	32711	
1175	0	32810	32795	32741	32551	32819	32733	32603	32603	
1176	0	32740	32807	32610	32615	32802	32738	32900	32533	
1177	0	32690	32747	32671	32525	32823	32815	32823	32639	
1178	0	32714	32775	32705	32431	32647	32775	32639	32646	
1179	0	32753	32755	32791	32439	32719	33051	32844	32551	
1180	0	32742	32749	32689	32647	32639	32927	32767	32559	
1181	0	32775	32755	32695	32647	32698	32822	32643	32788	
1182	0	32758	32747	32740	32602	32647	32807	32739	32549	
1183	0	32724	32809	32573	32706	32739	32690	32663	32630	
1184	0	32746	32773	32647	32575	32671	32703	32735	32851	
1185	0	32760	32775	32739	32540	32797	32623	32783	32703	
1186	0	32761	32797	32738	32567	32775	32615	32703	32583	
1187	0	32732	32823	32700	32543	32771	32731	32576	32591	
1188	0	32685	32751	32684	32695	32790	32743	32823	32713	
1189	0	32774	32771	32694	32709	32724	32868	32751	32663	
1190	0	32783	32759	32787	32733	32753	32828	32637	32564	
1191	0	32761	32799	32749	32685	32679	32748	32815	32751	
1192	0	32783	32751	32669	32551	32721	32866	32787	32767	
1193	0	32686	32751	32612	32606	32659	32871	32604	32726	
1194	0	32671	32887	32751	32587	32738	32759	32833	32727	
1195	0	32708	32885	32805	32529	32715	32706	32820	32863	
1196	0	32807	32783	33068	32562	32775	32711	32572	32711	
1197	0	32871	32775	32764	32559	32818	32727	32850	32763	
1198	0	32807	32766	32765	32583	32828	32775	32745	32567	
1199	0	32764	32797	32591	32623	32751	32839	32627	32902	
1200	0	32780	32751	32671	32719	32839	32820	32817	32655	
1201	0	32676	32725	32570	32790	32757	32851	32759	32533	
1202	0	32676	32671	32615	32815	32659	32797	32669	32402	
1203	0	32663	32710	32719	32855	32763	32949	32871	32545	
1204	0	32684	32739	32789	32791	32661	33035	32851	32572	
1205	0	32792	32783	32859	32727	32679	32882	32589	32639	
1206	0	32866	32713	32823	32543	32667	32839	32815	32739	
1207	0	32847	32795	32735	32333	32775	32647	32761	32881	
1208	0	32822	32821	32714	32467	32767	32417	32565	32827	
1209	0	32834	32847	32688	32593	32919	32467	32743	32786	
1210	0	32759	32855	32565	32639	32815	32642	32765	32895	
1211	0	32783	32767	32891	32772	32804	32887	32727	32705	
1212	0	32767	32740	32919	32941	32807	32823	32621	32829	
1213	0	32752	32791	32927	32829	32676	32664	32751	32711	
1214	0	32737	32807	32703	32807	32646	32733	32783	32589	
1215	0	32751	32822	32727	32873	32635	32711	32845	32444	
1216	0	32754	32783	32558	32725	32679	32751	32757	32273	
1217	0	32796	32811	32747	32647	32726	32679	32775	32713	
1218	0	32786	32711	32647	32647	32899	32631	32797	32727	
1219	0	32863	32677	32679	32703	32863	32749	32783	32457	
1220	0	32762	32631	32567	32693	32739	32845	32663	32706	
1221	0	32736	32623	32735	32711	32807	32983	32883	32797	
1222	0	32698	32786	32713	32748	32690	32839	32711	32733	
1223	0	32688	32847	32621	32715	32853	32753	32731	32806	
1224	0	32711	32860	32647	32595	32865	32791	32615	32663	
1225	0	32687	32837	32564	32511	32667	32887	32613	32599	
1226	0	32716	32770	32695	32595	32583	32918	32773	32841	
1227	0	32743	32775	32603	32640	32547	32967	32763	32527	
1228	0	32770	32759	32711	32671	32695	32951	32775	32391	
1229	0	32844	32775	32694	32826	32643	32767	32671	32671	
1230	0	32700	32798	32765	32858	32734	32663	32743	32701	
1231	0	32742	32812	32695	32861	32698	32665	32783	32767	
1232	0	32730	32775	32747	32827	32847	32703	32623	32595	
1233	0	32702	32772	32775	32767	32899	32791	32628	32733	
1234	0	32748	32775	32711	32727	32767	32659	32903	32693	
1235	0	32743	32721	32761	32463	32797	32681	32769	32709	
1236	0	32753	32686	32666	32463	32647	32739	32653	32562	
1237	0	32746	32767	32733	32471	32743	32687	32865	32638	
1238	0	32796	32850	32553	32514	32655	32685	32821	32582	
1239	0	32828	32873	32722	32519	32796	32719	32767	32455	
1240	0	32799	32823	32725	32443	32807	32722	32525	32566	
1241	0	32828	32775	32775	32589	32807	32726	32647	32476	
1242	0	32743	32802	32589	32564	32827	32933	32765	32595	
1243	0	32775	32671	32692	32629	32893	32925	32583	32743	
1244	0	32762	32739	32663	32790	32711	32894	32452	33043	
1245	0	32757	32811	32755	32873	32815	32879	32795	32943	
1246	0	32743	32844	32663	32767	32823	32802	32826	32641	
1247	0	32703	32771	32823	32519	32701	32895	32767	32733	
1248	0	32720	32775	32725	32655	32509	32775	32990	32775	
1249	0	32773	32775	32621	32690	32609	32869	32875	32775	
1250	0	32705	32727	32681	32659	32775	32595	32668	32659	
1251	0	32735	32775	32574	32738	32935	32164	32863	32655	
1252	0	32769	32863	32739	32607	32809	32535	32787	32775	
1253	0	32809	32767	32791	32556	32643	32663	32663	32769	
1254	0	32749	32763	32803	32613	32671	32709	32695	32638	
1255	0	32762	32735	32797	32659	32709	32803	32759	32516	
1256	0	32780	32795	32870	32831	32775	32738	32743	32500	
1257	0	32750	32787	32786	32879	32751	32827	32756	32595	
1258	0	32800	32735	32635	32679	32850	33030	32559	32661	
1259	0	32808	32732	32708	32501	32821	32977	32711	32667	
1260	0	32792	32765	32591	32492	32783	32850	32789	32719	
1261	0	32780	32787	32687	32493	32711	32775	32751	32614	
1262	0	32757	32823	32516	32646	32820	32747	32687	32495	
1263	0	32716	32775	32583	32669	32895	32715	32799	32475	
1264	0	32724	32767	32729	32630	32844	32799	32759	32742	
1265	0	32770	32709	32903	32583	32772	32820	32643	32743	
1266	0	32758	32815	32615	32617	32843	32805	32754	32787	
1267	0	32726	32789	32638	32629	32815	32765	32798	32551	
1268	0	32807	32809	32643	32493	32846	32858	32771	32603	
1269	0	32809	32749	32822	32534	32710	32835	32594	32715	
1270	0	32797	32751	32743	32647	32695	32839	32603	32647	
1271	0	32851	32835	32743	32935	32855	32605	32879	32681	
1272	0	32739	32663	32743	32991	32855	32743	32909	32623	
1273	0	32743	32707	32721	32799	32735	32659	32759	32549	
1274	0	32767	32683	32655	32791	32624	32725	32551	32580	
1275	0	32719	32749	32735	32797	32591	32711	32727	32439	
1276	0	32766	32799	32867	32703	32772	32765	32739	32605	
1277	0	32764	32783	32805	32631	32877	32663	32695	32891	
1278	0	32748	32786	32767	32743	32749	32839	32797	32860	
1279	0	32785	32773	32647	32549	32556	32900	32871	32731	
1280	0	32732	32869	32674	32583	32699	32692	32860	32658	
1281	0	32735	32967	32615	32635	32759	32679	32679	32751	
1282	0	32670	32805	32683	32585	32962	32599	32631	32709	
1283	0	32711	32820	32735	32597	32855	32685	32824	32787	
1284	0	32722	32735	32735	32441	32761	32717	32799	32582	
1285	0	32706	32738	32615	32574	32746	32687	32724	32621	
1286	0	32708	32719	32795	32647	32775	32709	32763	32675	
1287	0	32757	32731	32849	32655	32871	32819	32743	32557	
1288	0	32831	32742	32807	32746	32929	32820	32660	32631	
1289	0	32940	32730	32631	32573	32931	32829	32695	32855	
1290	0	32794	32758	32647	32751	32850	32967	32735	32749	
1291	0	32793	32794	32703	32733	32684	32934	32775	32647	
1292	0	32698	32833	32812	32585	32727	32695	32879	32594	
1293	0	32687	32709	32785	32603	32647	32639	32811	32733	
1294	0	32807	32867	32767	32495	32674	32804	32687	32726	
1295	0	32776	32772	32737	32674	32733	32764	32655	32701	
1296	0	32795	32821	32710	32690	32827	32804	32791	32506	
1297	0	32749	32802	32711	32439	32775	32669	32754	32555	
1298	0	32796	32721	32733	32743	32788	32769	32747	32703	
1299	0	32775	32757	32735	32843	32797	32789	32791	32679	
1300	0	32778	32765	32775	32851	32851	32663	32903	32718	
1301	0	32778	32669	32801	32927	32689	32623	32846	32477	
1302	0	32825	32751	32691	32844	32623	32556	32613	32767	
1303	0	32822	32735	32583	32541	32583	32729	32717	32775	
1304	0	32767	32807	32575	32615	32605	32732	32695	32931	
1305	0	32764	32749	32575	32469	32723	32823	32773	32548	
1306	0	32764	32803	32613	32495	32743	32707	32807	32631	
1307	0	32707	32879	32615	32573	32694	32796	32871	32775	
1308	0	32714	32766	32679	32423	32676	32671	32628	32671	
1309	0	32742	32763	32663	32692	32707	32938	32587	32325	
1310	0	32690	32789	32591	32775	32715	33247	32711	32487	
1311	0	32804	32771	32679	33004	32791	32893	32775	32685	
1312	0	32764	32631	32730	32807	32807	32751	32921	32668	
1313	0	32714	32751	32734	32683	32815	32687	32822	32542	
1314	0	32755	32727	32628	32551	32843	32827	32607	32919	
1315	0	32679	32797	32582	32431	32711	32871	32713	32898	
1316	0	32726	32751	32565	32564	32788	32845	32705	32742	
1317	0	32743	32867	32855	32613	32773	32668	32735	32605	
1318	0	32688	32852	32943	32633	32801	32831	32820	32643	
1319	0	32754	32898	32962	32807	32918	32662	32641	32749	
1320	0	32844	32813	32911	32587	32901	32710	32679	32599	
1321	0	32821	32925	32844	32799	32839	32643	32812	32615	
1322	0	32879	32759	32695	32831	32830	32751	32831	32599	
1323	0	32756	32823	32689	32731	32859	32794	32843	32559	
1324	0	32785	32711	32687	32607	32847	32854	32763	32787	
1325	0	32811	32775	32767	32471	32791	32671	32639	32835	
1326	0	32744	32787	32751	32693	32711	32789	32751	32527	
1327	0	32684	32783	32637	32647	32667	32885	32673	32619	
1328	0	32669	32783	32717	32557	32661	32741	32743	32452	
1329	0	32711	32695	32827	32722	32743	32789	32869	32580	
1330	0	32827	32743	32717	32706	32855	32767	32839	32400	
1331	0	32806	32685	32611	32756	32783	32874	32846	32455	
1332	0	32834	32767	32681	32612	32701	32935	32663	32655	
1333	0	32773	32835	32647	32335	32711	32815	32783	32767	
1334	0	32726	32882	32739	32595	32679	33019	32775	32911	
1335	0	32854	32831	32807	32548	32639	33007	32621	32855	
1336	0	32844	32803	32855	32634	32683	32773	32786	32941	
1337	0	32799	32863	32543	32837	32647	32501	32807	32859	
1338	0	32743	32943	32612	32903	32599	32445	32623	32966	
1339	0	32637	32871	32628	32869	32738	32378	32579	32903	
1340	0	32604	32866	32757	32707	32847	32602	32821	32695	
1341	0	32751	32834	32863	32706	32887	32719	32789	32755	
1342	0	32847	32811	32965	32903	32812	32714	32647	32583	
1343	0	32773	32868	32717	32803	32817	32740	32755	32582	
1344	0	32743	32887	32672	32773	32921	32774	32818	32507	
1345	0	32712	32880	32642	32589	32903	32789	32775	32739	
1346	0	32710	32811	32780	32535	32804	32807	32667	32671	
1347	0	32756	32759	32615	32566	32804	32754	32871	32615	
1348	0	32745	32707	32639	32501	32767	32859	32771	32733	
1349	0	32721	32775	32820	32463	32695	32826	32814	32807	
1350	0	32830	32773	32879	32467	32723	32848	32867	32665	
1351	0	32826	32738	32747	32631	32791	32743	32775	32559	
1352	0	32802	32885	32743	32684	32885	32851	32725	32598	
1353	0	32753	32741	32711	32518	32855	32678	32615	32759	
1354	0	32745	32821	32677	32711	32720	32791	32737	32607	
1355	0	32812	32751	32636	32679	32749	32763	32703	32646	
1356	0	32802	32733	32699	32483	32723	32820	32762	32706	
1357	0	32758	32671	32663	32519	32615	32815	32843	32647	
1358	0	32749	32727	32740	32563	32727	32757	32709	32637	
1359	0	32719	32677	32727	32743	32833	32862	32615	32718	
1360	0	32751	32775	32705	32963	32769	32751	32775	32599	
1361	0	32743	32802	32631	32711	32662	32899	32799	32667	
1362	0	32700	32830	32671	32663	32563	32903	32764	32751	
1363	0	32786	32815	32607	32501	32506	33047	32813	32683	
1364	0	32751	32735	32549	32557	32694	32890	32849	32748	
1365	0	32654	32847	32535	32608	32767	32559	32679	32475	
1366	0	32681	32943	32543	32677	32759	32391	32705	32431	
1367	0	32708	32919	32720	32855	32771	32429	32679	32226	
1368	0	32711	32845	32711	32803	32775	32631	32691	32439	
1369	0	32782	32786	32693	32773	32775	32564	32590	32503	
1370	0	32863	32739	32719	32983	32801	32594	32682	32798	
1371	0	32868	32715	32621	32969	32758	32838	32853	32891	
1372	0	32764	32757	32727	32699	32737	32679	33095	32795	
1373	0	32791	32817	32765	32891	32797	32703	33127	32687	
1374	0	32792	32707	32888	32775	32850	32795	32903	32765	
1375	0	32813	32748	32970	32695	32759	32796	32676	32915	
1376	0	32787	32731	32863	32757	32775	32925	32571	32923	
1377	0	32773	32759	32767	32659	32711	32855	32833	32719	
1378	0	32736	32743	32887	32551	32745	32979	32739	33022	
1379	0	32799	32715	32871	32657	32887	32866	32724	33063	
1380	0	32723	32823	32841	32601	32815	32786	32815	32759	
1381	0	32775	32735	32695	32555	32797	32823	32749	32375	
1382	0	32767	32846	32537	32671	32884	32754	32711	32391	
1383	0	32756	32713	32615	32407	32863	32723	32807	32583	
1384	0	32738	32827	32586	32635	32831	32827	32807	32567	
1385	0	32790	32734	32621	32421	32759	32767	32828	32527	
1386	0	32743	32775	32637	32603	32809	32748	32718	32775	
1387	0	32767	32707	32599	32519	32775	32863	32647	32835	
1388	0	32741	32775	32533	32531	32671	32863	32599	32566	
1389	0	32810	32775	32571	32502	32613	32999	32743	32771	
1390	0	32709	32757	32599	32575	32615	32895	32711	32722	
1391	0	32683	32855	32642	32411	32607	32687	32790	32699	
1392	0	32768	32767	32615	32542	32703	32647	32803	32687	
1393	0	32698	32806	32541	32534	32783	32734	32790	32709	
1394	0	32643	32747	32606	32455	32773	32807	32698	32761	
1395	0	32810	32703	32637	32803	32756	32911	32617	32671	
1396	0	32806	32767	32603	32882	32740	32903	32583	32526	
1397	0	32784	32763	32699	32765	32757	32923	32799	32583	
1398	0	32705	32802	32687	32929	32823	32626	32783	32619	
1399	0	32711	32647	32692	32887	32862	32689	32845	32690	
1400	0	32742	32775	32583	32646	32743	32592	32871	32660	
1401	0	32823	32727	32519	32791	32743	32684	32727	32607	
1402	0	32764	32791	32580	32763	32695	32669	32593	32567	
1403	0	32750	32861	32630	32843	32668	32677	32653	32647	
1404	0	32773	32823	32620	32823	32655	32887	32743	32635	
1405	0	32725	32870	32647	32593	32804	32727	32751	32562	
1406	0	32779	32762	32737	32663	32810	32743	32775	32647	
1407	0	32786	32783	32698	32647	32715	32683	32877	32671	
1408	0	32839	32727	32673	32555	32635	32703	32769	32407	
1409	0	32846	32713	32694	32492	32615	32671	32671	32549	
1410	0	32821	32681	32667	32382	32683	32703	32491	32828	
1411	0	32786	32681	32743	32443	32705	32687	32594	32819	
1412	0	32738	32719	32733	32562	32825	32876	32758	32447	
1413	0	32735	32831	32767	32576	33009	32962	32590	32543	
1414	0	32757	32763	32711	32743	32868	32903	32655	32717	
1415	0	32791	32771	32733	32757	32846	32935	32751	32750	
1416	0	32762	32835	32479	32795	32751	32889	32595	32961	
1417	0	32698	32819	32526	32807	32871	32599	32661	32695	
1418	0	32711	32871	32603	32555	32635	32749	32757	32654	
1419	0	32742	32813	32799	32787	32669	32633	32613	33191	
1420	0	32843	32757	32894	32655	32711	32694	32775	32850	
1421	0	32805	32797	32694	32512	32738	32589	32925	32643	
1422	0	32622	32791	32603	32749	32740	32499	32859	32663	
1423	0	32679	32787	32924	32683	32885	32535	32719	32548	
1424	0	32791	32755	32891	32711	32810	32663	32773	32719	
1425	0	32760	32765	32659	32711	32775	32743	32753	32743	
1426	0	32847	32788	32529	32659	32819	32839	32807	32679	
1427	0	32818	32775	32535	32895	32807	32755	32873	32739	
1428	0	32735	32871	32759	32751	32653	32839	32946	32585	
1429	0	32756	32763	32703	32603	32663	33167	32879	32388	
1430	0	32765	32703	32565	32669	32735	33149	32716	32559	
1431	0	32815	32775	32653	32693	32743	32931	32711	32767	
1432	0	32881	32735	32677	32417	32807	32978	32701	32447	
1433	0	32769	32804	32823	32695	32823	32731	32667	32633	
1434	0	32769	32711	32745	32637	32793	32738	32799	32583	
1435	0	32743	32775	32692	32685	32775	32623	32799	32599	
1436	0	32784	32702	32611	32570	32751	32743	32823	32685	
1437	0	32789	32803	32589	32583	32812	32765	32634	32727	
1438	0	32772	32767	32540	32647	32827	32811	32605	32835	
1439	0	32794	32815	32589	32374	32790	32723	32767	32591	
1440	0	32762	32835	32647	32603	32759	32839	32783	32747	
1441	0	32796	32871	32828	32623	32859	32647	32851	32607	
1442	0	32743	32719	32724	32607	32775	32645	32838	32578	
1443	0	32734	32767	32677	32711	32671	32671	32884	32698	
1444	0	32714	32805	32747	32759	32647	32615	32727	32647	
1445	0	32743	32687	32703	32669	32719	32877	32667	32477	
1446	0	32729	32847	32626	32647	32642	32747	32775	32771	
1447	0	32657	32850	32663	32383	32625	32797	32723	32827	
1448	0	32699	32812	32662	32483	32595	32740	32671	32543	
1449	0	32743	32703	32727	32495	32830	32829	32733	32639	
1450	0	32647	32627	32855	32828	32737	32762	32816	32667	
1451	0	32647	32786	32847	32713	32703	32771	32915	32685	
1452	0	32871	32807	32839	33015	32748	32838	32903	32694	
1453	0	32774	32677	32738	32924	32759	32871	32797	32554	
1454	0	32838	32806	32663	32731	32845	32842	32599	32558	
1455	0	32918	32775	32535	32711	32820	32885	32566	32697	
1456	0	32813	32867	32557	32718	32831	32575	32729	32719	
1457	0	32799	32831	32675	32375	32657	32666	32730	32795	
1458	0	32768	32749	32789	32527	32751	32577	32667	32661	
1459	0	32806	32751	32830	32692	32959	32411	32740	32801	
1460	0	32764	32847	32733	32775	32903	32497	32727	32931	
1461	0	32815	32687	32741	32798	32698	32687	32727	32831	
1462	0	32747	32711	32703	32911	32813	32667	32841	32893	
1463	0	32738	32817	32725	32711	32772	32941	32896	32580	
1464	0	32759	32869	32695	32745	32735	33215	32955	32431	
1465	0	32767	32883	32727	32807	32775	33061	32789	32477	
1466	0	32735	32765	32551	32689	32765	32791	32727	32470	
1467	0	32737	32831	32541	32658	32743	32703	32663	32581	
1468	0	32735	32876	32567	32583	32703	32799	32673	32858	
1469	0	32726	32775	32679	32519	32647	32775	32562	32843	
1470	0	32784	32871	32751	32593	32615	32813	32751	32665	
1471	0	32759	32815	32727	32607	32689	32811	32879	32725	
1472	0	32733	32817	32663	32459	32685	32738	32815	32609	
1473	0	32717	32666	32713	32455	32684	32722	32835	32623	
1474	0	32869	32663	32699	32495	32707	32798	32811	32731	
1475	0	32807	32827	32677	32611	32628	32843	32756	32775	
1476	0	32774	32727	32647	32603	32658	32825	32599	32615	
1477	0	32775	32802	32595	32479	32727	32873	32615	32606	
1478	0	32759	32763	32610	32669	32845	32711	32599	32647	
1479	0	32715	32827	32626	32619	32885	32742	32830	32607	
1480	0	32697	32753	32663	32543	32882	32639	32843	32593	
1481	0	32716	32699	32591	32706	32823	32820	32879	32714	
1482	0	32655	32612	32607	32771	32834	32742	32727	32699	
1483	0	32745	32671	32591	32867	32841	32775	32535	32839	
1484	0	32740	32723	32677	32797	32791	32867	32575	32517	
1485	0	32775	32711	32817	32559	32703	32871	32692	32621	
1486	0	32799	32807	32815	32655	32735	32685	32747	32610	
1487	0	32820	32823	32887	32687	32803	32783	32759	32655	
1488	0	32690	32775	32782	32583	32844	32846	32749	32740	
1489	0	32701	32835	32598	32807	32676	32751	32719	32604	
1490	0	32786	32843	32636	32703	32634	32723	32787	32594	
1491	0	32703	32863	32581	32473	32646	32638	32841	32535	
1492	0	32787	32775	32588	32725	32642	32845	32700	32567	
1493	0	32844	32727	32612	32727	32679	32783	32631	32788	
1494	0	32812	32735	32516	32627	32749	32751	32757	32943	
1495	0	32735	32791	32559	32591	32711	32647	32820	32615	
1496	0	32811	32799	32839	32518	32769	32706	32711	32719	
1497	0	32868	32690	32971	32611	32775	32695	32759	32535	
1498	0	32767	32868	32813	32871	32822	32667	32743	32423	
1499	0	32698	32919	32817	32943	32887	32751	32831	32639	
1500	0	32747	32789	32789	32739	32749	32687	32813	32555	
1501	0	32748	32775	32775	32631	32797	32639	32838	32749	
1502	0	32775	32828	32741	32647	32839	32731	32899	32979	
1503	0	32804	32705	32677	32735	32851	32655	32890	32747	
1504	0	32782	32725	32698	32557	32695	32767	32775	32623	
1505	0	32726	32805	32738	32658	32879	32684	32665	32445	
1506	0	32786	32631	32747	32511	32815	32775	32758	32540	
1507	0	32783	32711	32767	32637	32789	32943	32831	32615	
1508	0	32773	32775	32695	32719	32722	33069	32811	32613	
1509	0	32757	32791	32674	32641	32718	32999	32606	32737	
1510	0	32740	32834	32719	32677	32749	32887	32516	33003	
1511	0	32729	32822	32703	32455	32683	32841	32710	32877	
1512	0	32708	32775	32754	32691	32791	32823	32781	32789	
1513	0	32750	32725	32738	32607	32877	32564	32919	32459	
1514	0	32784	32679	32622	32757	32923	32339	32877	32562	
1515	0	32700	32879	32751	32812	32943	32447	32613	32470	
1516	0	32729	32775	32655	32594	32833	32719	32809	32310	
1517	0	32767	32767	32675	32645	32807	32882	32775	32555	
1518	0	32794	32743	32635	32647	32830	32772	32764	32719	
1519	0	32741	32703	32554	32786	32725	32794	32795	32919	
1520	0	32771	32721	32663	32717	32599	32815	32694	32745	
1521	0	32812	32723	32791	32473	32647	32935	32626	32979	
1522	0	32735	32790	32715	32739	32820	32791	32670	32989	
1523	0	32756	32793	32703	32631	32791	32691	32687	32626	
1524	0	32808	32750	32695	32709	32869	32861	32655	32663	
1525	0	32758	32839	32659	32476	32791	32917	32617	32645	
1526	0	32745	32735	32643	32615	32566	32769	32655	32695	
1527	0	32760	32835	32614	32668	32727	32827	32767	32683	
1528	0	32775	32803	32692	32586	32871	32831	32823	32533	
1529	0	32758	32771	32621	32689	32822	32798	32829	32658	
1530	0	32724	32806	32687	32755	32805	32767	32786	32615	
1531	0	32723	32791	32823	32660	32747	32697	32859	32647	
1532	0	32687	32863	32771	32631	32767	32757	32673	32498	
1533	0	32703	32743	32815	32453	32753	32667	32591	32687	
1534	0	32740	32823	32775	32643	32799	32742	32631	32697	
1535	0	32769	32785	32790	32599	32796	32687	32785	32563	
1536	0	32756	32701	32757	32495	32671	32748	32727	32671	
1537	0	32796	32817	32683	32752	32684	32831	32839	32711	
1538	0	32748	32767	32559	32789	32847	32739	32743	32658	
1539	0	32748	32751	32645	32860	32735	32827	32759	32717	
1540	0	32756	32847	32663	32647	32782	32803	32775	32619	
1541	0	32817	32789	32637	32811	32797	32775	32827	32723	
1542	0	32793	32795	32628	32706	32828	32775	32766	32743	
1543	0	32775	32709	32674	32647	32647	32711	32732	32607	
1544	0	32782	32719	32815	32591	32691	32699	32847	32613	
1545	0	32753	32773	32707	32699	32775	32791	32895	32565	
1546	0	32723	32833	32677	32597	32775	32772	32833	32743	
1547	0	32765	32831	32723	32479	32731	32707	32783	32863	
1548	0	32814	32789	32801	32583	32903	32771	32871	32647	
1549	0	32748	32827	32745	32578	32843	32789	32751	32679	
1550	0	32775	32703	32795	32687	32675	32903	32684	32683	
1551	0	32799	32751	32751	32687	32663	32903	32683	32683	
1552	0	32802	32823	32647	32810	32726	32733	32702	32643	
1553	0	32795	32789	32635	32919	32783	32759	32689	32729	
1554	0	32797	32786	32628	32815	32806	32673	32551	32583	
1555	0	32775	32775	32565	32785	32759	32578	32617	32694	
1556	0	32757	32754	32668	32701	32823	32517	32599	32639	
1557	0	32786	32799	32775	32527	32827	32711	32635	32695	
1558	0	32817	32727	32719	32676	32838	32819	32819	32613	
1559	0	32741	32769	32773	32716	32718	32841	32787	32743	
1560	0	32772	32797	32708	32671	32808	32836	32821	32573	
1561	0	32759	32725	32799	32663	32751	32695	32773	32679	
1562	0	32722	32799	32743	32679	32633	32791	32766	32827	
1563	0	32765	32699	32807	32583	32593	32671	32731	32937	
1564	0	32775	32799	32831	32487	32679	32764	32655	32775	
1565	0	32767	32785	32647	32524	32711	32850	32646	32599	
1566	0	32711	32773	32639	32499	32751	32895	32609	32633	
1567	0	32690	32819	32593	32691	32775	32947	32805	32519	
1568	0	32684	32759	32567	32783	32879	32825	32887	32455	
1569	0	32740	32759	32647	32663	32859	32925	32711	32769	
1570	0	32783	32782	32677	32767	32773	32775	32771	32810	
1571	0	32723	32764	32559	32725	32727	32767	32827	32599	
1572	0	32721	32819	32659	32671	32839	32459	32775	32615	
1573	0	32764	32711	32743	32679	32835	32543	32725	32613	
1574	0	32741	32805	32735	32711	32751	32671	32646	32477	
1575	0	32746	32851	32807	32589	32647	32695	32535	32591	
1576	0	32813	32749	32741	32671	32621	32809	32759	32695	
1577	0	32712	32833	32703	32724	32818	32669	32817	32602	
1578	0	32745	32789	32743	32566	32863	32799	32775	32673	
1579	0	32742	32775	32554	32717	32723	32862	32775	32895	
1580	0	32705	32822	32707	32643	32826	32723	32767	32771	
1581	0	32747	32789	32799	32559	32753	32831	32783	32743	
1582	0	32775	32743	32835	32675	32669	32687	32735	32559	
1583	0	32827	32799	32835	32679	32647	32677	32807	32667	
1584	0	32821	32807	32719	32703	32746	32743	32863	32767	
1585	0	32786	32851	32739	32497	32708	32819	32799	32716	
1586	0	32716	32807	32589	32711	32698	32855	32735	32769	
1587	0	32775	32899	32575	32681	32783	32895	32743	32735	
1588	0	32775	32775	32599	32581	32713	32815	32753	32527	
1589	0	32788	32739	32679	32711	32759	32787	32647	32683	
1590	0	32791	32807	32621	32719	32899	32685	32679	32767	
1591	0	32762	32735	32625	32570	32831	32718	32742	32759	
1592	0	32763	32799	32551	32711	32811	32719	32837	32535	
1593	0	32735	32699	32719	32775	32817	32743	32727	32698	
1594	0	32815	32747	32823	32655	32638	32845	32627	32669	
1595	0	32767	32763	32771	32827	32631	32799	32575	32562	
1596	0	32647	32743	32711	32817	32706	32811	32743	32707	
1597	0	32742	32860	32927	32570	32775	32829	32775	32703	
1598	0	32715	32748	32899	32630	32848	32741	32847	32611	
1599	0	32834	32810	32663	32791	32884	32789	32786	32717	
1600	0	32784	32759	32647	32572	32869	32671	32822	32642	
1601	0	32769	32764	32671	32647	32828	32827	32615	32692	
1602	0	32738	32773	32695	32595	32811	32812	32799	32694	
1603	0	32698	32693	32655	32647	32775	32812	32825	32463	
1604	0	32710	32817	32612	32679	32773	32831	32887	32631	
1605	0	32786	32685	32602	32477	32679	32765	32692	32543	
1606	0	32766	32798	32630	32572	32863	32845	32629	32711	
1607	0	32749	32764	32668	32638	32743	32743	32839	32559	
1608	0	32783	32763	32699	32406	32706	32789	32807	32620	
1609	0	32782	32819	32692	32644	32759	32739	32885	32586	
1610	0	32745	32759	32693	32695	32766	32679	32879	32759	
1611	0	32730	32843	32767	32645	32813	32773	32775	32711	
1612	0	32751	32854	32723	32823	32818	32615	32615	32716	
1613	0	32764	32765	32683	32756	32813	32770	32583	32564	
1614	0	32740	32791	32669	32508	32783	32853	32769	32669	
1615	0	32775	32735	32681	32658	32755	32806	32790	32791	
1616	0	32775	32727	32699	32695	32708	32718	32812	32583	
1617	0	32785	32764	32798	32586	32711	32647	32925	32490	
1618	0	32823	32729	32727	32743	32579	32903	32711	32855	
1619	0	32780	32767	32731	32835	32605	32883	32553	32747	
1620	0	32730	32741	32740	32573	32565	32797	32684	32687	
1621	0	32734	32791	32721	32727	32617	32787	32701	32661	
1622	0	32740	32805	32691	32723	32787	32670	32755	32567	
1623	0	32738	32791	32677	32788	32846	32743	32805	32703	
1624	0	32739	32851	32709	32808	32861	32781	32899	32723	
1625	0	32746	32869	32657	32655	32851	32690	32783	32559	
1626	0	32774	32751	32797	32621	32759	32775	32773	32603	
1627	0	32781	32767	32775	32429	32763	32845	32620	32543	
1628	0	32750	32821	32731	32614	32795	32751	32588	32751	
1629	0	32790	32717	32751	32621	32822	32767	32692	32827	
1630	0	32791	32689	32647	32647	32681	32823	32717	32667	
1631	0	32807	32775	32615	32621	32731	32811	32855	32615	
1632	0	32725	32762	32691	32666	32759	32807	32845	32745	
1633	0	32751	32823	32645	32551	32795	32749	32903	32511	
1634	0	32808	32804	32639	32889	32771	32813	32699	32679	
1635	0	32727	32719	32647	32850	32803	32785	32668	32686	
1636	0	32756	32775	32647	32791	32799	32820	32799	32891	
1637	0	32760	32727	32573	32805	32759	32809	32795	32679	
1638	0	32839	32799	32615	32599	32769	32771	32794	32679	
1639	0	32825	32718	32647	32609	32791	32759	32630	32509	
1640	0	32739	32797	32661	32503	32819	32788	32804	32647	
1641	0	32815	32747	32647	32789	32827	32859	32797	32541	
1642	0	32775	32813	32548	32767	32756	32743	32763	32799	
1643	0	32764	32809	32719	32647	32797	32717	32791	32764	
1644	0	32773	32786	32875	32775	32802	32819	32886	32675	
1645	0	32791	32782	32749	32669	32641	32687	32839	32775	
1646	0	32731	32885	32773	32607	32723	32821	32743	32603	
1647	0	32802	32755	32799	32629	32791	32815	32743	32553	
1648	0	32782	32762	32759	32678	32811	32708	32789	32682	
1649	0	32736	32831	32794	32775	32723	32789	32762	32671	
1650	0	32734	32807	32693	32617	32679	32758	32723	32676	
1651	0	32807	32805	32673	32711	32815	32837	32766	32647	
1652	0	32786	32813	32658	32710	32810	32823	32835	32823	
1653	0	32797	32726	32647	32543	32835	32679	32647	32743	
1654	0	32717	32799	32662	32686	32811	32745	32597	32775	
1655	0	32699	32743	32672	32703	32810	32722	32751	32694	
1656	0	32761	32719	32721	32533	32775	32788	32749	32615	
1657	0	32738	32801	32723	32647	32797	32793	32871	32665	
1658	0	32704	32722	32695	32621	32599	32693	32859	32575	
1659	0	32732	32713	32679	32461	32643	32722	32711	32682	
1660	0	32746	32708	32693	32695	32747	32709	32643	32735	
1661	0	32783	32701	32773	32758	32833	32835	32618	32627	
1662	0	32710	32747	32699	32530	32818	32871	32775	32661	
1663	0	32724	32655	32695	32722	32711	32799	32791	32681	
1664	0	32711	32727	32644	32623	32765	32788	32775	32763	
1665	0	32786	32783	32642	32713	32806	32839	32767	32806	
1666	0	32711	32759	32619	32527	32819	32821	32807	32743	
1667	0	32723	32739	32623	32565	32804	32727	32789	32646	
1668	0	32764	32767	32703	32454	32613	32719	32631	32802	
1669	0	32817	32750	32771	32695	32643	32853	32825	32583	
1670	0	32767	32855	32695	32788	32647	32723	32766	32627	
1671	0	32725	32771	32746	32639	32662	32772	32807	32669	
1672	0	32769	32871	32803	32742	32819	32666	32830	32507	
1673	0	32707	32786	32811	32722	32841	32747	32669	32723	
1674	0	32669	32823	32771	32833	32903	32694	32615	32757	
1675	0	32725	32807	32743	32735	32823	32729	32796	32575	
1676	0	32743	32788	32798	32594	32729	32662	32919	32548	
1677	0	32820	32737	32647	32468	32658	32799	32783	32461	
1678	0	32727	32796	32743	32397	32681	32899	32615	32793	
1679	0	32788	32717	32628	32575	32626	32876	32819	32687	
1680	0	32806	32769	32756	32687	32727	32789	32738	32537	
1681	0	32760	32839	32615	32727	32681	32767	32583	32503	
1682	0	32761	32827	32711	32759	32743	32786	32807	32807	
1683	0	32729	32739	32615	32812	32643	32591	32771	32647	
1684	0	32789	32757	32791	32783	32695	32463	32735	32763	
1685	0	32871	32743	32753	32723	32583	32500	32606	32503	
1686	0	32807	32749	32765	32494	32830	32583	32849	32796	
1687	0	32767	32771	32695	32494	32641	32663	32847	32693	
1688	0	32819	32759	32727	32519	32739	32771	32775	32601	
1689	0	32765	32809	32791	32562	32731	32759	32727	32791	
1690	0	32772	32879	32729	32619	32711	32797	32553	32765	
1691	0	32724	32789	32704	32739	32647	32875	32756	32821	
1692	0	32726	32766	32714	32623	32847	32916	32743	32683	
1693	0	32764	32759	32759	32642	32804	32916	32850	32711	
1694	0	32791	32735	32699	32657	32807	32914	32805	32637	
1695	0	32732	32773	32633	32604	32759	32839	32610	32687	
1696	0	32762	32759	32828	32733	32807	32863	32565	32517	
1697	0	32706	32815	32722	32691	32807	32871	32759	32611	
1698	0	32804	32711	32668	32666	32804	32788	32838	32605	
1699	0	32767	32830	32671	32687	32845	32821	32831	32569	
1700	0	32775	32739	32707	32523	32841	32789	32803	32717	
1701	0	32743	32823	32733	32669	32839	32815	32634	32681	
1702	0	32788	32730	32756	32717	32658	32742	32647	32814	
1703	0	32756	32807	32775	32523	32655	32787	32676	32749	
1704	0	32806	32818	32804	32705	32865	32735	32623	32711	
1705	0	32804	32739	32703	32615	32732	32693	32597	32639	
1706	0	32808	32775	32754	32419	32731	32803	32757	32607	
1707	0	32779	32734	32711	32733	32815	32735	32675	32726	
1708	0	32729	32737	32817	32775	32861	32791	32822	32762	
1709	0	32710	32791	32811	32614	32791	32763	32818	32534	
1710	0	32806	32775	32751	32843	32677	32718	32863	32665	
1711	0	32797	32839	32698	32823	32700	32805	32831	32683	
1712	0	32767	32759	32694	32681	32691	32718	32615	32599	
1713	0	32742	32885	32739	32766	32761	32850	32756	32462	
1714	0	32751	32775	32694	32531	32709	32679	32807	32626	
1715	0	32833	32797	32713	32757	32701	32823	32871	32727	
1716	0	32783	32743	32659	32775	32673	32731	32723	32645	
1717	0	32775	32757	32631	32775	32647	32819	32637	32677	
1718	0	32708	32742	32662	32637	32775	32808	32804	32751	
1719	0	32711	32879	32615	32668	32775	32828	32847	32783	
1720	0	32736	32751	32551	32619	32787	32806	32705	32671	
1721	0	32748	32879	32519	32634	32847	32811	32717	32681	
1722	0	32762	32855	32599	32789	32796	32883	32709	32749	
1723	0	32734	32847	32587	32535	32796	32847	32738	32844	
1724	0	32788	32845	32715	32505	32772	32889	32775	32621	
1725	0	32783	32821	32647	32607	32677	32935	32511	32927	
1726	0	32700	32839	32751	32675	32621	33115	32695	32895	
1727	0	32708	32775	32799	32763	32643	32937	32671	32841	
1728	0	32711	32740	32857	32717	32807	32844	32691	32829	
1729	0	32657	32741	32711	32641	32833	32807	32647	32715	
1730	0	32743	32813	32783	32637	32813	32827	32786	32327	
1731	0	32717	32756	32797	32626	32711	32935	32679	32536	
1732	0	32622	32775	32852	32687	32871	32627	32503	32631	
1733	0	32676	32739	32767	32615	32671	32604	32595	32799	
1734	0	32681	32715	32621	32447	32722	32519	32703	32802	
1735	0	32681	32711	32725	32455	32731	32363	32575	32637	
1736	0	32598	32721	32711	32525	32773	32531	32437	32634	
1737	0	32623	32789	32929	32554	32687	32645	32519	32603	
1738	0	32615	32662	32851	32539	32613	32735	32621	32615	
1739	0	32584	32654	32953	32469	32497	32796	32527	32563	
1740	0	32636	32647	32948	32487	32535	32775	32329	32775	
1741	0	32573	32647	32898	32455	32647	32771	32546	32630	
1742	0	32603	32724	32938	32443	32581	32769	32466	32677	
1743	0	32657	32647	32783	32338	32541	32803	32403	32553	
1744	0	32656	32635	32831	32347	32647	32781	32503	32655	
1745	0	32691	32599	32780	32305	32562	32731	32711	32557	
1746	0	32705	32567	32807	32511	32687	32666	32668	32614	
1747	0	32692	32614	32719	32463	32743	32705	32646	32557	
1748	0	32809	32621	32775	32476	32797	32525	32839	32423	
1749	0	32836	32621	32703	32558	32807	32597	32833	32503	
1750	0	32735	32609	32711	32583	32871	32743	32799	32555	
1751	0	32736	32717	32739	32502	32862	32751	32799	32577	
1752	0	32764	32731	32673	32617	32791	32915	32879	32643	
1753	0	32823	32675	32759	32771	32911	32859	32947	32620	
1754	0	32740	32821	32581	32869	32921	32764	32867	32591	
1755	0	32830	32903	32711	32850	32916	32807	32986	32722	
1756	0	32962	32950	32690	32789	32927	32887	33037	32733	
1757	0	33001	32903	32687	32711	32983	32951	32971	32609	
1758	0	32982	32887	32685	32847	32929	32943	33159	32708	
1759	0	32972	32943	32419	32947	33039	32611	33151	32804	
1760	0	33026	32965	32470	32975	33191	32386	33193	32639	
1761	0	33113	32899	32495	33031	33129	32383	32983	32763	
1762	0	33127	32887	32446	33077	33123	32461	33335	32805	
1763	0	33176	32799	32421	32989	33036	32615	33431	32482	
1764	0	33248	32836	32295	33015	33150	32593	33537	32239	
1765	0	33167	32844	32343	32965	33063	32673	33351	32215	
1766	0	33197	32911	32380	33019	33139	32766	33470	32415	
1767	0	33176	32863	32447	33013	32939	32842	33189	32532	
1768	0	33199	32821	32399	33011	33039	32815	32974	32599	
1769	0	33071	32813	32421	32962	32961	32797	33387	32495	
1770	0	33036	32767	32531	32986	33111	32725	33268	32610	
1771	0	32985	32890	32407	33036	32967	32791	33221	32515	
1772	0	32880	32770	32671	33027	32951	32831	32982	32731	
1773	0	32757	32812	32668	32759	32843	32763	33059	32537	
1774	0	32660	32775	32689	32461	32759	32724	32727	32813	
1775	0	32584	32804	32722	32439	32647	32855	32607	32691	
1776	0	32647	32775	32727	32490	32667	32869	32625	32751	
1777	0	32583	32806	32773	32525	32549	32881	32509	32657	
1778	0	32548	32767	32734	32492	32551	32827	32455	32732	
1779	0	32524	32725	32822	32507	32559	32863	32365	32925	
1780	0	32531	32800	32807	32413	32487	32815	32235	32815	
1781	0	32423	32791	33183	32263	32567	32871	32364	32742	
1782	0	32441	32759	33099	32334	32421	32867	32145	32774	
1783	0	32431	32795	32943	32351	32423	32865	32407	32567	
1784	0	32428	32775	32903	32363	32333	32841	32311	32759	
1785	0	32420	32843	32805	32461	32459	32839	32135	32741	
1786	0	32465	32822	32814	32463	32375	32877	32383	32843	
1787	0	32539	32843	32687	32615	32531	32855	32320	32620	
1788	0	32559	32815	32775	32723	32455	32863	32295	32859	
1789	0	32590	32797	32837	32511	32421	32949	32347	33007	
1790	0	32564	32925	32845	32597	32491	32770	32278	32963	
1791	0	32584	32895	32735	32747	32519	32679	32447	32667	
1792	0	32569	32897	32711	32793	32484	32775	32519	32851	
1793	0	32583	32805	32785	32707	32543	32903	32391	32931	
1794	0	32725	32751	32751	32599	32605	32847	32642	32758	
1795	0	32759	32790	32871	32669	32662	32853	32658	32973	
1796	0	32759	32749	32695	32615	32711	32852	32717	32839	
1797	0	32724	32791	32695	32639	32766	32793	32719	32853	
1798	0	32818	32797	32607	32499	32647	32807	32775	32691	
1799	0	32822	32767	32623	32535	32749	32741	32871	32839	
1800	0	32781	32791	32668	32599	32679	32679	32903	32753	
1801	0	32815	32717	32642	32646	32795	32691	32877	32711	
1802	0	32831	32699	32571	32795	32773	32711	32862	32582	
1803	0	32836	32591	32707	32695	32839	32773	32979	32489	
1804	0	32786	32685	32739	32528	32839	32855	32971	32535	
1805	0	32773	32811	32519	32775	32836	32663	32947	32487	
1806	0	32688	32702	32614	32879	32787	32742	32979	32419	
1807	0	32772	32815	32831	32700	32751	32826	32895	32461	
1808	0	32865	32827	32831	32775	32707	32807	32839	32285	
1809	0	32823	32700	32741	32773	32701	32669	32751	32375	
1810	0	32844	32775	32665	32838	32722	32681	32703	32191	
1811	0	32799	32734	32700	32822	32755	32679	32621	32532	
1812	0	32836	32709	32823	32647	32919	32635	32655	32647	
1813	0	32841	32775	32695	32725	32810	32845	32847	32775	
1814	0	32796	32727	32759	32647	32679	32891	32735	32967	
1815	0	32791	32789	32731	32458	32830	32820	32722	33038	
1816	0	32828	32829	32709	32524	32847	32714	32822	32948	
1817	0	32807	32751	32735	32549	32903	32647	32902	32801	
1818	0	32823	32727	32601	32527	32895	32623	32655	32775	
1819	0	32838	32711	32629	32455	32875	32661	32865	32935	
1820	0	32812	32716	32601	32543	32716	32743	32766	32711	
1821	0	32732	32879	32702	32633	32809	32799	32643	32727	
1822	0	32612	32871	32531	32678	32566	32765	32862	32711	
1823	0	32684	32839	32662	32897	32692	32671	32747	32599	
1824	0	32784	32831	32607	32578	32667	32709	32565	32707	
1825	0	32737	32819	32724	32594	32709	32743	32799	32823	
1826	0	32742	32771	32694	32614	32679	32807	32763	32566	
1827	0	32711	32729	32855	32706	32791	32838	32681	32731	
1828	0	32671	32727	32919	32855	32747	32806	32858	32507	
1829	0	32644	32711	32805	32871	32814	32786	32863	32607	
1830	0	32820	32701	32511	32932	32687	32773	32797	32565	
1831	0	32881	32743	32423	32887	32749	32775	32647	32783	
1832	0	32807	32783	32534	32822	32679	32687	32791	32670	
1833	0	32738	32871	32747	32677	32747	32709	32859	32571	
1834	0	32705	32895	33270	32595	32775	32662	32839	32531	
1835	0	32788	32783	33243	32623	32877	32703	32866	32670	
1836	0	32828	32805	32889	32499	32758	32702	32825	32623	
1837	0	32811	32639	32707	32263	32695	32700	32734	32503	
1838	0	32864	32724	32615	32419	32749	32796	32615	32666	
1839	0	32796	32765	32669	32343	32718	32795	32711	32669	
1840	0	32719	32783	32631	32429	32676	32773	32770	32707	
1841	0	32703	32711	32588	32485	32658	32855	32821	32707	
1842	0	32813	32843	32684	32491	32643	32879	32775	32703	
1843	0	32791	32815	32731	32613	32711	32903	32620	32847	
1844	0	32769	32812	32743	32583	32811	32903	32532	32756	
1845	0	32762	32766	32767	32862	32891	32758	32749	32358	
1846	0	32715	32655	32743	33027	32914	32775	32887	32507	
1847	0	32743	32813	32756	32929	32914	32617	32855	32575	
1848	0	32771	32695	32786	32997	32753	32751	32903	32599	
1849	0	32700	32767	32614	32870	32735	32725	32791	32613	
1850	0	32765	32695	32582	32851	32877	32791	32703	32757	
1851	0	32804	32715	32573	32826	32843	32831	32671	32789	
1852	0	32831	32835	32502	32765	32811	32775	32647	32571	
1853	0	32783	32805	32559	32551	32773	32839	32519	32698	
1854	0	32690	32823	32599	32593	32785	32799	32730	32647	
1855	0	32758	32855	32675	32595	32775	32850	32791	32582	
1856	0	32765	32770	32789	32703	32823	32798	32831	32669	
1857	0	32752	32851	32791	32641	32647	32807	32769	32706	
1858	0	32769	32811	32807	32415	32605	32841	32862	32715	
1859	0	32879	32854	32803	32591	32673	32759	32891	32775	
1860	0	32754	32799	32671	32727	32775	32775	32743	32725	
1861	0	32709	32829	32718	32535	32751	32811	32668	32499	
1862	0	32661	32876	32743	32703	32723	32725	32679	32655	
1863	0	32692	32775	32852	32767	32732	32775	32580	32671	
1864	0	32719	32790	32850	32527	32735	32719	32767	32755	
1865	0	32783	32703	32853	32671	32774	32797	32770	32566	
1866	0	32856	32765	32775	32615	32763	32935	32819	32690	
1867	0	32785	32742	32684	32631	32797	32982	32870	32693	
1868	0	32718	32791	32677	32711	32743	32871	32665	32695	
1869	0	32729	32689	32625	32551	32701	32830	32657	32601	
1870	0	32794	32791	32708	32517	32794	32836	32719	32671	
1871	0	32759	32719	32694	32479	32819	32679	32767	32687	
1872	0	32775	32861	32597	32661	32791	32727	32807	32807	
1873	0	32782	32679	32725	32645	32859	32702	32823	32671	
1874	0	32784	32783	32759	32477	32762	32839	32815	32729	
1875	0	32750	32719	32743	32595	32759	32727	32775	32559	
1876	0	32743	32775	32647	32581	32727	32890	32647	32690	
1877	0	32721	32757	32799	32771	32722	32815	32647	32647	
1878	0	32634	32826	32834	32807	32798	32788	32756	32525	
1879	0	32695	32747	32686	32855	32751	32756	32713	32669	
1880	0	32668	32855	32641	32775	32771	32827	32775	32787	
1881	0	32683	32775	32751	32662	32711	32799	32726	32687	
1882	0	32818	32850	32835	32769	32671	32717	32747	32758	
1883	0	32806	32773	32631	32811	32714	32633	32661	32935	
1884	0	32701	32863	32726	32660	32884	32314	32775	32701	
1885	0	32679	32780	32726	32717	32787	32548	32758	32614	
1886	0	32756	32823	32950	32594	32835	32586	32690	32647	
1887	0	32934	32849	32975	32540	32925	32705	32684	32391	
1888	0	32903	32771	32795	32647	32852	32893	32669	32493	
1889	0	32843	32687	32738	32527	32846	32727	32844	32759	
1890	0	32775	32679	32713	32811	32863	32655	32829	32635	
1891	0	32769	32771	32735	32839	32799	32547	32867	32796	
1892	0	32758	32831	32719	32814	32824	32569	32738	32729	
1893	0	32767	32919	32695	32699	32799	32677	32679	32725	
1894	0	32748	32801	32647	32518	32709	32871	32575	32861	
1895	0	32807	32773	32646	32647	32715	32871	32852	32903	
1896	0	32830	32786	32833	32639	32822	32837	32627	32769	
1897	0	32833	32761	32623	32588	32855	32685	32903	32563	
1898	0	32780	32733	32625	32475	32732	33111	32890	32577	
1899	0	32738	32793	32479	32519	32739	33359	32537	32327	
1900	0	32764	32791	32450	32379	32706	32903	32692	32431	
1901	0	32751	32663	32378	32477	32643	32893	32821	32795	
1902	0	32722	32647	32599	32463	32758	32799	32845	32729	
1903	0	32752	32645	32662	32731	32775	32799	32599	32491	
1904	0	32676	32695	32698	32983	32753	32839	32895	32533	
1905	0	32686	32745	32421	33065	32661	32763	32847	32677	
1906	0	32700	32775	32531	33207	32861	32621	32758	32567	
1907	0	32739	32899	32797	33055	32775	32823	32859	32391	
1908	0	32843	32903	33051	32685	32754	32749	32679	32387	
1909	0	32767	32839	33060	32583	32719	32769	32575	32655	
1910	0	32716	32755	32871	32559	32659	32762	32747	32773	
1911	0	32721	32795	32726	32452	32997	32575	32725	32775	
1912	0	32733	32807	32706	32637	32799	32611	32875	32749	
1913	0	32782	32834	32647	32510	32775	32687	32951	32647	
1914	0	32796	32723	32763	32575	32791	32763	32811	32645	
1915	0	32792	32869	32951	32613	32883	32701	32583	32701	
1916	0	32775	32839	32773	32735	32647	32589	32561	32823	
1917	0	32798	32823	32756	32610	32871	32613	32611	32708	
1918	0	32771	32775	32739	32647	32807	32655	32775	32667	
1919	0	32751	32743	32539	32540	32822	32742	32804	32613	
1920	0	32767	32775	32540	32575	32811	32963	32843	32695	
1921	0	32756	32702	32573	32541	32823	32819	32823	32639	
1922	0	32785	32786	32695	32711	32870	32892	32756	32621	
1923	0	32769	32842	32725	32597	32628	32919	32740	32775	
1924	0	32741	32759	32735	32573	32647	32839	32818	32786	
1925	0	32724	32819	32663	32571	32655	32919	32660	32681	
1926	0	32684	32751	32581	32491	32515	32822	32494	32791	
1927	0	32680	32775	32557	32647	32631	32887	32802	32941	
1928	0	32801	32819	33023	32647	32671	32855	32831	32900	
1929	0	32858	32786	32935	32607	32794	32811	32692	32663	
1930	0	32861	32775	32757	32697	32773	32791	32869	32751	
1931	0	32815	32775	32711	32772	32767	32745	32818	32583	
1932	0	32732	32759	32679	32519	32771	32749	32767	32603	
1933	0	32762	32659	32579	32435	32873	32709	32631	32599	
1934	0	32756	32699	32627	32423	32807	32711	32775	32571	
1935	0	32813	32731	32634	32655	32845	32639	32675	32723	
1936	0	32767	32846	32693	32845	32795	32474	32561	32719	
1937	0	32695	32809	32595	32811	32771	32495	32698	32647	
1938	0	32779	32775	32773	32847	32717	32757	32807	32519	
1939	0	32820	32763	32623	32877	32725	32727	32802	32668	
1940	0	32764	32711	32716	32863	32759	32766	32662	32635	
1941	0	32742	32647	32555	32805	32645	32770	32877	32515	
1942	0	32703	32723	32775	32886	32717	32829	32835	32642	
1943	0	32731	32838	32813	32804	32711	32783	32837	32500	
1944	0	32733	32821	32823	32599	32655	32955	32679	32610	
1945	0	32711	32871	32697	32620	32671	32839	32591	32647	
1946	0	32750	32743	32667	32535	32705	32799	32721	32583	
1947	0	32859	32805	32815	32661	32822	32718	32805	32539	
1948	0	32893	32729	32899	32599	32815	32822	32805	32693	
1949	0	32834	32825	32703	32525	32807	32791	32903	32644	
1950	0	32829	32828	32674	32663	32775	32715	32829	32621	
1951	0	32797	32811	32700	32703	32803	32751	32599	32554	
1952	0	32812	32695	32663	32765	32775	32833	32795	32830	
1953	0	32780	32763	32630	32775	32805	32843	32786	32742	
1954	0	32758	32675	32655	32549	32689	32877	32714	32837	
1955	0	32751	32769	32647	32709	32647	32903	32828	32618	
1956	0	32754	32771	32629	32695	32718	32732	32871	32647	
1957	0	32697	32806	32723	32467	32812	32769	32827	32711	
1958	0	32722	32831	32692	32468	32775	32741	32783	32647	
1959	0	32735	32747	32687	32511	32767	32719	32679	32629	
1960	0	32762	32804	32716	32571	32861	32749	32715	32607	
1961	0	32729	32821	32669	32359	32855	32775	32687	32771	
1962	0	32794	32763	32594	32579	32679	32775	32574	32751	
1963	0	32756	32709	32634	32561	32687	32810	32585	32567	
1964	0	32706	32719	32583	32575	32679	32671	32806	32607	
1965	0	32638	32845	32623	32900	32630	32679	32813	32683	
1966	0	32719	32743	32665	32967	32557	32732	32799	32791	
1967	0	32746	32791	32711	32845	32723	32823	32803	32725	
1968	0	32768	32734	32625	32855	32813	32775	32839	32765	
1969	0	32749	32787	32690	32772	32773	32691	32823	32667	
1970	0	32751	32775	32743	32599	32749	32821	32717	32799	
1971	0	32820	32726	32663	32683	32727	32743	32640	32551	
1972	0	32813	32815	32647	32730	32833	32799	32671	32731	
1973	0	32758	32775	32647	32621	32775	32786	32739	32702	
1974	0	32780	32803	32767	32747	32853	32756	32767	32539	
1975	0	32717	32807	32733	32695	32837	32806	32775	32614	
1976	0	32723	32807	32727	32451	32675	32601	32805	32605	
1977	0	32796	32858	32679	32763	32639	32813	32755	32809	
1978	0	32807	32802	32703	32726	32685	32807	32899	32639	
1979	0	32698	32775	32639	32602	32803	32617	32815	32638	
1980	0	32737	32775	32591	32563	32735	32707	32836	32615	
1981	0	32698	32679	32685	32727	32799	32796	32855	32647	
1982	0	32753	32755	32679	32755	32841	32743	32803	32683	
1983	0	32784	32759	32703	32562	32795	32775	32756	32615	
1984	0	32762	32733	32838	32671	32679	32833	32715	32581	
1985	0	32773	32819	32757	32529	32690	32775	32548	32631	
1986	0	32775	32686	32527	32423	32623	32747	32698	32674	
1987	0	32722	32751	32630	32604	32759	32783	32804	32572	
1988	0	32724	32787	32799	32669	32829	32711	32799	32644	
1989	0	32850	32759	32887	32565	32807	32841	32818	32607	
1990	0	32860	32791	32807	32663	32843	32825	32835	32731	
1991	0	32764	32799	32867	32757	32804	32852	32831	32783	
1992	0	32768	32850	32892	32775	32804	32774	32853	32644	
1993	0	32720	32855	32737	32599	32815	32815	32764	32893	
1994	0	32734	32757	32687	32647	32818	32699	32583	32579	
1995	0	32748	32757	32701	32589	32804	32843	32583	32839	
1996	0	32752	32745	32717	32759	32613	32671	32730	32804	
1997	0	32743	32839	32710	32659	32583	32791	32726	32749	
1998	0	32751	32743	32759	32623	32605	32830	32767	32733	
1999	0	32761	32797	32726	32621	32843	32628	32773	32671	
2000	0	32757	32818	32731	32775	32860	32681	32699	32458	
2001	0	32738	32791	32775	32735	32709	32773	32794	32687	
2002	0	32773	32736	32669	32522	32833	32724	32823	32758	
2003	0	32807	32788	32623	32727	32801	32735	32851	32594	
2004	0	32799	32822	32743	32551	32647	32662	32628	32623	
2005	0	32792	32775	32775	32703	32687	32663	32914	32525	
2006	0	32805	32831	32751	32483	32810	32751	32851	32659	
2007	0	32847	32738	32677	32698	32815	32826	32738	32646	
2008	0	32786	32847	32683	32719	32850	32735	32623	32677	
2009	0	32759	32822	32676	32809	32790	32854	32735	32515	
2010	0	32785	32855	32723	32821	32751	32812	32711	32695	
2011	0	32808	32763	32695	32551	32823	32799	32743	32643	
2012	0	32821	32858	32684	32751	32775	32799	32787	32644	
2013	0	32724	32853	32685	32661	32743	32813	32861	32676	
2014	0	32666	32822	32748	32524	32738	32809	32786	32637	
2015	0	32713	32703	32733	32631	32775	32791	32639	32689	
2016	0	32742	32773	32757	32564	32823	32903	32647	32569	
2017	0	32734	32827	32703	32719	32836	32709	32813	32701	
2018	0	32742	32769	32638	32663	32865	32775	32807	32711	
2019	0	32740	32895	32689	32694	32655	32812	32775	32579	
2020	0	32737	32775	32790	32551	32679	32811	32791	32647	
2021	0	32764	32735	32711	32749	32740	32935	32789	32743	
2022	0	32773	32718	32693	32715	32557	33067	32796	32661	
2023	0	32775	32659	32727	32495	32635	32827	32791	32751	
2024	0	32708	32775	32786	32615	32679	32879	32775	32836	
2025	0	32714	32726	32759	32667	32775	32884	32783	32711	
2026	0	32720	32724	32679	32499	32854	32839	32783	32813	
2027	0	32684	32775	32644	32699	32761	32695	32763	32769	
2028	0	32793	32815	32692	32615	32927	32685	32765	32671	
2029	0	32775	32819	32610	32631	32902	32599	32631	32551	
2030	0	32820	32811	32711	32791	32897	32451	32699	32626	
2031	0	32800	32791	32691	32847	32893	32311	32862	32642	
2032	0	32767	32876	32615	32978	32863	32519	32855	32509	
2033	0	32720	32775	32541	32875	32839	32615	32851	32674	
2034	0	32762	32758	32495	32667	32807	32722	32839	32645	
2035	0	32753	32683	32702	32877	32775	32775	32606	32735	
2036	0	32817	32735	32834	32775	32803	32679	32749	32763	
2037	0	32769	32751	32655	32605	32831	32711	32823	32607	
2038	0	32766	32757	32711	32494	32745	32775	32844	32631	
2039	0	32780	32802	32626	32503	32743	32938	32599	32578	
2040	0	32756	32799	32581	32482	32718	33045	32753	32529	
2041	0	32788	32815	32663	32551	32571	32964	32962	32479	
2042	0	32766	32715	32543	32719	32807	32853	32839	32533	
2043	0	32742	32699	32655	32703	32631	32786	32645	32578	
2044	0	32702	32721	32575	32735	32751	32748	32679	32620	
2045	0	32727	32739	32903	32790	32700	32711	32763	32869	
2046	0	32866	32775	32682	32933	32769	32767	32733	32791	
2047	0	32839	32799	32799	32827	32775	32853	32586	32877	
2048	0	32835	32825	32775	32631	32775	32679	32804	32687	
2049	0	32775	32815	32875	32668	32767	32711	32803	32743	
2050	0	32753	32757	32663	32751	32781	32757	32701	32695	
2051	0	32801	32708	32731	32731	32639	32891	32839	32703	
2052	0	32852	32868	32789	32647	32754	32807	32709	32872	
2053	0	32836	32854	32727	32702	32790	33055	32673	32661	
2054	0	32808	32798	32781	32707	32773	32961	32611	32559	
2055	0	32832	32775	32799	32679	32773	32783	32634	32743	
2056	0	32764	32734	32813	32708	32765	32807	32773	32590	
2057	0	32719	32807	32773	32543	32783	32725	32836	32706	
2058	0	32725	32733	32647	32690	32871	32743	32850	32695	
2059	0	32698	32775	32605	32615	32853	32663	32838	32511	
2060	0	32723	32729	32603	32431	32839	32775	32891	32727	
2061	0	32703	32807	32595	32623	32863	32647	32679	32629	
2062	0	32769	32725	32647	32583	32714	32772	32611	32694	
2063	0	32748	32743	32647	32612	32631	32759	32743	32566	
2064	0	32767	32693	32615	32612	32647	32833	32793	32723	
2065	0	32660	32797	32629	32534	32727	32749	32817	32676	
2066	0	32709	32775	32668	32551	32695	32787	32891	32743	
2067	0	32738	32749	32573	32411	32741	32703	32723	32500	
2068	0	32704	32671	32617	32635	32813	32804	32621	32577	
2069	0	32695	32702	32659	32623	32726	32787	32807	32721	
2070	0	32738	32789	32775	32623	32687	32623	32775	32647	
2071	0	32769	32735	32661	32667	32705	32687	32641	32647	
2072	0	32772	32839	32763	32561	32775	32647	32615	32743	
2073	0	32732	32799	32761	32530	32839	32647	32595	32575	
2074	0	32738	32813	32721	32719	32710	32690	32759	32545	
2075	0	32796	32773	32738	32807	32593	32598	32783	32603	
2076	0	32801	32721	32611	32583	32659	32762	32722	32607	
2077	0	32765	32861	32661	32775	32837	32855	32727	32756	
2078	0	32727	32759	32676	32711	32748	32854	32762	32615	
2079	0	32671	32769	32860	32731	32773	32887	32743	32733	
2080	0	32718	32767	32775	32933	32815	32715	32759	32743	
2081	0	32662	32789	32699	32807	32811	32823	32727	32543	
2082	0	32714	32795	32623	32721	32663	32830	32756	32655	
2083	0	32804	32754	32519	32727	32567	32783	32799	32806	
2084	0	32695	32891	32579	32759	32813	32726	32919	32578	
2085	0	32859	32828	32743	32561	32859	32607	32903	32639	
2086	0	32850	32759	32954	32841	32727	32759	32819	32692	
2087	0	32866	32682	33017	32679	32823	32724	32769	32689	
2088	0	32884	32691	32870	32701	32788	32775	32775	32634	
2089	0	32839	32707	32583	32547	32644	32844	32839	32717	
2090	0	32813	32731	32519	32686	32685	32991	32891	32525	
2091	0	32700	32763	32411	32685	32699	32862	32879	32685	
2092	0	32638	32855	32343	32511	32609	32975	32666	32670	
2093	0	32786	32871	32773	32559	32711	32799	32588	32679	
2094	0	32743	32813	33007	32515	32775	32941	32551	32621	
2095	0	32754	32887	33063	32413	32879	32645	32623	32559	
2096	0	32839	32749	32982	32535	32775	32670	32587	32589	
2097	0	32840	32790	32903	32667	32807	32359	32641	32583	
2098	0	32816	32709	32825	32639	33079	32297	32684	32505	
2099	0	32798	32719	32631	32621	32914	32659	32729	32383	
2100	0	32847	32662	32550	32788	32775	32917	32596	32407	
2101	0	32766	32819	32607	32811	32647	32812	32565	32839	
2102	0	32679	32757	32631	32646	32749	32667	32537	32871	
2103	0	32681	32847	32677	32731	32751	32583	32532	33015	
2104	0	32697	32863	32627	32738	32681	32509	32733	32895	
2105	0	32742	32839	32675	32543	32795	32583	32805	32775	
2106	0	32719	32837	32643	32730	32745	32932	32851	32810	
2107	0	32754	32815	32547	32615	32635	32839	32839	32772	
2108	0	32665	32789	32655	32463	32695	32606	32791	32617	
2109	0	32712	32821	32733	32663	32716	32939	32815	32550	
2110	0	32701	32751	32646	32731	32689	33234	32871	32530	
2111	0	32814	32765	32683	32455	32818	33068	32869	32481	
2112	0	32866	32782	32647	32707	32734	32825	32775	32711	
2113	0	32753	32754	32775	32695	32803	32678	32757	32831	
2114	0	32805	32817	32831	32562	32805	32807	32799	32699	
2115	0	32760	32775	32716	32647	32663	32815	32775	32799	
2116	0	32810	32823	32613	32559	32617	32860	32815	32727	
2117	0	32775	32749	32637	32471	32775	32868	32700	32831	
2118	0	32703	32727	32566	32625	32729	32827	32599	32703	
2119	0	32647	32727	32711	32669	32839	32677	32613	32695	
2120	0	32743	32799	32845	32891	32855	32715	32703	32501	
2121	0	32722	32791	32807	32804	32755	32767	32647	32647	
2122	0	32797	32758	32615	32734	32681	32775	32628	32743	
2123	0	32791	32834	32530	32939	32799	32735	32951	32629	
2124	0	32819	32839	32573	32809	32775	32663	32939	32583	
2125	0	32836	32803	32663	32663	32727	32839	32783	32463	
2126	0	32807	32818	32722	32815	32830	32719	32553	32599	
2127	0	32793	32755	32647	32701	32871	32699	32535	32674	
2128	0	32724	32671	32588	32603	32859	32667	32749	32319	
2129	0	32762	32683	32703	32527	32691	32835	32775	32501	
2130	0	32850	32751	32943	32599	32681	33021	32851	32755	
2131	0	32872	32663	33013	32591	32739	32899	32775	32719	
2132	0	32786	32749	32823	32759	32717	33085	32783	32702	
2133	0	32820	32885	32658	32596	32679	32997	32875	32926	
2134	0	32756	32867	32555	32249	32741	32759	32877	32996	
2135	0	32615	32899	32343	32463	32708	32735	32726	33159	
2136	0	32619	32715	32599	32489	32790	32713	32731	32677	
2137	0	32714	32719	32583	32279	32755	32727	32692	32439	
2138	0	32760	32773	32715	32527	32755	32663	32594	32767	
2139	0	32749	32671	32679	32834	32836	32599	32711	32845	
2140	0	32809	32742	32687	32966	32793	32595	32751	32825	
2141	0	32789	32677	32797	33067	32807	32691	32762	32519	
2142	0	32617	32847	32806	33005	32756	32591	32871	32613	
2143	0	32679	32799	33007	33195	32775	32659	32847	32549	
2144	0	32839	32879	33147	32982	32839	32527	32765	32491	
2145	0	32876	32828	32991	32640	32810	32599	32823	32724	
2146	0	32827	32751	32442	32455	32935	32713	32838	32599	
2147	0	32806	32775	32365	32519	32722	32895	32791	32423	
