# OpenSignals Text File Format
# {"00:07:80:3B:46:38": {"sensor": ["CUSTOM/0.5/1.0/V", "CUSTOM/0.5/1.0/V", "CUSTOM/0.5/1.0/V", "CUSTOM/0.5/1.0/V", "CUSTOM/0.5/1.0/V", "CUSTOM/0.5/1.0/V", "CUSTOM/0.5/1.0/V", "CUSTOM/0.5/1.0/V"], "device name": "EMGs", "column": ["nSeq", "DI", "RA_L", "RA_R", "OE_L", "OE:R", "IL_L", "IL_R", "MF_L", "MF_R"], "sync interval": 2, "time": "16:45:52.757", "comments": "", "device connection": "BTH00:07:80:3B:46:38", "channels": [1, 2, 3, 4, 5, 6, 7, 8], "date": "2017-6-1", "mode": 0, "digital IO": [0, 1], "firmware version": 772, "device": "biosignalsplux", "position": 0, "sampling rate": 1000, "label": ["RA_L", "RA_R", "OE_L", "OE:R", "IL_L", "IL_R", "MF_L", "MF_R"], "resolution": [16, 16, 16, 16, 16, 16, 16, 16], "special": [{}, {}, {}, {}, {}, {}, {}, {}]}}
# EndOfHeader
0	0	32746	32775	32679	32747	32775	32759	32742	32674	
1	0	32750	32703	32715	32558	32775	32730	32607	32703	
2	0	32722	32843	32756	32689	32807	32583	32647	32708	
3	0	32738	32823	32665	32543	32767	32683	32732	32771	
4	0	32718	32759	32723	32685	32727	32797	32585	32771	
5	0	32742	32711	32723	32743	32839	32806	32606	32671	
6	0	32756	32797	32764	32715	32791	32647	32589	32679	
7	0	32732	32799	32725	32699	32735	32764	32575	32689	
8	0	32739	32765	32711	32557	32729	32711	32466	32685	
9	0	32731	32722	32729	32671	32722	32759	32543	32690	
10	0	32756	32798	32619	32606	32821	32726	32669	32677	
11	0	32738	32806	32695	32716	32754	32775	32749	32631	
12	0	32775	32835	32673	32630	32735	32535	32725	32765	
13	0	32825	32850	32731	32557	32835	32692	32706	32713	
14	0	32788	32719	32611	32647	32791	32801	32647	32621	
15	0	32773	32843	32803	32703	32791	32559	32685	32775	
16	0	32796	32787	32743	32595	32810	32775	32628	32625	
17	0	32775	32773	32627	32647	32735	32757	32533	32727	
18	0	32865	32751	32783	32630	32786	32551	32594	32756	
19	0	32770	32583	32763	32767	32743	32827	32665	32629	
20	0	32814	32771	32759	32733	32775	32707	32707	32783	
21	0	32791	32751	32710	32642	32876	32594	32735	32745	
22	0	32749	32686	32751	32668	32895	32737	32670	32763	
23	0	32753	32845	32753	32579	32823	32743	32611	32761	
24	0	32742	32743	32655	32767	32775	32794	32703	32763	
25	0	32741	32745	32763	32711	32749	32698	32743	32685	
26	0	32832	32871	32626	32581	32746	32811	32695	32769	
27	0	32722	32797	32719	32719	32749	32810	32707	32687	
28	0	32742	32804	32783	32694	32765	32867	32524	32743	
29	0	32727	32829	32669	32519	32748	32775	32629	32743	
30	0	32759	32735	32695	32707	32791	32814	32566	32691	
31	0	32769	32819	32642	32579	32844	32608	32539	32735	
32	0	32759	32786	32703	32693	32791	32799	32643	32763	
33	0	32831	32719	32628	32709	32771	32751	32687	32629	
34	0	32806	32839	32555	32586	32783	32639	32644	32799	
35	0	32850	32788	32679	32711	32757	32813	32647	32790	
36	0	32780	32727	32711	32698	32785	32767	32677	32663	
37	0	32811	32815	32687	32495	32791	32685	32775	32716	
38	0	32775	32822	32771	32735	32759	32763	32511	32631	
39	0	32759	32855	32801	32773	32791	32595	32690	32727	
40	0	32662	32831	32756	32511	32819	32775	32607	32639	
41	0	32661	32719	32885	32674	32735	32765	32611	32775	
42	0	32690	32697	32771	32633	32769	32572	32647	32724	
43	0	32742	32775	32735	32737	32804	32879	32647	32675	
44	0	32809	32677	32682	32738	32759	32775	32743	32715	
45	0	32771	32753	32663	32577	32767	32663	32529	32731	
46	0	32769	32759	32647	32723	32751	32830	32575	32607	
47	0	32768	32675	32669	32703	32799	32749	32611	32730	
48	0	32749	32829	32705	32647	32757	32723	32646	32647	
49	0	32724	32812	32727	32769	32839	32719	32647	32711	
50	0	32730	32749	32631	32791	32845	32613	32605	32814	
51	0	32771	32861	32808	32575	32843	32863	32702	32685	
52	0	32812	32895	32823	32699	32749	32775	32738	32742	
53	0	32806	32823	32621	32727	32753	32647	32730	32667	
54	0	32800	32815	32652	32549	32773	32801	32660	32690	
55	0	32814	32775	32751	32717	32735	32605	32663	32748	
56	0	32795	32816	32802	32601	32787	32835	32711	32679	
57	0	32759	32793	32733	32548	32771	32748	32658	32775	
58	0	32749	32789	32630	32719	32751	32591	32647	32758	
59	0	32765	32839	32759	32743	32748	32873	32613	32615	
60	0	32788	32815	32646	32612	32807	32817	32623	32775	
61	0	32759	32799	32647	32695	32797	32586	32628	32764	
62	0	32772	32727	32687	32535	32823	32863	32668	32663	
63	0	32796	32845	32711	32685	32779	32823	32634	32788	
64	0	32733	32807	32811	32725	32807	32591	32676	32715	
65	0	32708	32775	32789	32756	32775	32831	32631	32647	
66	0	32671	32749	32791	32667	32773	32786	32647	32766	
67	0	32705	32839	32679	32551	32742	32623	32635	32782	
68	0	32736	32755	32873	32587	32825	32883	32603	32676	
69	0	32686	32711	32831	32602	32783	32789	32710	32771	
70	0	32732	32817	32653	32669	32762	32635	32730	32646	
71	0	32751	32759	32647	32918	32829	32867	32731	32629	
72	0	32782	32787	32582	32775	32761	32745	32686	32773	
73	0	32799	32736	32663	32745	32782	32709	32683	32738	
74	0	32823	32733	32683	32615	32805	32604	32638	32773	
75	0	32854	32775	32687	32717	32839	32855	32661	32647	
76	0	32773	32803	32743	32551	32801	32836	32645	32722	
77	0	32775	32802	32737	32655	32769	32822	32743	32662	
78	0	32749	32791	32688	32470	32815	32691	32662	32615	
79	0	32788	32759	32705	32658	32794	32851	32567	32631	
80	0	32758	32871	32702	32593	32814	32813	32573	32735	
81	0	32790	32819	32765	32762	32787	32643	32783	32775	
82	0	32756	32727	32647	32722	32751	32820	32612	32711	
83	0	32756	32747	32669	32581	32747	32715	32756	32731	
84	0	32806	32810	32615	32703	32788	32783	32647	32793	
85	0	32764	32807	32731	32588	32787	32571	32749	32647	
86	0	32749	32751	32722	32742	32815	32831	32727	32713	
87	0	32790	32775	32631	32788	32839	32759	32743	32660	
88	0	32744	32791	32727	32596	32783	32757	32735	32647	
89	0	32748	32775	32708	32733	32742	32567	32678	32766	
90	0	32775	32775	32749	32607	32767	32815	32614	32713	
91	0	32767	32827	32725	32723	32756	32775	32601	32587	
92	0	32757	32767	32743	32630	32771	32749	32571	32730	
93	0	32777	32731	32629	32619	32742	32679	32719	32719	
94	0	32822	32854	32731	32647	32738	32803	32736	32663	
95	0	32762	32786	32694	32631	32759	32823	32756	32702	
96	0	32758	32711	32666	32731	32730	32563	32575	32690	
97	0	32803	32773	32759	32751	32773	32850	32523	32753	
98	0	32756	32727	32877	32660	32786	32727	32549	32719	
99	0	32727	32698	32707	32587	32767	32655	32663	32791	
100	0	32713	32663	32715	32683	32743	32727	32631	32719	
101	0	32703	32517	32633	32594	32711	32722	32637	32707	
102	0	32620	32618	32695	32765	32870	32547	32605	32850	
103	0	32580	32567	32723	32710	32819	32775	32601	32827	
104	0	32519	32460	32615	32555	32827	32636	32647	32791	
105	0	32509	32567	32674	32635	32835	32610	32669	32924	
106	0	32530	32493	32759	32662	32799	32758	32583	32843	
107	0	32561	32619	32709	32695	32844	32751	32402	32895	
108	0	32540	32647	32823	32598	32868	32687	32343	32804	
109	0	32503	32601	32751	32607	32875	32760	32391	32903	
110	0	32502	32711	32731	32597	32875	32625	32381	32865	
111	0	32508	32771	32743	32698	32983	32631	32343	32751	
112	0	32604	32807	32747	32669	32891	32799	32451	32797	
113	0	32684	32993	32891	32388	32839	32821	32621	32775	
114	0	32690	32951	32875	32555	32866	32839	32615	32795	
115	0	32691	33143	32783	32587	32825	32897	32605	32772	
116	0	32719	33191	32967	32339	32790	32870	32506	32738	
117	0	32813	33127	32903	32421	32808	32834	32566	32756	
118	0	32826	33287	32903	32383	32782	32983	32627	32677	
119	0	32844	33332	32943	32391	32839	32939	32583	32875	
120	0	32935	33321	32887	32439	32887	32867	32495	32811	
121	0	32992	33431	32987	32461	32843	32951	32499	32709	
122	0	33023	33415	32898	32301	32824	32759	32642	32703	
123	0	33115	33316	32763	32525	32804	33055	32783	32602	
124	0	33064	33335	32775	32527	32731	32933	32863	32583	
125	0	33173	33267	32742	32475	32799	32718	32902	32485	
126	0	33106	33095	32843	32647	32762	32903	32893	32563	
127	0	33201	33220	32820	32611	32709	32871	32877	32530	
128	0	33167	33099	32563	32692	32647	32843	32902	32470	
129	0	33039	33049	32627	32765	32695	32615	32851	32634	
130	0	32982	32879	32557	32707	32687	32827	32833	32597	
131	0	32935	32895	32637	32823	32694	32855	32919	32542	
132	0	32922	32743	32427	32710	32593	32737	33002	32343	
133	0	32956	32647	32461	32983	32559	32590	33053	32386	
134	0	33018	32551	32419	33035	32500	32775	33159	32289	
135	0	33039	32607	32357	33067	32493	32699	33239	32228	
136	0	33011	32533	32369	33103	32446	32543	33298	32247	
137	0	33115	32391	32278	32983	32551	32647	33287	32213	
138	0	33102	32379	32250	33158	32505	32642	33231	32287	
139	0	33159	32391	32246	33018	32499	32660	33301	32289	
140	0	33100	32225	32283	33197	32486	32601	33276	32263	
141	0	32953	32159	32367	33131	32463	32591	33159	32471	
142	0	32844	32171	32331	32979	32516	32575	33072	32559	
143	0	32729	32127	32566	33014	32703	32439	32899	32531	
144	0	32576	32306	32524	32838	32726	32629	32563	32775	
145	0	32531	32380	32643	32871	32883	32647	32599	32895	
146	0	32470	32329	32642	32825	32911	32450	32512	32887	
147	0	32433	32387	32775	32603	32882	32709	32263	33030	
148	0	32436	32531	32763	32647	32927	32711	32161	33110	
149	0	32436	32519	32873	32593	32955	32530	32127	32960	
150	0	32420	32412	32950	32663	32955	32755	32081	33099	
151	0	32430	32622	32831	32578	33015	32707	32300	33147	
152	0	32434	32589	32903	32503	32958	32694	32276	33079	
153	0	32502	32567	32895	32543	32983	32731	32207	33127	
154	0	32456	32639	32871	32647	32972	32567	32263	33007	
155	0	32523	32645	32991	32647	32953	32735	32343	33023	
156	0	32608	32663	32875	32683	32927	32690	32297	32999	
157	0	32604	32717	32878	32597	32869	32683	32382	32858	
158	0	32546	32903	32826	32655	32878	32636	32439	32967	
159	0	32580	32863	32815	32567	32903	32903	32556	32861	
160	0	32620	32797	32877	32526	32877	32775	32514	32771	
161	0	32614	32855	32673	32587	32891	32679	32551	32783	
162	0	32609	32831	32815	32647	32811	32838	32560	32727	
163	0	32736	32751	32775	32513	32829	32619	32703	32775	
164	0	32787	32903	32607	32621	32793	32847	32594	32703	
165	0	32741	32855	32681	32647	32758	32790	32532	32647	
166	0	32758	32829	32811	32510	32829	32743	32540	32690	
167	0	32722	32985	32738	32623	32811	32847	32646	32645	
168	0	32730	32925	32851	32679	32767	32804	32775	32710	
169	0	32788	32903	32719	32467	32764	32759	32707	32635	
170	0	32850	32975	32684	32633	32767	32953	32733	32591	
171	0	32826	32935	32669	32532	32759	32787	32757	32695	
172	0	32870	32865	32755	32657	32751	32623	32729	32687	
173	0	32823	32869	32631	32583	32791	32783	32655	32591	
174	0	32805	32983	32685	32655	32743	32919	32695	32719	
175	0	32847	32929	32659	32733	32723	32815	32731	32719	
176	0	32780	32839	32851	32595	32833	32620	32726	32643	
177	0	32758	32915	32823	32694	32758	32868	32752	32743	
178	0	32788	32828	32711	32709	32743	32775	32690	32621	
179	0	32788	32810	32759	32581	32813	32703	32642	32573	
180	0	32775	32747	32735	32694	32775	32797	32699	32725	
181	0	32784	32843	32686	32695	32802	32637	32755	32685	
182	0	32767	32750	32727	32590	32783	32902	32647	32729	
183	0	32767	32807	32682	32647	32775	32745	32606	32764	
184	0	32791	32775	32735	32567	32771	32773	32602	32635	
185	0	32728	32819	32758	32695	32785	32749	32524	32794	
186	0	32729	32687	32635	32592	32773	32775	32503	32766	
187	0	32762	32807	32679	32486	32775	32663	32475	32711	
188	0	32770	32838	32565	32715	32717	32884	32506	32767	
189	0	32775	32741	32677	32703	32729	32797	32529	32719	
190	0	32735	32855	32762	32647	32827	32573	32550	32583	
191	0	32743	32812	32791	32679	32789	32679	32482	32710	
192	0	32764	32739	32742	32539	32806	32727	32591	32703	
193	0	32825	32855	32687	32677	32837	32615	32691	32719	
194	0	32801	32766	32701	32715	32807	32890	32727	32741	
195	0	32784	32837	32666	32663	32787	32783	32741	32683	
196	0	32719	32846	32647	32623	32731	32725	32689	32711	
197	0	32788	32826	32642	32635	32750	32775	32671	32638	
198	0	32773	32785	32591	32685	32756	32613	32679	32775	
199	0	32815	32743	32669	32715	32705	32853	32681	32775	
200	0	32783	32822	32742	32663	32807	32719	32711	32757	
201	0	32731	32695	32658	32623	32711	32647	32807	32783	
202	0	32756	32799	32725	32733	32717	32724	32619	32639	
203	0	32753	32775	32647	32783	32736	32775	32770	32727	
204	0	32756	32717	32658	32571	32718	32855	32515	32716	
205	0	32755	32800	32791	32703	32751	32780	32669	32670	
206	0	32722	32751	32719	32647	32766	32727	32755	32701	
207	0	32737	32827	32806	32762	32761	32775	32662	32614	
208	0	32783	32839	32775	32563	32757	32647	32743	32732	
209	0	32828	32823	32695	32719	32771	32815	32559	32699	
210	0	32767	32866	32751	32695	32799	32807	32551	32751	
211	0	32775	32759	32687	32621	32786	32619	32606	32739	
212	0	32762	32791	32721	32647	32743	32819	32743	32567	
213	0	32718	32831	32725	32647	32746	32775	32728	32737	
214	0	32770	32775	32658	32621	32775	32647	32743	32679	
215	0	32809	32788	32755	32668	32847	32893	32711	32735	
216	0	32836	32754	32647	32615	32849	32833	32641	32710	
217	0	32775	32797	32711	32713	32854	32595	32647	32659	
218	0	32740	32775	32850	32640	32783	32771	32655	32748	
219	0	32751	32742	32767	32677	32863	32711	32721	32706	
220	0	32796	32751	32711	32557	32795	32879	32543	32765	
221	0	32711	32748	32675	32699	32791	32759	32615	32767	
222	0	32788	32834	32631	32703	32711	32583	32647	32631	
223	0	32810	32775	32647	32515	32731	32826	32695	32682	
224	0	32775	32787	32679	32614	32747	32743	32647	32605	
225	0	32730	32791	32710	32709	32715	32607	32655	32771	
226	0	32748	32715	32691	32692	32762	32807	32615	32634	
227	0	32791	32851	32755	32692	32830	32764	32573	32679	
228	0	32749	32791	32775	32679	32781	32599	32595	32717	
229	0	32711	32723	32741	32545	32758	32847	32668	32673	
230	0	32816	32799	32742	32788	32767	32743	32711	32796	
231	0	32791	32695	32708	32727	32747	32591	32751	32717	
232	0	32735	32851	32692	32615	32729	32838	32747	32754	
233	0	32718	32791	32707	32727	32732	32731	32511	32765	
234	0	32749	32742	32787	32711	32795	32599	32583	32640	
235	0	32798	32799	32693	32487	32738	32725	32630	32749	
236	0	32797	32787	32775	32647	32773	32763	32543	32823	
237	0	32766	32795	32707	32547	32709	32758	32565	32613	
238	0	32782	32787	32797	32756	32723	32647	32533	32647	
239	0	32741	32855	32743	32694	32749	32865	32527	32703	
240	0	32735	32765	32727	32511	32789	32828	32525	32727	
241	0	32766	32871	32726	32775	32794	32610	32525	32803	
242	0	32738	32747	32683	32706	32845	32749	32467	32646	
243	0	32685	32734	32769	32605	32763	32833	32567	32725	
244	0	32679	32850	32674	32631	32790	32749	32677	32703	
245	0	32751	32803	32807	32645	32755	32743	32710	32662	
246	0	32757	32718	32743	32583	32738	32751	32662	32751	
247	0	32712	32807	32637	32639	32767	32727	32638	32690	
248	0	32772	32772	32679	32583	32807	32743	32580	32765	
249	0	32748	32709	32621	32643	32775	32739	32645	32759	
250	0	32764	32773	32796	32767	32745	32547	32742	32687	
251	0	32808	32799	32743	32635	32827	32805	32775	32763	
252	0	32773	32717	32655	32715	32812	32761	32775	32671	
253	0	32775	32851	32695	32708	32839	32615	32607	32721	
254	0	32811	32819	32623	32692	32785	32773	32523	32795	
255	0	32800	32803	32743	32719	32791	32815	32546	32671	
256	0	32820	32803	32684	32679	32762	32727	32564	32738	
257	0	32796	32835	32748	32532	32711	32820	32647	32615	
258	0	32783	32765	32695	32721	32707	32757	32730	32805	
259	0	32737	32813	32727	32759	32747	32771	32655	32757	
260	0	32714	32823	32723	32551	32796	32647	32711	32668	
261	0	32677	32719	32586	32644	32735	32775	32645	32711	
262	0	32705	32855	32704	32703	32758	32551	32681	32702	
263	0	32700	32820	32725	32551	32762	32703	32773	32739	
264	0	32719	32758	32647	32716	32739	32827	32562	32791	
265	0	32696	32743	32767	32739	32838	32751	32486	32605	
266	0	32741	32723	32729	32679	32791	32615	32443	32757	
267	0	32760	32708	32687	32695	32765	32926	32663	32771	
268	0	32745	32773	32637	32553	32751	32791	32711	32631	
269	0	32732	32823	32725	32767	32753	32615	32615	32775	
270	0	32788	32810	32739	32691	32815	32835	32719	32674	
271	0	32765	32823	32665	32487	32811	32743	32706	32726	
272	0	32756	32846	32738	32612	32773	32759	32703	32775	
273	0	32828	32804	32591	32623	32787	32789	32535	32813	
274	0	32790	32823	32642	32711	32775	32802	32659	32711	
275	0	32794	32834	32626	32691	32788	32759	32662	32699	
276	0	32796	32711	32753	32567	32802	32655	32603	32785	
277	0	32782	32855	32831	32733	32823	32822	32647	32724	
278	0	32749	32775	32807	32715	32797	32767	32666	32807	
279	0	32741	32775	32760	32748	32839	32567	32699	32681	
280	0	32791	32811	32647	32647	32821	32731	32511	32731	
281	0	32763	32805	32801	32607	32819	32815	32527	32743	
282	0	32826	32788	32733	32679	32743	32775	32607	32647	
283	0	32726	32831	32811	32637	32731	32511	32711	32627	
284	0	32726	32775	32709	32775	32748	32823	32679	32695	
285	0	32775	32687	32710	32775	32805	32788	32626	32775	
286	0	32813	32837	32731	32615	32839	32771	32739	32642	
287	0	32749	32763	32735	32698	32765	32599	32727	32775	
288	0	32759	32799	32711	32570	32702	32787	32743	32739	
289	0	32782	32701	32758	32643	32751	32786	32743	32687	
290	0	32749	32831	32743	32623	32742	32802	32635	32775	
291	0	32774	32807	32670	32775	32767	32628	32577	32743	
292	0	32821	32742	32691	32823	32771	32893	32572	32668	
293	0	32807	32853	32735	32599	32826	32757	32518	32694	
294	0	32788	32843	32803	32735	32775	32724	32497	32707	
295	0	32807	32807	32799	32550	32747	32595	32516	32775	
296	0	32802	32695	32682	32663	32783	32759	32523	32707	
297	0	32769	32878	32767	32503	32815	32793	32631	32751	
298	0	32775	32833	32909	32635	32790	32754	32629	32727	
299	0	32670	32871	32775	32527	32759	32583	32631	32626	
300	0	32769	32716	32829	32707	32804	32699	32625	32699	
301	0	32764	32851	32662	32547	32819	32841	32686	32751	
302	0	32764	32765	32711	32683	32877	32763	32683	32717	
303	0	32672	32692	32625	32775	32790	32615	32647	32687	
304	0	32725	32738	32647	32589	32807	32847	32647	32761	
305	0	32724	32799	32623	32739	32746	32803	32647	32669	
306	0	32765	32831	32722	32639	32711	32767	32655	32675	
307	0	32742	32647	32663	32741	32775	32583	32626	32711	
308	0	32719	32787	32734	32698	32821	32791	32647	32665	
309	0	32757	32783	32775	32559	32847	32771	32711	32684	
310	0	32762	32831	32671	32677	32847	32599	32615	32780	
311	0	32805	32795	32775	32694	32791	32689	32610	32646	
312	0	32694	32797	32631	32621	32702	32854	32655	32775	
313	0	32732	32711	32703	32687	32743	32810	32698	32715	
314	0	32775	32871	32625	32487	32749	32586	32673	32657	
315	0	32855	32785	32708	32690	32759	32823	32695	32703	
316	0	32833	32847	32703	32687	32795	32799	32747	32711	
317	0	32834	32827	32714	32555	32807	32583	32702	32647	
318	0	32782	32727	32719	32663	32786	32754	32636	32727	
319	0	32788	32879	32639	32676	32791	32871	32603	32693	
320	0	32789	32799	32743	32735	32743	32735	32603	32628	
321	0	32788	32825	32743	32701	32711	32743	32583	32703	
322	0	32802	32747	32719	32543	32759	32687	32623	32659	
323	0	32775	32833	32721	32647	32839	32893	32557	32663	
324	0	32719	32823	32851	32599	32807	32725	32587	32723	
325	0	32685	32790	32771	32775	32775	32735	32457	32807	
326	0	32700	32647	32742	32751	32797	32591	32567	32725	
327	0	32735	32746	32759	32811	32801	32773	32677	32786	
328	0	32695	32727	32775	32775	32824	32865	32615	32719	
329	0	32727	32743	32754	32655	32763	32743	32566	32831	
330	0	32784	32719	32711	32694	32767	32755	32617	32631	
331	0	32759	32751	32847	32533	32775	32697	32727	32719	
332	0	32763	32711	32786	32689	32751	32831	32671	32679	
333	0	32736	32823	32647	32663	32795	32791	32681	32671	
334	0	32740	32851	32716	32663	32839	32563	32621	32733	
335	0	32820	32869	32603	32634	32815	32825	32731	32739	
336	0	32809	32795	32698	32612	32747	32795	32635	32663	
337	0	32784	32709	32631	32735	32766	32775	32579	32719	
338	0	32789	32831	32736	32676	32807	32621	32519	32771	
339	0	32785	32863	32703	32743	32759	32887	32699	32683	
340	0	32731	32713	32749	32709	32827	32793	32727	32639	
341	0	32687	32767	32721	32699	32711	32711	32742	32775	
342	0	32716	32871	32757	32731	32711	32583	32635	32771	
343	0	32760	32743	32679	32582	32731	32867	32655	32644	
344	0	32703	32673	32767	32668	32807	32826	32705	32793	
345	0	32734	32663	32769	32549	32832	32775	32647	32740	
346	0	32769	32771	32751	32693	32749	32591	32637	32676	
347	0	32797	32727	32699	32715	32703	32786	32771	32647	
348	0	32734	32755	32767	32709	32751	32749	32573	32743	
349	0	32808	32735	32775	32711	32755	32743	32541	32766	
350	0	32745	32787	32709	32671	32831	32679	32623	32679	
351	0	32828	32839	32647	32733	32775	32830	32703	32669	
352	0	32775	32875	32702	32555	32751	32703	32669	32799	
353	0	32775	32762	32655	32725	32738	32599	32678	32671	
354	0	32780	32839	32739	32701	32767	32815	32647	32698	
355	0	32810	32783	32647	32706	32775	32774	32723	32789	
356	0	32748	32830	32743	32687	32775	32751	32599	32636	
357	0	32783	32762	32685	32594	32839	32647	32526	32727	
358	0	32738	32869	32621	32679	32809	32823	32731	32706	
359	0	32805	32825	32674	32722	32833	32775	32636	32758	
360	0	32773	32767	32645	32688	32861	32692	32647	32734	
361	0	32783	32877	32711	32655	32801	32873	32775	32647	
362	0	32797	32743	32626	32691	32773	32775	32615	32721	
363	0	32812	32719	32578	32607	32735	32644	32514	32658	
364	0	32739	32751	32732	32617	32747	32869	32646	32725	
365	0	32791	32799	32735	32615	32707	32783	32708	32701	
366	0	32716	32699	32679	32587	32795	32609	32679	32607	
367	0	32700	32786	32803	32604	32723	32759	32775	32743	
368	0	32758	32743	32711	32673	32769	32769	32551	32636	
369	0	32788	32711	32775	32698	32839	32742	32617	32743	
370	0	32798	32763	32799	32583	32807	32822	32727	32719	
371	0	32769	32791	32670	32642	32830	32731	32701	32647	
372	0	32775	32666	32683	32535	32783	32583	32641	32727	
373	0	32771	32725	32562	32685	32681	32749	32623	32759	
374	0	32751	32823	32695	32551	32727	32895	32635	32647	
375	0	32786	32807	32634	32674	32859	32711	32591	32687	
376	0	32767	32825	32699	32506	32791	32738	32613	32761	
377	0	32756	32747	32698	32644	32767	32588	32615	32714	
378	0	32772	32735	32711	32529	32747	32837	32639	32676	
379	0	32789	32725	32751	32639	32775	32815	32703	32677	
380	0	32742	32801	32805	32554	32862	32735	32758	32769	
381	0	32750	32803	32759	32713	32847	32593	32519	32654	
382	0	32715	32677	32742	32659	32769	32694	32551	32629	
383	0	32772	32708	32725	32751	32749	32831	32541	32765	
384	0	32788	32802	32663	32541	32793	32811	32581	32715	
385	0	32793	32743	32729	32726	32850	32775	32719	32647	
386	0	32791	32821	32775	32747	32795	32679	32662	32706	
387	0	32746	32723	32894	32635	32743	32813	32642	32731	
388	0	32732	32831	32854	32743	32689	32775	32645	32738	
389	0	32759	32775	32749	32627	32797	32603	32691	32647	
390	0	32759	32719	32684	32710	32727	32823	32711	32674	
391	0	32801	32734	32599	32596	32775	32745	32732	32674	
392	0	32790	32791	32679	32731	32832	32714	32731	32685	
393	0	32713	32783	32583	32663	32751	32613	32745	32775	
394	0	32743	32771	32715	32706	32763	32815	32759	32802	
395	0	32761	32845	32679	32671	32789	32706	32765	32691	
396	0	32753	32785	32715	32639	32775	32535	32509	32717	
397	0	32769	32775	32658	32713	32711	32775	32491	32660	
398	0	32812	32807	32729	32639	32742	32749	32629	32741	
399	0	32767	32767	32710	32759	32774	32571	32747	32710	
400	0	32667	32679	32663	32719	32771	32829	32695	32623	
401	0	32711	32759	32733	32515	32807	32767	32663	32745	
402	0	32764	32735	32687	32623	32791	32762	32662	32732	
403	0	32741	32751	32708	32695	32755	32621	32719	32635	
404	0	32707	32735	32621	32658	32771	32823	32713	32715	
405	0	32726	32775	32754	32724	32747	32705	32699	32758	
406	0	32715	32717	32726	32563	32775	32647	32775	32617	
407	0	32693	32711	32675	32771	32811	32773	32567	32703	
408	0	32754	32735	32740	32787	32743	32733	32563	32705	
409	0	32780	32743	32712	32527	32807	32573	32706	32807	
410	0	32796	32819	32789	32727	32799	32861	32601	32775	
411	0	32751	32839	32729	32711	32767	32723	32659	32578	
412	0	32743	32759	32669	32566	32831	32647	32643	32715	
413	0	32795	32743	32799	32766	32825	32820	32559	32635	
414	0	32766	32757	32763	32721	32830	32743	32703	32730	
415	0	32759	32751	32717	32519	32743	32594	32657	32743	
416	0	32796	32767	32679	32722	32798	32855	32771	32743	
417	0	32757	32735	32655	32645	32759	32767	32547	32761	
418	0	32785	32827	32739	32647	32775	32703	32647	32668	
419	0	32826	32707	32687	32751	32713	32732	32603	32711	
420	0	32748	32859	32676	32647	32766	32586	32735	32623	
421	0	32722	32799	32684	32733	32743	32855	32582	32725	
422	0	32792	32751	32739	32631	32781	32799	32679	32623	
423	0	32783	32797	32717	32759	32815	32767	32677	32751	
424	0	32749	32722	32685	32727	32743	32767	32662	32679	
425	0	32719	32807	32759	32591	32775	32614	32668	32773	
426	0	32748	32835	32719	32715	32713	32815	32679	32787	
427	0	32661	32747	32763	32730	32754	32691	32727	32726	
428	0	32713	32783	32698	32563	32775	32587	32582	32755	
429	0	32752	32727	32679	32695	32751	32887	32575	32630	
430	0	32755	32803	32745	32708	32762	32802	32690	32749	
431	0	32708	32854	32674	32628	32819	32791	32739	32791	
432	0	32756	32831	32767	32705	32811	32663	32583	32699	
433	0	32769	32790	32725	32535	32846	32903	32638	32832	
434	0	32827	32839	32711	32724	32719	32817	32706	32751	
435	0	32762	32799	32663	32743	32733	32677	32755	32716	
436	0	32757	32709	32573	32529	32755	32814	32533	32698	
437	0	32775	32882	32707	32757	32735	32767	32555	32643	
438	0	32731	32815	32673	32739	32755	32681	32747	32763	
439	0	32775	32773	32698	32795	32801	32871	32703	32758	
440	0	32828	32687	32607	32751	32889	32762	32637	32642	
441	0	32751	32807	32815	32565	32797	32527	32639	32719	
442	0	32747	32762	32767	32663	32790	32826	32715	32722	
443	0	32736	32839	32739	32587	32773	32807	32718	32603	
444	0	32740	32717	32771	32745	32805	32723	32661	32671	
445	0	32737	32775	32775	32647	32799	32629	32571	32751	
446	0	32730	32795	32759	32591	32818	32823	32743	32675	
447	0	32773	32767	32681	32707	32805	32758	32697	32727	
448	0	32773	32791	32749	32711	32787	32611	32645	32654	
449	0	32786	32847	32731	32645	32831	32891	32602	32719	
450	0	32747	32809	32709	32692	32823	32764	32659	32705	
451	0	32722	32719	32735	32594	32738	32567	32727	32715	
452	0	32812	32807	32627	32727	32807	32851	32493	32815	
453	0	32788	32775	32708	32659	32737	32731	32531	32775	
454	0	32743	32705	32679	32574	32734	32567	32679	32599	
455	0	32838	32829	32703	32751	32743	32815	32749	32739	
456	0	32751	32801	32685	32638	32773	32775	32647	32795	
457	0	32759	32775	32757	32676	32815	32758	32647	32679	
458	0	32781	32745	32743	32662	32827	32636	32639	32727	
459	0	32784	32846	32807	32543	32787	32799	32743	32671	
460	0	32732	32757	32682	32719	32786	32773	32533	32775	
461	0	32751	32839	32693	32679	32826	32813	32639	32663	
462	0	32798	32735	32674	32655	32790	32764	32695	32663	
463	0	32772	32827	32745	32591	32839	32658	32658	32639	
464	0	32775	32775	32773	32623	32859	32751	32716	32725	
465	0	32751	32775	32734	32695	32830	32551	32527	32738	
466	0	32728	32787	32735	32500	32751	32861	32673	32685	
467	0	32710	32671	32638	32749	32767	32771	32639	32743	
468	0	32742	32814	32761	32535	32812	32605	32715	32699	
469	0	32761	32813	32747	32700	32703	32867	32746	32727	
470	0	32772	32725	32743	32743	32798	32821	32647	32742	
471	0	32775	32827	32742	32513	32753	32591	32519	32599	
472	0	32727	32731	32679	32663	32781	32887	32742	32748	
473	0	32788	32791	32717	32679	32797	32771	32667	32679	
474	0	32786	32725	32767	32673	32815	32697	32518	32796	
475	0	32796	32855	32627	32583	32705	32740	32523	32775	
476	0	32750	32807	32706	32623	32807	32615	32564	32657	
477	0	32731	32783	32603	32503	32759	32587	32595	32742	
478	0	32785	32846	32745	32670	32743	32835	32634	32684	
479	0	32767	32770	32759	32734	32790	32803	32687	32775	
480	0	32763	32695	32635	32591	32722	32695	32763	32703	
481	0	32727	32819	32733	32739	32726	32732	32553	32647	
482	0	32734	32747	32751	32765	32784	32605	32635	32759	
483	0	32745	32847	32662	32609	32753	32865	32686	32663	
484	0	32793	32822	32759	32750	32809	32727	32631	32725	
485	0	32745	32735	32701	32605	32791	32709	32677	32727	
486	0	32764	32787	32709	32791	32796	32798	32701	32647	
487	0	32802	32758	32695	32796	32817	32788	32589	32735	
488	0	32719	32703	32727	32595	32827	32605	32519	32715	
489	0	32758	32799	32647	32663	32862	32743	32671	32707	
490	0	32716	32775	32559	32575	32775	32823	32797	32757	
491	0	32806	32739	32725	32591	32759	32595	32647	32678	
492	0	32723	32758	32718	32647	32781	32879	32763	32705	
493	0	32795	32823	32675	32623	32758	32767	32586	32647	
494	0	32759	32775	32687	32679	32755	32569	32594	32741	
495	0	32804	32803	32674	32663	32775	32795	32669	32794	
496	0	32785	32720	32721	32565	32727	32719	32647	32671	
497	0	32769	32815	32722	32679	32707	32561	32679	32775	
498	0	32749	32758	32667	32695	32767	32796	32602	32647	
499	0	32775	32851	32749	32700	32756	32730	32483	32710	
500	0	32716	32781	32799	32599	32867	32645	32690	32674	
501	0	32772	32694	32807	32647	32843	32818	32619	32756	
502	0	32749	32775	32743	32711	32773	32745	32742	32818	
503	0	32772	32748	32847	32607	32785	32799	32647	32686	
504	0	32738	32789	32861	32703	32811	32793	32551	32685	
505	0	32768	32839	32783	32642	32851	32769	32643	32661	
506	0	32767	32775	32743	32711	32787	32647	32639	32703	
507	0	32730	32717	32751	32711	32703	32899	32703	32743	
508	0	32710	32798	32682	32629	32782	32799	32654	32674	
509	0	32764	32871	32807	32719	32819	32797	32665	32679	
510	0	32788	32711	32615	32526	32823	32725	32684	32733	
511	0	32743	32829	32663	32711	32775	32775	32525	32699	
512	0	32732	32823	32668	32751	32757	32594	32594	32771	
513	0	32749	32803	32707	32547	32797	32759	32678	32735	
514	0	32775	32813	32775	32671	32828	32767	32689	32655	
515	0	32794	32743	32539	32658	32852	32603	32718	32677	
516	0	32797	32850	32659	32525	32734	32863	32848	32615	
517	0	32800	32759	32694	32719	32775	32796	32563	32757	
518	0	32794	32789	32703	32743	32787	32574	32599	32679	
519	0	32699	32829	32714	32687	32743	32705	32511	32679	
520	0	32681	32827	32615	32714	32807	32771	32710	32743	
521	0	32703	32735	32797	32642	32799	32575	32693	32695	
522	0	32724	32775	32837	32773	32797	32775	32615	32789	
523	0	32694	32733	32679	32715	32743	32715	32692	32722	
524	0	32690	32836	32745	32612	32783	32795	32708	32620	
525	0	32742	32709	32647	32663	32753	32759	32789	32733	
526	0	32795	32688	32694	32669	32775	32765	32603	32647	
527	0	32817	32791	32663	32690	32783	32751	32527	32718	
528	0	32791	32773	32698	32743	32743	32591	32502	32731	
529	0	32816	32675	32684	32567	32723	32823	32687	32731	
530	0	32869	32810	32583	32759	32692	32771	32647	32735	
531	0	32834	32799	32687	32742	32775	32646	32703	32775	
532	0	32748	32770	32707	32672	32815	32873	32647	32607	
533	0	32772	32807	32767	32773	32775	32747	32615	32663	
534	0	32804	32821	32643	32566	32767	32725	32655	32731	
535	0	32791	32775	32767	32630	32791	32663	32699	32663	
536	0	32775	32868	32711	32605	32762	32775	32695	32788	
537	0	32757	32855	32775	32599	32823	32791	32725	32699	
538	0	32756	32837	32719	32675	32808	32621	32729	32595	
539	0	32848	32775	32716	32503	32819	32823	32607	32627	
540	0	32739	32765	32715	32655	32751	32811	32551	32731	
541	0	32769	32739	32683	32580	32703	32579	32679	32634	
542	0	32751	32647	32759	32691	32771	32583	32707	32663	
543	0	32718	32866	32718	32589	32795	32775	32630	32790	
544	0	32759	32771	32764	32711	32743	32898	32679	32787	
545	0	32726	32701	32844	32747	32775	32803	32621	32673	
546	0	32748	32742	32850	32733	32823	32787	32587	32719	
547	0	32725	32767	32751	32738	32815	32724	32658	32775	
548	0	32726	32815	32796	32711	32819	32851	32679	32607	
549	0	32794	32695	32727	32759	32807	32775	32802	32691	
550	0	32752	32831	32738	32567	32783	32631	32735	32753	
551	0	32740	32743	32700	32715	32775	32623	32735	32784	
552	0	32740	32763	32679	32533	32769	32877	32597	32652	
553	0	32754	32763	32647	32663	32767	32767	32577	32731	
554	0	32788	32786	32681	32655	32807	32612	32619	32658	
555	0	32809	32814	32677	32701	32843	32614	32643	32615	
556	0	32807	32735	32727	32709	32687	32807	32676	32739	
557	0	32753	32839	32637	32481	32751	32813	32702	32735	
558	0	32818	32817	32755	32630	32827	32751	32599	32636	
559	0	32769	32773	32755	32597	32820	32631	32647	32793	
560	0	32751	32851	32707	32738	32775	32855	32739	32647	
561	0	32749	32823	32683	32715	32829	32745	32621	32661	
562	0	32732	32724	32727	32813	32730	32583	32629	32635	
563	0	32710	32740	32756	32767	32749	32621	32663	32719	
564	0	32695	32786	32702	32783	32751	32775	32631	32615	
565	0	32775	32788	32767	32727	32830	32843	32630	32743	
566	0	32747	32708	32731	32683	32775	32783	32555	32719	
567	0	32732	32775	32717	32682	32737	32732	32541	32747	
568	0	32747	32879	32687	32693	32729	32606	32524	32623	
569	0	32751	32791	32734	32751	32771	32871	32543	32785	
570	0	32730	32743	32643	32611	32791	32755	32624	32755	
571	0	32722	32879	32815	32693	32773	32583	32679	32707	
572	0	32740	32831	32789	32719	32821	32882	32639	32791	
573	0	32765	32855	32715	32563	32791	32751	32731	32635	
574	0	32751	32794	32741	32685	32818	32643	32535	32733	
575	0	32726	32727	32759	32677	32797	32831	32499	32647	
576	0	32775	32821	32761	32581	32815	32775	32570	32684	
577	0	32775	32802	32734	32621	32775	32575	32727	32722	
578	0	32768	32731	32677	32639	32725	32791	32675	32635	
579	0	32756	32804	32719	32735	32775	32782	32692	32807	
580	0	32781	32755	32647	32717	32775	32762	32663	32786	
581	0	32738	32727	32708	32684	32773	32635	32669	32684	
582	0	32734	32827	32706	32695	32763	32899	32727	32751	
583	0	32807	32743	32725	32545	32799	32763	32726	32739	
584	0	32732	32726	32703	32639	32825	32605	32615	32627	
585	0	32742	32835	32749	32723	32837	32775	32487	32703	
586	0	32749	32791	32807	32807	32735	32734	32487	32733	
587	0	32743	32759	32759	32765	32789	32775	32533	32706	
588	0	32741	32727	32795	32626	32711	32594	32533	32775	
589	0	32775	32847	32660	32685	32767	32791	32615	32823	
590	0	32772	32764	32750	32733	32723	32745	32675	32767	
591	0	32831	32756	32687	32684	32767	32668	32690	32735	
592	0	32832	32794	32787	32719	32775	32855	32743	32671	
593	0	32782	32850	32791	32519	32883	32794	32754	32733	
594	0	32654	32886	32685	32732	32843	32703	32662	32739	
595	0	32758	32855	32755	32682	32835	32835	32551	32673	
596	0	32807	32810	32683	32666	32798	32751	32507	32789	
597	0	32738	32751	32775	32708	32775	32516	32482	32745	
598	0	32768	32895	32745	32534	32784	32763	32523	32647	
599	0	32726	32791	32639	32730	32765	32758	32659	32767	
600	0	32794	32735	32735	32707	32756	32598	32637	32659	
601	0	32791	32771	32663	32574	32747	32775	32671	32726	
602	0	32807	32719	32739	32647	32743	32615	32715	32707	
603	0	32787	32788	32691	32692	32807	32795	32775	32645	
604	0	32687	32769	32726	32662	32791	32763	32774	32711	
605	0	32705	32735	32641	32724	32799	32603	32523	32805	
606	0	32761	32775	32655	32623	32819	32882	32647	32661	
607	0	32783	32775	32759	32599	32775	32769	32688	32726	
608	0	32770	32755	32734	32683	32807	32743	32683	32647	
609	0	32747	32807	32583	32685	32775	32767	32647	32771	
610	0	32808	32775	32630	32738	32692	32594	32663	32670	
611	0	32875	32807	32629	32694	32789	32826	32758	32669	
612	0	32786	32831	32628	32643	32807	32699	32499	32770	
613	0	32791	32727	32615	32678	32749	32804	32655	32735	
614	0	32791	32786	32765	32727	32788	32791	32614	32775	
615	0	32742	32723	32736	32642	32716	32614	32663	32623	
616	0	32786	32751	32787	32783	32756	32865	32738	32749	
617	0	32783	32807	32749	32755	32831	32775	32722	32706	
618	0	32758	32772	32827	32583	32799	32570	32643	32707	
619	0	32767	32790	32727	32742	32790	32877	32545	32687	
620	0	32690	32819	32751	32783	32839	32757	32581	32615	
621	0	32637	32755	32676	32676	32863	32743	32666	32743	
622	0	32726	32814	32742	32711	32797	32647	32621	32738	
623	0	32727	32831	32721	32738	32762	32791	32699	32706	
624	0	32714	32739	32675	32623	32783	32730	32677	32687	
625	0	32741	32799	32775	32715	32699	32574	32707	32721	
626	0	32731	32739	32591	32551	32726	32793	32631	32742	
627	0	32783	32731	32695	32685	32799	32812	32527	32727	
628	0	32715	32743	32633	32541	32791	32739	32549	32729	
629	0	32742	32839	32741	32669	32754	32743	32775	32647	
630	0	32775	32801	32845	32543	32763	32602	32633	32717	
631	0	32780	32749	32758	32710	32829	32845	32593	32797	
632	0	32775	32767	32801	32579	32807	32831	32543	32756	
633	0	32799	32871	32783	32671	32791	32769	32543	32610	
634	0	32794	32770	32671	32691	32755	32583	32503	32695	
635	0	32742	32711	32734	32706	32732	32611	32550	32683	
636	0	32732	32883	32627	32671	32755	32834	32639	32743	
637	0	32769	32813	32725	32554	32839	32738	32615	32812	
638	0	32738	32798	32749	32699	32819	32775	32594	32799	
639	0	32825	32747	32733	32498	32829	32602	32647	32639	
640	0	32789	32759	32678	32631	32850	32710	32800	32775	
641	0	32793	32791	32721	32679	32749	32775	32673	32695	
642	0	32839	32825	32679	32574	32719	32765	32647	32747	
643	0	32739	32775	32689	32699	32756	32654	32631	32749	
644	0	32732	32715	32710	32695	32747	32862	32639	32613	
645	0	32789	32818	32559	32629	32775	32826	32693	32718	
646	0	32768	32719	32743	32629	32711	32639	32660	32669	
647	0	32765	32799	32805	32578	32775	32751	32671	32807	
648	0	32759	32799	32903	32759	32823	32853	32694	32775	
649	0	32692	32767	32831	32793	32829	32735	32694	32685	
650	0	32715	32745	32834	32747	32767	32742	32674	32706	
651	0	32751	32828	32755	32709	32722	32605	32711	32732	
652	0	32786	32797	32747	32577	32759	32839	32759	32647	
653	0	32752	32737	32567	32677	32783	32803	32775	32631	
654	0	32738	32729	32647	32515	32811	32815	32759	32775	
655	0	32806	32807	32535	32647	32727	32756	32767	32727	
656	0	32764	32791	32637	32591	32711	32580	32775	32755	
657	0	32804	32786	32563	32717	32727	32845	32668	32681	
658	0	32751	32746	32677	32581	32717	32711	32504	32721	
659	0	32718	32740	32620	32687	32789	32573	32619	32690	
660	0	32750	32743	32747	32727	32802	32743	32655	32803	
661	0	32749	32866	32731	32551	32833	32783	32735	32773	
662	0	32766	32799	32727	32690	32743	32767	32679	32701	
663	0	32687	32695	32749	32609	32763	32599	32647	32727	
664	0	32692	32833	32701	32699	32791	32863	32719	32734	
665	0	32724	32724	32733	32700	32789	32738	32614	32582	
666	0	32787	32727	32706	32551	32811	32551	32561	32773	
667	0	32756	32762	32755	32694	32829	32850	32489	32703	
668	0	32796	32773	32684	32663	32820	32839	32693	32625	
669	0	32781	32671	32731	32609	32783	32590	32726	32725	
670	0	32799	32819	32775	32719	32807	32865	32691	32663	
671	0	32788	32744	32694	32701	32836	32749	32786	32767	
672	0	32775	32804	32743	32604	32854	32671	32639	32647	
673	0	32795	32830	32766	32731	32807	32807	32580	32785	
674	0	32780	32807	32703	32727	32803	32731	32575	32765	
675	0	32773	32884	32723	32574	32797	32629	32659	32605	
676	0	32822	32863	32694	32701	32695	32831	32643	32733	
677	0	32748	32775	32711	32756	32775	32797	32687	32647	
678	0	32822	32833	32731	32535	32797	32647	32759	32755	
679	0	32799	32709	32707	32765	32791	32823	32561	32715	
680	0	32809	32797	32703	32708	32747	32755	32671	32747	
681	0	32788	32671	32775	32578	32730	32743	32685	32775	
682	0	32683	32787	32693	32698	32679	32789	32685	32623	
683	0	32715	32809	32775	32615	32717	32727	32631	32711	
684	0	32703	32711	32735	32615	32719	32615	32694	32647	
685	0	32742	32820	32847	32677	32775	32839	32681	32687	
686	0	32741	32807	32711	32503	32738	32786	32745	32727	
687	0	32704	32711	32613	32711	32791	32587	32535	32566	
688	0	32767	32679	32639	32775	32775	32869	32655	32775	
689	0	32687	32677	32673	32631	32865	32791	32647	32771	
690	0	32771	32756	32669	32727	32845	32738	32699	32739	
691	0	32773	32765	32711	32729	32799	32655	32633	32787	
692	0	32765	32713	32689	32643	32743	32850	32679	32691	
693	0	32743	32883	32751	32695	32743	32708	32694	32789	
694	0	32716	32819	32708	32495	32742	32551	32628	32809	
695	0	32730	32743	32775	32665	32771	32679	32486	32583	
696	0	32685	32861	32767	32727	32804	32768	32647	32735	
697	0	32788	32801	32727	32599	32850	32771	32711	32738	
698	0	32769	32827	32663	32711	32818	32623	32693	32727	
699	0	32775	32763	32689	32679	32855	32823	32605	32719	
700	0	32763	32695	32711	32641	32743	32715	32677	32613	
701	0	32757	32801	32735	32692	32807	32740	32723	32751	
702	0	32786	32715	32663	32647	32745	32718	32563	32647	
703	0	32821	32743	32679	32751	32709	32828	32685	32759	
704	0	32705	32723	32743	32703	32717	32739	32740	32711	
705	0	32824	32759	32676	32555	32745	32623	32691	32661	
706	0	32743	32783	32695	32763	32751	32868	32692	32731	
707	0	32775	32898	32751	32611	32788	32839	32739	32762	
708	0	32820	32821	32727	32671	32806	32789	32703	32674	
709	0	32783	32747	32573	32690	32775	32634	32645	32715	
710	0	32798	32859	32699	32583	32734	32827	32660	32682	
711	0	32868	32775	32671	32735	32741	32763	32607	32693	
712	0	32807	32902	32705	32645	32793	32767	32707	32802	
713	0	32807	32775	32793	32691	32827	32656	32627	32614	
714	0	32790	32874	32828	32683	32759	32807	32478	32707	
715	0	32796	32798	32735	32591	32711	32725	32639	32630	
716	0	32731	32757	32766	32645	32815	32591	32699	32729	
717	0	32735	32843	32738	32671	32791	32863	32703	32639	
718	0	32758	32822	32758	32551	32739	32845	32809	32623	
719	0	32793	32743	32718	32717	32743	32647	32551	32725	
720	0	32767	32829	32743	32674	32827	32660	32506	32658	
721	0	32769	32743	32699	32727	32767	32861	32545	32731	
722	0	32737	32726	32663	32708	32726	32775	32767	32755	
723	0	32741	32842	32729	32543	32755	32655	32703	32572	
724	0	32704	32775	32597	32718	32791	32606	32695	32759	
725	0	32789	32739	32759	32556	32839	32727	32691	32747	
726	0	32753	32726	32775	32647	32863	32819	32647	32655	
727	0	32708	32786	32739	32671	32747	32759	32689	32743	
728	0	32722	32695	32719	32486	32741	32578	32700	32759	
729	0	32738	32783	32647	32666	32662	32775	32755	32703	
730	0	32816	32813	32685	32701	32719	32759	32775	32705	
731	0	32814	32783	32759	32565	32771	32773	32550	32679	
732	0	32733	32827	32828	32739	32775	32677	32683	32749	
733	0	32765	32830	32889	32731	32835	32794	32679	32631	
734	0	32802	32791	32775	32669	32753	32775	32685	32756	
735	0	32800	32815	32647	32643	32721	32647	32574	32667	
736	0	32805	32775	32722	32658	32757	32863	32575	32749	
737	0	32795	32791	32717	32531	32723	32796	32575	32743	
738	0	32786	32835	32615	32739	32745	32791	32705	32665	
739	0	32793	32731	32673	32783	32743	32661	32605	32775	
740	0	32775	32793	32599	32553	32727	32807	32693	32705	
741	0	32791	32807	32714	32682	32751	32804	32609	32643	
742	0	32771	32733	32763	32682	32829	32735	32544	32747	
743	0	32764	32735	32677	32756	32775	32671	32609	32595	
744	0	32726	32724	32663	32605	32763	32810	32717	32749	
745	0	32700	32694	32835	32498	32845	32735	32603	32773	
746	0	32685	32676	32883	32707	32847	32717	32599	32679	
747	0	32608	32775	32685	32667	32764	32595	32647	32751	
748	0	32722	32747	32704	32607	32839	32903	32775	32775	
749	0	32751	32801	32735	32734	32770	32804	32614	32701	
750	0	32701	32775	32567	32747	32811	32620	32729	32790	
751	0	32773	32727	32687	32543	32719	32859	32663	32667	
752	0	32806	32815	32727	32639	32794	32754	32668	32775	
753	0	32748	32731	32660	32638	32799	32640	32711	32655	
754	0	32710	32801	32734	32637	32804	32874	32589	32759	
755	0	32721	32694	32713	32567	32791	32755	32525	32709	
756	0	32770	32775	32583	32647	32783	32620	32703	32775	
757	0	32768	32831	32771	32709	32749	32783	32683	32669	
758	0	32770	32711	32729	32576	32748	32791	32775	32660	
759	0	32804	32845	32663	32711	32844	32727	32767	32783	
760	0	32817	32679	32759	32740	32804	32679	32541	32671	
761	0	32716	32806	32823	32717	32801	32807	32686	32767	
762	0	32743	32717	32695	32749	32847	32796	32621	32647	
763	0	32739	32707	32629	32741	32762	32590	32703	32703	
764	0	32770	32805	32593	32643	32677	32759	32721	32763	
765	0	32816	32735	32647	32630	32767	32855	32791	32695	
766	0	32768	32707	32603	32599	32738	32775	32727	32723	
767	0	32797	32791	32767	32775	32801	32576	32463	32742	
768	0	32774	32795	32743	32711	32801	32855	32676	32615	
769	0	32830	32801	32654	32637	32783	32745	32637	32727	
770	0	32834	32838	32677	32582	32775	32583	32815	32591	
771	0	32799	32741	32679	32647	32767	32767	32541	32717	
772	0	32799	32849	32756	32703	32695	32755	32659	32631	
773	0	32804	32723	32695	32553	32715	32611	32709	32794	
774	0	32762	32839	32706	32682	32736	32751	32698	32766	
775	0	32761	32831	32679	32698	32765	32731	32775	32591	
776	0	32781	32743	32711	32687	32874	32607	32679	32761	
777	0	32774	32858	32719	32735	32815	32927	32534	32719	
778	0	32760	32790	32708	32580	32831	32775	32609	32667	
779	0	32697	32735	32911	32620	32791	32629	32571	32759	
780	0	32743	32782	32843	32597	32767	32790	32678	32775	
781	0	32743	32838	32831	32715	32736	32799	32630	32646	
782	0	32684	32725	32847	32703	32765	32637	32694	32763	
783	0	32671	32767	32694	32617	32775	32827	32695	32659	
784	0	32723	32727	32711	32715	32795	32834	32765	32710	
785	0	32701	32789	32621	32711	32829	32647	32535	32745	
786	0	32769	32755	32711	32500	32791	32763	32647	32717	
787	0	32720	32647	32682	32702	32813	32759	32647	32743	
788	0	32736	32807	32775	32531	32767	32638	32683	32775	
789	0	32806	32775	32767	32711	32711	32833	32663	32666	
790	0	32775	32734	32751	32525	32797	32751	32655	32647	
791	0	32758	32847	32711	32694	32800	32607	32609	32731	
792	0	32694	32807	32695	32687	32786	32843	32642	32799	
793	0	32780	32730	32775	32735	32820	32787	32669	32660	
794	0	32756	32865	32626	32660	32799	32620	32743	32769	
795	0	32788	32886	32747	32566	32749	32809	32751	32681	
796	0	32771	32773	32668	32663	32711	32737	32799	32754	
797	0	32743	32797	32627	32683	32767	32695	32621	32734	
798	0	32741	32731	32687	32518	32775	32763	32489	32672	
799	0	32814	32775	32615	32767	32775	32558	32551	32748	
800	0	32758	32775	32673	32647	32783	32775	32645	32775	
801	0	32800	32759	32629	32731	32815	32851	32684	32636	
802	0	32708	32757	32711	32706	32823	32742	32682	32701	
803	0	32766	32727	32821	32583	32855	32687	32687	32754	
804	0	32802	32727	32708	32679	32775	32762	32653	32647	
805	0	32715	32836	32703	32615	32769	32639	32694	32767	
806	0	32745	32741	32662	32628	32743	32803	32711	32787	
807	0	32791	32743	32711	32647	32747	32735	32579	32670	
808	0	32818	32835	32727	32639	32790	32623	32599	32729	
809	0	32763	32775	32791	32731	32786	32695	32685	32661	
810	0	32749	32799	32699	32631	32761	32757	32615	32743	
811	0	32826	32751	32706	32607	32775	32615	32695	32733	
812	0	32722	32703	32731	32695	32783	32775	32767	32659	
813	0	32808	32829	32687	32726	32769	32815	32615	32740	
814	0	32829	32815	32753	32567	32798	32786	32806	32711	
815	0	32757	32839	32756	32615	32790	32668	32701	32691	
816	0	32783	32751	32745	32507	32766	32591	32757	32679	
817	0	32850	32838	32695	32703	32727	32851	32743	32745	
818	0	32743	32807	32611	32735	32759	32801	32617	32634	
819	0	32698	32747	32719	32629	32823	32570	32599	32623	
820	0	32647	32775	32754	32642	32817	32677	32548	32663	
821	0	32716	32773	32775	32523	32759	32862	32534	32647	
822	0	32736	32677	32703	32709	32773	32715	32586	32707	
823	0	32639	32671	32784	32741	32743	32549	32679	32804	
824	0	32626	32695	32775	32609	32751	32839	32599	32671	
825	0	32617	32507	32735	32775	32802	32710	32679	32801	
826	0	32636	32661	32765	32815	32799	32509	32694	32852	
827	0	32571	32599	32551	32609	32830	32793	32455	32731	
828	0	32643	32525	32634	32684	32879	32647	32439	32863	
829	0	32607	32574	32647	32727	32847	32715	32407	32853	
830	0	32552	32626	32735	32671	32869	32627	32479	32775	
831	0	32615	32560	32735	32721	32843	32812	32530	32895	
832	0	32563	32703	32647	32667	32831	32751	32511	32811	
833	0	32580	32667	32759	32693	32867	32571	32495	32887	
834	0	32594	32699	32749	32694	32836	32838	32551	32895	
835	0	32631	32798	32791	32551	32811	32767	32586	32748	
836	0	32655	32871	32821	32581	32871	32646	32463	32757	
837	0	32647	32915	32765	32599	32850	32932	32431	32761	
838	0	32662	33018	32775	32374	32919	32839	32655	32695	
839	0	32738	33050	32783	32505	32863	32769	32563	32855	
840	0	32722	33158	32839	32430	32850	32962	32565	32731	
841	0	32743	33215	32935	32446	32839	32894	32566	32863	
842	0	32774	33158	32843	32380	32919	32831	32387	32863	
843	0	32852	33363	32891	32415	32921	33063	32453	32711	
844	0	32945	33415	32919	32277	32848	33007	32504	32791	
845	0	32960	33363	33008	32386	32797	32791	32711	32727	
846	0	32991	33463	32951	32495	32743	32887	32679	32567	
847	0	33018	33391	32831	32421	32762	33031	32702	32647	
848	0	33095	33243	32775	32576	32811	32924	32786	32539	
849	0	33062	33351	32663	32479	32830	32735	32863	32435	
850	0	33138	33183	32721	32646	32803	32885	32803	32603	
851	0	33146	33087	32775	32687	32805	32854	32692	32614	
852	0	33121	33167	32732	32549	32751	32646	32647	32557	
853	0	33100	33063	32678	32763	32729	32859	32756	32519	
854	0	32983	33003	32626	32639	32702	32775	32775	32539	
855	0	32964	32878	32637	32821	32627	32749	32943	32443	
856	0	33013	32819	32542	32879	32607	32607	33075	32439	
857	0	32951	32722	32527	32741	32583	32803	33086	32338	
858	0	32937	32599	32436	32953	32527	32710	33237	32246	
859	0	32955	32543	32471	33046	32473	32515	33223	32271	
860	0	32994	32553	32382	32999	32455	32613	33223	32196	
861	0	33130	32483	32319	33037	32444	32667	33303	32287	
862	0	33131	32301	32429	33092	32460	32463	33298	32381	
863	0	33180	32335	32367	33119	32458	32627	33079	32269	
864	0	33131	32229	32299	33157	32463	32595	33043	32381	
865	0	32984	32071	32343	33207	32491	32399	33173	32365	
866	0	32893	32127	32365	33063	32583	32567	33002	32487	
867	0	32783	32163	32487	33053	32661	32667	32806	32679	
868	0	32603	32199	32519	32839	32789	32599	32658	32706	
869	0	32553	32279	32647	32845	32806	32423	32591	32836	
870	0	32435	32310	32783	32807	32871	32621	32436	32956	
871	0	32429	32375	32684	32639	32915	32612	32402	33011	
872	0	32403	32372	32807	32653	32961	32662	32163	33131	
873	0	32367	32475	32749	32499	32903	32455	32117	33100	
874	0	32393	32503	32822	32647	33007	32711	32167	33039	
875	0	32407	32470	32786	32673	32959	32669	32237	33124	
876	0	32433	32596	32764	32469	32948	32437	32291	33159	
877	0	32430	32723	32771	32639	32931	32759	32279	33039	
878	0	32493	32583	32757	32631	32961	32727	32271	33071	
879	0	32542	32717	32935	32493	32958	32547	32321	33053	
880	0	32530	32775	32839	32558	32902	32726	32423	32902	
881	0	32501	32761	32829	32447	32899	32831	32491	33010	
882	0	32587	32829	32799	32559	32955	32775	32591	32931	
883	0	32530	32735	32983	32587	32951	32619	32372	32871	
884	0	32598	32895	32903	32590	32919	32901	32365	32816	
885	0	32673	32836	32788	32569	32943	32758	32512	32815	
886	0	32684	32804	32795	32476	32847	32601	32609	32714	
887	0	32726	32931	32758	32603	32797	32827	32489	32679	
888	0	32716	32945	32775	32543	32799	32811	32533	32739	
889	0	32786	32959	32710	32659	32767	32815	32527	32676	
890	0	32804	32791	32837	32711	32807	32724	32583	32626	
891	0	32838	32941	32703	32613	32879	32847	32596	32639	
892	0	32856	32919	32690	32631	32813	32629	32747	32621	
893	0	32784	32815	32633	32679	32740	32764	32766	32623	
894	0	32858	32903	32621	32679	32718	32953	32739	32742	
895	0	32829	32925	32647	32662	32790	32829	32733	32711	
896	0	32844	32895	32710	32466	32804	32614	32722	32583	
897	0	32822	32845	32655	32647	32809	32796	32687	32679	
898	0	32822	32871	32711	32493	32731	32813	32681	32702	
899	0	32838	32887	32691	32667	32738	32767	32620	32710	
900	0	32757	32903	32827	32475	32754	32643	32691	32623	
901	0	32796	32911	32647	32661	32814	32903	32755	32751	
902	0	32797	32802	32755	32762	32804	32822	32773	32717	
903	0	32749	32775	32673	32571	32719	32671	32771	32613	
904	0	32767	32940	32763	32658	32755	32898	32678	32765	
905	0	32756	32791	32614	32551	32791	32819	32661	32723	
906	0	32794	32839	32705	32703	32844	32577	32787	32732	
907	0	32807	32853	32657	32543	32775	32783	32759	32660	
908	0	32765	32807	32735	32706	32743	32838	32711	32707	
909	0	32743	32766	32765	32713	32767	32804	32719	32703	
910	0	32771	32749	32679	32685	32805	32799	32687	32727	
911	0	32748	32903	32743	32709	32749	32711	32707	32630	
912	0	32786	32879	32775	32687	32755	32894	32755	32772	
913	0	32782	32863	32815	32549	32722	32731	32747	32710	
914	0	32898	32791	32742	32716	32738	32583	32687	32647	
915	0	32832	32855	32765	32615	32837	32615	32734	32667	
916	0	32818	32875	32727	32755	32738	32867	32763	32750	
917	0	32831	32786	32701	32572	32734	32749	32551	32819	
918	0	32773	32861	32647	32647	32687	32775	32543	32647	
919	0	32721	32748	32711	32503	32836	32771	32647	32681	
920	0	32718	32695	32633	32749	32743	32574	32741	32791	
921	0	32701	32823	32713	32639	32737	32683	32738	32753	
922	0	32773	32775	32727	32647	32810	32807	32570	32647	
923	0	32752	32799	32799	32526	32805	32722	32524	32732	
924	0	32685	32647	32742	32731	32790	32614	32623	32737	
925	0	32731	32808	32791	32683	32775	32871	32743	32647	
926	0	32699	32815	32622	32615	32796	32847	32694	32621	
927	0	32742	32727	32734	32505	32847	32775	32667	32719	
928	0	32745	32769	32602	32713	32775	32771	32495	32726	
929	0	32684	32719	32735	32631	32747	32589	32493	32726	
930	0	32738	32707	32765	32767	32775	32671	32555	32675	
931	0	32765	32807	32693	32692	32772	32867	32595	32641	
932	0	32763	32855	32775	32691	32803	32823	32582	32735	
933	0	32788	32859	32748	32564	32775	32775	32590	32804	
934	0	32773	32751	32810	32631	32765	32631	32493	32639	
935	0	32775	32715	32703	32527	32772	32812	32545	32745	
936	0	32802	32828	32751	32669	32831	32749	32501	32719	
937	0	32786	32791	32733	32617	32851	32738	32581	32670	
938	0	32796	32786	32719	32703	32879	32607	32593	32710	
939	0	32762	32718	32679	32707	32771	32790	32639	32723	
940	0	32804	32790	32691	32702	32742	32796	32565	32775	
941	0	32807	32850	32615	32638	32775	32773	32605	32708	
942	0	32760	32807	32681	32711	32749	32643	32466	32743	
943	0	32788	32807	32617	32686	32767	32732	32494	32705	
944	0	32782	32692	32695	32639	32759	32831	32631	32717	
945	0	32745	32743	32661	32727	32783	32751	32647	32647	
946	0	32818	32767	32725	32742	32791	32763	32647	32802	
947	0	32767	32850	32717	32564	32775	32751	32563	32732	
948	0	32756	32819	32667	32669	32706	32603	32594	32710	
949	0	32674	32769	32766	32514	32723	32813	32733	32715	
950	0	32814	32747	32647	32660	32821	32775	32762	32694	
951	0	32743	32737	32726	32551	32764	32749	32703	32727	
952	0	32738	32902	32689	32646	32749	32584	32719	32790	
953	0	32759	32831	32903	32575	32785	32825	32711	32621	
954	0	32735	32797	32759	32647	32837	32788	32701	32775	
955	0	32738	32871	32751	32525	32775	32803	32749	32715	
956	0	32798	32799	32627	32683	32695	32631	32670	32671	
957	0	32775	32757	32727	32581	32733	32631	32628	32639	
958	0	32749	32823	32727	32783	32807	32829	32669	32775	
959	0	32743	32803	32687	32562	32823	32763	32667	32703	
960	0	32792	32785	32647	32687	32751	32773	32726	32791	
961	0	32745	32807	32751	32601	32759	32606	32701	32663	
962	0	32726	32714	32733	32677	32788	32707	32698	32751	
963	0	32756	32679	32723	32582	32903	32829	32685	32801	
964	0	32711	32805	32697	32711	32790	32808	32721	32711	
965	0	32755	32804	32691	32739	32743	32765	32687	32677	
966	0	32713	32790	32638	32687	32732	32611	32611	32759	
967	0	32767	32703	32694	32526	32785	32810	32694	32631	
968	0	32783	32802	32677	32722	32839	32799	32767	32627	
969	0	32775	32783	32749	32553	32821	32765	32751	32771	
970	0	32830	32823	32695	32607	32711	32623	32688	32727	
971	0	32832	32763	32743	32535	32740	32759	32660	32667	
972	0	32722	32807	32634	32719	32787	32866	32631	32753	
973	0	32769	32851	32711	32575	32850	32797	32669	32751	
974	0	32842	32789	32679	32694	32735	32586	32639	32627	
975	0	32802	32754	32727	32679	32763	32683	32629	32719	
976	0	32781	32823	32668	32715	32767	32842	32691	32738	
977	0	32771	32871	32726	32639	32711	32813	32683	32724	
978	0	32840	32791	32751	32631	32772	32768	32607	32719	
979	0	32679	32791	32751	32475	32775	32753	32695	32623	
980	0	32737	32806	32845	32711	32901	32546	32687	32720	
981	0	32733	32702	32674	32597	32815	32703	32619	32703	
982	0	32774	32847	32749	32666	32756	32812	32662	32691	
983	0	32774	32751	32749	32534	32775	32801	32701	32687	
984	0	32734	32719	32717	32687	32843	32558	32685	32702	
985	0	32730	32759	32733	32575	32795	32737	32685	32748	
986	0	32769	32859	32783	32658	32715	32887	32707	32630	
987	0	32736	32811	32717	32641	32751	32769	32647	32691	
988	0	32742	32830	32751	32758	32775	32772	32703	32738	
989	0	32761	32690	32762	32727	32863	32592	32735	32682	
990	0	32775	32852	32690	32617	32847	32815	32707	32701	
991	0	32738	32835	32719	32607	32748	32756	32698	32703	
992	0	32749	32819	32705	32647	32859	32867	32619	32758	
993	0	32843	32804	32626	32549	32754	32765	32646	32711	
994	0	32774	32807	32647	32679	32791	32751	32627	32687	
995	0	32726	32734	32594	32514	32775	32519	32647	32694	
996	0	32715	32789	32759	32666	32811	32765	32713	32775	
997	0	32764	32845	32663	32613	32791	32767	32675	32669	
998	0	32788	32745	32658	32790	32828	32573	32639	32730	
999	0	32815	32731	32607	32775	32815	32657	32687	32763	
1000	0	32727	32730	32753	32751	32791	32830	32763	32731	
1001	0	32764	32813	32603	32615	32807	32806	32739	32687	
1002	0	32830	32767	32743	32703	32721	32769	32674	32622	
1003	0	32711	32749	32775	32525	32823	32737	32585	32679	
1004	0	32789	32763	32639	32751	32790	32775	32702	32711	
1005	0	32762	32799	32709	32687	32726	32626	32708	32771	
1006	0	32743	32756	32775	32766	32783	32803	32733	32711	
1007	0	32751	32791	32789	32563	32748	32807	32715	32718	
1008	0	32763	32807	32671	32647	32769	32831	32715	32751	
1009	0	32767	32789	32751	32575	32727	32574	32686	32659	
1010	0	32844	32852	32706	32642	32791	32711	32631	32668	
1011	0	32753	32763	32751	32557	32803	32839	32723	32705	
1012	0	32801	32786	32694	32647	32871	32735	32663	32743	
1013	0	32813	32823	32795	32515	32814	32765	32647	32619	
1014	0	32833	32775	32756	32775	32807	32663	32591	32722	
1015	0	32782	32751	32786	32567	32815	32885	32631	32734	
1016	0	32804	32803	32757	32695	32775	32754	32663	32639	
1017	0	32756	32879	32735	32626	32799	32803	32633	32655	
1018	0	32767	32812	32622	32775	32711	32535	32691	32793	
1019	0	32804	32821	32647	32673	32722	32668	32687	32755	
1020	0	32789	32764	32574	32743	32834	32767	32647	32647	
1021	0	32743	32775	32693	32615	32863	32775	32662	32745	
1022	0	32693	32773	32591	32713	32747	32722	32676	32724	
1023	0	32669	32748	32715	32635	32740	32593	32711	32775	
1024	0	32698	32740	32703	32718	32773	32804	32738	32628	
1025	0	32722	32765	32647	32703	32819	32793	32563	32708	
1026	0	32723	32811	32690	32517	32775	32603	32607	32786	
1027	0	32714	32715	32663	32685	32747	32759	32715	32706	
1028	0	32717	32775	32674	32593	32797	32827	32694	32679	
1029	0	32759	32771	32558	32747	32754	32767	32639	32671	
1030	0	32807	32807	32677	32692	32772	32607	32711	32662	
1031	0	32743	32721	32646	32791	32711	32867	32658	32711	
1032	0	32765	32871	32706	32703	32791	32831	32615	32755	
1033	0	32789	32829	32771	32621	32799	32759	32647	32671	
1034	0	32799	32681	32802	32717	32879	32594	32627	32727	
1035	0	32752	32919	32786	32539	32797	32823	32692	32687	
1036	0	32845	32839	32647	32701	32727	32742	32695	32713	
1037	0	32790	32829	32709	32550	32702	32567	32711	32813	
1038	0	32767	32783	32622	32675	32757	32767	32567	32720	
1039	0	32754	32773	32743	32762	32786	32727	32503	32639	
1040	0	32745	32699	32743	32514	32802	32583	32514	32749	
1041	0	32746	32835	32717	32709	32753	32839	32707	32647	
1042	0	32791	32786	32771	32683	32775	32797	32710	32759	
1043	0	32772	32759	32684	32679	32775	32662	32663	32770	
1044	0	32720	32813	32685	32727	32734	32735	32703	32642	
1045	0	32761	32817	32702	32591	32757	32819	32667	32731	
1046	0	32760	32754	32727	32676	32772	32791	32706	32747	
1047	0	32813	32697	32749	32581	32773	32552	32659	32661	
1048	0	32723	32869	32911	32679	32807	32823	32691	32759	
1049	0	32756	32799	32831	32683	32867	32771	32731	32819	
1050	0	32751	32695	32767	32659	32869	32775	32569	32637	
1051	0	32717	32755	32799	32733	32825	32695	32499	32731	
1052	0	32738	32775	32711	32559	32812	32838	32647	32686	
1053	0	32727	32805	32815	32717	32731	32828	32726	32679	
1054	0	32810	32811	32795	32730	32767	32580	32666	32715	
1055	0	32738	32796	32775	32573	32775	32845	32681	32647	
1056	0	32719	32754	32775	32596	32789	32759	32687	32718	
1057	0	32774	32835	32579	32527	32761	32607	32685	32743	
1058	0	32775	32814	32677	32687	32823	32723	32710	32674	
1059	0	32754	32719	32621	32734	32807	32799	32617	32695	
1060	0	32791	32871	32683	32549	32743	32589	32541	32767	
1061	0	32703	32839	32815	32685	32703	32830	32671	32642	
1062	0	32757	32755	32665	32727	32738	32751	32585	32727	
1063	0	32758	32820	32743	32540	32771	32607	32671	32622	
1064	0	32810	32743	32710	32635	32742	32695	32683	32627	
1065	0	32768	32735	32739	32578	32823	32887	32711	32775	
1066	0	32766	32803	32775	32743	32860	32738	32669	32787	
1067	0	32839	32727	32671	32647	32855	32529	32509	32702	
1068	0	32674	32796	32736	32670	32869	32839	32767	32713	
1069	0	32769	32775	32751	32694	32839	32763	32639	32655	
1070	0	32687	32727	32590	32747	32791	32735	32725	32685	
1071	0	32745	32862	32647	32675	32820	32757	32556	32619	
1072	0	32790	32813	32599	32587	32783	32615	32479	32751	
1073	0	32798	32734	32669	32685	32735	32823	32638	32757	
1074	0	32750	32866	32692	32771	32743	32753	32645	32639	
1075	0	32786	32773	32695	32637	32775	32803	32663	32759	
1076	0	32745	32715	32731	32695	32807	32783	32730	32687	
1077	0	32762	32827	32707	32575	32795	32607	32749	32634	
1078	0	32730	32751	32797	32715	32767	32675	32725	32749	
1079	0	32781	32711	32758	32635	32869	32805	32711	32810	
1080	0	32836	32825	32687	32775	32831	32730	32762	32637	
1081	0	32753	32775	32675	32789	32827	32706	32443	32711	
1082	0	32770	32690	32594	32541	32715	32783	32665	32621	
1083	0	32767	32845	32662	32700	32723	32759	32707	32722	
1084	0	32740	32743	32751	32702	32807	32663	32655	32742	
1085	0	32703	32679	32869	32655	32773	32839	32762	32682	
1086	0	32751	32837	32759	32623	32771	32771	32539	32757	
1087	0	32786	32805	32695	32525	32790	32571	32550	32785	
1088	0	32804	32701	32703	32700	32815	32852	32615	32738	
1089	0	32780	32799	32698	32738	32799	32775	32710	32730	
1090	0	32772	32819	32722	32694	32810	32655	32645	32639	
1091	0	32838	32719	32755	32671	32723	32806	32727	32773	
1092	0	32830	32783	32663	32503	32721	32731	32669	32783	
1093	0	32774	32813	32709	32655	32751	32598	32647	32655	
1094	0	32758	32802	32583	32595	32775	32847	32711	32702	
1095	0	32704	32734	32695	32743	32751	32775	32794	32727	
1096	0	32743	32759	32667	32639	32775	32623	32519	32609	
1097	0	32762	32703	32749	32591	32755	32803	32673	32710	
1098	0	32754	32854	32813	32683	32765	32694	32715	32623	
1099	0	32749	32775	32727	32775	32863	32639	32695	32743	
1100	0	32767	32718	32759	32708	32755	32775	32706	32783	
1101	0	32750	32837	32687	32813	32773	32686	32595	32690	
1102	0	32747	32751	32715	32564	32711	32629	32687	32654	
1103	0	32770	32739	32671	32701	32726	32849	32693	32749	
1104	0	32768	32851	32807	32734	32707	32812	32767	32637	
1105	0	32743	32811	32783	32523	32775	32724	32635	32699	
1106	0	32735	32687	32710	32684	32775	32791	32642	32795	
1107	0	32716	32739	32753	32543	32807	32770	32725	32635	
1108	0	32769	32759	32687	32724	32765	32607	32551	32679	
1109	0	32743	32743	32724	32612	32727	32821	32493	32807	
1110	0	32727	32709	32690	32731	32742	32811	32715	32645	
1111	0	32757	32775	32727	32711	32676	32671	32647	32749	
1112	0	32811	32703	32699	32507	32715	32797	32709	32635	
1113	0	32728	32794	32705	32607	32787	32743	32725	32775	
1114	0	32775	32791	32831	32501	32847	32639	32731	32738	
1115	0	32775	32815	32660	32767	32799	32836	32647	32646	
1116	0	32847	32725	32703	32759	32759	32753	32499	32662	
1117	0	32772	32839	32709	32775	32767	32771	32525	32699	
1118	0	32750	32775	32775	32715	32838	32637	32507	32749	
1119	0	32759	32783	32675	32703	32803	32813	32647	32743	
1120	0	32790	32711	32679	32734	32803	32743	32699	32812	
1121	0	32854	32843	32594	32525	32767	32729	32726	32679	
1122	0	32823	32755	32644	32745	32742	32591	32655	32625	
1123	0	32759	32831	32607	32570	32767	32642	32594	32674	
1124	0	32795	32695	32615	32637	32823	32823	32681	32663	
1125	0	32762	32853	32566	32591	32831	32775	32679	32623	
1126	0	32737	32799	32731	32691	32785	32751	32646	32700	
1127	0	32758	32775	32695	32593	32775	32579	32719	32774	
1128	0	32833	32835	32769	32735	32782	32759	32617	32694	
1129	0	32736	32781	32775	32729	32763	32724	32559	32726	
1130	0	32740	32671	32683	32583	32759	32731	32597	32737	
1131	0	32754	32775	32727	32711	32789	32627	32662	32647	
1132	0	32775	32789	32683	32588	32787	32847	32699	32791	
1133	0	32818	32775	32711	32687	32807	32805	32719	32818	
1134	0	32750	32775	32647	32643	32799	32564	32621	32663	
1135	0	32760	32745	32662	32689	32727	32839	32668	32762	
1136	0	32769	32746	32674	32750	32743	32796	32685	32694	
1137	0	32791	32767	32798	32558	32799	32581	32725	32655	
1138	0	32783	32810	32733	32687	32743	32847	32575	32806	
1139	0	32793	32735	32658	32739	32715	32751	32640	32560	
1140	0	32793	32766	32703	32603	32726	32657	32699	32707	
1141	0	32806	32863	32685	32711	32775	32851	32667	32679	
1142	0	32694	32785	32751	32563	32771	32785	32642	32621	
1143	0	32744	32751	32791	32658	32844	32575	32661	32757	
1144	0	32710	32788	32677	32635	32819	32860	32603	32647	
1145	0	32709	32829	32685	32711	32767	32775	32535	32701	
1146	0	32743	32739	32647	32671	32727	32743	32499	32751	
1147	0	32724	32775	32738	32692	32772	32633	32521	32734	
1148	0	32738	32811	32595	32687	32843	32870	32610	32670	
1149	0	32775	32743	32710	32681	32823	32751	32611	32775	
1150	0	32767	32804	32677	32671	32791	32575	32711	32700	
1151	0	32771	32799	32813	32503	32821	32807	32631	32693	
1152	0	32765	32775	32615	32647	32775	32774	32639	32751	
1153	0	32799	32809	32703	32531	32783	32771	32592	32703	
1154	0	32737	32831	32795	32668	32811	32751	32687	32667	
1155	0	32783	32749	32870	32675	32732	32759	32701	32767	
1156	0	32821	32662	32733	32667	32863	32564	32758	32693	
1157	0	32783	32823	32708	32738	32726	32671	32715	32631	
1158	0	32757	32807	32775	32523	32748	32903	32535	32724	
1159	0	32673	32711	32655	32687	32753	32799	32493	32602	
1160	0	32718	32775	32775	32725	32711	32657	32647	32775	
1161	0	32784	32789	32732	32727	32775	32863	32694	32775	
1162	0	32743	32733	32769	32658	32821	32757	32667	32655	
1163	0	32712	32815	32747	32542	32810	32679	32644	32669	
1164	0	32729	32835	32631	32647	32820	32799	32668	32662	
1165	0	32756	32799	32699	32521	32845	32789	32757	32732	
1166	0	32803	32767	32646	32669	32711	32747	32763	32774	
1167	0	32804	32847	32641	32598	32641	32587	32754	32738	
1168	0	32729	32865	32679	32686	32719	32783	32615	32599	
1169	0	32783	32715	32877	32673	32756	32751	32523	32759	
1170	0	32751	32751	32725	32775	32759	32711	32495	32758	
1171	0	32738	32861	32786	32756	32788	32623	32567	32687	
1172	0	32831	32767	32639	32567	32833	32678	32578	32735	
1173	0	32793	32771	32783	32667	32775	32843	32673	32775	
1174	0	32784	32695	32747	32565	32787	32711	32683	32703	
1175	0	32743	32867	32679	32694	32807	32733	32687	32637	
1176	0	32763	32855	32633	32557	32867	32630	32707	32745	
1177	0	32787	32732	32711	32711	32838	32855	32647	32711	
1178	0	32710	32807	32587	32767	32705	32763	32698	32679	
1179	0	32712	32836	32679	32586	32765	32706	32797	32771	
1180	0	32729	32771	32731	32679	32763	32609	32467	32667	
1181	0	32797	32705	32647	32609	32791	32847	32513	32751	
1182	0	32775	32791	32831	32687	32791	32805	32516	32727	
1183	0	32775	32751	32743	32655	32819	32803	32603	32765	
1184	0	32791	32723	32802	32717	32791	32595	32706	32634	
1185	0	32719	32679	32719	32731	32731	32835	32711	32723	
1186	0	32727	32797	32743	32582	32747	32773	32619	32734	
1187	0	32732	32759	32675	32738	32757	32817	32643	32655	
1188	0	32748	32763	32633	32667	32769	32599	32633	32711	
1189	0	32712	32743	32727	32791	32709	32621	32595	32734	
1190	0	32770	32775	32631	32783	32724	32733	32711	32766	
1191	0	32715	32854	32663	32726	32786	32755	32622	32667	
1192	0	32775	32831	32611	32564	32851	32766	32667	32727	
1193	0	32742	32818	32847	32663	32830	32583	32655	32773	
1194	0	32794	32815	32763	32605	32791	32855	32759	32621	
1195	0	32800	32775	32623	32707	32785	32701	32762	32731	
1196	0	32759	32767	32767	32749	32740	32579	32590	32749	
1197	0	32767	32722	32710	32639	32773	32711	32475	32643	
1198	0	32775	32834	32679	32723	32837	32799	32539	32738	
1199	0	32791	32775	32629	32607	32790	32729	32627	32743	
1200	0	32711	32716	32679	32683	32759	32643	32739	32686	
1201	0	32775	32710	32607	32603	32775	32711	32653	32646	
1202	0	32754	32762	32685	32788	32740	32856	32660	32767	
1203	0	32719	32811	32641	32647	32822	32775	32669	32727	
1204	0	32716	32771	32743	32745	32743	32703	32735	32671	
1205	0	32724	32695	32636	32647	32755	32593	32691	32687	
1206	0	32775	32756	32709	32635	32693	32823	32635	32690	
1207	0	32700	32823	32698	32679	32798	32799	32530	32643	
1208	0	32666	32787	32775	32534	32815	32628	32647	32681	
1209	0	32750	32711	32661	32667	32825	32739	32749	32747	
1210	0	32789	32775	32694	32532	32775	32804	32676	32749	
1211	0	32775	32797	32683	32675	32738	32791	32626	32685	
1212	0	32688	32775	32713	32498	32767	32582	32667	32775	
1213	0	32763	32829	32663	32599	32871	32615	32695	32731	
1214	0	32806	32771	32813	32567	32715	32786	32654	32703	
1215	0	32815	32762	32756	32748	32775	32893	32631	32709	
1216	0	32826	32811	32698	32661	32803	32742	32623	32691	
1217	0	32791	32803	32713	32703	32813	32787	32615	32742	
1218	0	32805	32815	32686	32671	32749	32599	32573	32671	
1219	0	32727	32831	32787	32743	32735	32583	32571	32817	
1220	0	32771	32723	32870	32679	32795	32695	32509	32723	
1221	0	32747	32663	32898	32567	32759	32802	32559	32771	
1222	0	32762	32804	32827	32678	32775	32775	32540	32743	
1223	0	32767	32827	32647	32483	32828	32786	32631	32684	
1224	0	32714	32753	32733	32679	32727	32759	32755	32637	
1225	0	32748	32747	32694	32535	32789	32598	32775	32701	
1226	0	32799	32735	32775	32710	32823	32743	32743	32711	
1227	0	32781	32711	32710	32607	32690	32855	32711	32775	
1228	0	32775	32739	32572	32704	32700	32747	32647	32675	
1229	0	32806	32827	32655	32643	32747	32749	32673	32679	
1230	0	32792	32819	32555	32727	32791	32610	32719	32751	
1231	0	32783	32799	32679	32597	32751	32812	32705	32791	
1232	0	32804	32719	32633	32661	32687	32742	32670	32635	
1233	0	32812	32751	32822	32507	32799	32747	32615	32743	
1234	0	32784	32807	32679	32674	32807	32591	32597	32726	
1235	0	32727	32839	32773	32583	32843	32694	32655	32721	
1236	0	32775	32775	32775	32749	32855	32758	32647	32663	
1237	0	32783	32783	32679	32736	32892	32861	32615	32673	
1238	0	32806	32750	32771	32708	32859	32791	32633	32675	
1239	0	32775	32835	32660	32570	32735	32773	32662	32742	
1240	0	32775	32727	32742	32683	32743	32615	32647	32637	
1241	0	32735	32821	32631	32605	32763	32783	32705	32695	
1242	0	32789	32711	32723	32707	32853	32767	32671	32757	
1243	0	32754	32805	32669	32583	32827	32743	32710	32647	
1244	0	32686	32743	32719	32659	32786	32565	32735	32695	
1245	0	32676	32703	32733	32607	32743	32838	32577	32711	
1246	0	32765	32692	32762	32679	32767	32775	32485	32694	
1247	0	32773	32838	32709	32751	32771	32589	32726	32679	
1248	0	32736	32833	32703	32525	32772	32807	32609	32755	
1249	0	32804	32751	32737	32692	32710	32751	32663	32637	
1250	0	32761	32833	32711	32726	32749	32566	32691	32775	
1251	0	32771	32805	32687	32711	32775	32791	32735	32769	
1252	0	32768	32751	32689	32767	32821	32772	32659	32699	
1253	0	32775	32876	32755	32533	32787	32751	32533	32719	
1254	0	32794	32838	32714	32807	32723	32535	32647	32775	
1255	0	32758	32783	32775	32607	32791	32620	32591	32683	
1256	0	32757	32747	32727	32615	32759	32817	32524	32671	
1257	0	32769	32845	32671	32555	32729	32807	32663	32678	
1258	0	32736	32803	32827	32727	32827	32577	32711	32679	
1259	0	32798	32808	32727	32628	32759	32639	32679	32594	
1260	0	32759	32751	32553	32673	32799	32847	32687	32678	
1261	0	32794	32847	32789	32660	32771	32732	32637	32711	
1262	0	32769	32738	32749	32557	32775	32564	32731	32621	
1263	0	32760	32719	32647	32639	32799	32799	32630	32758	
1264	0	32735	32845	32703	32639	32799	32757	32627	32695	
1265	0	32695	32775	32791	32615	32861	32627	32535	32759	
1266	0	32727	32815	32709	32690	32790	32845	32743	32679	
1267	0	32714	32804	32737	32575	32799	32815	32742	32615	
1268	0	32756	32711	32647	32711	32799	32625	32695	32683	
1269	0	32767	32871	32686	32711	32711	32815	32643	32710	
1270	0	32815	32807	32591	32471	32751	32791	32492	32671	
1271	0	32737	32831	32703	32657	32723	32810	32562	32775	
1272	0	32790	32719	32727	32663	32679	32635	32687	32747	
1273	0	32805	32818	32646	32609	32766	32865	32647	32715	
1274	0	32766	32831	32751	32674	32850	32749	32645	32727	
1275	0	32794	32751	32687	32551	32769	32644	32698	32735	
1276	0	32775	32823	32726	32671	32767	32809	32787	32770	
1277	0	32783	32817	32759	32669	32757	32799	32607	32756	
1278	0	32788	32742	32703	32670	32743	32813	32695	32671	
1279	0	32753	32817	32823	32758	32900	32743	32629	32775	
1280	0	32759	32775	32735	32703	32887	32587	32662	32631	
1281	0	32720	32723	32715	32563	32775	32879	32701	32721	
1282	0	32762	32739	32666	32752	32747	32753	32703	32626	
1283	0	32790	32731	32719	32709	32751	32621	32694	32661	
1284	0	32728	32743	32677	32823	32748	32775	32767	32727	
1285	0	32748	32799	32738	32762	32851	32799	32743	32771	
1286	0	32716	32813	32699	32563	32839	32599	32571	32591	
1287	0	32714	32823	32630	32717	32812	32887	32642	32743	
1288	0	32749	32804	32743	32756	32836	32775	32727	32733	
1289	0	32802	32711	32660	32610	32823	32625	32687	32655	
1290	0	32712	32735	32723	32615	32775	32821	32604	32743	
1291	0	32762	32831	32859	32726	32749	32775	32663	32732	
1292	0	32794	32845	32695	32643	32791	32591	32634	32719	
1293	0	32775	32818	32710	32731	32751	32826	32517	32791	
1294	0	32763	32787	32671	32665	32775	32758	32621	32687	
1295	0	32747	32739	32698	32695	32819	32567	32727	32757	
1296	0	32834	32807	32681	32663	32767	32839	32671	32732	
1297	0	32796	32726	32707	32531	32807	32751	32647	32604	
1298	0	32816	32815	32745	32693	32791	32619	32719	32773	
1299	0	32751	32775	32788	32587	32758	32775	32743	32760	
1300	0	32761	32791	32827	32677	32709	32783	32703	32646	
1301	0	32733	32733	32745	32592	32735	32591	32634	32734	
1302	0	32695	32762	32676	32698	32790	32663	32583	32719	
1303	0	32715	32820	32703	32647	32802	32863	32549	32739	
1304	0	32730	32775	32742	32607	32786	32790	32715	32643	
1305	0	32732	32671	32723	32687	32858	32711	32598	32739	
1306	0	32730	32725	32749	32615	32762	32775	32682	32799	
1307	0	32735	32773	32691	32695	32746	32775	32706	32663	
1308	0	32745	32787	32695	32687	32740	32674	32711	32723	
1309	0	32737	32823	32635	32637	32743	32855	32735	32782	
1310	0	32743	32772	32747	32623	32787	32790	32707	32639	
1311	0	32748	32869	32769	32525	32749	32733	32486	32733	
1312	0	32806	32829	32679	32647	32772	32775	32679	32700	
1313	0	32700	32771	32727	32677	32806	32566	32727	32663	
1314	0	32806	32813	32633	32595	32850	32718	32747	32727	
1315	0	32839	32879	32615	32731	32802	32841	32674	32775	
1316	0	32831	32789	32639	32590	32811	32751	32678	32615	
1317	0	32774	32807	32787	32751	32707	32570	32679	32765	
1318	0	32767	32748	32692	32703	32703	32809	32710	32767	
1319	0	32769	32865	32802	32603	32725	32771	32761	32681	
1320	0	32740	32828	32766	32675	32771	32623	32786	32749	
1321	0	32772	32743	32596	32686	32788	32911	32525	32692	
1322	0	32775	32788	32711	32647	32815	32759	32570	32687	
1323	0	32702	32771	32682	32673	32833	32611	32537	32743	
1324	0	32749	32767	32735	32511	32797	32775	32466	32623	
1325	0	32788	32747	32687	32775	32830	32709	32655	32770	
1326	0	32758	32773	32710	32769	32836	32595	32606	32765	
1327	0	32711	32815	32684	32623	32711	32709	32635	32615	
1328	0	32726	32751	32671	32571	32787	32763	32747	32730	
1329	0	32728	32747	32709	32526	32721	32735	32743	32751	
1330	0	32745	32883	32655	32684	32797	32573	32589	32607	
1331	0	32831	32775	32693	32623	32811	32805	32535	32766	
1332	0	32775	32775	32681	32849	32757	32791	32511	32719	
1333	0	32786	32719	32827	32775	32846	32773	32671	32685	
1334	0	32775	32807	32734	32503	32826	32631	32646	32766	
1335	0	32760	32775	32791	32709	32811	32843	32713	32687	
1336	0	32749	32759	32803	32691	32732	32789	32735	32673	
1337	0	32754	32688	32791	32775	32733	32589	32647	32786	
1338	0	32775	32811	32754	32738	32818	32754	32595	32775	
1339	0	32713	32817	32809	32659	32809	32881	32623	32711	
1340	0	32747	32801	32719	32693	32863	32799	32555	32775	
1341	0	32757	32803	32747	32586	32727	32575	32543	32759	
1342	0	32769	32758	32653	32603	32811	32742	32479	32666	
1343	0	32775	32823	32690	32543	32775	32811	32631	32694	
1344	0	32719	32827	32711	32726	32760	32719	32710	32762	
1345	0	32748	32813	32707	32723	32802	32631	32766	32674	
1346	0	32711	32684	32731	32735	32775	32846	32691	32703	
1347	0	32767	32747	32747	32687	32839	32775	32691	32775	
1348	0	32775	32806	32759	32726	32717	32771	32743	32678	
1349	0	32725	32773	32807	32725	32747	32559	32730	32694	
1350	0	32763	32806	32751	32665	32753	32775	32647	32703	
1351	0	32773	32709	32801	32647	32775	32799	32647	32737	
1352	0	32756	32759	32747	32537	32807	32787	32711	32655	
1353	0	32812	32775	32662	32679	32797	32599	32663	32727	
1354	0	32769	32831	32749	32558	32705	32879	32647	32791	
1355	0	32836	32771	32691	32730	32663	32755	32667	32694	
1356	0	32807	32695	32743	32551	32758	32799	32626	32701	
1357	0	32799	32823	32679	32711	32827	32634	32639	32766	
1358	0	32743	32876	32634	32557	32831	32663	32663	32732	
1359	0	32718	32805	32783	32687	32791	32879	32739	32687	
1360	0	32766	32775	32679	32559	32807	32763	32683	32775	
1361	0	32760	32679	32701	32642	32771	32731	32662	32682	
1362	0	32722	32695	32599	32567	32826	32679	32671	32690	
1363	0	32731	32791	32703	32687	32783	32783	32743	32708	
1364	0	32770	32847	32698	32543	32795	32813	32719	32791	
1365	0	32738	32791	32743	32623	32801	32723	32703	32757	
1366	0	32775	32799	32660	32559	32804	32591	32692	32639	
1367	0	32754	32715	32751	32669	32795	32827	32783	32759	
1368	0	32696	32815	32706	32731	32788	32775	32804	32764	
1369	0	32794	32791	32807	32694	32838	32615	32535	32620	
1370	0	32764	32733	32795	32692	32834	32762	32439	32759	
1371	0	32829	32747	32822	32583	32775	32855	32604	32745	
1372	0	32850	32843	32727	32743	32783	32775	32621	32605	
1373	0	32782	32871	32719	32607	32799	32695	32583	32647	
1374	0	32775	32797	32731	32677	32771	32687	32589	32699	
1375	0	32731	32683	32751	32543	32786	32887	32665	32774	
1376	0	32749	32832	32716	32724	32725	32826	32577	32602	
1377	0	32809	32763	32617	32615	32813	32535	32557	32705	
1378	0	32733	32771	32799	32623	32844	32803	32535	32743	
1379	0	32710	32739	32755	32661	32807	32813	32503	32674	
1380	0	32775	32676	32669	32738	32755	32757	32543	32749	
1381	0	32775	32766	32647	32719	32751	32603	32559	32738	
1382	0	32807	32751	32741	32575	32759	32820	32676	32607	
1383	0	32657	32801	32647	32663	32717	32747	32708	32751	
1384	0	32764	32711	32711	32551	32756	32756	32615	32767	
1385	0	32716	32847	32671	32717	32755	32642	32658	32628	
1386	0	32745	32751	32747	32692	32785	32849	32815	32775	
1387	0	32735	32699	32721	32586	32807	32741	32615	32693	
1388	0	32809	32711	32811	32705	32832	32599	32589	32623	
1389	0	32810	32823	32749	32587	32781	32789	32543	32737	
1390	0	32770	32815	32703	32679	32743	32722	32711	32771	
1391	0	32756	32822	32709	32566	32742	32711	32811	32643	
1392	0	32764	32722	32713	32715	32745	32621	32700	32641	
1393	0	32801	32715	32671	32587	32815	32823	32642	32767	
1394	0	32789	32850	32742	32660	32855	32879	32690	32735	
1395	0	32761	32855	32677	32581	32783	32775	32647	32727	
1396	0	32761	32829	32783	32715	32767	32583	32702	32771	
1397	0	32730	32733	32805	32647	32799	32839	32730	32711	
1398	0	32823	32797	32739	32743	32775	32771	32557	32615	
1399	0	32770	32810	32766	32687	32767	32575	32527	32738	
1400	0	32708	32699	32636	32509	32761	32826	32717	32759	
1401	0	32786	32751	32675	32703	32767	32799	32621	32723	
1402	0	32769	32711	32669	32673	32791	32583	32604	32775	
1403	0	32719	32765	32720	32751	32807	32726	32638	32767	
1404	0	32743	32721	32647	32735	32701	32799	32699	32612	
1405	0	32765	32783	32767	32643	32725	32743	32669	32740	
1406	0	32738	32790	32676	32711	32757	32695	32675	32673	
1407	0	32772	32727	32607	32702	32722	32758	32607	32695	
1408	0	32748	32814	32773	32821	32738	32571	32518	32764	
1409	0	32820	32743	32845	32711	32726	32829	32547	32617	
1410	0	32782	32727	32637	32557	32759	32759	32675	32711	
1411	0	32735	32865	32599	32647	32748	32582	32743	32694	
1412	0	32765	32838	32767	32671	32827	32844	32727	32699	
1413	0	32743	32787	32899	32532	32821	32805	32677	32723	
1414	0	32824	32859	32805	32719	32831	32605	32683	32647	
1415	0	32802	32797	32718	32723	32815	32825	32707	32733	
1416	0	32754	32737	32815	32517	32793	32749	32711	32687	
1417	0	32748	32868	32738	32727	32803	32719	32535	32714	
1418	0	32770	32765	32623	32687	32839	32790	32631	32647	
1419	0	32751	32786	32807	32535	32871	32572	32694	32630	
1420	0	32695	32843	32775	32635	32883	32828	32723	32775	
1421	0	32763	32717	32659	32684	32815	32767	32668	32694	
1422	0	32757	32753	32673	32525	32815	32631	32679	32727	
1423	0	32700	32723	32647	32679	32767	32797	32695	32733	
1424	0	32752	32773	32701	32579	32715	32739	32740	32671	
1425	0	32734	32801	32661	32745	32759	32551	32503	32695	
1426	0	32727	32717	32660	32827	32742	32899	32669	32637	
1427	0	32743	32658	32645	32583	32764	32791	32722	32675	
1428	0	32713	32751	32623	32691	32767	32623	32707	32759	
1429	0	32749	32751	32646	32595	32762	32759	32695	32655	
1430	0	32772	32826	32575	32727	32754	32723	32679	32775	
1431	0	32772	32741	32738	32739	32811	32581	32669	32647	
1432	0	32775	32891	32587	32639	32775	32719	32634	32711	
1433	0	32782	32747	32703	32743	32743	32827	32687	32745	
1434	0	32805	32791	32647	32615	32783	32783	32727	32789	
1435	0	32831	32727	32711	32685	32755	32627	32666	32663	
1436	0	32783	32815	32717	32527	32855	32823	32643	32799	
1437	0	32775	32817	32743	32690	32854	32771	32671	32754	
1438	0	32727	32783	32613	32615	32751	32603	32698	32647	
1439	0	32758	32811	32739	32727	32733	32727	32507	32735	
1440	0	32757	32726	32775	32706	32791	32829	32501	32725	
1441	0	32756	32837	32802	32791	32751	32775	32592	32671	
1442	0	32757	32791	32679	32719	32819	32687	32727	32803	
1443	0	32752	32671	32731	32578	32801	32805	32701	32731	
1444	0	32775	32783	32751	32663	32838	32805	32703	32707	
1445	0	32720	32716	32673	32558	32823	32758	32743	32783	
1446	0	32734	32739	32799	32683	32799	32823	32771	32705	
1447	0	32703	32831	32762	32735	32703	32796	32567	32706	
1448	0	32722	32811	32775	32647	32725	32723	32567	32759	
1449	0	32855	32842	32637	32687	32773	32839	32619	32630	
1450	0	32795	32775	32783	32615	32765	32773	32630	32699	
1451	0	32757	32767	32694	32693	32771	32557	32709	32751	
1452	0	32806	32847	32831	32554	32767	32607	32679	32729	
1453	0	32773	32835	32707	32647	32807	32826	32677	32694	
1454	0	32800	32767	32724	32509	32711	32791	32646	32747	
1455	0	32789	32758	32685	32699	32764	32605	32717	32655	
1456	0	32775	32813	32790	32711	32739	32751	32613	32756	
1457	0	32780	32775	32806	32583	32705	32733	32519	32738	
1458	0	32766	32815	32647	32693	32751	32663	32519	32631	
1459	0	32758	32827	32730	32743	32753	32815	32719	32679	
1460	0	32751	32738	32719	32607	32751	32743	32636	32647	
1461	0	32854	32835	32711	32742	32743	32757	32687	32757	
1462	0	32741	32799	32711	32735	32765	32838	32775	32670	
1463	0	32718	32735	32583	32671	32774	32644	32543	32715	
1464	0	32740	32819	32709	32611	32818	32847	32497	32726	
1465	0	32731	32807	32731	32713	32831	32791	32690	32642	
1466	0	32705	32797	32692	32812	32815	32631	32691	32659	
1467	0	32751	32773	32730	32755	32843	32795	32677	32620	
1468	0	32775	32799	32607	32587	32759	32807	32634	32711	
1469	0	32818	32769	32775	32699	32711	32766	32639	32733	
1470	0	32791	32823	32775	32681	32756	32647	32699	32599	
1471	0	32742	32807	32673	32627	32751	32834	32755	32793	
1472	0	32753	32759	32702	32671	32771	32747	32687	32783	
1473	0	32775	32871	32639	32511	32819	32587	32615	32676	
1474	0	32800	32863	32647	32709	32761	32839	32683	32735	
1475	0	32788	32763	32647	32703	32833	32757	32606	32647	
1476	0	32795	32835	32886	32633	32863	32587	32614	32791	
1477	0	32756	32854	32823	32745	32762	32798	32670	32703	
1478	0	32804	32855	32775	32571	32791	32791	32677	32623	
1479	0	32738	32706	32663	32775	32799	32748	32621	32737	
1480	0	32692	32738	32775	32707	32895	32612	32598	32703	
1481	0	32726	32830	32735	32739	32791	32743	32647	32705	
1482	0	32703	32731	32743	32727	32743	32879	32647	32666	
1483	0	32770	32769	32679	32703	32756	32731	32564	32695	
1484	0	32679	32681	32733	32708	32798	32775	32631	32795	
1485	0	32727	32719	32642	32722	32819	32661	32686	32821	
1486	0	32783	32734	32695	32679	32727	32847	32647	32647	
1487	0	32802	32772	32629	32739	32695	32711	32503	32743	
1488	0	32797	32743	32596	32614	32791	32627	32506	32789	
1489	0	32732	32738	32599	32767	32837	32633	32529	32709	
1490	0	32738	32684	32675	32742	32711	32775	32519	32611	
1491	0	32743	32723	32687	32583	32694	32775	32564	32755	
1492	0	32775	32775	32675	32615	32797	32788	32559	32735	
1493	0	32795	32848	32647	32442	32815	32758	32599	32717	
1494	0	32789	32891	32615	32639	32727	32599	32718	32615	
1495	0	32804	32758	32647	32565	32783	32694	32775	32687	
1496	0	32736	32855	32606	32719	32811	32813	32724	32755	
1497	0	32743	32715	32715	32583	32795	32750	32724	32753	
1498	0	32803	32758	32705	32775	32743	32763	32681	32687	
1499	0	32769	32799	32647	32669	32836	32819	32681	32647	
1500	0	32828	32775	32751	32751	32774	32573	32633	32759	
1501	0	32812	32823	32647	32663	32783	32701	32603	32771	
1502	0	32762	32742	32727	32694	32775	32871	32615	32742	
1503	0	32687	32723	32655	32733	32784	32771	32683	32595	
1504	0	32684	32643	32803	32660	32791	32775	32659	32726	
1505	0	32791	32769	32711	32761	32803	32677	32709	32751	
1506	0	32772	32767	32831	32663	32762	32839	32642	32671	
1507	0	32717	32818	32759	32677	32749	32852	32662	32687	
1508	0	32762	32703	32787	32719	32767	32738	32669	32741	
1509	0	32775	32775	32695	32821	32873	32545	32750	32711	
1510	0	32735	32790	32774	32765	32819	32727	32708	32667	
1511	0	32812	32703	32797	32727	32797	32775	32602	32743	
1512	0	32804	32799	32738	32841	32758	32747	32607	32711	
1513	0	32720	32719	32738	32647	32797	32727	32559	32670	
1514	0	32765	32835	32749	32636	32823	32603	32495	32691	
1515	0	32799	32823	32741	32563	32743	32791	32615	32769	
1516	0	32769	32831	32717	32707	32742	32845	32701	32787	
1517	0	32764	32737	32803	32479	32786	32793	32737	32619	
1518	0	32832	32775	32711	32671	32831	32795	32701	32677	
1519	0	32751	32858	32717	32561	32755	32647	32674	32775	
1520	0	32775	32775	32668	32663	32743	32863	32691	32735	
1521	0	32757	32813	32731	32589	32751	32767	32671	32662	
1522	0	32775	32829	32631	32690	32772	32742	32711	32711	
1523	0	32743	32749	32701	32671	32767	32626	32775	32719	
1524	0	32749	32847	32775	32687	32791	32899	32647	32659	
1525	0	32804	32826	32853	32685	32765	32758	32617	32709	
1526	0	32793	32829	32621	32722	32735	32637	32623	32705	
1527	0	32741	32687	32711	32731	32747	32671	32695	32694	
1528	0	32703	32743	32679	32719	32833	32839	32687	32667	
1529	0	32725	32820	32711	32691	32799	32747	32708	32782	
1530	0	32711	32789	32711	32583	32717	32558	32575	32727	
1531	0	32756	32807	32742	32582	32775	32806	32551	32698	
1532	0	32716	32758	32709	32551	32775	32795	32619	32751	
1533	0	32708	32831	32748	32612	32771	32675	32749	32636	
1534	0	32783	32775	32703	32710	32759	32815	32687	32645	
1535	0	32756	32703	32727	32575	32758	32701	32590	32703	
1536	0	32762	32783	32785	32722	32835	32603	32615	32711	
1537	0	32703	32815	32627	32573	32831	32871	32647	32644	
1538	0	32687	32802	32602	32647	32724	32758	32655	32767	
1539	0	32722	32703	32669	32619	32799	32555	32679	32759	
1540	0	32775	32751	32725	32769	32775	32767	32754	32679	
1541	0	32727	32799	32695	32755	32764	32775	32827	32755	
1542	0	32722	32794	32698	32738	32771	32803	32535	32751	
1543	0	32704	32787	32647	32630	32710	32583	32503	32647	
1544	0	32727	32723	32639	32725	32753	32871	32513	32695	
1545	0	32728	32805	32703	32738	32743	32829	32527	32713	
1546	0	32743	32748	32729	32635	32815	32622	32668	32611	
1547	0	32797	32742	32711	32727	32795	32839	32647	32814	
1548	0	32786	32773	32803	32573	32822	32821	32675	32783	
1549	0	32783	32820	32747	32742	32727	32615	32645	32706	
1550	0	32762	32771	32655	32719	32731	32807	32729	32757	
1551	0	32762	32807	32679	32551	32711	32757	32595	32615	
1552	0	32755	32751	32709	32647	32755	32711	32559	32771	
1553	0	32809	32771	32803	32738	32766	32767	32542	32710	
1554	0	32793	32799	32767	32628	32807	32609	32596	32631	
1555	0	32791	32818	32703	32667	32799	32871	32751	32743	
1556	0	32814	32711	32738	32511	32828	32801	32679	32775	
1557	0	32748	32751	32722	32711	32847	32619	32661	32647	
1558	0	32732	32756	32753	32719	32799	32847	32592	32763	
1559	0	32775	32863	32692	32590	32797	32748	32671	32663	
1560	0	32788	32821	32707	32636	32749	32647	32678	32742	
1561	0	32810	32759	32759	32553	32695	32785	32787	32746	
1562	0	32723	32770	32695	32667	32789	32725	32807	32691	
1563	0	32805	32683	32759	32564	32811	32591	32780	32738	
1564	0	32729	32791	32567	32745	32810	32839	32674	32719	
1565	0	32694	32831	32695	32749	32797	32813	32570	32627	
1566	0	32751	32757	32739	32753	32789	32599	32602	32743	
1567	0	32674	32695	32737	32730	32812	32861	32625	32703	
1568	0	32724	32662	32639	32657	32787	32769	32611	32647	
1569	0	32688	32681	32671	32759	32839	32561	32655	32661	
1570	0	32661	32687	32711	32691	32762	32647	32691	32794	
1571	0	32749	32726	32631	32783	32765	32803	32711	32801	
1572	0	32694	32647	32685	32621	32767	32671	32679	32708	
1573	0	32653	32597	32685	32714	32807	32588	32615	32871	
1574	0	32605	32551	32743	32594	32823	32743	32587	32915	
1575	0	32587	32615	32743	32715	32845	32705	32514	32762	
1576	0	32607	32524	32647	32775	32871	32554	32559	32887	
1577	0	32613	32562	32752	32687	32754	32763	32567	32932	
1578	0	32598	32599	32667	32743	32802	32731	32570	32837	
1579	0	32551	32743	32766	32603	32775	32493	32447	32903	
1580	0	32462	32772	32786	32671	32803	32757	32551	32805	
1581	0	32584	32796	32775	32530	32941	32775	32623	32735	
1582	0	32590	32775	32892	32662	32879	32775	32628	32801	
1583	0	32633	32771	32773	32481	32875	32685	32686	32831	
1584	0	32672	32847	32854	32597	32859	32932	32669	32681	
1585	0	32720	33043	32802	32373	32861	32919	32457	32700	
1586	0	32751	33087	32914	32529	32910	32897	32459	32787	
1587	0	32775	33151	32809	32354	32876	32775	32423	32771	
1588	0	32720	33099	32895	32484	32839	33005	32571	32687	
1589	0	32799	33295	32891	32431	32847	32914	32630	32745	
1590	0	32854	33366	32842	32275	32839	32823	32584	32703	
1591	0	32957	33380	32945	32371	32773	33100	32631	32678	
1592	0	32992	33462	32903	32351	32813	33023	32723	32679	
1593	0	33035	33415	32931	32518	32759	32747	32511	32611	
1594	0	33060	33327	32762	32515	32763	32903	32660	32687	
1595	0	33127	33278	32823	32353	32744	32947	32839	32604	
1596	0	33159	33279	32647	32527	32727	32884	32886	32549	
1597	0	33184	33249	32715	32436	32749	32743	32807	32549	
1598	0	33102	33154	32687	32637	32707	32959	32811	32595	
1599	0	33058	32982	32671	32675	32692	32871	32834	32573	
1600	0	33033	32965	32581	32809	32668	32605	32869	32555	
1601	0	32980	33027	32719	32766	32617	32711	32955	32557	
1602	0	32938	32870	32635	32850	32599	32775	33057	32467	
1603	0	32968	32775	32595	32901	32634	32749	33098	32373	
1604	0	32895	32599	32484	32860	32539	32569	32985	32418	
1605	0	32967	32559	32522	32932	32583	32765	33022	32311	
1606	0	32918	32500	32405	32893	32547	32699	33087	32213	
1607	0	33061	32470	32443	33011	32450	32475	33189	32323	
1608	0	33066	32383	32420	33043	32469	32722	33188	32235	
1609	0	33082	32391	32347	33143	32455	32593	33147	32347	
1610	0	33099	32289	32512	33217	32479	32422	33255	32391	
1611	0	33063	32135	32344	33059	32463	32662	32943	32340	
1612	0	33021	32103	32387	33171	32527	32483	33135	32457	
1613	0	32925	32067	32455	33155	32559	32403	32948	32500	
1614	0	32747	32150	32453	32866	32666	32623	32769	32605	
1615	0	32641	32287	32606	32867	32759	32619	32663	32775	
1616	0	32552	32391	32679	32796	32847	32493	32391	32775	
1617	0	32472	32327	32775	32583	32871	32675	32426	33019	
1618	0	32469	32489	32764	32667	32855	32470	32315	32967	
1619	0	32403	32375	32791	32693	32919	32607	32283	33119	
1620	0	32342	32405	32839	32675	32988	32717	32342	33095	
1621	0	32368	32539	32769	32591	33071	32485	32065	33047	
1622	0	32352	32471	32887	32491	32997	32717	32247	33089	
1623	0	32457	32503	32767	32589	32935	32692	32258	33007	
1624	0	32428	32553	32851	32602	32902	32730	32276	32997	
1625	0	32439	32679	32791	32635	32903	32617	32381	32989	
1626	0	32448	32759	32759	32486	32981	32647	32412	32962	
1627	0	32609	32811	32743	32579	32903	32903	32439	32903	
1628	0	32530	32831	32832	32493	32893	32707	32380	32883	
1629	0	32559	32775	32695	32635	32858	32719	32490	32903	
1630	0	32613	32901	32787	32663	32855	32795	32557	32754	
1631	0	32647	32830	32629	32498	32833	32830	32647	32863	
1632	0	32640	32871	32742	32549	32834	32822	32642	32892	
1633	0	32712	32847	32727	32399	32887	32635	32451	32711	
1634	0	32772	32891	32843	32599	32883	32834	32513	32743	
1635	0	32779	32967	32771	32583	32826	32847	32599	32782	
1636	0	32807	32986	32759	32631	32807	32871	32667	32709	
1637	0	32796	32802	32755	32710	32839	32715	32583	32677	
1638	0	32827	32943	32751	32522	32807	32881	32683	32660	
1639	0	32804	32927	32743	32689	32740	32829	32711	32613	
1640	0	32780	32924	32721	32549	32727	32643	32731	32674	
1641	0	32789	32876	32695	32647	32711	32786	32755	32694	
1642	0	32733	32855	32639	32565	32711	32742	32621	32711	
1643	0	32790	32916	32703	32663	32759	32610	32588	32732	
1644	0	32797	32787	32699	32662	32834	32758	32535	32658	
1645	0	32767	32895	32727	32506	32812	32863	32575	32715	
1646	0	32817	32877	32719	32610	32799	32766	32571	32683	
1647	0	32823	32877	32621	32711	32772	32625	32647	32613	
1648	0	32784	32855	32735	32775	32729	32831	32685	32710	
1649	0	32807	32817	32765	32638	32815	32799	32727	32734	
1650	0	32852	32863	32747	32497	32719	32813	32678	32647	
1651	0	32886	32849	32725	32627	32742	32699	32655	32679	
1652	0	32841	32891	32767	32589	32775	32855	32711	32767	
1653	0	32807	32833	32732	32694	32791	32733	32645	32692	
1654	0	32807	32791	32736	32685	32850	32695	32694	32647	
1655	0	32785	32858	32745	32604	32751	32749	32657	32715	
1656	0	32806	32789	32647	32634	32743	32805	32639	32631	
1657	0	32808	32807	32685	32619	32710	32587	32546	32741	
1658	0	32780	32813	32673	32730	32742	32710	32549	32706	
1659	0	32673	32799	32766	32626	32727	32787	32683	32687	
1660	0	32756	32767	32767	32578	32775	32575	32679	32739	
1661	0	32770	32721	32715	32687	32749	32694	32635	32639	
1662	0	32793	32835	32711	32634	32767	32835	32707	32787	
1663	0	32708	32839	32711	32647	32833	32799	32711	32747	
1664	0	32714	32756	32771	32695	32848	32629	32594	32647	
1665	0	32719	32769	32631	32511	32765	32827	32559	32749	
1666	0	32767	32785	32733	32710	32719	32786	32645	32639	
1667	0	32797	32786	32754	32786	32711	32647	32731	32761	
1668	0	32755	32710	32679	32572	32727	32660	32707	32703	
1669	0	32731	32799	32799	32701	32783	32755	32623	32635	
1670	0	32764	32767	32671	32655	32750	32733	32691	32775	
1671	0	32727	32693	32717	32717	32745	32659	32647	32682	
1672	0	32793	32775	32677	32751	32811	32822	32557	32724	
1673	0	32764	32861	32687	32535	32793	32751	32562	32715	
1674	0	32727	32841	32647	32671	32819	32783	32683	32626	
1675	0	32743	32754	32755	32519	32847	32647	32711	32698	
1676	0	32783	32803	32732	32763	32765	32871	32647	32739	
1677	0	32835	32775	32759	32749	32827	32742	32747	32623	
1678	0	32819	32775	32709	32717	32805	32599	32461	32736	
1679	0	32775	32791	32630	32646	32758	32818	32667	32683	
1680	0	32743	32806	32835	32739	32787	32780	32703	32739	
1681	0	32751	32764	32735	32772	32835	32647	32743	32681	
1682	0	32786	32823	32695	32601	32831	32819	32603	32716	
1683	0	32836	32775	32757	32723	32822	32749	32659	32677	
1684	0	32722	32689	32759	32671	32810	32663	32611	32745	
1685	0	32761	32855	32647	32621	32791	32758	32607	32683	
1686	0	32754	32783	32762	32615	32787	32631	32543	32759	
1687	0	32773	32775	32767	32687	32806	32843	32647	32655	
1688	0	32716	32837	32609	32687	32775	32732	32671	32743	
1689	0	32775	32721	32714	32511	32815	32568	32770	32759	
1690	0	32749	32807	32683	32757	32828	32803	32511	32739	
1691	0	32729	32731	32674	32761	32766	32747	32739	32813	
1692	0	32729	32727	32643	32734	32804	32715	32607	32731	
1693	0	32725	32809	32683	32550	32764	32806	32660	32795	
1694	0	32742	32814	32767	32759	32755	32602	32527	32725	
1695	0	32775	32773	32727	32677	32807	32817	32675	32723	
1696	0	32796	32809	32743	32621	32826	32769	32687	32626	
1697	0	32775	32813	32679	32623	32819	32627	32705	32675	
1698	0	32774	32711	32732	32637	32783	32834	32783	32659	
1699	0	32758	32839	32644	32703	32775	32685	32583	32759	
1700	0	32791	32796	32599	32589	32796	32798	32726	32647	
1701	0	32816	32707	32773	32679	32738	32765	32630	32827	
1702	0	32694	32843	32835	32773	32754	32583	32687	32806	
1703	0	32740	32850	32711	32593	32711	32871	32775	32687	
1704	0	32783	32711	32807	32773	32758	32799	32596	32717	
1705	0	32743	32801	32811	32767	32807	32631	32555	32707	
1706	0	32738	32758	32647	32583	32847	32831	32535	32693	
1707	0	32745	32739	32668	32726	32831	32799	32631	32759	
1708	0	32779	32751	32655	32717	32838	32743	32639	32735	
1709	0	32729	32775	32669	32615	32827	32817	32679	32729	
1710	0	32745	32741	32663	32692	32843	32599	32756	32647	
1711	0	32738	32743	32724	32751	32775	32689	32559	32719	
1712	0	32792	32850	32663	32535	32719	32806	32527	32695	
1713	0	32759	32815	32609	32629	32745	32729	32631	32609	
1714	0	32736	32740	32731	32639	32771	32747	32679	32759	
1715	0	32748	32869	32702	32495	32807	32743	32691	32668	
1716	0	32718	32791	32715	32679	32803	32598	32573	32732	
1717	0	32745	32751	32749	32671	32774	32859	32503	32707	
1718	0	32802	32767	32709	32532	32743	32775	32510	32692	
1719	0	32758	32769	32731	32695	32797	32631	32573	32711	
1720	0	32794	32749	32759	32630	32717	32838	32726	32683	
1721	0	32703	32855	32617	32727	32719	32738	32690	32682	
1722	0	32717	32799	32683	32722	32763	32615	32699	32703	
1723	0	32804	32726	32647	32647	32809	32879	32791	32636	
1724	0	32775	32863	32695	32634	32734	32727	32574	32722	
1725	0	32793	32758	32723	32662	32738	32667	32538	32711	
1726	0	32781	32706	32599	32580	32747	32767	32615	32721	
1727	0	32790	32741	32767	32711	32775	32751	32639	32767	
1728	0	32756	32836	32685	32623	32815	32591	32709	32785	
1729	0	32789	32843	32703	32759	32825	32871	32631	32738	
1730	0	32780	32788	32763	32668	32819	32775	32647	32754	
1731	0	32833	32887	32715	32543	32805	32583	32628	32620	
1732	0	32768	32839	32748	32663	32839	32773	32589	32764	
1733	0	32790	32791	32691	32647	32798	32769	32550	32835	
1734	0	32833	32839	32757	32647	32807	32805	32727	32730	
1735	0	32764	32836	32713	32703	32787	32819	32699	32758	
1736	0	32782	32701	32647	32687	32821	32609	32647	32641	
1737	0	32738	32845	32695	32541	32711	32797	32707	32663	
1738	0	32782	32853	32634	32743	32758	32797	32709	32703	
1739	0	32723	32796	32833	32727	32703	32611	32519	32677	
1740	0	32736	32727	32765	32516	32775	32775	32701	32741	
1741	0	32711	32789	32708	32647	32742	32795	32707	32628	
1742	0	32759	32723	32725	32727	32754	32663	32729	32795	
1743	0	32767	32833	32615	32553	32745	32609	32647	32695	
1744	0	32726	32791	32850	32684	32835	32879	32735	32691	
1745	0	32740	32783	32835	32711	32871	32731	32509	32773	
1746	0	32767	32742	32745	32709	32789	32599	32623	32738	
1747	0	32685	32830	32806	32790	32789	32715	32667	32617	
1748	0	32749	32763	32687	32579	32821	32807	32638	32711	
1749	0	32743	32723	32783	32709	32862	32722	32675	32715	
1750	0	32812	32739	32715	32703	32807	32555	32725	32709	
1751	0	32742	32813	32742	32639	32695	32767	32751	32722	
1752	0	32727	32796	32695	32711	32735	32771	32717	32775	
1753	0	32762	32775	32759	32639	32738	32731	32739	32619	
1754	0	32763	32734	32679	32759	32775	32583	32621	32783	
1755	0	32781	32849	32797	32655	32802	32775	32583	32660	
1756	0	32743	32822	32771	32627	32847	32815	32621	32765	
1757	0	32790	32759	32727	32647	32815	32818	32678	32747	
1758	0	32759	32903	32727	32599	32783	32663	32657	32658	
1759	0	32790	32773	32647	32715	32775	32891	32583	32747	
1760	0	32764	32711	32685	32670	32745	32767	32613	32687	
1761	0	32829	32775	32613	32598	32717	32556	32731	32679	
1762	0	32760	32831	32726	32719	32731	32797	32548	32791	
1763	0	32769	32767	32647	32677	32764	32871	32575	32751	
1764	0	32783	32717	32722	32570	32845	32798	32743	32663	
1765	0	32760	32871	32739	32679	32774	32591	32689	32755	
1766	0	32772	32819	32642	32527	32775	32703	32621	32708	
1767	0	32804	32751	32797	32653	32772	32791	32751	32655	
1768	0	32773	32765	32633	32677	32797	32727	32763	32719	
1769	0	32828	32823	32735	32804	32804	32583	32557	32638	
1770	0	32781	32825	32693	32717	32796	32677	32555	32601	
1771	0	32671	32739	32751	32491	32819	32743	32627	32793	
1772	0	32778	32802	32670	32743	32751	32751	32667	32663	
1773	0	32798	32743	32636	32642	32759	32591	32691	32676	
1774	0	32740	32839	32613	32673	32795	32687	32679	32710	
1775	0	32751	32815	32647	32711	32871	32765	32673	32775	
1776	0	32763	32772	32591	32735	32757	32707	32645	32685	
1777	0	32738	32895	32735	32683	32718	32615	32659	32753	
1778	0	32765	32787	32596	32559	32763	32743	32711	32732	
1779	0	32783	32719	32668	32607	32775	32839	32741	32709	
1780	0	32733	32743	32587	32498	32773	32791	32677	32829	
1781	0	32743	32843	32715	32694	32773	32748	32718	32738	
1782	0	32757	32733	32742	32759	32807	32793	32613	32647	
1783	0	32717	32775	32690	32543	32819	32791	32579	32771	
1784	0	32709	32832	32815	32723	32885	32749	32599	32727	
1785	0	32734	32767	32694	32583	32775	32590	32579	32644	
1786	0	32764	32743	32757	32669	32722	32717	32703	32633	
1787	0	32742	32711	32679	32578	32767	32815	32621	32764	
1788	0	32734	32801	32730	32759	32772	32771	32732	32671	
1789	0	32797	32751	32673	32695	32771	32615	32583	32708	
1790	0	32785	32749	32831	32563	32767	32919	32532	32775	
1791	0	32755	32820	32759	32749	32801	32815	32679	32655	
1792	0	32763	32804	32685	32711	32727	32579	32639	32751	
1793	0	32775	32802	32791	32509	32759	32859	32674	32751	
1794	0	32783	32867	32675	32679	32743	32711	32703	32739	
1795	0	32739	32871	32787	32683	32786	32626	32554	32707	
1796	0	32772	32823	32814	32601	32757	32862	32603	32647	
1797	0	32775	32769	32623	32643	32757	32807	32700	32807	
1798	0	32820	32863	32642	32565	32795	32629	32655	32743	
1799	0	32729	32811	32615	32723	32762	32843	32693	32679	
1800	0	32772	32823	32643	32668	32738	32747	32684	32716	
1801	0	32814	32717	32637	32629	32747	32523	32579	32730	
1802	0	32717	32757	32735	32683	32762	32820	32585	32699	
1803	0	32683	32783	32739	32615	32793	32787	32623	32748	
1804	0	32727	32722	32751	32679	32811	32795	32693	32745	
1805	0	32824	32687	32634	32644	32827	32605	32642	32684	
1806	0	32727	32791	32738	32727	32807	32815	32703	32679	
1807	0	32706	32835	32642	32708	32711	32815	32708	32738	
1808	0	32765	32775	32763	32590	32727	32766	32629	32775	
1809	0	32807	32679	32647	32687	32775	32663	32690	32675	
1810	0	32804	32859	32657	32639	32811	32735	32475	32743	
1811	0	32864	32823	32698	32735	32798	32783	32570	32647	
1812	0	32815	32809	32610	32732	32869	32623	32637	32735	
1813	0	32740	32685	32749	32647	32839	32839	32615	32813	
1814	0	32722	32803	32655	32645	32743	32755	32711	32658	
1815	0	32750	32804	32775	32655	32775	32565	32698	32739	
1816	0	32784	32775	32733	32583	32691	32831	32685	32725	
1817	0	32802	32879	32717	32671	32739	32789	32715	32630	
1818	0	32795	32859	32678	32751	32716	32655	32503	32729	
1819	0	32715	32771	32799	32635	32711	32834	32516	32705	
1820	0	32759	32855	32925	32646	32827	32775	32567	32686	
1821	0	32755	32775	32929	32539	32772	32627	32621	32765	
1822	0	32740	32723	32775	32667	32813	32891	32697	32717	
1823	0	32739	32773	32743	32563	32846	32795	32623	32627	
1824	0	32727	32737	32804	32718	32809	32647	32641	32773	
1825	0	32724	32799	32759	32759	32767	32718	32711	32751	
1826	0	32788	32715	32727	32559	32756	32862	32711	32647	
1827	0	32732	32683	32671	32714	32763	32789	32676	32669	
1828	0	32782	32775	32758	32535	32811	32809	32700	32701	
1829	0	32796	32823	32693	32694	32809	32635	32766	32766	
1830	0	32760	32711	32743	32647	32839	32812	32659	32642	
1831	0	32795	32769	32723	32647	32821	32759	32700	32735	
1832	0	32802	32855	32693	32683	32741	32565	32677	32743	
1833	0	32743	32773	32773	32609	32711	32767	32735	32663	
1834	0	32758	32813	32713	32709	32743	32775	32743	32711	
1835	0	32836	32789	32767	32742	32773	32706	32762	32699	
1836	0	32871	32774	32706	32662	32767	32615	32587	32747	
1837	0	32815	32770	32727	32699	32785	32827	32556	32723	
1838	0	32799	32749	32711	32695	32815	32870	32763	32743	
1839	0	32726	32831	32711	32642	32711	32783	32627	32621	
1840	0	32742	32802	32654	32557	32694	32775	32559	32743	
1841	0	32750	32695	32703	32637	32759	32669	32570	32788	
1842	0	32732	32825	32677	32663	32788	32775	32599	32631	
1843	0	32775	32775	32734	32597	32799	32783	32682	32727	
1844	0	32743	32681	32701	32687	32767	32549	32661	32723	
1845	0	32784	32801	32845	32535	32805	32775	32754	32641	
1846	0	32791	32743	32734	32717	32799	32775	32647	32711	
1847	0	32775	32769	32773	32751	32749	32775	32647	32662	
1848	0	32754	32603	32877	32795	32865	32519	32656	32707	
1849	0	32730	32814	32798	32722	32773	32791	32663	32783	
1850	0	32743	32829	32718	32599	32731	32863	32646	32719	
1851	0	32726	32799	32743	32609	32735	32786	32714	32647	
1852	0	32823	32751	32625	32551	32743	32727	32679	32635	
1853	0	32839	32701	32647	32775	32807	32559	32662	32706	
1854	0	32747	32746	32630	32676	32819	32677	32687	32839	
1855	0	32831	32829	32819	32719	32733	32835	32676	32703	
1856	0	32801	32813	32647	32540	32734	32765	32686	32647	
1857	0	32782	32791	32689	32677	32763	32775	32663	32738	
1858	0	32768	32722	32589	32598	32775	32583	32726	32783	
1859	0	32706	32766	32755	32743	32827	32703	32647	32638	
1860	0	32757	32821	32679	32593	32751	32839	32641	32750	
1861	0	32839	32775	32623	32695	32748	32807	32693	32647	
1862	0	32773	32723	32644	32625	32811	32765	32633	32693	
1863	0	32754	32647	32745	32733	32839	32557	32681	32708	
1864	0	32727	32755	32631	32727	32845	32789	32707	32711	
1865	0	32708	32771	32717	32746	32766	32873	32740	32767	
1866	0	32738	32743	32824	32695	32699	32771	32745	32663	
1867	0	32765	32807	32710	32677	32775	32743	32729	32605	
1868	0	32772	32718	32759	32655	32837	32583	32659	32783	
1869	0	32754	32687	32733	32739	32847	32647	32725	32755	
1870	0	32763	32791	32662	32754	32775	32742	32759	32719	
1871	0	32741	32775	32623	32647	32738	32775	32622	32698	
1872	0	32757	32815	32731	32647	32730	32735	32594	32703	
1873	0	32720	32735	32674	32638	32807	32762	32518	32723	
1874	0	32791	32721	32754	32748	32765	32543	32599	32713	
1875	0	32738	32799	32667	32702	32767	32639	32558	32626	
1876	0	32726	32773	32725	32734	32785	32821	32561	32687	
1877	0	32780	32742	32609	32551	32759	32767	32679	32679	
1878	0	32748	32685	32714	32613	32775	32753	32634	32613	
1879	0	32751	32863	32591	32578	32797	32607	32667	32759	
1880	0	32740	32759	32719	32827	32863	32827	32685	32775	
1881	0	32742	32762	32739	32775	32775	32709	32740	32700	
1882	0	32781	32829	32667	32583	32821	32557	32698	32687	
1883	0	32730	32775	32714	32734	32785	32888	32703	32655	
1884	0	32703	32679	32679	32775	32803	32775	32747	32763	
1885	0	32735	32719	32711	32785	32774	32757	32737	32765	
1886	0	32775	32733	32623	32726	32751	32605	32433	32612	
1887	0	32823	32756	32717	32519	32763	32841	32603	32775	
1888	0	32838	32767	32731	32685	32798	32795	32703	32775	
1889	0	32820	32879	32743	32692	32743	32769	32631	32621	
1890	0	32743	32835	32717	32743	32793	32579	32681	32762	
1891	0	32751	32764	32711	32673	32819	32733	32672	32746	
1892	0	32694	32743	32647	32731	32719	32894	32615	32724	
1893	0	32781	32885	32727	32767	32775	32813	32717	32647	
1894	0	32773	32835	32762	32565	32775	32611	32767	32686	
1895	0	32801	32709	32638	32711	32719	32790	32595	32629	
1896	0	32783	32876	32790	32718	32820	32707	32542	32654	
1897	0	32762	32799	32671	32739	32748	32729	32599	32749	
1898	0	32741	32769	32686	32699	32804	32591	32657	32762	
1899	0	32764	32801	32621	32463	32787	32865	32717	32698	
1900	0	32786	32818	32731	32727	32775	32727	32706	32748	
1901	0	32791	32748	32763	32755	32803	32596	32761	32647	
1902	0	32772	32722	32708	32647	32766	32767	32543	32743	
1903	0	32781	32829	32775	32662	32767	32797	32574	32773	
1904	0	32808	32805	32663	32543	32723	32770	32703	32679	
1905	0	32771	32694	32799	32671	32807	32763	32707	32659	
1906	0	32769	32767	32722	32527	32835	32626	32734	32729	
1907	0	32724	32827	32751	32655	32805	32862	32666	32719	
1908	0	32799	32805	32765	32499	32822	32887	32679	32654	
1909	0	32711	32873	32623	32623	32809	32711	32643	32655	
1910	0	32734	32717	32733	32501	32823	32610	32626	32771	
1911	0	32731	32875	32775	32679	32891	32735	32575	32755	
1912	0	32766	32871	32810	32658	32844	32775	32723	32658	
1913	0	32823	32817	32757	32735	32820	32730	32775	32775	
1914	0	32765	32738	32719	32621	32757	32564	32771	32711	
1915	0	32794	32775	32631	32671	32803	32678	32759	32775	
1916	0	32814	32879	32623	32647	32862	32863	32683	32620	
1917	0	32735	32847	32658	32567	32829	32802	32724	32767	
1918	0	32742	32695	32658	32627	32791	32599	32519	32670	
1919	0	32748	32767	32644	32671	32832	32771	32620	32748	
1920	0	32697	32659	32665	32558	32841	32756	32662	32799	
1921	0	32755	32749	32757	32713	32839	32639	32607	32647	
1922	0	32646	32788	32775	32643	32831	32831	32711	32775	
1923	0	32723	32682	32691	32743	32746	32771	32559	32721	
1924	0	32739	32819	32729	32630	32715	32647	32629	32755	
1925	0	32717	32799	32813	32599	32809	32786	32671	32763	
1926	0	32710	32702	32727	32631	32791	32587	32671	32679	
1927	0	32793	32731	32730	32693	32753	32799	32759	32745	
1928	0	32809	32677	32711	32775	32789	32775	32547	32671	
1929	0	32774	32871	32643	32543	32797	32638	32684	32731	
1930	0	32724	32838	32655	32791	32673	32845	32663	32684	
1931	0	32812	32829	32601	32775	32695	32681	32661	32783	
1932	0	32796	32871	32647	32586	32741	32572	32775	32719	
1933	0	32742	32767	32679	32679	32715	32831	32559	32635	
1934	0	32808	32862	32635	32687	32751	32763	32687	32669	
1935	0	32787	32871	32659	32755	32757	32635	32725	32723	
1936	0	32781	32767	32621	32730	32767	32861	32667	32663	
1937	0	32813	32750	32703	32551	32771	32799	32647	32709	
1938	0	32786	32775	32723	32701	32811	32553	32663	32687	
1939	0	32765	32758	32794	32740	32855	32803	32707	32793	
1940	0	32711	32675	32812	32749	32823	32811	32539	32734	
1941	0	32751	32820	32712	32759	32834	32751	32577	32623	
1942	0	32746	32786	32844	32582	32764	32591	32549	32743	
1943	0	32751	32815	32711	32643	32717	32695	32667	32690	
1944	0	32686	32671	32729	32543	32647	32781	32721	32647	
1945	0	32766	32757	32669	32707	32775	32566	32617	32766	
1946	0	32687	32742	32771	32691	32761	32799	32703	32767	
1947	0	32769	32713	32725	32595	32831	32755	32741	32619	
1948	0	32773	32795	32631	32710	32793	32766	32724	32716	
1949	0	32750	32819	32679	32679	32799	32694	32511	32791	
1950	0	32726	32723	32762	32573	32847	32807	32487	32599	
1951	0	32735	32743	32789	32675	32838	32564	32621	32754	
1952	0	32742	32734	32771	32725	32775	32630	32623	32685	
1953	0	32733	32735	32695	32637	32789	32871	32615	32673	
1954	0	32721	32863	32775	32691	32722	32750	32733	32703	
1955	0	32813	32841	32671	32591	32801	32722	32677	32742	
1956	0	32750	32799	32775	32723	32775	32676	32667	32647	
1957	0	32809	32808	32711	32623	32758	32899	32710	32775	
1958	0	32771	32789	32767	32732	32756	32831	32715	32831	
1959	0	32822	32740	32754	32743	32827	32567	32775	32658	
1960	0	32762	32743	32647	32563	32831	32810	32799	32706	
1961	0	32743	32786	32771	32726	32869	32796	32551	32678	
1962	0	32775	32711	32663	32693	32854	32750	32545	32715	
1963	0	32789	32819	32763	32623	32775	32679	32701	32765	
1964	0	32788	32765	32719	32617	32740	32803	32719	32658	
1965	0	32756	32717	32602	32671	32773	32753	32639	32821	
1966	0	32756	32847	32694	32726	32738	32599	32731	32703	
1967	0	32734	32783	32635	32655	32810	32773	32727	32631	
1968	0	32779	32833	32687	32695	32751	32748	32775	32735	
1969	0	32742	32721	32630	32695	32757	32756	32487	32758	
1970	0	32738	32804	32758	32607	32783	32657	32659	32635	
1971	0	32731	32757	32682	32691	32797	32885	32743	32681	
1972	0	32734	32811	32611	32613	32815	32801	32636	32663	
1973	0	32767	32839	32660	32685	32743	32557	32607	32687	
1974	0	32788	32847	32647	32639	32791	32751	32669	32694	
1975	0	32814	32827	32722	32659	32771	32911	32703	32739	
1976	0	32786	32685	32613	32679	32775	32756	32743	32635	
1977	0	32748	32775	32687	32680	32799	32585	32652	32726	
1978	0	32737	32767	32694	32695	32751	32740	32557	32739	
1979	0	32793	32743	32733	32612	32729	32775	32572	32698	
1980	0	32775	32677	32679	32703	32775	32743	32635	32725	
1981	0	32735	32790	32807	32543	32795	32599	32667	32751	
1982	0	32708	32754	32691	32706	32747	32739	32662	32647	
1983	0	32681	32775	32902	32707	32797	32751	32695	32749	
1984	0	32748	32775	32735	32573	32766	32612	32647	32761	
1985	0	32727	32751	32731	32757	32737	32848	32567	32727	
1986	0	32772	32682	32799	32708	32799	32709	32679	32730	
1987	0	32808	32895	32701	32519	32727	32582	32615	32631	
1988	0	32787	32875	32655	32705	32737	32883	32671	32786	
1989	0	32736	32711	32655	32635	32821	32797	32739	32743	
1990	0	32823	32735	32655	32763	32791	32567	32579	32695	
1991	0	32795	32835	32703	32739	32749	32828	32711	32746	
1992	0	32827	32747	32701	32584	32807	32775	32703	32621	
1993	0	32775	32771	32647	32679	32807	32763	32645	32668	
1994	0	32822	32871	32799	32706	32790	32694	32647	32713	
1995	0	32784	32871	32703	32590	32805	32863	32709	32671	
1996	0	32743	32750	32787	32679	32775	32815	32783	32717	
1997	0	32799	32841	32663	32501	32730	32559	32577	32724	
1998	0	32795	32823	32697	32644	32695	32879	32543	32659	
1999	0	32753	32743	32669	32658	32711	32731	32687	32725	
2000	0	32780	32807	32827	32575	32742	32565	32740	32775	
2001	0	32799	32815	32795	32645	32775	32838	32687	32786	
2002	0	32710	32851	32775	32687	32847	32743	32701	32751	
2003	0	32738	32859	32747	32695	32839	32667	32571	32660	
2004	0	32733	32763	32803	32711	32758	32841	32568	32751	
2005	0	32769	32655	32689	32731	32791	32774	32611	32773	
2006	0	32790	32814	32742	32581	32709	32607	32708	32703	
2007	0	32726	32797	32771	32743	32774	32860	32679	32743	
2008	0	32751	32749	32677	32742	32740	32741	32741	32583	
2009	0	32766	32775	32687	32589	32719	32647	32540	32692	
2010	0	32772	32663	32599	32711	32767	32862	32539	32647	
2011	0	32727	32823	32685	32701	32745	32765	32615	32743	
2012	0	32741	32831	32559	32699	32813	32794	32507	32839	
2013	0	32682	32805	32675	32763	32887	32559	32511	32732	
2014	0	32780	32726	32655	32559	32806	32758	32599	32628	
2015	0	32758	32757	32718	32703	32755	32833	32615	32823	
2016	0	32757	32841	32626	32558	32749	32775	32673	32755	
2017	0	32740	32858	32722	32674	32751	32646	32647	32663	
2018	0	32745	32774	32789	32583	32765	32819	32743	32771	
2019	0	32822	32783	32767	32716	32797	32757	32626	32743	
2020	0	32751	32756	32822	32695	32775	32724	32673	32562	
2021	0	32753	32823	32751	32551	32727	32677	32677	32695	
2022	0	32747	32807	32738	32663	32814	32919	32743	32647	
2023	0	32734	32647	32647	32568	32813	32811	32775	32711	
2024	0	32740	32825	32849	32695	32795	32547	32533	32723	
2025	0	32771	32791	32703	32743	32799	32807	32566	32635	
2026	0	32727	32726	32732	32655	32799	32762	32499	32694	
2027	0	32759	32679	32739	32679	32743	32722	32519	32749	
2028	0	32765	32775	32826	32559	32750	32641	32597	32735	
2029	0	32775	32797	32751	32702	32827	32828	32711	32703	
2030	0	32808	32819	32687	32556	32743	32754	32700	32751	
2031	0	32710	32775	32669	32677	32803	32579	32611	32785	
2032	0	32817	32828	32687	32670	32736	32775	32699	32687	
2033	0	32802	32791	32743	32711	32790	32739	32725	32709	
2034	0	32734	32799	32570	32703	32806	32625	32783	32669	
2035	0	32751	32867	32692	32543	32815	32775	32506	32767	
2036	0	32804	32829	32676	32699	32833	32523	32621	32711	
2037	0	32755	32763	32603	32634	32759	32819	32757	32749	
2038	0	32823	32847	32697	32543	32763	32725	32695	32738	
2039	0	32756	32823	32748	32658	32815	32603	32623	32655	
2040	0	32726	32751	32727	32625	32725	32867	32593	32767	
2041	0	32749	32859	32723	32621	32743	32733	32719	32692	
2042	0	32724	32722	32709	32711	32735	32715	32535	32767	
2043	0	32702	32815	32790	32772	32819	32809	32739	32675	
2044	0	32719	32821	32734	32539	32813	32551	32679	32773	
2045	0	32781	32745	32630	32695	32695	32827	32679	32709	
2046	0	32783	32843	32678	32706	32719	32798	32663	32593	
2047	0	32793	32769	32711	32597	32775	32786	32709	32676	
2048	0	32807	32837	32655	32761	32747	32805	32670	32629	
2049	0	32732	32818	32751	32719	32734	32605	32549	32762	
2050	0	32751	32767	32751	32543	32775	32823	32543	32719	
2051	0	32755	32839	32694	32775	32769	32595	32727	32775	
2052	0	32826	32767	32765	32745	32787	32879	32670	32735	
2053	0	32793	32767	32685	32587	32789	32751	32754	32615	
2054	0	32803	32855	32705	32705	32725	32630	32747	32749	
2055	0	32806	32839	32771	32711	32741	32863	32551	32637	
2056	0	32743	32839	32667	32490	32756	32807	32721	32751	
2057	0	32738	32815	32699	32719	32797	32865	32719	32647	
2058	0	32804	32830	32679	32677	32792	32751	32723	32711	
2059	0	32724	32771	32615	32578	32800	32647	32599	32644	
2060	0	32695	32743	32863	32581	32828	32860	32628	32723	
2061	0	32728	32868	32788	32583	32827	32617	32677	32683	
2062	0	32755	32745	32679	32671	32827	32843	32619	32731	
2063	0	32727	32701	32741	32738	32707	32775	32621	32751	
2064	0	32719	32683	32674	32749	32726	32541	32663	32662	
2065	0	32756	32751	32715	32563	32674	32831	32747	32791	
2066	0	32730	32756	32711	32737	32738	32743	32594	32823	
2067	0	32749	32749	32703	32719	32691	32635	32554	32647	
2068	0	32790	32799	32707	32511	32693	32819	32647	32679	
2069	0	32767	32708	32647	32748	32711	32574	32615	32597	
2070	0	32783	32807	32713	32683	32757	32860	32706	32690	
2071	0	32797	32813	32751	32683	32799	32807	32714	32758	
2072	0	32818	32775	32612	32727	32815	32586	32700	32670	
2073	0	32841	32679	32751	32647	32860	32811	32575	32739	
2074	0	32722	32802	32866	32647	32879	32718	32563	32678	
2075	0	32791	32813	32863	32623	32902	32671	32700	32767	
2076	0	32731	32711	32771	32546	32789	32815	32709	32759	
2077	0	32751	32821	32647	32796	32799	32700	32671	32641	
2078	0	32765	32821	32695	32770	32775	32685	32723	32775	
2079	0	32784	32697	32699	32509	32815	32789	32738	32689	
2080	0	32753	32798	32758	32636	32775	32773	32628	32662	
2081	0	32736	32754	32647	32509	32749	32684	32541	32775	
2082	0	32728	32791	32671	32727	32743	32791	32631	32666	
2083	0	32751	32743	32711	32669	32733	32783	32687	32663	
2084	0	32782	32767	32640	32555	32740	32791	32687	32738	
2085	0	32738	32714	32727	32679	32791	32711	32599	32661	
2086	0	32770	32859	32731	32769	32759	32722	32718	32731	
2087	0	32768	32815	32647	32577	32775	32827	32521	32631	
2088	0	32823	32759	32810	32751	32743	32611	32623	32795	
2089	0	32782	32818	32762	32725	32788	32879	32737	32631	
2090	0	32775	32823	32764	32583	32791	32786	32627	32647	
2091	0	32762	32831	32823	32775	32711	32717	32687	32738	
2092	0	32736	32879	32775	32719	32755	32775	32623	32727	
2093	0	32786	32796	32687	32537	32775	32592	32719	32767	
2094	0	32743	32865	32703	32733	32724	32815	32543	32639	
2095	0	32767	32853	32767	32743	32740	32751	32695	32727	
2096	0	32749	32670	32599	32469	32716	32807	32637	32631	
2097	0	32756	32846	32679	32679	32725	32787	32783	32743	
2098	0	32784	32762	32666	32683	32775	32617	32455	32727	
2099	0	32727	32735	32621	32583	32743	32867	32609	32683	
2100	0	32722	32819	32883	32719	32824	32787	32679	32751	
2101	0	32671	32765	32838	32705	32771	32719	32585	32707	
2102	0	32746	32741	32735	32518	32702	32839	32639	32707	
2103	0	32712	32815	32694	32643	32738	32551	32647	32770	
2104	0	32792	32775	32623	32629	32791	32823	32726	32639	
2105	0	32782	32709	32727	32735	32790	32749	32817	32739	
2106	0	32682	32775	32733	32610	32799	32679	32471	32703	
2107	0	32683	32721	32839	32639	32835	32687	32613	32751	
2108	0	32791	32775	32775	32751	32813	32542	32751	32759	
2109	0	32711	32815	32751	32663	32866	32823	32731	32685	
2110	0	32762	32689	32749	32590	32830	32758	32717	32754	
2111	0	32767	32799	32719	32716	32835	32695	32719	32671	
2112	0	32791	32775	32740	32791	32821	32765	32564	32807	
2113	0	32751	32679	32809	32619	32754	32733	32731	32799	
2114	0	32823	32763	32692	32675	32730	32644	32721	32655	
2115	0	32784	32815	32711	32531	32775	32803	32797	32757	
2116	0	32822	32766	32685	32691	32775	32788	32590	32775	
2117	0	32754	32786	32693	32699	32799	32799	32513	32602	
2118	0	32678	32739	32663	32519	32811	32797	32637	32711	
2119	0	32738	32735	32728	32709	32795	32611	32659	32679	
2120	0	32717	32899	32739	32695	32815	32830	32597	32711	
2121	0	32745	32775	32685	32595	32841	32769	32587	32775	
2122	0	32813	32705	32668	32709	32799	32819	32687	32655	
2123	0	32766	32789	32679	32718	32867	32749	32753	32775	
2124	0	32793	32715	32647	32575	32775	32695	32545	32646	
2125	0	32775	32749	32679	32755	32763	32795	32727	32669	
2126	0	32745	32721	32660	32799	32726	32615	32623	32663	
2127	0	32783	32695	32590	32605	32723	32745	32701	32754	
2128	0	32761	32821	32722	32751	32766	32548	32603	32687	
2129	0	32721	32707	32743	32687	32758	32847	32517	32822	
2130	0	32716	32869	32691	32550	32765	32759	32581	32806	
2131	0	32782	32855	32773	32769	32775	32735	32451	32683	
2132	0	32806	32759	32734	32646	32803	32802	32677	32711	
2133	0	32789	32775	32643	32595	32831	32671	32709	32631	
2134	0	32742	32773	32655	32735	32775	32820	32655	32775	
2135	0	32765	32879	32615	32669	32812	32751	32703	32677	
2136	0	32775	32809	32735	32526	32743	32798	32695	32764	
2137	0	32743	32775	32655	32691	32753	32783	32692	32711	
2138	0	32797	32707	32769	32551	32783	32719	32763	32749	
2139	0	32753	32811	32727	32647	32748	32623	32603	32645	
2140	0	32790	32763	32685	32675	32775	32857	32517	32719	
2141	0	32838	32759	32746	32699	32731	32775	32599	32677	
2142	0	32759	32775	32839	32669	32751	32605	32615	32707	
2143	0	32762	32843	32759	32535	32751	32915	32639	32727	
2144	0	32702	32723	32703	32706	32855	32759	32663	32626	
2145	0	32708	32759	32854	32687	32823	32669	32548	32743	
2146	0	32782	32763	32765	32551	32838	32903	32514	32703	
2147	0	32717	32805	32754	32721	32847	32762	32569	32621	
