# OpenSignals Text File Format
# {"00:07:80:64:6D:DA": {"sensor": ["CUSTOM/0.5/1.0/V", "CUSTOM/0.5/1.0/V", "CUSTOM/0.5/1.0/V", "CUSTOM/0.5/1.0/V"], "device name": "Plataforma", "column": ["nSeq", "DI", "CH1", "CH2", "CH3", "CH4"], "sync interval": 2, "time": "14:13:15.538", "comments": "", "device connection": "BTH00:07:80:64:6D:DA", "channels": [1, 2, 3, 4], "date": "2017-6-2", "mode": 0, "digital IO": [0, 1], "firmware version": 772, "device": "biosignalsplux", "position": 0, "sampling rate": 1000, "label": ["CH1", "CH2", "CH3", "CH4"], "resolution": [16, 16, 16, 16], "special": [{}, {}, {}, {}]}, "00:07:80:3B:46:38": {"sensor": ["CUSTOM/0.5/1.0/V", "CUSTOM/0.5/1.0/V", "CUSTOM/0.5/1.0/V", "CUSTOM/0.5/1.0/V", "CUSTOM/0.5/1.0/V", "CUSTOM/0.5/1.0/V", "CUSTOM/0.5/1.0/V", "CUSTOM/0.5/1.0/V"], "device name": "EMGs", "column": ["nSeq", "DI", "RA_L", "RA_R", "OE_L", "OE:R", "IL_L", "IL_R", "MF_L", "MF_R"], "sync interval": 2, "time": "14:13:15.538", "comments": "", "device connection": "BTH00:07:80:3B:46:38", "channels": [1, 2, 3, 4, 5, 6, 7, 8], "date": "2017-6-2", "mode": 0, "digital IO": [0, 1], "firmware version": 772, "device": "biosignalsplux", "position": 1, "sampling rate": 1000, "label": ["RA_L", "RA_R", "OE_L", "OE:R", "IL_L", "IL_R", "MF_L", "MF_R"], "resolution": [16, 16, 16, 16, 16, 16, 16, 16], "special": [{}, {}, {}, {}, {}, {}, {}, {}]}}
# EndOfHeader
1261	0	3606	6691	4668	7682	0	0	32734	33263	33415	33734	33351	32831	32351	32859	
1262	0	3604	6740	4621	7654	1	0	32602	33306	31874	32349	33228	32836	32613	32830	
1263	0	3621	6705	4587	7660	2	0	32575	32861	30915	31126	32515	32539	33099	32714	
1264	0	3633	6681	4666	7720	3	0	32557	32507	30536	31062	32461	32730	33324	32711	
1265	0	3572	6712	4642	7704	4	0	32260	31716	30435	31687	32439	32765	32982	32535	
1266	0	3552	6703	4650	7650	5	0	31988	31358	31423	32438	32570	32687	32460	32635	
1267	0	3597	6638	4620	7642	6	0	31845	31252	32775	33530	32745	32749	32383	32942	
1268	0	3624	6678	4636	7692	7	0	31861	31707	33429	34172	32918	32645	32671	32327	
1269	0	3600	6654	4612	7611	8	0	32391	32497	33854	33375	32707	32284	33148	32339	
1270	0	3629	6641	4630	7652	9	0	32999	33093	33055	32063	32580	32911	33006	32849	
1271	0	3600	6690	4617	7658	10	0	32913	33279	32883	31150	32703	33167	32556	33129	
1272	0	3620	6703	4597	7639	11	0	32772	32719	33682	31747	32922	32903	32132	32892	
1273	0	3592	6646	4601	7611	12	0	32838	32564	33821	32571	32732	33015	32319	32773	
1274	0	3597	6691	4645	7608	13	0	32804	32556	33173	33863	32471	32999	32987	32751	
1275	0	3603	6668	4586	7634	14	0	33024	32632	32662	34273	32321	32603	33101	32697	
1276	0	3569	6654	4601	7624	15	0	33001	32717	32445	34663	32802	32655	32895	32351	
1277	0	3589	6647	4630	7601	16	0	32887	32831	32519	34177	32916	32491	32327	32549	
1278	0	3600	6669	4617	7609	17	0	33077	32927	32103	33471	32780	32598	32335	33024	
1279	0	3582	6702	4583	7580	18	0	33331	33379	32143	33191	32708	32703	32967	33074	
1280	0	3582	6689	4611	7635	19	0	33204	33115	32235	32842	32694	32807	33317	32959	
1281	0	3572	6680	4565	7607	20	0	33244	33026	31703	32519	32923	32695	33207	32769	
1282	0	3577	6690	4563	7596	21	0	33029	32886	31933	32756	32738	32736	32710	32751	
1283	0	3548	6680	4528	7569	22	0	32977	32953	32485	33002	32671	32633	32330	32585	
1284	0	3584	6678	4595	7581	23	0	32886	32735	32365	32879	32713	32505	32647	32562	
1285	0	3555	6617	4574	7577	24	0	32673	32470	32032	31806	32787	32447	33017	32391	
1286	0	3572	6633	4601	7625	25	0	32712	32436	32004	31490	32715	32646	33327	32562	
1287	0	3557	6676	4627	7564	26	0	32792	32093	32273	32157	32813	32639	32963	32695	
1288	0	3584	6688	4576	7560	27	0	33088	32399	32647	32839	32739	32951	32311	32690	
1289	0	3571	6691	4547	7582	28	0	32943	32692	33375	32222	32697	33137	32253	32807	
1290	0	3545	6711	4576	7576	29	0	32954	32884	33807	32588	32751	32845	32647	32831	
1291	0	3605	6685	4599	7603	30	0	32927	32503	34011	32793	32885	32852	33239	32819	
1292	0	3583	6670	4646	7603	31	0	32895	32191	33811	32503	32641	32854	33215	32695	
1293	0	3568	6722	4620	7588	32	0	32773	32250	33303	32271	32914	32701	32471	32756	
1294	0	3620	6691	4636	7586	33	0	32763	32329	32855	32156	32793	33019	32151	33189	
1295	0	3573	6698	4593	7632	34	0	32742	32735	32663	32314	32671	32885	32404	32887	
1296	0	3572	6678	4583	7596	35	0	32606	33173	32677	32533	32501	32820	32790	32764	
1297	0	3609	6709	4616	7606	36	0	32346	33148	32787	32310	32791	32563	33229	32735	
1298	0	3595	6727	4610	7611	37	0	32453	33047	32533	31982	32763	32810	32851	33061	
1299	0	3592	6714	4652	7627	38	0	32572	32171	32281	32039	32658	32863	32307	32663	
1300	0	3607	6708	4643	7566	39	0	32676	32094	32679	31860	32822	32647	32186	32745	
1301	0	3620	6696	4618	7596	40	0	32434	32425	32863	31687	32623	32596	32685	32867	
1302	0	3620	6742	4686	7591	41	0	32594	32511	32949	32413	32653	32885	33248	32782	
1303	0	3602	6754	4583	7592	42	0	33164	32998	32926	32610	32935	32867	33304	33039	
1304	0	3591	6717	4688	7568	43	0	33349	33060	33019	32532	32903	32663	32666	33023	
1305	0	3613	6737	4653	7647	44	0	33340	32895	33012	32959	32851	32671	32233	32399	
1306	0	3615	6747	4645	7649	45	0	33012	32760	32626	32790	32638	32708	32471	32725	
1307	0	3612	6764	4661	7579	46	0	32621	32745	32367	32444	32519	32900	32903	33019	
1308	0	3596	6736	4673	7590	47	0	32477	32666	32605	33031	32631	32729	33071	32611	
1309	0	3553	6769	4677	7608	48	0	32375	32785	32415	33079	32628	32639	32873	32487	
1310	0	3580	6750	4698	7661	49	0	32292	32727	32342	33025	32751	32463	32279	32323	
1311	0	3572	6756	4651	7635	50	0	32363	32597	32342	32900	32769	32461	32300	32613	
1312	0	3580	6754	4657	7601	51	0	32523	32356	32473	33135	32807	32865	32717	32758	
1313	0	3611	6776	4722	7634	52	0	32733	32255	32769	33069	32770	32595	33175	32753	
1314	0	3628	6760	4710	7602	53	0	32737	32239	32935	32957	32783	32634	33223	32751	
1315	0	3579	6775	4737	7629	54	0	32789	32478	32973	33116	32717	32823	32641	32775	
1316	0	3635	6788	4704	7638	55	0	33069	32863	33026	32823	32756	32751	32420	32694	
1317	0	3594	6768	4728	7661	56	0	33264	33063	33137	32940	32797	32791	32661	32767	
1318	0	3617	6758	4693	7656	57	0	33283	33079	33047	32962	32751	33005	33366	32897	
1319	0	3628	6764	4702	7632	58	0	33122	32789	33065	32787	32775	33071	33323	32727	
1320	0	3604	6776	4716	7676	59	0	33041	32719	32997	32681	32707	32943	32900	32855	
1321	0	3677	6796	4740	7634	60	0	32881	32791	33059	32463	32721	32741	32386	32844	
1322	0	3620	6760	4690	7630	61	0	32647	32564	32937	32485	32658	32683	32482	32740	
1323	0	3640	6802	4724	7632	62	0	32658	32463	33015	32415	32565	32895	33069	32699	
1324	0	3652	6764	4722	7662	63	0	32617	32585	32775	32455	32736	32834	33359	32815	
1325	0	3597	6799	4772	7685	64	0	32638	32775	32799	32703	32638	32807	32925	32743	
1326	0	3651	6766	4708	7619	65	0	32647	32828	32759	32847	32485	32647	32373	32719	
1327	0	3644	6797	4780	7655	66	0	32683	32859	32884	32869	32565	32941	32399	32775	
1328	0	3638	6712	4720	7612	67	0	32704	32846	32761	32863	32516	32815	32775	32673	
1329	0	3631	6785	4805	7652	68	0	32694	32716	32772	32854	32588	32791	33309	32749	
1330	0	3627	6776	4741	7642	69	0	32684	32879	32807	32822	32581	32635	33097	32685	
1331	0	3600	6788	4790	7652	70	0	32605	32742	32759	32767	32719	32765	32513	32845	
1332	0	3609	6805	4797	7620	71	0	32619	32532	32839	32705	32559	32847	32279	32717	
1333	0	3652	6826	4812	7616	72	0	32591	32718	32761	32628	32202	32647	32599	32534	
1334	0	3668	6799	4801	7647	73	0	32636	32581	32764	32705	32347	32833	32997	32316	
1335	0	3628	6835	4765	7618	74	0	32598	32855	32759	32583	32278	32877	33269	32358	
1336	0	3634	6806	4748	7642	75	0	32686	32681	32703	32677	32379	32846	32817	32439	
1337	0	3628	6795	4817	7611	76	0	32639	32583	32765	32617	32415	32665	32245	32487	
1338	0	3688	6826	4782	7684	77	0	32793	32701	32807	32773	32512	32750	32262	32647	
1339	0	3631	6850	4781	7608	78	0	32840	32660	32743	32841	32511	32738	32540	32677	
1340	0	3651	6868	4802	7640	79	0	32791	32786	32660	32759	32646	32747	33087	32855	
1341	0	3582	6803	4809	7656	80	0	32778	32591	32671	32711	32775	32711	32821	33157	
1342	0	3647	6813	4814	7658	81	0	32767	32643	32683	32638	33167	32849	32515	33383	
1343	0	3699	6853	4784	7629	82	0	32786	32571	32724	32662	33717	32847	32131	33236	
1344	0	3653	6789	4829	7616	83	0	32745	32690	32655	32775	33695	32935	32305	33044	
1345	0	3637	6848	4843	7609	84	0	32729	32484	32698	32688	33250	32887	32765	32977	
1346	0	3661	6818	4764	7629	85	0	32799	32725	32637	32775	32401	32734	33187	32815	
1347	0	3625	6833	4805	7613	86	0	32742	32628	32726	32738	32121	32646	32912	32487	
1348	0	3651	6833	4796	7594	87	0	32751	32647	32675	32661	32157	32799	32358	32215	
1349	0	3639	6847	4802	7627	88	0	32737	32668	32708	32741	32332	32874	32281	32015	
1350	0	3621	6812	4797	7632	89	0	32756	32844	32646	32691	32617	32698	32741	32106	
1351	0	3641	6898	4857	7617	90	0	32709	32824	32695	32751	33074	32882	33182	32193	
1352	0	3630	6832	4785	7613	91	0	32713	32761	32756	32695	33396	32947	33206	32669	
1353	0	3650	6848	4795	7628	92	0	32671	32751	32869	32701	33173	32893	32775	32895	
1354	0	3628	6831	4799	7634	93	0	32731	32715	32775	32775	33166	32858	32372	32930	
1355	0	3627	6860	4779	7629	94	0	32740	32757	32749	32791	33488	32627	32595	33195	
1356	0	3641	6827	4796	7641	95	0	32812	32705	32783	32825	34061	32855	33124	33721	
1357	0	3612	6872	4842	7589	96	0	32716	32727	32748	32821	33757	32831	33313	34426	
1358	0	3632	6864	4804	7636	97	0	32762	32647	32725	32831	33005	32535	32855	34747	
1359	0	3655	6824	4806	7584	98	0	32703	32769	32727	32756	32133	32677	32439	34567	
1360	0	3624	6826	4810	7596	99	0	32711	32785	32798	32727	32140	32661	32412	34183	
1361	0	3589	6825	4848	7612	100	0	32792	32592	32804	32730	32446	32474	32879	33786	
1362	0	3652	6874	4825	7617	101	0	32845	32727	32778	32679	32497	32487	33386	32914	
1363	0	3644	6856	4815	7619	102	0	32815	32583	32755	32683	32447	32795	33315	32037	
1364	0	3627	6852	4851	7626	103	0	32770	32669	32807	32615	32514	32827	32647	31750	
1365	0	3638	6846	4776	7620	104	0	32789	32663	32799	32662	32687	32631	32340	31633	
1366	0	3645	6832	4826	7640	105	0	32776	32609	32831	32642	33347	32728	32433	31238	
1367	0	3642	6856	4792	7627	106	0	32823	32767	32797	32727	33351	32837	33081	30870	
1368	0	3663	6845	4844	7600	107	0	32882	32711	32815	32775	33071	32935	33365	31031	
1369	0	3604	6848	4845	7593	108	0	32837	32789	32748	32663	33255	32607	32925	31661	
1370	0	3683	6861	4810	7608	109	0	32765	32631	32845	32703	33315	32724	32428	32411	
1371	0	3660	6832	4782	7602	110	0	32724	32669	32878	32583	33500	32577	32346	32854	
1372	0	3667	6836	4813	7596	111	0	32724	32503	32865	32623	32988	32557	32605	33271	
1373	0	3620	6819	4823	7576	112	0	32701	32692	32762	32593	32935	32434	33252	33569	
1374	0	3629	6832	4795	7616	113	0	32819	32797	32639	32617	32573	32525	33191	33644	
1375	0	3630	6864	4832	7635	114	0	32801	32814	32617	32543	32445	32591	32637	33615	
1376	0	3642	6790	4778	7594	115	0	32740	32835	32731	32695	32346	32825	32245	33559	
1377	0	3646	6852	4859	7597	116	0	32750	32607	32679	32708	32529	32662	32343	33415	
1378	0	3654	6804	4885	7622	117	0	32738	32717	32671	32799	32519	32806	32854	33175	
1379	0	3656	6880	4824	7584	118	0	32807	32623	32695	32775	32415	32822	33265	32749	
1380	0	3621	6800	4812	7630	119	0	32897	32791	32658	32739	32013	32915	32999	32214	
1381	0	3622	6850	4880	7621	120	0	32811	32647	32621	32835	32223	32903	32380	32135	
1382	0	3608	6835	4829	7640	121	0	32795	32815	32637	32623	32509	33002	32292	32334	
1383	0	3620	6820	4853	7615	122	0	32748	32817	32623	32711	32407	32955	32437	32300	
1384	0	3668	6806	4864	7620	123	0	32647	32755	32748	32707	32565	32991	32868	32465	
1385	0	3638	6843	4847	7641	124	0	32750	32799	32719	32795	32972	32863	32988	32742	
1386	0	3610	6840	4868	7648	125	0	32679	32695	32661	32775	32535	32764	32659	32525	
1387	0	3632	6848	4868	7640	126	0	32756	32807	32620	32767	32647	32867	32060	32700	
1388	0	3657	6818	4893	7600	127	0	32794	32832	32521	32705	32720	32913	32238	33127	
1389	0	3660	6853	4835	7670	128	0	32861	32708	32645	32794	32759	32615	32741	33321	
1390	0	3657	6805	4864	7647	129	0	32871	32700	32737	32804	32586	32711	33207	32895	
1391	0	3644	6820	4858	7664	130	0	32767	32541	32785	32663	32479	32637	33103	32604	
1392	0	3620	6840	4872	7660	131	0	32735	32623	32815	32787	32423	32737	32493	32257	
1393	0	3670	6841	4916	7691	132	0	32743	32535	32903	32583	32155	32523	32176	32212	
1394	0	3641	6824	4884	7675	133	0	32797	32681	32987	32740	32359	32743	32542	32673	
1395	0	3657	6842	4862	7677	134	0	32813	32565	32956	32799	32734	32855	33198	32924	
1396	0	3631	6874	4898	7678	135	0	32839	32639	32957	32844	33023	32895	33223	33509	
1397	0	3672	6851	4890	7704	136	0	32820	32571	32949	32767	33113	32743	32816	33983	
1398	0	3677	6838	4868	7706	137	0	32821	32599	32966	32767	33185	32805	32359	33951	
1399	0	3635	6797	4894	7692	138	0	32829	32623	32919	32719	32881	32644	32260	33316	
1400	0	3614	6815	4915	7689	139	0	32868	32584	32900	32792	32790	32483	32815	32529	
1401	0	3701	6847	4890	7688	140	0	32862	32694	32692	32749	32491	32439	33103	32195	
1402	0	3697	6854	4911	7714	141	0	32826	32671	32543	32683	32613	32602	33223	32250	
1403	0	3642	6802	4963	7680	142	0	32832	32705	32478	32705	32439	32687	32769	32654	
1404	0	3632	6816	4912	7695	143	0	32909	32668	32521	32638	32371	32527	32342	32638	
1405	0	3648	6834	4898	7734	144	0	32892	32830	32569	32609	32336	32762	32557	32352	
1406	0	3664	6831	4963	7717	145	0	32742	32801	32671	32535	32391	32829	33223	32276	
1407	0	3658	6880	4926	7742	146	0	32823	32775	32737	32647	32464	32903	33455	32380	
1408	0	3684	6827	4931	7752	147	0	32785	32675	32655	32619	32490	32787	33191	32493	
1409	0	3699	6821	4931	7720	148	0	32775	32628	32787	32686	32483	32647	32430	32708	
1410	0	3667	6872	4921	7712	149	0	32736	32642	32923	32689	32700	32794	32483	32704	
1411	0	3625	6794	4952	7750	150	0	32753	32591	33148	32601	33181	32757	32788	32665	
1412	0	3590	6856	4910	7773	151	0	32743	32762	33268	32667	33031	32807	33281	32757	
1413	0	3652	6824	4931	7717	152	0	32718	32781	33351	32727	32929	32703	33101	32873	
1414	0	3652	6804	4898	7758	153	0	32746	32788	33243	32681	32691	32726	32697	33098	
1415	0	3647	6896	4932	7747	154	0	32635	32663	33195	32718	32775	32663	32293	33623	
1416	0	3666	6816	4959	7772	155	0	32657	32736	33156	32595	32733	32782	32301	34035	
1417	0	3644	6822	4949	7714	156	0	32683	32751	32817	32609	32845	32425	32991	33577	
1418	0	3718	6816	4960	7742	157	0	32796	32643	32509	32418	32628	32509	33275	33181	
1419	0	3673	6840	4937	7789	158	0	32844	32669	32271	32519	32619	32679	32871	32701	
1420	0	3648	6807	4953	7754	159	0	32892	32671	32093	32491	32643	32754	32447	32505	
1421	0	3692	6814	4919	7779	160	0	32895	32699	31975	32524	32751	32557	32263	32431	
1422	0	3667	6834	4945	7753	161	0	32912	32612	32010	32804	32868	32839	32576	32483	
1423	0	3657	6818	4919	7802	162	0	32877	32765	32085	32804	32964	32789	33221	32509	
1424	0	3687	6833	4984	7784	163	0	32850	32630	32327	33011	32717	32838	33231	32349	
1425	0	3673	6777	4925	7766	164	0	32769	32755	32597	32969	32641	32558	32687	32359	
1426	0	3653	6793	4932	7772	165	0	32699	32863	32821	33074	32519	32748	32163	32410	
1427	0	3633	6818	4988	7742	166	0	32644	32726	32855	32888	32590	32820	32324	32444	
1428	0	3644	6750	4924	7785	167	0	32727	32722	32917	32937	32495	32676	32847	32497	
1429	0	3640	6852	4924	7761	168	0	32834	32644	32926	32835	32583	32854	33043	32452	
1430	0	3608	6808	4930	7765	169	0	32781	32834	32917	32763	32658	32914	32989	32743	
1431	0	3666	6808	4906	7784	170	0	32735	32647	32924	32823	32690	32901	32215	32987	
1432	0	3654	6819	4967	7761	171	0	32846	32687	32918	32887	32556	32903	32187	33128	
1433	0	3648	6794	4915	7739	172	0	32812	32513	32897	33207	32623	32729	32506	32994	
1434	0	3602	6798	4985	7776	173	0	32919	32676	32804	33358	32613	32821	32893	32766	
1435	0	3670	6744	4939	7812	174	0	32767	32499	32579	33399	32788	32725	33199	32695	
1436	0	3656	6790	4973	7794	175	0	32703	32579	32527	33231	32586	32763	32759	32605	
1437	0	3611	6784	4926	7750	176	0	32508	32431	32771	33007	32609	32775	32329	32879	
1438	0	3620	6778	4946	7796	177	0	32570	32756	32892	32636	32600	32511	32430	32853	
1439	0	3680	6750	4866	7788	178	0	32601	32825	32902	32167	32428	32749	32743	33245	
1440	0	3639	6736	4952	7778	179	0	32685	32973	32612	32132	32263	33013	33283	33687	
1441	0	3661	6771	4918	7794	180	0	32754	32903	32367	32007	32698	32855	33133	33615	
1442	0	3668	6781	4924	7785	181	0	32920	32615	32321	31815	32591	32380	32605	33107	
1443	0	3634	6764	4932	7808	182	0	32958	32679	32293	31951	32559	32420	32303	32607	
1444	0	3617	6750	4877	7785	183	0	32868	32534	32429	32626	32710	32519	32628	32635	
1445	0	3669	6745	4893	7801	184	0	32804	32563	32965	32806	33019	32669	33004	32339	
1446	0	3630	6762	4943	7785	185	0	32669	32549	33423	32940	33189	32515	33221	32207	
1447	0	3629	6769	4920	7778	186	0	32760	32543	33215	32639	33429	32810	32967	32071	
1448	0	3634	6733	4885	7780	187	0	32702	32799	32933	32391	33215	32892	32415	31963	
1449	0	3578	6770	4849	7790	188	0	32809	32918	32989	32375	32935	32647	32401	32283	
1450	0	3602	6792	4897	7763	189	0	32817	32756	33053	32781	32946	32622	32695	32066	
1451	0	3644	6754	4853	7757	190	0	32681	32787	32599	33141	32759	32599	33207	32443	
1452	0	3599	6668	4880	7774	191	0	32518	32967	32263	33348	32757	32684	33227	32639	
1453	0	3596	6710	4876	7761	192	0	32666	33059	32029	33035	32799	32585	32720	33039	
1454	0	3615	6700	4880	7796	193	0	32775	32847	32135	32791	32912	32713	32280	33221	
1455	0	3578	6718	4826	7756	194	0	32829	32555	32130	32063	32567	32788	32557	33143	
1456	0	3589	6666	4854	7804	195	0	32761	32639	32501	31509	32487	32930	33092	33018	
1457	0	3645	6728	4872	7789	196	0	32647	32495	33550	31582	32427	32799	33423	32775	
1458	0	3579	6701	4822	7767	197	0	32732	32439	34252	31879	32447	32941	32981	32858	
1459	0	3609	6702	4832	7747	198	0	32647	32503	34742	32415	32951	32890	32335	32943	
1460	0	3556	6712	4814	7733	199	0	32600	32255	35207	32519	32725	32572	32421	32415	
1461	0	3637	6654	4842	7746	200	0	32631	32610	35278	32961	32455	32738	32861	32557	
1462	0	3585	6693	4823	7780	201	0	32564	32631	33881	33484	32452	32738	33394	32890	
1463	0	3550	6657	4845	7700	202	0	32391	32529	32431	33591	32629	32846	33149	32871	
1464	0	3627	6686	4821	7739	203	0	32414	32470	31711	33159	32719	32523	32615	32962	
1465	0	3577	6640	4770	7720	204	0	32578	32355	31733	33657	32745	32679	32262	32902	
1466	0	3581	6630	4864	7735	205	0	32735	32411	31833	33622	32754	32845	32489	32940	
1467	0	3553	6675	4804	7716	206	0	32933	32794	32001	32991	32685	32759	33071	32577	
1468	0	3594	6594	4820	7744	207	0	32873	32647	31750	32578	32639	32623	33225	32511	
1469	0	3587	6630	4777	7689	208	0	32786	32900	32050	32581	32753	32687	32926	32582	
1470	0	3605	6654	4776	7698	209	0	32711	32935	32566	32828	32690	32810	32381	32675	
1471	0	3593	6642	4754	7740	210	0	32592	32551	32615	33106	32695	32846	32273	32713	
1472	0	3569	6632	4808	7727	211	0	32530	32519	32222	32943	32647	32503	32663	32571	
1473	0	3554	6638	4757	7758	212	0	32613	32639	31894	32349	32628	32553	33193	32727	
1474	0	3564	6621	4774	7760	213	0	32764	32515	31894	33334	32695	32747	33235	32796	
1475	0	3546	6558	4772	7746	214	0	32551	32032	32215	33806	33043	32773	32695	32775	
1476	0	3515	6627	4776	7740	215	0	32663	32287	32947	33415	33010	32859	32178	32782	
1477	0	3557	6637	4772	7721	216	0	32684	32493	33310	33252	32854	32676	32375	32821	
1478	0	3544	6621	4739	7762	217	0	32695	32861	33396	33191	32626	32469	32839	32716	
1479	0	3544	6634	4771	7737	218	0	32910	33133	33415	33029	32699	32775	33287	32868	
1480	0	3565	6630	4728	7730	219	0	33040	33109	33313	32617	32679	32903	32931	32915	
1481	0	3547	6610	4728	7726	220	0	32957	32839	33023	31535	32745	32759	32503	32853	
1482	0	3580	6612	4756	7734	221	0	32902	32679	32967	31183	32807	32844	32143	32867	
1483	0	3504	6630	4767	7744	222	0	32956	32537	32707	31717	32540	32739	32399	32814	
1484	0	3533	6626	4743	7746	223	0	32903	32620	32791	31743	32647	32527	32982	32519	
1485	0	3493	6605	4774	7737	224	0	32440	32229	33616	32039	32709	32636	33097	32598	
1486	0	3608	6573	4753	7720	225	0	32239	31943	33644	32063	32701	32615	32855	32847	
1487	0	3559	6588	4744	7675	226	0	32589	32289	32903	32438	32667	32871	32359	32722	
1488	0	3552	6629	4794	7756	227	0	33060	32662	32231	32431	32684	32903	32442	32749	
1489	0	3561	6582	4763	7717	228	0	33064	33141	32217	32367	32860	32748	32887	32715	
1490	0	3539	6578	4753	7728	229	0	32775	33303	32285	32903	32823	32639	33122	32838	
1491	0	3572	6606	4778	7721	230	0	32819	33367	32118	33090	32801	32799	33055	32759	
1492	0	3512	6595	4749	7735	231	0	32751	33367	32167	33103	32803	32807	32367	32839	
1493	0	3555	6594	4758	7730	232	0	33054	33228	32183	33255	32751	32988	32186	32871	
1494	0	3539	6578	4758	7744	233	0	33008	32901	32255	33453	32759	32899	32703	32948	
1495	0	3529	6585	4716	7767	234	0	32866	32555	32281	33031	32762	32663	33105	33065	
1496	0	3526	6608	4752	7740	235	0	32965	32412	32391	33388	32655	32879	33237	32677	
1497	0	3545	6614	4724	7764	236	0	33015	32356	32703	33196	32791	32735	32679	32519	
1498	0	3565	6628	4752	7734	237	0	33236	32551	32633	32658	32854	32660	32245	32775	
1499	0	3531	6637	4712	7702	238	0	33186	33087	32671	32577	32756	32841	32492	32871	
1500	0	3566	6620	4780	7779	239	0	32847	32793	32863	32733	32702	32647	32876	32887	
1501	0	3585	6619	4738	7748	240	0	32751	32631	32871	32635	32784	32799	33215	32733	
1502	0	3548	6555	4758	7726	241	0	32720	32321	33133	32355	32667	32727	32871	32659	
1503	0	3563	6596	4768	7728	242	0	32528	32199	33453	32732	32659	32545	32287	32677	
1504	0	3544	6561	4753	7734	243	0	32475	32613	33415	33005	32694	32801	32380	32773	
1505	0	3550	6565	4768	7758	244	0	32617	32899	33313	32818	32652	32796	32903	32771	
1506	0	3518	6656	4754	7788	245	0	32856	33010	33225	32503	32668	32885	33389	32820	
1507	0	3589	6600	4807	7780	246	0	32898	32743	32930	32611	32647	32826	33196	32855	
1508	0	3563	6581	4755	7767	247	0	32903	32606	32631	32791	32647	32591	32595	32822	
1509	0	3557	6624	4739	7739	248	0	32861	32211	32585	32731	32633	32737	32277	32671	
1510	0	3535	6606	4756	7804	249	0	32820	32316	32522	32809	32801	32807	32583	32782	
1511	0	3560	6629	4799	7753	250	0	32688	32346	32455	32570	32903	32784	33307	32751	
1512	0	3542	6588	4765	7757	251	0	32264	32495	32599	32566	32842	32716	33231	32695	
1513	0	3557	6602	4808	7756	252	0	32148	32743	32645	32499	32813	32847	32759	32689	
1514	0	3552	6614	4795	7765	253	0	32398	32827	32645	32561	32785	32775	32221	32845	
1515	0	3545	6593	4785	7782	254	0	32809	32839	32668	32564	32734	32654	32567	32710	
1516	0	3568	6631	4779	7801	255	0	32927	32814	32682	32603	32709	32782	33122	32836	
1517	0	3578	6617	4792	7748	256	0	32768	32766	32720	32594	32743	32707	33364	32705	
1518	0	3568	6652	4793	7772	257	0	32717	32863	32740	32601	32766	32581	32811	32822	
1519	0	3561	6626	4814	7800	258	0	32585	32887	32815	32724	32717	32795	32347	32759	
1520	0	3578	6566	4813	7781	259	0	32516	32967	32732	32822	32705	32775	32359	32748	
1521	0	3535	6646	4788	7784	260	0	32677	32893	32799	32851	32818	32722	32892	32749	
1522	0	3560	6633	4795	7759	261	0	32942	32789	32821	32807	32735	32959	33183	32815	
1523	0	3570	6622	4787	7800	262	0	32963	32709	32767	32820	32636	32838	33031	32695	
1524	0	3534	6627	4763	7768	263	0	33000	32647	32909	32862	32583	32637	32403	32727	
1525	0	3572	6642	4805	7818	264	0	32988	32706	32858	32867	32671	32850	32374	32763	
1526	0	3570	6602	4822	7787	265	0	32924	32748	32974	32846	32625	32860	32658	32788	
1527	0	3586	6609	4782	7780	266	0	32850	32844	32796	32850	32639	32669	33223	32763	
1528	0	3582	6626	4807	7805	267	0	32844	32847	32867	32583	32677	32879	33167	32807	
1529	0	3565	6592	4800	7792	268	0	32716	32735	32690	32411	32647	32775	32637	32735	
1530	0	3601	6641	4723	7771	269	0	32647	32647	32673	32455	32687	32841	32151	32812	
1531	0	3601	6618	4771	7785	270	0	32607	32545	32679	32477	32839	32715	32448	32743	
1532	0	3574	6611	4814	7768	271	0	32671	32583	32689	32583	32818	32917	33159	32775	
1533	0	3587	6612	4796	7814	272	0	32663	32742	32735	32634	32775	32971	33223	32698	
1534	0	3622	6616	4750	7802	273	0	32713	32852	32663	32679	32749	32742	32841	32765	
1535	0	3588	6609	4776	7803	274	0	32744	32767	32661	32735	32791	32679	32347	32755	
1536	0	3606	6628	4768	7781	275	0	32816	32817	32749	32756	32770	32582	32391	32826	
1537	0	3584	6629	4801	7730	276	0	32763	32609	32758	32791	32711	32605	32943	32775	
1538	0	3637	6621	4792	7802	277	0	32858	32789	32782	32799	32775	32364	33325	32807	
1539	0	3568	6620	4768	7792	278	0	32916	32755	32799	32765	32755	32532	32897	32811	
1540	0	3601	6620	4871	7795	279	0	32903	32775	32852	32863	32751	32670	32514	32775	
1541	0	3620	6607	4774	7788	280	0	32799	32743	32943	32868	32791	32838	32186	32775	
1542	0	3602	6643	4776	7774	281	0	32698	32593	33091	32810	32647	32582	32381	32767	
1543	0	3552	6620	4786	7796	282	0	32713	32739	32989	32760	32726	32811	33077	32797	
1544	0	3600	6646	4773	7780	283	0	32727	32870	32919	32705	32563	32902	33115	32783	
1545	0	3589	6603	4791	7768	284	0	32756	32614	32962	32787	32663	32677	32889	32775	
1546	0	3621	6632	4772	7817	285	0	32686	32647	32927	32799	32757	32884	32301	32799	
1547	0	3585	6620	4760	7795	286	0	32702	32795	32952	32698	32676	32960	32167	32878	
1548	0	3587	6648	4753	7781	287	0	32701	32678	32871	32699	32868	32898	32647	32963	
1549	0	3596	6602	4805	7772	288	0	32734	32671	32836	32705	32703	32701	33119	32957	
1550	0	3610	6599	4762	7771	289	0	32743	32578	32879	32719	32824	32817	33025	32967	
1551	0	3610	6664	4773	7759	290	0	32773	32647	32861	32719	33078	32939	32647	33076	
1552	0	3600	6651	4791	7766	291	0	32678	32743	32879	32615	33159	32826	32331	33061	
1553	0	3608	6634	4724	7799	292	0	32671	32695	32956	32710	33193	32716	32677	33223	
1554	0	3625	6618	4772	7778	293	0	32792	32647	32851	32732	33064	32862	33250	33303	
1555	0	3645	6619	4788	7770	294	0	32775	32797	32757	32832	33099	32927	33356	33359	
1556	0	3619	6622	4750	7789	295	0	32795	32566	32629	32799	32823	32757	32903	33283	
1557	0	3635	6638	4733	7730	296	0	32879	32743	32631	32701	32434	32911	32487	33178	
1558	0	3648	6653	4744	7768	297	0	32933	32818	32679	32743	32039	33040	32478	33065	
1559	0	3640	6629	4761	7780	298	0	32852	32717	32671	32655	31431	32761	32818	32594	
1560	0	3606	6658	4772	7742	299	0	32839	32621	32545	32625	31075	32896	33191	32039	
1561	0	3624	6619	4805	7766	300	0	32903	32500	32511	32605	30555	32775	33183	31527	
1562	0	3626	6645	4753	7775	301	0	32790	32831	32489	32569	30131	32834	32601	31141	
1563	0	3603	6653	4780	7780	302	0	32877	32903	32457	32500	30235	32589	32157	30753	
1564	0	3601	6603	4757	7781	303	0	32816	32841	32477	32623	30540	32556	32372	30771	
1565	0	3662	6642	4774	7781	304	0	32758	32823	32433	32759	32275	32559	33159	31465	
1566	0	3611	6667	4720	7768	305	0	32797	32740	32356	32852	34439	32322	33389	32159	
1567	0	3665	6628	4814	7746	306	0	32769	32607	32402	32807	35545	32431	32903	32900	
1568	0	3669	6606	4756	7743	307	0	32742	32683	32477	32879	35372	32645	32485	33887	
1569	0	3670	6646	4741	7790	308	0	32613	32627	32548	32856	34017	32839	32423	33865	
1570	0	3685	6646	4782	7769	309	0	32704	32811	32593	32864	32647	32824	32701	33183	
1571	0	3647	6680	4818	7787	310	0	32709	32769	32856	32863	31702	32991	33107	32815	
1572	0	3693	6650	4752	7777	311	0	32764	32562	32979	32695	31399	33045	33126	32538	
1573	0	3674	6665	4797	7736	312	0	32709	32683	32975	32751	31399	33039	32633	32735	
1574	0	3642	6669	4764	7784	313	0	32732	32685	32999	32797	31719	32709	32143	32884	
1575	0	3718	6674	4769	7745	314	0	32760	32804	32882	32790	32116	32847	32625	32949	
1576	0	3650	6669	4771	7795	315	0	32748	32903	32833	32720	33149	32841	33159	33017	
1577	0	3669	6661	4812	7767	316	0	32825	32781	32737	32679	34343	32523	33270	32988	
1578	0	3684	6697	4800	7806	317	0	32837	32871	32647	32657	36389	32475	32989	32903	
1579	0	3640	6691	4724	7770	318	0	32815	32751	32631	32707	36684	32391	32359	33115	
1580	0	3681	6745	4742	7764	319	0	32852	32747	32594	32495	36188	32297	32239	33728	
1581	0	3733	6687	4776	7776	320	0	32769	32828	32647	32524	35482	32432	32645	33927	
1582	0	3727	6697	4767	7794	321	0	32703	32725	32818	32589	35183	32683	32962	33591	
1583	0	3673	6696	4760	7768	322	0	32765	32559	32726	32708	34379	32679	32823	33327	
1584	0	3663	6665	4773	7812	323	0	32751	32455	32925	32725	32866	32594	32559	33071	
1585	0	3703	6684	4798	7769	324	0	32796	32571	32935	32771	32453	32827	32244	32918	
1586	0	3738	6684	4802	7773	325	0	32881	32636	32903	32764	32225	32902	32391	32861	
1587	0	3710	6661	4776	7773	326	0	32847	32513	32866	32802	32463	32795	32993	32935	
1588	0	3714	6689	4816	7808	327	0	32903	32769	32815	32903	32402	32919	33154	32941	
1589	0	3770	6700	4820	7807	328	0	32866	32684	32701	33039	31879	32691	32831	32703	
1590	0	3773	6688	4748	7781	329	0	32835	32646	32615	33015	31787	32966	32367	32663	
1591	0	3746	6680	4818	7812	330	0	32844	32711	32559	32894	31639	32796	32348	32721	
1592	0	3738	6688	4828	7788	331	0	32764	32801	32636	32918	31445	32730	32783	32739	
1593	0	3775	6712	4804	7813	332	0	32726	32553	32677	32766	31389	32984	33388	32595	
1594	0	3732	6694	4824	7793	333	0	32710	32775	32797	32723	31431	33165	33268	32532	
1595	0	3762	6728	4777	7788	334	0	32721	32802	32791	32591	31383	32847	32731	32577	
1596	0	3764	6717	4805	7802	335	0	32738	32588	32813	32599	31529	32871	32291	32679	
1597	0	3767	6705	4852	7757	336	0	32773	32695	32830	32670	31727	32911	32487	32799	
1598	0	3740	6768	4809	7808	337	0	32765	32551	32876	32717	32407	32830	32913	32764	
1599	0	3754	6688	4786	7812	338	0	32731	32751	33014	32773	33356	32691	33287	32663	
1600	0	3754	6736	4828	7808	339	0	32797	32698	33007	32644	33531	32701	32918	32525	
1601	0	3764	6730	4757	7820	340	0	32767	32566	32999	32668	33311	32789	32263	32461	
1602	0	3772	6736	4852	7786	341	0	32736	32707	32871	32615	32647	32519	32300	32295	
1603	0	3826	6696	4777	7772	342	0	32710	32680	32881	32727	32199	32578	32739	32199	
1604	0	3782	6717	4826	7784	343	0	32734	32534	32828	32750	31965	32673	33327	32057	
1605	0	3812	6716	4837	7829	344	0	32740	32774	32774	32631	31917	32727	33345	31965	
1606	0	3811	6733	4841	7797	345	0	32797	32759	32767	32681	32468	32847	32741	32442	
1607	0	3773	6755	4842	7838	346	0	32750	32479	32763	32647	32791	32847	32297	32839	
1608	0	3784	6724	4771	7802	347	0	32663	32681	32799	32671	32932	32755	32391	33011	
1609	0	3815	6736	4830	7799	348	0	32637	32626	32852	32690	32885	32814	33060	32860	
1610	0	3851	6753	4871	7832	349	0	32770	32620	32995	32701	32807	32639	33174	32919	
1611	0	3811	6744	4830	7854	350	0	32793	32591	32991	32551	32743	32762	32925	33149	
1612	0	3835	6749	4846	7825	351	0	32734	32605	32987	32653	32307	32801	32275	33343	
1613	0	3840	6729	4872	7824	352	0	32745	32629	33033	32644	31845	32850	32241	33357	
1614	0	3822	6748	4848	7815	353	0	32722	32778	32818	32719	31653	32620	32738	33311	
1615	0	3793	6752	4806	7799	354	0	32718	32743	32647	32677	31886	32797	33212	33094	
1616	0	3823	6770	4840	7800	355	0	32724	32575	32590	32671	32285	32828	33285	32935	
1617	0	3797	6704	4868	7814	356	0	32833	32773	32591	32647	32683	32581	32871	32903	
1618	0	3852	6754	4851	7822	357	0	32820	32701	32615	32725	32871	32687	32359	32803	
1619	0	3816	6732	4826	7840	358	0	32861	32660	32587	32647	32865	32756	32485	32775	
1620	0	3789	6690	4876	7811	359	0	32873	32778	32492	32681	32848	32594	33021	32585	
1621	0	3838	6753	4839	7795	360	0	32881	32730	32500	32684	32951	32771	33221	32533	
1622	0	3773	6768	4875	7799	361	0	32919	32721	32569	32723	33108	32826	33063	32551	
1623	0	3778	6716	4870	7853	362	0	32796	32771	32629	32807	33169	32711	32385	32551	
1624	0	3883	6691	4849	7804	363	0	32794	32751	32565	32822	33005	32655	32078	32594	
1625	0	3834	6728	4816	7787	364	0	32800	32621	32519	32711	32942	32824	32569	32647	
1626	0	3844	6722	4882	7802	365	0	32815	32775	32595	32734	32842	32843	32940	32689	
1627	0	3896	6740	4827	7848	366	0	32758	32679	32559	32818	33026	32636	33087	32727	
1628	0	3874	6746	4848	7844	367	0	32732	32599	32647	32829	32911	32805	32735	32684	
1629	0	3848	6762	4829	7832	368	0	32724	32596	32690	32863	32549	32751	32257	32518	
1630	0	3870	6741	4829	7852	369	0	32730	32595	32647	32775	32589	32562	32205	32533	
1631	0	3823	6720	4833	7824	370	0	32697	32519	32596	32765	32551	32783	32799	32617	
1632	0	3817	6744	4845	7813	371	0	32732	32705	32607	32799	32723	32804	33063	32519	
1633	0	3877	6700	4872	7862	372	0	32811	32743	32680	32901	32567	32729	33079	32377	
1634	0	3849	6747	4841	7825	373	0	32750	32557	32722	32847	32388	32535	32412	32391	
1635	0	3871	6725	4827	7816	374	0	32750	32705	32857	32927	32647	32759	32226	32527	
1636	0	3898	6733	4900	7848	375	0	32775	32647	33007	32751	32933	32679	32697	32709	
1637	0	3878	6705	4849	7809	376	0	32692	32585	33095	32716	32810	32692	33047	32881	
1638	0	3866	6694	4857	7836	377	0	32636	32572	32985	32889	32794	32903	33159	33143	
1639	0	3918	6744	4872	7828	378	0	32761	32641	33015	33070	32711	32709	32663	32698	
1640	0	3900	6705	4805	7857	379	0	32756	32631	33103	32615	32773	32831	32245	32704	
1641	0	3850	6695	4814	7862	380	0	32699	32471	32926	32711	32935	32893	32463	32695	
1642	0	3884	6690	4822	7822	381	0	32731	32631	32668	32786	32687	32716	32981	32761	
1643	0	3858	6691	4820	7840	382	0	32769	32726	32375	32495	32647	32785	33287	32850	
1644	0	3864	6738	4870	7815	383	0	32703	32556	32287	32466	32902	32841	32981	32971	
1645	0	3865	6665	4811	7784	384	0	32757	32759	32483	32504	32579	32535	32526	33111	
1646	0	3854	6698	4862	7831	385	0	32711	32809	32719	32375	32670	32667	32338	33012	
1647	0	3864	6628	4838	7838	386	0	32721	32671	32799	32361	32711	32732	32770	32991	
1648	0	3850	6668	4837	7812	387	0	32689	32639	32894	32647	32763	32581	33321	32954	
1649	0	3848	6702	4781	7810	388	0	32785	32677	33076	32769	32811	32723	33234	32869	
1650	0	3884	6674	4792	7878	389	0	32816	32571	33308	32570	32607	32853	32903	32863	
1651	0	3881	6653	4840	7869	390	0	32986	32799	33391	32527	32647	32735	32429	32739	
1652	0	3851	6610	4836	7833	391	0	32919	32845	33047	32608	32558	32738	32524	32686	
1653	0	3857	6706	4826	7807	392	0	32799	32899	32597	32450	32610	32783	32917	32634	
1654	0	3826	6683	4814	7831	393	0	32775	32955	32447	32347	32543	32842	33369	32637	
1655	0	3816	6619	4790	7820	394	0	32703	32513	32629	32251	32795	32709	33082	32718	
1656	0	3864	6665	4816	7796	395	0	32838	32860	32775	31951	32810	32559	32573	32731	
1657	0	3845	6672	4771	7790	396	0	32910	32677	33255	32127	32807	32725	32191	32593	
1658	0	3860	6640	4750	7814	397	0	32986	32271	33693	32531	32471	32716	32543	32534	
1659	0	3844	6616	4758	7844	398	0	32827	32398	33647	32724	32554	32733	33118	32671	
1660	0	3838	6618	4752	7761	399	0	32819	32493	33182	33437	32815	32799	33287	32717	
1661	0	3856	6614	4735	7776	400	0	32786	32385	33123	33987	33050	32771	32879	32871	
1662	0	3846	6653	4786	7795	401	0	32521	32285	33335	33598	32818	32748	32305	32723	
1663	0	3816	6636	4742	7814	402	0	32493	32577	33247	32935	32572	32945	32338	32754	
1664	0	3876	6613	4705	7792	403	0	32455	32735	33321	32481	32610	32645	32775	32933	
1665	0	3816	6628	4696	7765	404	0	32457	32748	33159	32460	32991	32748	33174	32918	
1666	0	3838	6589	4776	7812	405	0	32615	33003	33154	32255	32717	32758	32987	32679	
1667	0	3797	6631	4706	7805	406	0	32551	32803	32850	32111	32595	32508	32527	32633	
1668	0	3802	6621	4753	7748	407	0	32543	32621	32493	32724	32527	32641	32036	32455	
1669	0	3858	6596	4719	7818	408	0	32712	32742	32263	32437	32636	32639	32446	32468	
1670	0	3876	6560	4689	7816	409	0	32847	32601	32157	32703	32819	32793	33028	32772	
1671	0	3814	6546	4628	7798	410	0	33002	32428	32293	33026	32775	32775	33115	32636	
1672	0	3829	6602	4702	7772	411	0	33047	32583	32391	33031	32613	32621	32919	32565	
1673	0	3840	6568	4662	7763	412	0	32997	32743	32244	32789	32775	32663	32335	32589	
1674	0	3816	6576	4692	7775	413	0	32775	32707	32078	32863	32723	32487	32340	32733	
1675	0	3785	6593	4679	7762	414	0	32425	32743	31870	32903	32832	32868	32663	32767	
1676	0	3793	6563	4674	7756	415	0	32404	32686	31750	33287	32594	32942	33135	32727	
1677	0	3858	6539	4609	7761	416	0	32153	32711	31695	33225	32711	32807	33227	32719	
1678	0	3816	6528	4637	7753	417	0	31981	32427	31623	32887	32647	32663	32695	32975	
1679	0	3824	6538	4622	7800	418	0	32190	32545	31700	32687	32795	32855	32237	33152	
1680	0	3866	6549	4682	7798	419	0	32647	32692	32045	32546	32789	32835	32391	32807	
1681	0	3836	6544	4628	7760	420	0	32997	32679	32420	32653	32807	32647	32950	32686	
1682	0	3830	6524	4589	7778	421	0	33134	33069	32541	32804	32823	32673	33311	32713	
1683	0	3810	6530	4654	7729	422	0	33055	32847	32775	34228	32710	32743	32976	32755	
1684	0	3815	6492	4623	7762	423	0	33198	32821	33230	33671	32772	32567	32175	32807	
1685	0	3820	6539	4630	7706	424	0	33148	32471	33255	33015	32646	32706	32210	32696	
1686	0	3809	6483	4621	7764	425	0	32824	32545	33223	32642	32737	32713	32708	32707	
1687	0	3808	6468	4619	7804	426	0	32679	32677	33121	31926	32757	32685	33111	32714	
1688	0	3823	6517	4582	7776	427	0	32372	32679	33135	32102	32857	32475	33123	32827	
1689	0	3858	6456	4585	7744	428	0	32398	32866	33381	33466	32578	32807	32707	32820	
1690	0	3776	6464	4566	7770	429	0	32615	33026	33389	33367	32807	32786	32047	32921	
1691	0	3784	6505	4570	7808	430	0	32687	32303	33300	33344	32745	32466	32347	32663	
1692	0	3833	6497	4566	7746	431	0	32927	32263	33165	32927	32897	32721	32833	32929	
1693	0	3804	6484	4601	7762	432	0	32992	32325	32957	32743	32751	32772	33239	32969	
1694	0	3812	6496	4585	7752	433	0	32946	32199	32884	32475	32673	32919	32994	32773	
1695	0	3774	6517	4579	7753	434	0	32607	32685	32933	32175	32819	32673	32339	32719	
1696	0	3805	6469	4562	7719	435	0	32344	32831	32903	31727	32802	32643	32340	32798	
1697	0	3835	6478	4542	7740	436	0	32526	32858	32884	31205	32676	32852	32745	32756	
1698	0	3865	6486	4627	7784	437	0	32802	32804	32835	31417	32775	32869	33194	32742	
1699	0	3846	6468	4558	7765	438	0	32830	32615	32621	31557	32694	32515	33271	32641	
1700	0	3820	6444	4515	7770	439	0	32973	32730	32546	31735	32812	32628	32687	32751	
1701	0	3812	6437	4577	7793	440	0	32688	32423	32508	32199	32593	32684	32210	32735	
1702	0	3814	6497	4605	7769	441	0	32660	32523	32447	32204	32621	32755	32426	32694	
1703	0	3821	6436	4592	7767	442	0	32735	32487	32503	32500	32685	32549	32958	32667	
1704	0	3818	6439	4550	7794	443	0	33055	32244	32589	32872	32804	32689	33269	32685	
1705	0	3793	6439	4616	7814	444	0	33210	32461	32723	33138	32743	32799	33183	32879	
1706	0	3828	6427	4599	7787	445	0	33028	32892	32715	33061	32719	32655	32691	32834	
1707	0	3810	6408	4619	7784	446	0	32961	33103	32724	33255	32705	32553	32204	32646	
1708	0	3830	6447	4586	7784	447	0	32797	33281	32740	33365	32786	32723	32647	32731	
1709	0	3800	6455	4562	7824	448	0	32721	33306	32825	33340	32712	32763	33287	32724	
1710	0	3840	6439	4576	7809	449	0	32769	33367	32786	33215	32583	32715	33111	32690	
1711	0	3818	6452	4630	7817	450	0	32691	32859	32675	33023	32667	32555	32981	32690	
1712	0	3800	6468	4592	7811	451	0	32766	32599	32716	32967	32643	32718	32495	32699	
1713	0	3869	6438	4597	7821	452	0	32858	32359	32743	32883	32732	32858	32583	32692	
1714	0	3835	6378	4621	7824	453	0	32909	32285	32789	33043	32595	32695	33095	32535	
1715	0	3858	6447	4568	7832	454	0	32823	32564	32769	32759	32619	32549	33483	32538	
1716	0	3854	6421	4648	7824	455	0	32791	32669	32710	32835	32583	32691	33089	32631	
1717	0	3861	6447	4617	7864	456	0	32737	32885	32746	32658	32615	32687	32633	32495	
1718	0	3818	6469	4621	7842	457	0	32629	32645	32828	32690	32583	32764	32345	32495	
1719	0	3817	6458	4628	7858	458	0	32652	32763	32882	32692	32609	32601	32637	32615	
1720	0	3870	6474	4631	7870	459	0	32557	32703	32957	32868	32504	32767	33087	32645	
1721	0	3852	6456	4645	7826	460	0	32698	32594	32943	32743	32535	32863	33134	32743	
1722	0	3907	6443	4608	7827	461	0	32797	32743	32763	32702	32447	32737	32885	32762	
1723	0	3864	6410	4629	7826	462	0	32753	32725	32810	32567	32443	32815	32319	32829	
1724	0	3892	6441	4579	7901	463	0	32832	32551	32757	32751	32434	32810	32338	32855	
1725	0	3859	6436	4636	7874	464	0	32807	32631	32855	32751	32564	32757	32797	32935	
1726	0	3866	6427	4604	7884	465	0	32832	32703	32775	32752	32431	32899	33239	32935	
1727	0	3909	6428	4633	7858	466	0	32788	32601	32742	32679	32493	32827	33133	32925	
1728	0	3860	6411	4649	7887	467	0	32764	32621	32727	32676	32631	32687	32516	32834	
1729	0	3858	6392	4619	7885	468	0	32736	32533	32756	32621	32647	32623	32223	32718	
1730	0	3899	6424	4687	7922	469	0	32764	32633	32757	32647	32925	32839	32503	32487	
1731	0	3859	6470	4654	7932	470	0	32731	32581	32757	32543	32903	32885	32955	32333	
1732	0	3884	6445	4652	7922	471	0	32587	32356	32796	32566	32804	32881	33252	32263	
1733	0	3846	6417	4645	7938	472	0	32623	32463	32749	32431	32609	32860	32847	32198	
1734	0	3868	6430	4597	7915	473	0	32676	32471	32685	32463	32463	33175	32298	32105	
1735	0	3903	6437	4608	7934	474	0	32586	32221	32694	32404	32047	33403	32323	31959	
1736	0	3856	6442	4592	7887	475	0	32569	32367	32711	32465	31566	33069	32767	31895	
1737	0	3888	6414	4608	7912	476	0	32620	32321	32644	32455	31495	33295	33241	32147	
1738	0	3889	6442	4644	7928	477	0	32634	32287	32625	32465	31876	33423	32985	32575	
1739	0	3862	6400	4621	7914	478	0	32705	32481	32607	32647	32305	32949	32577	32743	
1740	0	3895	6399	4628	7916	479	0	32761	32675	32687	32775	32181	32917	32274	32118	
1741	0	3865	6430	4680	7951	480	0	32779	32716	32812	32828	32641	33053	32473	32167	
1742	0	3868	6418	4616	7921	481	0	32836	32850	32860	32941	33388	32638	33026	32438	
1743	0	3849	6422	4587	7908	482	0	32846	32960	32782	33035	34303	32503	33093	33571	
1744	0	3954	6342	4612	7917	483	0	32816	32807	32788	32996	35431	32239	32895	34676	
1745	0	3921	6379	4578	7915	484	0	32772	32903	32813	32945	35871	32071	32348	34895	
1746	0	3885	6379	4619	7953	485	0	32774	32795	32946	32962	36628	32207	32222	35021	
1747	0	3938	6405	4610	7922	486	0	32658	32935	32965	32961	36810	32383	32717	34945	
1748	0	3917	6324	4608	7938	487	0	32661	32971	33018	33042	35956	32357	33233	34071	
1749	0	3873	6362	4605	7954	488	0	32638	33061	33037	32989	34527	32319	33069	33345	
1750	0	3924	6359	4588	7946	489	0	32614	32927	32919	33055	33610	32005	32627	34461	
1751	0	3918	6395	4629	7954	490	0	32732	32787	32918	32959	32796	31815	32164	35110	
1752	0	3936	6396	4588	7963	491	0	32723	32885	32885	32954	32252	32098	32340	34471	
1753	0	3953	6369	4573	7949	492	0	32716	32788	32901	32827	32179	32485	32751	33482	
1754	0	3893	6365	4659	7962	493	0	32701	32925	32855	32789	32743	32815	33106	32691	
1755	0	3877	6354	4563	7985	494	0	32674	32885	32833	32739	32715	32524	32933	32356	
1756	0	3854	6414	4547	7947	495	0	32591	32596	32804	32765	32959	32606	32455	32298	
1757	0	3908	6384	4580	7980	496	0	32720	32795	32749	32742	32695	32615	32180	32920	
1758	0	3915	6384	4614	7933	497	0	32748	32775	32696	32859	32262	32556	32603	32903	
1759	0	3897	6359	4601	7962	498	0	32708	32903	32718	32852	32165	32690	33247	32642	
1760	0	3905	6385	4562	7949	499	0	32677	32903	32771	32743	31981	33126	33119	32165	
1761	0	3901	6349	4621	7981	500	0	32705	32835	32879	32771	31501	33194	32794	31555	
1762	0	3920	6352	4565	7944	501	0	32728	32817	32836	32701	30934	33309	32247	31356	
1763	0	3929	6347	4561	7945	502	0	32858	32727	32731	32724	30521	33113	32178	31261	
1764	0	3960	6358	4597	7952	503	0	32832	32759	32740	32719	30911	32791	32743	31623	
1765	0	3942	6361	4608	7993	504	0	32941	32590	32783	32647	31317	32711	33148	31895	
1766	0	3891	6357	4604	7969	505	0	32893	32554	32891	32585	31168	32751	33151	31719	
1767	0	3939	6339	4571	7984	506	0	32890	32457	32834	32485	31847	33010	32495	32012	
1768	0	3915	6366	4581	7980	507	0	32871	32503	32711	32590	32359	32943	32209	32233	
1769	0	3916	6338	4574	7984	508	0	32911	32465	32663	32516	32949	32847	32449	32358	
1770	0	3901	6426	4556	8030	509	0	32964	32663	32644	32524	32851	33173	33019	32625	
1771	0	3918	6370	4582	8008	510	0	32969	32737	32625	32433	32599	33317	33192	32751	
1772	0	3921	6342	4542	8005	511	0	33071	32738	32615	32513	32276	33287	32919	32962	
1773	0	3956	6302	4485	8002	512	0	33062	32807	32631	32491	32079	32980	32443	32977	
1774	0	3918	6355	4571	8032	513	0	33056	32647	32681	32580	31798	32831	32311	32767	
1775	0	3908	6365	4554	7990	514	0	33014	32753	32647	32548	31879	32967	32687	32574	
1776	0	3938	6356	4543	7983	515	0	32989	32721	32615	32507	32189	32615	33437	32423	
1777	0	3977	6342	4538	7984	516	0	32939	32519	32581	32699	32591	32547	33447	32483	
1778	0	3948	6357	4563	7981	517	0	32962	32679	32532	32731	32645	32597	32814	32687	
1779	0	3921	6335	4579	8022	518	0	32956	32525	32509	32783	32822	32687	32549	32964	
1780	0	3958	6362	4538	8040	519	0	32887	32791	32534	32659	32614	32869	32722	33007	
1781	0	3954	6336	4539	7963	520	0	32890	32685	32567	32541	32422	32817	33255	32679	
1782	0	3985	6345	4568	8011	521	0	32879	32769	32678	32567	32441	32949	33511	32443	
1783	0	3927	6354	4610	8037	522	0	32724	32579	32736	32527	32551	32999	33108	32383	
1784	0	3912	6376	4558	8012	523	0	32655	32668	32759	32597	32567	33039	32530	32605	
1785	0	3953	6354	4552	8040	524	0	32658	32583	32759	32617	32431	32903	32372	32868	
1786	0	4012	6304	4553	8027	525	0	32652	32751	32748	32832	32679	33005	32876	32666	
1787	0	3926	6344	4583	8082	526	0	32630	32727	32707	32783	32717	32801	33366	32530	
1788	0	3996	6325	4566	8063	527	0	32699	32495	32871	32738	33092	33003	33065	32622	
1789	0	3938	6312	4529	8088	528	0	32647	32557	32802	32701	33366	32765	32637	33045	
1790	0	3987	6308	4529	8088	529	0	32634	32582	32919	32745	33693	32410	32207	33366	
1791	0	4016	6348	4564	8088	530	0	32698	32503	32927	32893	33350	32628	32600	33287	
1792	0	3991	6313	4528	8069	531	0	32677	32537	32949	32769	33019	32643	32958	33029	
1793	0	3968	6312	4528	8076	532	0	32702	32543	32921	32828	32815	32727	33199	32790	
1794	0	4030	6316	4571	8052	533	0	32655	32503	32831	32791	32527	32909	32674	32239	
1795	0	3982	6310	4531	8072	534	0	32700	32507	32762	32711	32354	32710	32250	32029	
1796	0	3990	6318	4551	8102	535	0	32727	32422	32769	32696	32461	32835	32279	32120	
1797	0	4029	6307	4542	8102	536	0	32749	32527	32731	32715	32525	32797	32922	32503	
1798	0	3975	6258	4548	8122	537	0	32758	32553	32811	32733	32647	32323	33195	32815	
1799	0	4015	6306	4582	8096	538	0	32839	32599	32671	32807	32786	32503	32935	32775	
1800	0	4014	6316	4562	8156	539	0	32823	32591	32791	32825	32937	32128	32255	32495	
1801	0	4001	6298	4586	8140	540	0	32790	32583	32775	32807	32812	32296	32223	31834	
1802	0	4003	6330	4539	8124	541	0	32686	32639	32756	32764	32695	32919	32690	31972	
1803	0	4013	6303	4536	8155	542	0	32729	32636	32773	32796	32667	32788	33077	33062	
1804	0	4049	6307	4543	8146	543	0	32658	32676	32751	32727	32961	32870	33082	34072	
1805	0	4022	6304	4523	8138	544	0	32698	32695	32710	32755	32764	32791	32527	33903	
1806	0	4036	6278	4537	8168	545	0	32665	32543	32829	32708	32959	33491	32031	33041	
1807	0	4057	6284	4540	8168	546	0	32622	32589	32935	32681	33070	33522	32041	32587	
1808	0	4064	6288	4530	8160	547	0	32591	32631	33082	32561	32795	32922	32749	32605	
1809	0	4013	6303	4485	8197	548	0	32628	32635	32927	32621	32627	31954	33232	33029	
1810	0	4044	6288	4533	8134	549	0	32687	32733	32705	32589	32505	32177	32853	32774	
1811	0	4040	6233	4496	8143	550	0	32740	32635	32669	32783	32391	32551	32407	31983	
1812	0	3990	6293	4534	8182	551	0	32694	32828	32701	32769	32259	32609	32173	31906	
1813	0	4041	6349	4514	8203	552	0	32740	32655	32691	32911	32417	32700	32486	32577	
1814	0	4063	6266	4504	8128	553	0	32745	32727	32626	32964	32785	32950	33258	33205	
1815	0	4042	6277	4550	8236	554	0	32749	32571	32612	32874	32924	33031	33185	32821	
1816	0	4032	6304	4542	8241	555	0	32817	32735	32682	32871	32959	33349	32839	32621	
1817	0	4068	6301	4577	8217	556	0	32825	32655	32621	32831	33037	32917	32235	32694	
1818	0	4116	6256	4530	8203	557	0	32871	32740	32646	32861	33427	32423	32380	33005	
1819	0	4088	6265	4513	8226	558	0	32892	32775	32631	32703	33315	32420	32854	33351	
1820	0	4060	6271	4496	8224	559	0	32889	32647	32595	32567	33149	32389	33299	33573	
1821	0	4095	6267	4513	8202	560	0	32841	32727	32714	32539	32903	32167	33149	33331	
1822	0	4050	6224	4466	8268	561	0	32767	32507	32815	32679	32735	32455	32663	33249	
1823	0	4091	6300	4508	8244	562	0	32692	32663	32962	32637	32637	32811	32391	33097	
1824	0	4136	6255	4456	8227	563	0	32649	32601	32817	32626	32455	32434	32604	33132	
1825	0	4104	6260	4505	8252	564	0	32661	32469	32694	32502	32446	32810	33062	33067	
1826	0	4094	6276	4453	8227	565	0	32782	32603	32765	32655	32532	33031	33263	33215	
1827	0	4116	6251	4439	8221	566	0	32767	32503	32815	32679	32658	33079	32902	33250	
1828	0	4076	6304	4504	8253	567	0	32686	32631	32825	32589	32739	32899	32365	33095	
1829	0	4084	6294	4463	8216	568	0	32662	32581	32797	32775	32436	32631	32312	32834	
1830	0	4128	6234	4469	8260	569	0	32735	32703	32799	32820	32529	32807	32875	32635	
1831	0	4054	6274	4420	8267	570	0	32740	32647	32797	32858	32633	32841	33522	32686	
1832	0	4086	6224	4414	8261	571	0	32661	32844	32759	32876	33003	32828	33447	32914	
1833	0	4119	6250	4464	8253	572	0	32783	32795	32775	32783	33055	32491	32863	32847	
1834	0	4100	6266	4468	8217	573	0	32771	32628	32679	32603	33118	32647	32441	32692	
1835	0	4134	6264	4461	8272	574	0	32759	32615	32730	32690	32892	32775	32743	32615	
1836	0	4077	6201	4407	8277	575	0	32716	32588	32822	32622	32868	32663	33330	32532	
1837	0	4094	6240	4452	8262	576	0	32707	32703	32823	32706	32810	32773	33403	32367	
1838	0	4122	6243	4408	8256	577	0	32718	32738	32865	32831	32835	32742	32831	32353	
1839	0	4131	6242	4415	8254	578	0	32726	32658	32810	32823	32978	32789	32441	32419	
1840	0	4125	6266	4434	8270	579	0	32782	32711	32844	32893	32802	32621	32345	32541	
1841	0	4092	6195	4331	8283	580	0	32848	32580	32694	32809	32492	32647	32805	32547	
1842	0	4118	6208	4437	8293	581	0	32780	32679	32655	32815	32559	32762	33135	32501	
1843	0	4104	6248	4407	8260	582	0	32823	32578	32679	32709	32481	32803	33133	32595	
1844	0	4135	6271	4427	8304	583	0	32861	32699	32702	32801	32556	32898	32629	32667	
1845	0	4082	6239	4405	8257	584	0	32842	32549	32861	32836	32575	32685	32111	32716	
1846	0	4160	6216	4396	8266	585	0	32775	32675	32772	32807	32748	32600	32424	32609	
1847	0	4098	6198	4385	8290	586	0	32743	32733	32638	32871	32623	32743	33003	32636	
1848	0	4148	6209	4341	8288	587	0	32778	32567	32494	32721	32724	32818	33231	32629	
1849	0	4100	6201	4344	8277	588	0	32841	32709	32431	32692	32670	32660	32903	32607	
1850	0	4090	6221	4377	8258	589	0	32858	32639	32335	32767	32715	32742	32303	32647	
1851	0	4105	6208	4428	8306	590	0	32822	32755	32459	32605	32703	32716	32314	32477	
1852	0	4114	6234	4328	8340	591	0	32798	32551	32641	32431	32667	32714	32610	32391	
1853	0	4202	6182	4366	8266	592	0	32756	32639	32957	32353	32742	32455	33149	32389	
1854	0	4125	6190	4323	8301	593	0	32767	32633	33023	32543	32679	32716	33185	32402	
1855	0	4142	6190	4360	8300	594	0	32836	32599	32974	32727	32735	32903	32726	32423	
1856	0	4166	6198	4354	8309	595	0	32775	32819	33179	33103	32578	32595	32097	32506	
1857	0	4089	6152	4321	8300	596	0	32793	32733	33355	33088	32607	32711	32345	32562	
1858	0	4149	6180	4373	8312	597	0	32658	32669	33439	33093	32587	32647	32743	32807	
1859	0	4157	6181	4317	8323	598	0	32627	32758	33100	33073	32655	32549	33007	32858	
1860	0	4144	6163	4333	8322	599	0	32671	32790	32647	32839	32559	32551	32855	32982	
1861	0	4154	6164	4346	8270	600	0	32675	32797	32487	32662	32667	32850	32181	33306	
1862	0	4174	6149	4268	8316	601	0	32710	32695	32415	32390	32555	32831	31884	33300	
1863	0	4106	6208	4316	8340	602	0	32712	32955	32276	32097	32746	32647	32389	32784	
1864	0	4123	6189	4310	8337	603	0	32740	32843	32300	31815	32574	32690	32955	32487	
1865	0	4163	6152	4279	8324	604	0	32815	32565	32567	31901	32751	33335	32987	32383	
1866	0	4140	6122	4280	8376	605	0	32880	32615	32679	31993	32725	33221	32802	32405	
1867	0	4132	6138	4286	8362	606	0	32791	32390	32789	32197	32695	32889	32380	32327	
1868	0	4170	6136	4274	8349	607	0	32816	32551	32599	32190	32743	32685	32340	32261	
1869	0	4150	6137	4257	8266	608	0	32856	32605	32486	32428	32833	32671	32902	32111	
1870	0	4186	6170	4237	8325	609	0	32813	32802	32475	32809	32679	32867	33285	32389	
1871	0	4152	6142	4252	8354	610	0	32715	32735	32503	33141	32999	32843	33132	32979	
1872	0	4125	6150	4245	8343	611	0	32682	32550	32591	33057	32859	32567	32607	33359	
1873	0	4149	6120	4259	8357	612	0	32721	32698	32711	33116	32715	32599	32247	33788	
1874	0	4160	6160	4241	8334	613	0	32721	32690	32846	32983	32803	32562	32475	33771	
1875	0	4148	6116	4180	8359	614	0	32825	32775	33069	32967	32855	32319	33094	33714	
1876	0	4082	6138	4205	8336	615	0	32931	32785	33199	32935	32855	32455	33306	33585	
1877	0	4187	6133	4226	8340	616	0	32919	32566	33385	32979	32799	32615	32955	33449	
1878	0	4166	6124	4209	8358	617	0	32799	32691	33415	32820	32935	32705	32455	33117	
1879	0	4134	6086	4222	8371	618	0	32839	32590	33335	32823	32628	32597	32364	32949	
1880	0	4182	6080	4191	8352	619	0	32807	32854	33287	33078	32854	32754	32839	32732	
1881	0	4156	6140	4194	8336	620	0	32740	32794	32925	32978	32902	32860	33342	32463	
1882	0	4125	6122	4134	8322	621	0	32697	32551	32775	32387	32911	32558	33159	32538	
1883	0	4172	6112	4196	8325	622	0	32790	32765	32541	31751	32615	32877	32601	32713	
1884	0	4157	6084	4144	8313	623	0	32797	32535	32441	31835	32769	33075	32430	32778	
1885	0	4132	6102	4154	8330	624	0	32713	32689	32653	32245	32705	32802	32766	32664	
1886	0	4162	6086	4184	8316	625	0	32690	32586	32763	32665	32680	32731	33223	32428	
1887	0	4151	6057	4130	8314	626	0	32731	32553	32676	33158	32626	32663	33503	32391	
1888	0	4180	6070	4126	8314	627	0	32775	32789	32479	33047	32301	32647	33063	32631	
1889	0	4164	6072	4130	8349	628	0	32782	32759	32679	33479	32579	32509	32571	32836	
1890	0	4198	6088	4132	8361	629	0	32724	32855	32805	34066	32815	32587	32442	32515	
1891	0	4158	6056	4130	8365	630	0	32709	32775	32489	34091	32806	32903	32804	32629	
1892	0	4223	6090	4137	8348	631	0	32734	32636	32439	33895	32783	32782	33367	32714	
1893	0	4144	6052	4120	8346	632	0	32764	32823	32791	33319	32871	32854	33136	33106	
1894	0	4168	6067	4137	8308	633	0	32759	32577	33197	33195	32918	32815	32693	32975	
1895	0	4170	6082	4080	8341	634	0	32775	32703	33083	33079	32891	32799	32162	32754	
1896	0	4190	6073	4122	8324	635	0	32741	32594	33001	32534	32425	32708	32479	32635	
1897	0	4155	6049	4119	8356	636	0	32799	32725	32959	32244	32576	32532	32954	32711	
1898	0	4172	6023	4056	8319	637	0	32903	32825	32898	32450	32407	32807	33211	32708	
1899	0	4165	6078	4094	8350	638	0	32817	32799	32935	32255	32477	32639	32807	32461	
1900	0	4230	6009	4054	8364	639	0	32660	32658	32919	32463	32703	32597	32379	32611	
1901	0	4154	6034	4100	8363	640	0	32681	32604	32698	32223	32763	32446	32275	32623	
1902	0	4195	6062	4116	8326	641	0	32556	32775	32646	32529	32699	32836	32479	32727	
1903	0	4160	6028	4062	8376	642	0	32385	32495	32293	33101	32871	32884	33106	32590	
1904	0	4212	6048	4032	8345	643	0	32547	32429	32157	32324	32677	32810	33159	32681	
1905	0	4163	6062	4073	8356	644	0	32761	32391	32463	31623	32695	32809	32587	32661	
1906	0	4145	6027	4070	8338	645	0	32855	32391	32565	31477	32900	32857	32239	32700	
1907	0	4172	6044	4027	8364	646	0	32864	32585	32938	31546	32717	32900	32329	32730	
1908	0	4198	6071	4051	8380	647	0	32617	32399	32812	31879	32733	32605	32775	32881	
1909	0	4196	6070	4083	8320	648	0	32609	32443	32685	32163	32669	32791	33247	32893	
1910	0	4190	6078	4059	8365	649	0	32452	32767	33203	32615	32731	32854	33013	32775	
1911	0	4231	6047	4012	8336	650	0	32717	32909	33605	32769	32642	32668	32516	32767	
1912	0	4197	6023	4009	8344	651	0	33055	33063	33177	32679	32727	32871	32188	32676	
1913	0	4180	6033	4040	8419	652	0	32957	32553	32996	33066	32615	32719	32425	32575	
1914	0	4216	6068	4050	8353	653	0	32767	32583	32903	33072	32563	32595	33038	32615	
1915	0	4244	6056	4021	8416	654	0	32856	32647	33092	33219	32838	32829	33010	32717	
1916	0	4241	6019	4006	8354	655	0	32999	32707	32935	33860	32775	32899	32703	32727	
1917	0	4201	6018	4036	8349	656	0	32918	32839	32668	33716	32759	32935	32230	32637	
1918	0	4227	6035	4072	8384	657	0	32892	33026	32238	33635	32614	32714	32246	33009	
1919	0	4222	6018	4015	8392	658	0	32971	33375	32241	33024	32707	32534	32671	32913	
1920	0	4230	6030	4004	8393	659	0	32915	33127	32194	32599	32711	32775	33129	32855	
1921	0	4206	6055	4028	8396	660	0	32870	32950	32131	33079	32735	32751	33119	32775	
1922	0	4185	6045	4054	8402	661	0	32862	32827	32095	32734	32523	32699	32546	32855	
1923	0	4255	6046	4032	8402	662	0	32687	32669	32119	32804	33081	32709	32223	32819	
1924	0	4260	5996	4007	8395	663	0	32570	32596	32223	32543	32935	32790	32469	32927	
1925	0	4228	6040	4026	8387	664	0	32617	32231	32391	32523	32867	32626	32917	32861	
1926	0	4230	6042	3968	8410	665	0	32732	32396	32332	32489	32795	32757	33231	32918	
1927	0	4263	6036	4015	8406	666	0	32796	32527	32359	32719	32556	32719	32959	32759	
1928	0	4232	6107	3991	8410	667	0	32827	32327	32382	32599	32763	32767	32321	32738	
1929	0	4274	6105	4024	8406	668	0	32850	32663	32487	32406	32890	32636	32324	32698	
1930	0	4319	6060	3994	8425	669	0	32889	32693	32708	32524	32715	32775	32660	32578	
1931	0	4256	6070	4043	8386	670	0	32791	32615	32847	32570	32564	32814	33267	32647	
1932	0	4270	6048	4019	8400	671	0	32717	32715	33022	32771	32567	32722	33205	32666	
1933	0	4256	6002	4009	8454	672	0	32420	32661	33215	32710	32775	32957	32757	32583	
1934	0	4252	6069	4048	8424	673	0	32468	32541	33199	32725	32671	32911	32517	32668	
1935	0	4276	6066	4016	8456	674	0	32563	32612	33294	32941	32775	32680	32617	32821	
1936	0	4281	6088	4046	8418	675	0	32613	32742	33196	32892	32855	32783	33285	32895	
1937	0	4295	6058	4038	8390	676	0	32558	32764	32974	33123	32683	32791	33410	33075	
1938	0	4285	6060	4062	8384	677	0	32636	32948	32881	33031	32903	32743	32983	32799	
1939	0	4246	6080	4043	8456	678	0	32932	32671	32775	33063	32843	32563	32509	32531	
1940	0	4309	6036	3984	8381	679	0	32950	32804	32852	33052	32860	32683	32603	32621	
1941	0	4287	6085	4003	8398	680	0	32784	32527	32975	32647	32522	32638	32911	32633	
1942	0	4337	6114	4033	8395	681	0	32726	32647	33063	32512	32598	32701	33483	32585	
1943	0	4305	6098	4005	8460	682	0	32748	32716	33231	32029	32588	32511	33231	32643	
1944	0	4299	6120	4031	8455	683	0	32712	32695	33405	32135	32773	32722	32495	32655	
1945	0	4286	6062	4031	8420	684	0	32781	32893	33324	32237	32699	32935	32349	32756	
1946	0	4318	6085	3982	8500	685	0	32720	32722	33108	32463	32723	32700	32647	32711	
1947	0	4325	6054	4088	8456	686	0	32662	32701	32924	32421	32786	32935	33159	32739	
1948	0	4318	6064	4015	8416	687	0	32756	32663	32774	32415	32532	33009	33167	32713	
1949	0	4343	6104	4018	8465	688	0	32797	32551	32676	32405	32708	32919	32827	32836	
1950	0	4302	6098	4003	8451	689	0	32831	32636	32617	32797	32703	32703	32307	32927	
1951	0	4338	6074	4014	8452	690	0	32765	32690	32573	32980	32711	32822	32317	32969	
1952	0	4363	6115	3984	8463	691	0	32745	32775	32550	32994	32647	32834	32758	32759	
1953	0	4394	6115	4056	8418	692	0	32722	32658	32621	33109	32739	32921	33268	32854	
1954	0	4355	6120	4044	8422	693	0	32894	32839	32535	33058	32631	32684	33095	32775	
1955	0	4337	6130	4032	8456	694	0	33055	32877	32436	33033	32707	32679	32463	32543	
1956	0	4430	6139	4032	8456	695	0	33042	32867	32595	32903	32688	32675	32143	32555	
1957	0	4377	6128	4031	8479	696	0	32918	32629	32804	33015	32767	32814	32525	32692	
1958	0	4391	6124	4049	8432	697	0	32778	32629	32898	32925	32678	32635	33035	32821	
1959	0	4354	6095	3984	8456	698	0	32809	32612	32815	32903	32855	32765	33075	32989	
1960	0	4351	6145	4069	8422	699	0	32758	32555	32761	32845	32791	32797	32817	33119	
1961	0	4393	6160	4048	8466	700	0	32765	32605	32719	32613	32673	32759	32299	32958	
1962	0	4364	6112	4050	8467	701	0	32737	32587	32836	32180	32549	32593	32244	33009	
1963	0	4388	6151	4011	8442	702	0	32623	32711	32931	32107	32701	32743	32785	32949	
1964	0	4355	6184	4036	8449	703	0	32639	32775	32855	32167	32566	32841	33239	32851	
1965	0	4422	6121	4035	8484	704	0	32667	32796	32855	32175	32732	32827	33117	32713	
1966	0	4396	6130	4054	8426	705	0	32703	32573	32809	32498	32837	32593	32543	32517	
1967	0	4414	6138	4041	8413	706	0	32734	32831	32858	32775	32759	32749	32123	32428	
1968	0	4400	6166	4040	8453	707	0	32706	32647	32844	32903	32697	32769	32460	32435	
1969	0	4369	6184	4057	8440	708	0	32713	32722	32670	32742	32786	32883	32977	32655	
1970	0	4399	6183	4067	8444	709	0	32679	32551	32617	32493	32774	32763	33311	32852	
1971	0	4358	6157	4056	8420	710	0	32699	32783	32636	32447	32711	32655	32887	32815	
1972	0	4394	6171	4019	8420	711	0	32703	32721	32707	32581	32900	32853	32254	32914	
1973	0	4410	6172	4042	8472	712	0	32727	32843	32655	32811	32764	32903	32074	32854	
1974	0	4428	6137	4101	8436	713	0	32751	32717	32703	32805	32737	32759	32585	32601	
1975	0	4429	6174	4022	8431	714	0	32743	32621	32665	32762	32635	32556	33019	32391	
1976	0	4415	6188	4044	8467	715	0	32740	32692	32711	32860	32735	32782	32903	32391	
1977	0	4408	6157	4053	8424	716	0	32821	32622	32599	32818	32391	32771	32695	32425	
1978	0	4419	6235	4017	8468	717	0	32867	32726	32643	32967	32428	32519	32244	32751	
1979	0	4419	6192	4050	8456	718	0	32940	32773	32671	32842	31994	32809	32383	32562	
1980	0	4436	6240	4026	8446	719	0	32815	32804	32665	32849	32128	32852	32972	32525	
1981	0	4438	6185	4060	8418	720	0	32836	32773	32710	32722	32222	32903	33179	32506	
1982	0	4478	6217	4009	8444	721	0	32815	32811	32805	32811	32387	32773	33045	32519	
1983	0	4448	6221	4058	8420	722	0	32774	32731	32743	32775	32636	32850	32439	32599	
1984	0	4489	6190	4033	8416	723	0	32755	32551	32740	32821	33375	32887	32169	33407	
1985	0	4489	6219	4074	8460	724	0	32789	32791	32733	32775	33579	32689	32661	34390	
1986	0	4452	6215	4016	8406	725	0	32775	32789	32767	32835	33183	32729	33278	34290	
1987	0	4508	6227	4041	8418	726	0	32754	32558	32731	32852	32531	32853	33287	33127	
1988	0	4482	6228	4054	8418	727	0	32740	32715	32831	32783	32253	32786	32643	32415	
1989	0	4500	6217	4053	8441	728	0	32764	32741	32868	32819	32531	32667	32371	32336	
1990	0	4467	6213	4078	8414	729	0	32784	32819	32880	32758	32367	32796	32573	32476	
1991	0	4481	6264	4049	8407	730	0	32705	32821	32807	32665	32350	32927	33189	32484	
1992	0	4462	6262	4029	8363	731	0	32650	32747	32775	32663	31982	32775	33542	32307	
1993	0	4517	6290	4006	8444	732	0	32692	32802	32807	32603	32724	32639	33183	32262	
1994	0	4500	6233	4067	8421	733	0	32695	32599	32803	32647	33623	32771	32487	32692	
1995	0	4546	6269	3997	8388	734	0	32831	32745	32844	32643	34104	32653	32543	33127	
1996	0	4508	6293	4032	8398	735	0	32823	32583	32892	32717	34279	32643	32903	33071	
1997	0	4534	6273	4054	8411	736	0	32773	32716	32765	32789	33851	32540	33372	32830	
1998	0	4507	6307	4080	8368	737	0	32832	32495	32683	32795	33821	32596	33295	32703	
1999	0	4488	6284	4002	8356	738	0	32783	32703	32759	32765	33477	32577	32694	32727	
2000	0	4459	6292	4038	8425	739	0	32778	32795	32893	32646	33195	32695	32293	32738	
2001	0	4555	6245	4011	8363	740	0	32797	32841	32791	32725	32391	32660	32391	32669	
2002	0	4493	6336	4042	8402	741	0	32767	32738	32569	32647	31913	32563	33029	32476	
2003	0	4506	6276	4057	8352	742	0	32812	32711	32535	32647	31792	32695	33319	32406	
2004	0	4482	6316	4027	8354	743	0	32763	32687	32603	32619	31847	32789	32883	32303	
2005	0	4489	6245	3999	8365	744	0	32669	32479	32615	32727	31875	32849	32391	32279	
2006	0	4530	6245	4062	8370	745	0	32730	32659	32734	32647	32175	32809	32304	32412	
2007	0	4528	6284	4022	8353	746	0	32796	32646	32732	32673	32304	32687	32598	32811	
2008	0	4483	6298	4055	8316	747	0	32778	32769	32671	32733	32421	32787	33100	33325	
2009	0	4507	6337	3988	8360	748	0	32732	32655	32679	32722	32751	32807	33250	33653	
2010	0	4537	6350	4036	8324	749	0	32749	32714	32701	32879	32985	32831	32759	33355	
2011	0	4484	6274	4033	8354	750	0	32728	32501	32637	32837	33159	32749	32114	32916	
2012	0	4523	6288	4029	8360	751	0	32700	32599	32679	32815	33098	32617	32333	32855	
2013	0	4521	6333	4006	8340	752	0	32664	32422	32629	32695	33427	32771	32771	33129	
2014	0	4508	6339	4003	8377	753	0	32780	32647	32710	32674	33407	32685	33185	33274	
2015	0	4558	6282	4005	8318	754	0	32721	32607	32735	32599	32971	32726	32886	33510	
2016	0	4540	6302	4082	8320	755	0	32783	32716	32775	32596	32591	32539	32349	33311	
2017	0	4508	6317	4070	8297	756	0	32746	32607	32799	32675	32367	32711	32016	33047	
2018	0	4539	6300	4040	8321	757	0	32743	32623	32837	32643	32607	32743	32309	32644	
2019	0	4528	6381	3993	8319	758	0	32767	32638	32955	32698	33026	32817	32791	32424	
2020	0	4518	6332	4012	8312	759	0	32783	32671	32895	32724	33436	32802	33102	32511	
2021	0	4524	6308	4053	8300	760	0	32802	32519	32948	32686	33043	32791	32613	32620	
2022	0	4527	6296	4003	8302	761	0	32753	32565	32881	32695	32398	32709	32075	32665	
2023	0	4512	6336	4045	8336	762	0	32724	32479	32848	32604	32009	32822	32180	32569	
2024	0	4524	6330	4030	8289	763	0	32764	32535	32734	32629	31929	32645	32732	32570	
2025	0	4503	6391	4021	8284	764	0	32793	32647	32874	32677	32109	32829	33171	32807	
2026	0	4516	6324	4012	8296	765	0	32700	32611	32852	32786	32260	32724	33063	32815	
2027	0	4528	6374	3979	8305	766	0	32751	32673	33054	32815	32580	32725	32391	32854	
2028	0	4539	6371	3997	8268	767	0	32732	32679	33093	32751	32835	32853	32405	32707	
2029	0	4541	6351	3992	8253	768	0	32709	32598	33006	32756	32738	32822	32819	32775	
2030	0	4539	6341	4043	8256	769	0	32723	32687	33015	32640	32681	32943	33271	32591	
2031	0	4492	6375	4015	8290	770	0	32769	32625	32897	32621	32567	32833	33334	32685	
2032	0	4526	6374	4042	8256	771	0	32806	32591	32775	32647	32679	32800	32835	32663	
2033	0	4518	6347	3974	8260	772	0	32752	32593	32634	32633	32615	32835	32492	32692	
2034	0	4540	6394	3995	8296	773	0	32736	32606	32591	32550	32613	32893	32822	32615	
2035	0	4551	6402	4058	8284	774	0	32788	32590	32563	32564	32843	32796	33140	32583	
2036	0	4552	6330	4006	8244	775	0	32764	32670	32519	32616	32796	32674	33351	32527	
2037	0	4565	6395	4014	8229	776	0	32829	32660	32527	32641	32694	32833	32878	32666	
2038	0	4552	6348	3969	8273	777	0	32812	32787	32596	32719	32875	32759	32319	32796	
2039	0	4528	6360	4028	8216	778	0	32823	32751	32736	32759	32812	32647	32375	32867	
2040	0	4533	6388	4017	8225	779	0	32847	32781	32686	32948	32579	32861	33153	32806	
2041	0	4501	6403	3947	8211	780	0	32796	32630	32775	32815	32618	32762	33495	32668	
2042	0	4526	6384	4000	8192	781	0	32812	32647	32743	32719	32643	32775	32988	32732	
2043	0	4538	6430	4021	8208	782	0	32829	32607	32571	32775	32671	32795	32535	32708	
2044	0	4559	6426	3978	8204	783	0	32848	32590	32614	32608	32593	32590	32438	32775	
2045	0	4540	6360	4004	8213	784	0	32788	32622	32571	32709	32477	32919	32820	32784	
2046	0	4526	6402	3989	8228	785	0	32773	32647	32539	32679	32439	32698	33228	32647	
2047	0	4548	6424	3963	8168	786	0	32774	32615	32527	32726	32572	32667	33159	32742	
2048	0	4506	6368	4020	8168	787	0	32740	32667	32516	32746	32861	32794	32605	32791	
2049	0	4550	6383	4019	8232	788	0	32726	32647	32631	32839	32747	32606	32230	32762	
2050	0	4508	6408	3991	8122	789	0	32711	32632	32867	32788	32449	32857	32314	32833	
2051	0	4480	6373	4034	8182	790	0	32682	32509	32959	32743	32375	32782	32910	32711	
2052	0	4526	6412	4000	8165	791	0	32605	32531	32940	32731	32339	32635	33143	32755	
2053	0	4548	6451	3979	8150	792	0	32632	32563	33047	32723	32270	32775	32513	32695	
2054	0	4494	6413	3996	8174	793	0	32665	32583	32975	32662	32559	32591	32231	32788	
2055	0	4519	6414	3980	8195	794	0	32718	32644	33002	32676	32836	32804	32276	32711	
2056	0	4457	6431	3972	8162	795	0	32744	32600	33026	32674	33185	32673	32669	32647	
2057	0	4521	6430	3990	8168	796	0	32767	32585	32903	32668	33380	32423	33207	32787	
2058	0	4525	6416	3986	8188	797	0	32772	32547	32835	32751	33231	32823	32849	32793	
2059	0	4523	6434	4041	8140	798	0	32814	32553	32501	32757	32903	32743	32404	32847	
2060	0	4509	6429	3990	8178	799	0	32829	32573	32377	32765	32735	32647	32132	32829	
2061	0	4558	6446	4014	8121	800	0	32807	32508	32422	32805	32903	32773	32703	32738	
2062	0	4506	6412	4052	8156	801	0	32812	32498	32366	32767	33087	32507	33251	32865	
2063	0	4530	6360	3998	8084	802	0	32788	32543	32499	32591	33187	32663	33121	32839	
2064	0	4493	6435	4010	8154	803	0	32816	32647	32436	32767	33271	32745	32593	32903	
2065	0	4458	6396	3984	8152	804	0	32811	32615	32527	32631	33127	32758	32279	32868	
2066	0	4545	6415	3994	8144	805	0	32799	32721	32642	32660	32913	32679	32550	32825	
2067	0	4540	6388	3957	8136	806	0	32708	32642	32775	32573	32711	32786	33185	32883	
2068	0	4511	6437	3977	8118	807	0	32797	32666	32805	32692	32583	32820	33309	32773	
2069	0	4507	6429	4042	8160	808	0	32797	32687	32987	32725	32639	32796	33085	32683	
2070	0	4484	6420	3994	8136	809	0	32805	32755	32989	32833	32579	32719	32340	32753	
2071	0	4554	6406	3996	8091	810	0	32719	32727	32850	32825	32642	32839	32402	32759	
2072	0	4526	6402	3999	8076	811	0	32734	32669	32901	32913	32487	32743	33013	32701	
2073	0	4498	6362	4034	8112	812	0	32825	32679	32992	32883	32505	32751	33323	32706	
2074	0	4489	6407	4002	8126	813	0	32799	32749	32991	32766	32551	32692	33317	32695	
2075	0	4543	6432	4012	8082	814	0	32721	32679	32959	32621	32532	32571	32623	32757	
2076	0	4477	6415	4010	8081	815	0	32690	32665	32891	32495	32559	32765	32404	32733	
2077	0	4517	6396	3994	8098	816	0	32748	32790	32883	32583	32598	32764	32647	32783	
2078	0	4512	6470	3973	8098	817	0	32685	32764	32806	32513	32541	32765	32919	32727	
2079	0	4553	6422	3976	8085	818	0	32751	32620	32735	32575	32631	32599	33119	32793	
2080	0	4512	6419	4037	8122	819	0	32743	32527	32703	32567	32783	32773	32627	32715	
2081	0	4483	6409	3964	8068	820	0	32782	32603	32820	32704	32621	32735	32103	32765	
2082	0	4474	6425	3951	8090	821	0	32713	32635	32775	32865	32617	32580	32111	32743	
2083	0	4498	6444	4014	8100	822	0	32711	32714	32705	32881	32613	32854	32810	32767	
2084	0	4528	6435	4016	8093	823	0	32749	32713	32773	32871	32634	32803	33237	32831	
2085	0	4470	6436	4014	8100	824	0	32732	32743	32795	33031	32683	32623	32932	32743	
2086	0	4482	6394	4004	8116	825	0	32765	32699	32855	33037	32647	32868	32543	32828	
2087	0	4496	6394	4041	8054	826	0	32755	32663	33091	33036	32625	32761	32436	32731	
2088	0	4505	6428	3970	8059	827	0	32815	32734	33020	33248	32799	32599	32916	32810	
2089	0	4484	6441	4020	8069	828	0	32766	32711	32986	33369	32748	32775	33302	32811	
2090	0	4488	6395	4008	8045	829	0	32732	32703	32871	33159	32673	32799	33307	32749	
2091	0	4515	6346	3972	8094	830	0	32738	32735	32707	32941	32791	32793	32807	32773	
2092	0	4483	6434	4019	8060	831	0	32743	32742	32655	32677	32855	32775	32263	32748	
2093	0	4495	6399	3996	8050	832	0	32721	32765	32527	32534	32660	32596	32558	32713	
2094	0	4464	6385	4024	8050	833	0	32767	32871	32361	32371	32691	32815	33108	32807	
2095	0	4508	6384	3974	8048	834	0	32749	32919	32279	31842	32553	32775	33199	32791	
2096	0	4479	6397	4037	8040	835	0	32703	32773	32314	31314	32590	32662	32887	32677	
2097	0	4485	6432	3976	8066	836	0	32710	32795	32343	31539	32695	32717	32307	32793	
2098	0	4448	6436	4011	8022	837	0	32742	32837	32487	31783	32858	32561	32332	32692	
2099	0	4452	6436	3923	8088	838	0	32708	32633	32845	31591	32775	32886	32687	32730	
2100	0	4500	6388	3976	8041	839	0	32696	32578	33252	31759	32679	32733	33159	32784	
2101	0	4462	6404	3983	7997	840	0	32737	32601	33403	32249	32800	32599	33119	32771	
2102	0	4455	6436	4035	8044	841	0	32824	32633	33473	32487	32799	32783	32563	32834	
2103	0	4446	6385	4017	8036	842	0	32815	32566	33359	32482	32783	32820	32143	32855	
2104	0	4459	6393	3980	8050	843	0	32786	32593	33317	32764	32751	32803	32502	32870	
2105	0	4435	6434	4004	8050	844	0	32828	32655	33117	33132	32727	32639	32995	32797	
2106	0	4451	6408	3985	8018	845	0	32788	32764	33061	33307	32940	32749	33236	32898	
2107	0	4478	6416	3981	8020	846	0	32794	32802	32877	33309	32957	32713	32711	32677	
2108	0	4449	6380	3944	8017	847	0	32815	32823	32740	33239	32811	32599	32315	32807	
2109	0	4470	6390	3982	8010	848	0	32839	32903	32518	33154	32726	32887	32361	32671	
2110	0	4436	6410	3999	8019	849	0	32740	32885	32381	33554	32627	32743	32901	32691	
2111	0	4464	6432	3950	8032	850	0	32751	32877	32573	33430	32640	32647	33097	32854	
2112	0	4438	6396	3994	8038	851	0	32738	32895	32807	32855	32647	32867	32893	32935	
2113	0	4431	6437	4017	7982	852	0	32705	32803	33053	32385	32727	32759	32423	32711	
2114	0	4488	6404	3989	8010	853	0	32672	32551	33025	32655	32701	32551	32169	32483	
2115	0	4465	6384	3994	8025	854	0	32752	32598	32929	32547	32647	32763	32560	32783	
2116	0	4404	6405	3944	7998	855	0	32767	32531	32809	32851	32718	32695	33095	32852	
2117	0	4404	6395	3994	8013	856	0	32800	32655	32551	33255	32735	32553	33023	32695	
2118	0	4430	6399	3972	8038	857	0	32780	32617	32325	33390	32685	32803	32459	32519	
2119	0	4467	6401	4001	8000	858	0	32749	32447	32327	33565	32511	32725	32167	32743	
2120	0	4441	6400	4005	7993	859	0	32728	32469	32243	33577	32676	32654	32377	32775	
2121	0	4418	6340	3962	8013	860	0	32619	32586	32585	33888	32799	32842	32871	32837	
2122	0	4413	6394	3961	8052	861	0	32481	32773	32849	33764	32763	32811	33077	32799	
2123	0	4452	6379	3978	8004	862	0	32558	32833	32681	33083	32685	32595	32943	32705	
2124	0	4491	6382	3993	7982	863	0	32647	32775	32669	32578	32734	32812	32347	32813	
2125	0	4399	6368	4003	7978	864	0	32562	32612	32775	33021	32899	32842	32338	32857	
2126	0	4398	6353	3981	8024	865	0	32698	32493	32863	33551	32743	32821	32791	32939	
2127	0	4465	6350	3970	7984	866	0	32916	32439	33098	33294	32603	32927	33361	32700	
2128	0	4437	6380	3981	7982	867	0	32989	32572	33055	32349	32743	32695	33107	32918	
2129	0	4408	6428	3963	7974	868	0	32975	32775	32959	32178	32807	32547	32675	32815	
2130	0	4402	6386	3970	8031	869	0	32747	32742	32974	31746	32781	32647	32252	32771	
2131	0	4448	6363	3976	7919	870	0	32551	32716	32932	31325	32762	32520	32831	32655	
2132	0	4410	6388	3971	8004	871	0	32727	32698	32951	31143	32799	32855	33299	32773	
2133	0	4403	6397	3982	7975	872	0	32839	32679	33005	31246	32543	32757	33359	32755	
2134	0	4376	6392	3977	7973	873	0	33031	32743	32605	31531	32226	32583	32743	32742	
2135	0	4407	6415	4003	7940	874	0	32974	32659	32461	32079	32478	32903	32439	33031	
2136	0	4426	6386	3969	7980	875	0	32820	32471	32413	32816	32815	32864	32550	33080	
2137	0	4412	6406	3957	7952	876	0	32761	32387	32287	33614	32751	32739	33153	32820	
2138	0	4427	6400	3950	7982	877	0	32844	32508	32147	33915	32935	32775	33234	32428	
2139	0	4409	6436	3972	7970	878	0	32893	32708	32061	33125	33154	32742	32957	32555	
2140	0	4402	6415	3943	7993	879	0	33005	32919	32384	32750	33247	32674	32391	32718	
2141	0	4403	6385	4008	8009	880	0	32944	32825	32580	32588	32658	32762	32436	32775	
2142	0	4405	6460	4035	7947	881	0	32702	32509	32875	32655	32279	32663	32903	32647	
2143	0	4415	6366	3978	7976	882	0	32673	32531	32604	32442	32535	32622	33325	32622	
2144	0	4440	6372	3994	7956	883	0	32776	32583	32567	32615	32580	32903	33083	32719	
2145	0	4418	6394	3992	7974	884	0	32676	32419	32551	32479	32699	32869	32498	32702	
2146	0	4428	6384	3928	7990	885	0	32647	32327	32305	32243	32764	32914	32268	32797	
2147	0	4392	6400	3972	7916	886	0	32621	32533	32122	32717	32783	32772	32481	32903	
2148	0	4373	6359	4012	7980	887	0	32841	32811	32207	32882	32731	32747	33076	32775	
2149	0	4409	6381	3972	7945	888	0	32876	32956	32496	33147	32767	32575	33197	32743	
2150	0	4378	6400	4005	7984	889	0	32927	32957	32715	33303	32743	32842	32843	32815	
2151	0	4389	6429	3950	7937	890	0	32799	32692	33050	33443	32701	32871	32297	32757	
2152	0	4408	6369	4015	7989	891	0	32598	32615	33250	32960	32751	32945	32295	32763	
2153	0	4407	6385	4016	7920	892	0	32516	32453	32969	32525	32843	32621	32854	32804	
2154	0	4402	6388	3976	7951	893	0	32561	32703	32758	32223	32679	32658	33283	32859	
2155	0	4427	6397	4049	7981	894	0	32647	32943	32605	32647	32765	32738	32983	32703	
2156	0	4410	6432	3972	7976	895	0	32765	32767	32631	32591	32663	32525	32535	32755	
2157	0	4398	6453	3996	7979	896	0	32775	32734	32882	32475	32761	32768	32158	32765	
2158	0	4411	6408	4017	7983	897	0	32799	32613	33327	32334	32735	32873	32479	32861	
2159	0	4420	6390	4024	7941	898	0	32838	32513	33492	32638	32758	32619	33038	32888	
2160	0	4410	6454	4013	7965	899	0	32844	32615	33346	32843	32690	32579	33173	32903	
2161	0	4393	6393	4066	7982	900	0	32949	32511	33187	32903	32768	32742	32903	32823	
2162	0	4402	6418	4034	7952	901	0	32920	32663	32986	32914	32763	32691	32195	32735	
2163	0	4427	6443	3962	7930	902	0	32847	32691	32927	33049	32636	32820	32329	32614	
2164	0	4377	6433	4073	7989	903	0	32709	32647	32955	32902	32692	32771	32850	32700	
2165	0	4352	6400	3996	7985	904	0	32544	32537	32962	32834	32766	32815	33254	32764	
2166	0	4390	6362	4022	7990	905	0	32711	32569	33095	32751	32759	32759	33221	32801	
2167	0	4408	6456	4056	7971	906	0	32690	32634	32923	32658	32771	32754	32557	32873	
2168	0	4405	6422	4009	7928	907	0	32672	32519	32925	32423	32775	32839	32263	32793	
2169	0	4397	6466	4062	7952	908	0	32689	32620	32826	32317	32742	32738	32530	32578	
2170	0	4402	6443	4019	7983	909	0	32736	32569	32711	32494	32763	32551	33018	32599	
2171	0	4397	6439	4058	7940	910	0	32748	32643	32633	32644	32753	32911	33159	32751	
2172	0	4426	6455	4015	7973	911	0	32686	32615	32719	32631	32615	32807	32684	32763	
2173	0	4479	6458	4067	8005	912	0	32697	32595	32807	32647	32439	32693	32319	32950	
2174	0	4435	6464	4036	7944	913	0	32657	32585	32669	32676	32360	32981	32313	32891	
2175	0	4456	6448	4083	7970	914	0	32732	32633	32766	32773	32382	32791	32998	33007	
2176	0	4389	6451	4048	7998	915	0	32749	32767	32687	32583	32335	32559	33247	33062	
2177	0	4426	6464	4024	8027	916	0	32740	32540	32695	32667	32405	32793	32863	33115	
2178	0	4400	6428	4069	7988	917	0	32748	32678	32775	32540	32342	32893	32451	33287	
2179	0	4387	6449	4079	7989	918	0	32754	32531	32821	32738	32308	32815	32340	33129	
2180	0	4412	6426	4090	7987	919	0	32824	32808	32802	32833	32346	32623	32719	32922	
2181	0	4373	6424	4082	7982	920	0	32785	32713	32687	33001	32154	32775	33155	32718	
2182	0	4426	6472	4046	8000	921	0	32780	32772	32695	32847	32199	32927	32935	32493	
2183	0	4434	6482	4021	8013	922	0	32752	32797	32799	32868	32635	32690	32493	32121	
2184	0	4426	6467	4108	8004	923	0	32767	32686	32887	32731	32837	32851	32118	31907	
2185	0	4404	6511	4096	7998	924	0	32790	32742	32824	32800	32839	32830	32327	32031	
2186	0	4430	6456	4119	7994	925	0	32707	32612	32763	32642	32574	32839	32957	32066	
2187	0	4410	6467	4110	7993	926	0	32721	32737	32758	32586	32527	32732	33191	32055	
2188	0	4445	6460	4108	8016	927	0	32663	32527	32756	32697	32916	32559	32970	31933	
2189	0	4452	6488	4093	8034	928	0	32742	32591	32831	32766	33175	32754	32383	31855	
2190	0	4409	6464	4085	7989	929	0	32748	32551	32787	32891	33542	32735	32181	32087	
2191	0	4409	6469	4107	7994	930	0	32766	32654	32685	32815	34733	32735	32644	32878	
2192	0	4448	6467	4117	8001	931	0	32740	32658	32604	32700	34461	32820	33392	33959	
2193	0	4391	6480	4151	8018	932	0	32733	32807	32775	32775	33858	32574	33463	34651	
2194	0	4452	6483	4099	7986	933	0	32762	32695	32775	32643	33488	32715	32903	34839	
2195	0	4428	6512	4107	8017	934	0	32741	32726	32729	32608	33778	32787	32493	34685	
2196	0	4398	6454	4107	7997	935	0	32774	32628	32690	32681	33495	32950	32573	33982	
2197	0	4421	6464	4093	7994	936	0	32794	32738	32669	32564	32882	32807	33170	33444	
2198	0	4361	6495	4148	8004	937	0	32773	32655	32813	32655	32374	32590	33358	33087	
2199	0	4437	6464	4128	7986	938	0	32829	32819	32819	32634	32039	32859	33207	32975	
2200	0	4419	6446	4114	8005	939	0	32829	32842	32804	32713	31593	32775	32604	32255	
2201	0	4437	6526	4137	8017	940	0	32831	32663	32669	32655	31146	32724	32359	31366	
2202	0	4479	6487	4125	8014	941	0	32834	32727	32683	32669	31138	32418	32626	30839	
2203	0	4420	6466	4141	7994	942	0	32788	32620	32706	32771	31799	32402	33091	30692	
2204	0	4427	6505	4158	8003	943	0	32751	32735	32863	32685	32690	32551	32922	30934	
2205	0	4383	6488	4164	8049	944	0	32807	32607	32791	32765	32927	32519	32565	31631	
2206	0	4421	6486	4172	8017	945	0	32805	32733	32759	32742	32727	32487	32085	32540	
2207	0	4443	6506	4143	8037	946	0	32764	32525	32749	32789	32602	32893	32127	32782	
2208	0	4463	6468	4138	8008	947	0	32748	32679	32717	32758	33031	32789	32562	32808	
2209	0	4414	6543	4120	8004	948	0	32780	32511	32689	32630	33245	32695	33079	32685	
2210	0	4401	6478	4137	8008	949	0	32793	32751	32694	32661	33607	32815	32999	33015	
2211	0	4410	6488	4158	8060	950	0	32745	32700	32817	32639	33845	32790	32475	33481	
2212	0	4449	6521	4166	8049	951	0	32623	32685	32759	32647	33777	32819	32182	34009	
2213	0	4417	6494	4144	8046	952	0	32638	32735	32645	32661	33774	32722	32379	34703	
2214	0	4439	6547	4136	8016	953	0	32672	32582	32681	32694	33622	32564	33089	34725	
2215	0	4387	6520	4148	8000	954	0	32766	32637	32711	32836	33287	32692	33332	34215	
2216	0	4394	6541	4190	7996	955	0	32817	32425	32707	32733	33142	32835	33038	33647	
2217	0	4424	6491	4112	8004	956	0	32854	32511	32786	32903	32621	32903	32525	32692	
2218	0	4403	6558	4114	7987	957	0	32759	32520	32790	32911	31725	32644	32351	32178	
2219	0	4468	6504	4179	7998	958	0	32706	32753	32608	32926	31179	32567	32970	31740	
2220	0	4447	6480	4175	8001	959	0	32769	32811	32729	32795	31131	32840	33436	31399	
2221	0	4442	6531	4136	8028	960	0	32703	32690	32686	32775	31501	32919	33159	31559	
2222	0	4465	6453	4116	8008	961	0	32757	32727	32726	32623	31711	33082	32733	31875	
2223	0	4448	6528	4219	8040	962	0	32775	32611	32783	32623	31863	32879	32311	32036	
2224	0	4438	6525	4154	8016	963	0	32784	32729	32854	32613	32386	32943	32465	32168	
2225	0	4396	6491	4168	8046	964	0	32708	32753	32844	32647	33131	32804	33223	32303	
2226	0	4408	6550	4158	7991	965	0	32734	32671	32833	32678	33634	32577	33382	32773	
2227	0	4399	6508	4097	8013	966	0	32741	32749	32765	32711	33647	32463	32949	33119	
2228	0	4444	6536	4122	8013	967	0	32751	32643	32745	32694	33156	32295	32284	33718	
2229	0	4449	6498	4154	8018	968	0	32780	32763	32713	32743	32931	32470	32191	33924	
2230	0	4513	6536	4123	8016	969	0	32742	32727	32629	32611	33035	32484	32786	33922	
2231	0	4459	6532	4181	7992	970	0	32788	32599	32464	32669	32743	32884	33251	34242	
2232	0	4400	6564	4154	7998	971	0	32718	32775	32475	32551	32630	32863	33022	34204	
2233	0	4429	6512	4148	8056	972	0	32799	32755	32470	32580	32445	32937	32588	33999	
2234	0	4470	6520	4164	8009	973	0	32806	32783	32612	32629	32355	32927	32149	33463	
2235	0	4429	6529	4150	7990	974	0	32879	32769	32655	32743	32415	32693	32370	32698	
2236	0	4398	6534	4142	7999	975	0	32903	32653	32759	32841	32525	32816	32831	32307	
2237	0	4504	6545	4141	8025	976	0	32836	32771	32818	32951	32476	32823	33126	32039	
2238	0	4444	6566	4155	7990	977	0	32839	32679	32591	32995	32527	33017	32789	31879	
2239	0	4387	6528	4195	8014	978	0	32781	32827	32614	32941	32331	32813	32157	31983	
2240	0	4409	6515	4171	7940	979	0	32743	32687	32677	32827	32463	32933	32276	32191	
2241	0	4400	6546	4146	8017	980	0	32800	32513	32755	32861	32516	32987	32692	32188	
2242	0	4449	6552	4127	7970	981	0	32727	32647	32775	32871	32647	32873	33104	31988	
2243	0	4426	6543	4210	7972	982	0	32690	32476	32791	32787	32678	32743	33006	32029	
2244	0	4439	6528	4165	7965	983	0	32670	32549	32819	32791	33134	32679	32661	32223	
2245	0	4419	6548	4152	8003	984	0	32687	32583	32919	32655	33101	32829	32235	32568	
2246	0	4394	6494	4157	8001	985	0	32711	32704	32981	32669	32743	32951	32479	32573	
2247	0	4452	6513	4086	8009	986	0	32675	32735	33028	32510	32486	32788	33239	32647	
2248	0	4429	6509	4161	8003	987	0	32760	32735	33117	32573	32682	32629	33460	32985	
2249	0	4395	6553	4126	7990	988	0	32716	32815	33197	32548	32564	32815	32998	32881	
2250	0	4450	6502	4132	8021	989	0	32754	32702	33313	32647	32527	32775	32525	32682	
2251	0	4410	6553	4198	8022	990	0	32762	32742	33142	32684	32422	32720	32486	32418	
2252	0	4389	6555	4172	8065	991	0	32786	32708	33010	32719	32702	32812	32819	32315	
2253	0	4397	6498	4086	8018	992	0	32816	32627	32807	32855	32722	32826	33268	32327	
2254	0	4415	6540	4131	8006	993	0	32756	32707	32631	32739	32567	32729	33261	32411	
2255	0	4426	6523	4155	7992	994	0	32811	32623	32494	32663	32771	32926	32715	32467	
2256	0	4421	6539	4192	7984	995	0	32729	32667	32358	32767	32617	32865	32340	32423	
2257	0	4400	6550	4164	8013	996	0	32813	32665	32289	32804	32685	32758	32493	32533	
2258	0	4418	6517	4162	8002	997	0	32806	32583	32327	32839	32713	32583	32973	32860	
2259	0	4433	6512	4141	8004	998	0	32853	32643	32439	32807	32599	32611	33236	33251	
2260	0	4381	6508	4163	7985	999	0	32873	32541	32538	32809	32578	32549	32999	33439	
2261	0	4464	6542	4164	8016	1000	0	32773	32603	32583	32694	32607	32722	32340	33063	
2262	0	4404	6525	4157	7945	1001	0	32713	32587	32598	32710	32740	32545	32187	32799	
2263	0	4404	6513	4144	8029	1002	0	32679	32759	32605	32574	32787	32503	32743	32814	
2264	0	4354	6510	4142	8007	1003	0	32711	32851	32615	32647	32895	32603	33107	32753	
2265	0	4464	6476	4136	8068	1004	0	32814	32759	32687	32557	32783	32577	32795	32765	
2266	0	4449	6540	4147	8042	1005	0	32775	32870	32787	32739	32901	32916	32506	32851	
2267	0	4394	6512	4123	7996	1006	0	32795	32715	32807	32647	32875	32757	32095	32867	
2268	0	4418	6510	4136	8024	1007	0	32743	32735	32807	32502	32935	32583	32235	32877	
2269	0	4400	6482	4091	8011	1008	0	32743	32596	32980	32573	32800	32823	32733	33124	
2270	0	4384	6474	4156	7999	1009	0	32814	32683	32988	32590	32875	32758	33127	33650	
2271	0	4392	6478	4141	7992	1010	0	32782	32739	33111	32748	32883	32635	32843	33703	
2272	0	4414	6540	4145	8024	1011	0	32768	32698	33231	32807	32919	32759	32471	33261	
2273	0	4353	6501	4136	8016	1012	0	32705	32667	33093	32919	32756	32578	32384	32622	
2274	0	4399	6500	4177	8029	1013	0	32657	32455	32991	32881	32663	32759	32742	32319	
2275	0	4388	6507	4151	8011	1014	0	32726	32514	32827	32851	32559	32828	33139	32568	
2276	0	4384	6468	4161	8032	1015	0	32797	32525	32740	32887	32559	32973	33319	32487	
2277	0	4393	6483	4164	7957	1016	0	32803	32666	32707	32961	32687	32775	32861	32546	
2278	0	4328	6494	4156	7997	1017	0	32839	32567	32663	33159	32676	32837	32327	32690	
2279	0	4381	6492	4185	7982	1018	0	32860	32794	32506	33305	32838	32863	32604	32673	
2280	0	4422	6464	4154	8007	1019	0	32858	32758	32501	33308	32733	32715	33084	32507	
2281	0	4358	6514	4152	7977	1020	0	32812	32567	32470	33199	32719	32397	33415	32499	
2282	0	4438	6443	4124	8018	1021	0	32701	32711	32653	33127	32695	32415	33197	32497	
2283	0	4382	6476	4136	8027	1022	0	32735	32671	32721	32732	32645	32564	32575	32457	
2284	0	4369	6517	4088	7995	1023	0	32732	32863	32891	32374	32725	32521	32462	32595	
2285	0	4377	6457	4128	8006	1024	0	32696	32811	32879	32154	32660	32833	32724	32561	
2286	0	4342	6511	4138	8013	1025	0	32705	32727	32979	32180	32705	32796	33277	32577	
2287	0	4375	6465	4082	8009	1026	0	32748	32710	32807	31750	32615	32675	33239	32918	
2288	0	4380	6484	4133	8026	1027	0	32743	32630	32643	31519	32713	32799	32749	33114	
2289	0	4370	6470	4188	8038	1028	0	32715	32749	32559	31709	32711	32843	32247	33190	
2290	0	4388	6522	4131	8002	1029	0	32771	32767	32553	31964	32764	32922	32455	33140	
2291	0	4364	6504	4162	8036	1030	0	32761	32492	32625	31806	32684	32686	32847	32987	
2292	0	4376	6486	4104	8040	1031	0	32702	32526	32634	32078	32677	32791	33285	32767	
2293	0	4357	6426	4174	7995	1032	0	32677	32406	32421	32314	32727	32863	33030	32663	
2294	0	4339	6436	4131	8031	1033	0	32762	32551	32258	32485	32791	32876	32468	32647	
2295	0	4370	6452	4144	8037	1034	0	32725	32510	32381	32713	32708	32870	32135	32692	
2296	0	4380	6464	4123	7977	1035	0	32714	32631	32564	32800	32884	32631	32556	32615	
2297	0	4378	6450	4136	8024	1036	0	32745	32766	32698	32823	32743	32856	33121	32872	
2298	0	4328	6425	4108	8022	1037	0	32866	32690	32861	32835	32799	32871	33055	32850	
2299	0	4340	6434	4108	8016	1038	0	32893	32709	33124	33138	32614	32729	32763	32695	
2300	0	4342	6461	4141	8039	1039	0	32818	32844	33415	33271	32770	32687	32293	32556	
2301	0	4348	6491	4170	8029	1040	0	32804	32675	33445	33462	32789	32754	32305	32572	
2302	0	4322	6481	4112	8032	1041	0	32783	32695	33326	33283	32759	32809	32506	32615	
2303	0	4394	6440	4096	8062	1042	0	32673	32603	33373	33353	32903	32551	32903	32627	
2304	0	4337	6439	4101	8015	1043	0	32743	32537	33405	33074	32647	32615	32820	32622	
2305	0	4361	6432	4172	8027	1044	0	32742	32543	33167	32599	32519	32767	32398	32703	
2306	0	4345	6473	4137	8019	1045	0	32671	32635	32751	32783	32409	32575	32170	32730	
2307	0	4312	6468	4081	8072	1046	0	32637	32605	32391	33008	32634	32716	32366	32783	
2308	0	4294	6442	4139	8006	1047	0	32634	32638	32375	32745	32703	32834	32809	32935	
2309	0	4336	6419	4098	7994	1048	0	32775	32570	32407	32487	32559	32699	33238	32703	
2310	0	4360	6436	4159	8098	1049	0	32765	32753	32523	32607	32647	32879	32895	32775	
2311	0	4324	6468	4120	8043	1050	0	32801	32843	32609	32615	32519	32863	32295	32763	
2312	0	4348	6470	4079	8035	1051	0	32743	32594	32647	32513	32769	32812	32448	32709	
2313	0	4386	6414	4104	8034	1052	0	32745	32738	32786	32391	32765	32655	32891	32716	
2314	0	4332	6444	4072	8064	1053	0	32764	32810	32945	32567	32666	32714	33358	32812	
2315	0	4312	6417	4133	8054	1054	0	32786	32567	32978	32786	32835	32543	33383	32806	
2316	0	4292	6458	4105	8044	1055	0	32832	32751	33061	33131	32807	32687	32759	32805	
2317	0	4361	6392	4150	8029	1056	0	32824	32621	33149	33175	32668	32815	32391	32790	
2318	0	4310	6435	4166	8068	1057	0	32878	32589	32993	33272	32775	32481	32704	32867	
2319	0	4297	6398	4117	8005	1058	0	32847	32775	32937	33231	32749	32559	33166	32740	
2320	0	4328	6394	4104	8008	1059	0	32783	32749	32808	33144	32711	32676	33428	32794	
2321	0	4329	6384	4097	8078	1060	0	32756	32735	32793	32970	32775	32935	33063	32852	
2322	0	4296	6468	4101	8036	1061	0	32707	32690	32692	32642	32883	32747	32431	32867	
2323	0	4325	6424	4134	8000	1062	0	32740	32495	32593	32359	32655	32691	32390	32837	
2324	0	4320	6408	4115	8042	1063	0	32754	32619	32589	32655	32825	32724	33007	32583	
2325	0	4337	6401	4082	8044	1064	0	32769	32719	32684	32605	32791	32725	33341	32501	
2326	0	4315	6442	4112	8052	1065	0	32791	32875	32738	32940	32858	32850	33221	32598	
2327	0	4337	6459	4098	8064	1066	0	32854	32852	32701	32831	32599	32742	32633	32729	
2328	0	4269	6448	4056	8034	1067	0	32703	32663	32679	32452	32527	32630	32214	32775	
2329	0	4331	6408	4059	8062	1068	0	32695	32742	32641	32429	32663	32881	32502	32820	
2330	0	4297	6405	4109	8036	1069	0	32720	32467	32717	32169	32815	32871	33189	32844	
2331	0	4282	6403	4113	8047	1070	0	32735	32591	32764	32495	32612	32756	33229	32855	
2332	0	4299	6404	4098	8041	1071	0	32731	32621	32740	32535	32677	32639	32855	32980	
2333	0	4297	6397	4061	8088	1072	0	32726	32878	32707	32441	32711	32751	32353	33195	
2334	0	4328	6403	4117	8066	1073	0	32692	32747	32605	32461	32728	32748	32311	33300	
2335	0	4238	6402	4127	8050	1074	0	32694	32517	32409	32413	32655	32614	32724	33235	
2336	0	4296	6421	4068	8068	1075	0	32727	32655	32502	32671	32925	32766	33305	33049	
2337	0	4290	6406	4150	8038	1076	0	32714	32527	32551	32598	32813	32685	33138	32797	
2338	0	4258	6365	4150	8067	1077	0	32647	32690	32537	32891	32854	32757	32593	32811	
2339	0	4292	6436	4120	8068	1078	0	32831	32823	32563	32967	32769	32671	32118	32679	
2340	0	4301	6356	4110	8050	1079	0	32838	32607	32583	32971	32786	32660	32305	32491	
2341	0	4294	6399	4082	8057	1080	0	32844	32743	32668	32999	32741	32780	32853	32503	
2342	0	4331	6365	4128	8047	1081	0	32757	32858	32714	33059	32667	32743	33186	32687	
2343	0	4267	6424	4076	8046	1082	0	32765	32683	32667	32895	32639	32642	32687	32636	
2344	0	4294	6377	4096	8042	1083	0	32812	32767	32805	32854	32598	32972	32124	32631	
2345	0	4261	6351	4112	8076	1084	0	32775	32799	32852	32715	32723	32883	32142	32644	
2346	0	4329	6344	4069	7998	1085	0	32716	32540	32804	32561	32710	33000	32556	32621	
2347	0	4255	6372	4112	8040	1086	0	32710	32629	32725	32611	32711	32838	33127	32605	
2348	0	4286	6410	4106	8090	1087	0	32739	32663	32917	32647	32805	32855	33063	32951	
2349	0	4273	6355	4152	8106	1088	0	32724	32607	32833	32877	32725	32735	32579	33053	
2350	0	4236	6372	4076	8072	1089	0	32665	32699	32825	32853	32863	32915	32190	33010	
2351	0	4297	6362	4168	8030	1090	0	32767	32733	32856	32763	32806	32861	32495	32770	
2352	0	4295	6366	4107	8090	1091	0	32780	32557	32855	32703	32743	32675	33053	32642	
2353	0	4337	6400	4134	8065	1092	0	32758	32622	32887	32727	32677	32843	33241	32687	
2354	0	4260	6420	4101	8108	1093	0	32740	32699	32895	32637	32569	32819	32967	32675	
2355	0	4278	6395	4124	8067	1094	0	32740	32735	32903	32683	32715	32637	32566	32747	
2356	0	4252	6367	4147	8059	1095	0	32782	32791	32846	32602	32718	32764	32540	32738	
2357	0	4280	6398	4084	8051	1096	0	32704	32551	32841	32620	32703	32826	32756	32751	
2358	0	4267	6370	4121	8104	1097	0	32800	32686	32867	32807	32800	32868	33221	32773	
2359	0	4250	6356	4131	8046	1098	0	32900	32791	32793	32775	32626	32719	33254	32735	
2360	0	4272	6368	4127	8057	1099	0	32843	32731	32815	32755	32764	32543	32525	32716	
2361	0	4271	6378	4087	8065	1100	0	32781	32639	32871	32611	32601	32662	32322	32551	
2362	0	4275	6399	4158	8034	1101	0	32796	32507	32967	32785	32653	32822	32647	32526	
2363	0	4260	6372	4074	8056	1102	0	32835	32638	32811	32825	32701	32604	33207	32676	
2364	0	4283	6349	4154	8070	1103	0	32863	32735	32889	33031	32759	32694	33407	32646	
2365	0	4265	6328	4104	8051	1104	0	32845	32929	33023	32871	32730	32734	32903	32767	
2366	0	4289	6394	4121	8050	1105	0	32758	32855	32871	32669	32759	32743	32476	32827	
2367	0	4278	6373	4109	8072	1106	0	32674	32620	32722	32331	32721	32733	32406	33068	
2368	0	4306	6397	4129	8100	1107	0	32698	32647	32623	32249	32731	32839	32769	33149	
2369	0	4284	6385	4132	8080	1108	0	32756	32540	32562	32361	32713	32833	33309	33019	
2370	0	4279	6402	4140	8028	1109	0	32778	32647	32295	32281	32839	32830	33175	32946	
2371	0	4276	6404	4103	8073	1110	0	32748	32461	32211	32385	32751	32733	32551	32919	
2372	0	4292	6408	4131	8093	1111	0	32736	32719	32231	32381	32829	32587	32281	32662	
2373	0	4312	6401	4095	8078	1112	0	32774	32726	32355	32647	32719	32669	32530	32635	
2374	0	4295	6416	4128	8097	1113	0	32786	32676	32487	32731	32751	32775	32949	32567	
2375	0	4301	6379	4165	8054	1114	0	32766	32823	32644	32959	32646	32773	33287	32596	
2376	0	4321	6404	4146	8066	1115	0	32743	32578	32999	32941	32727	32628	32964	32799	
2377	0	4304	6370	4120	8069	1116	0	32703	32716	33239	32890	32671	32801	32251	32813	
2378	0	4270	6397	4150	8110	1117	0	32752	32773	33147	32967	32793	32834	32293	32762	
2379	0	4312	6390	4173	8062	1118	0	32797	32753	32935	32954	32756	32856	32678	32743	
2380	0	4328	6407	4121	8114	1119	0	32850	32797	32804	32935	32738	32647	33063	32716	
2381	0	4269	6394	4132	8080	1120	0	32875	32613	32762	32790	32749	32828	33133	32690	
2382	0	4285	6400	4170	8093	1121	0	32922	32735	32770	32799	32727	32726	32635	32715	
2383	0	4327	6368	4106	8102	1122	0	32783	32583	32751	32855	32809	32883	32116	32644	
2384	0	4338	6380	4124	8097	1123	0	32709	32737	32805	32881	32766	32573	32444	32623	
2385	0	4272	6372	4121	8066	1124	0	32719	32690	32775	32873	32759	32758	33101	32691	
2386	0	4315	6393	4131	8073	1125	0	32775	32743	32831	32775	32726	32748	33119	32561	
2387	0	4321	6399	4143	8042	1126	0	32755	32633	32895	32765	32647	32783	32935	32607	
2388	0	4270	6380	4121	8066	1127	0	32694	32703	32713	32685	32683	32863	32334	32487	
2389	0	4289	6364	4153	8128	1128	0	32724	32697	32657	32621	32644	32678	32242	32775	
2390	0	4299	6418	4103	8081	1129	0	32712	32687	32668	32591	32671	32820	32551	32940	
2391	0	4309	6451	4166	8090	1130	0	32729	32598	32696	32607	32519	32829	32993	32994	
2392	0	4292	6404	4098	8098	1131	0	32731	32583	32765	32639	32540	32815	33106	32879	
2393	0	4328	6388	4128	8083	1132	0	32807	32582	32806	32701	32505	32846	32463	33172	
2394	0	4291	6429	4130	8134	1133	0	32775	32659	32948	32786	32679	32690	32211	33571	
2395	0	4257	6408	4123	8080	1134	0	32754	32545	32813	32760	32504	32613	32292	33532	
2396	0	4307	6428	4151	8058	1135	0	32743	32679	32810	32723	32338	32853	32931	33135	
2397	0	4319	6408	4111	8088	1136	0	32717	32591	32858	32600	32319	32715	33323	32868	
2398	0	4280	6426	4115	8028	1137	0	32666	32697	32726	32691	32255	32815	32806	32631	
2399	0	4274	6368	4199	8048	1138	0	32775	32612	32685	32647	32237	32738	32431	32331	
2400	0	4298	6411	4136	8068	1139	0	32799	32661	32585	32679	32434	32864	32276	32265	
2401	0	4331	6376	4130	8107	1140	0	32790	32487	32684	32619	32673	32863	32628	32439	
2402	0	4356	6380	4133	8076	1141	0	32790	32634	32751	32577	32990	32609	33268	32527	
2403	0	4297	6436	4151	8036	1142	0	32742	32711	32844	32775	33549	32717	33187	32543	
2404	0	4333	6410	4113	8059	1143	0	32797	32756	32695	32724	34164	32697	32715	32629	
2405	0	4292	6404	4150	8110	1144	0	32768	32871	32681	32789	34023	32797	32100	32599	
2406	0	4306	6386	4135	8070	1145	0	32705	32855	32705	32717	33490	32783	32402	32559	
2407	0	4358	6430	4196	8074	1146	0	32822	32710	32713	32719	33407	32773	32871	32634	
2408	0	4307	6408	4161	8081	1147	0	32742	32828	32634	32802	33285	32534	33389	32843	
2409	0	4291	6445	4176	8061	1148	0	32788	32813	32658	32701	33037	32639	33263	32967	
2410	0	4260	6455	4162	8082	1149	0	32714	32663	32769	32740	33091	32679	32685	32935	
2411	0	4306	6451	4156	8052	1150	0	32751	32725	32738	32647	32754	32804	32447	32851	
2412	0	4305	6426	4168	8101	1151	0	32695	32556	32783	32627	32557	32762	32812	32598	
2413	0	4297	6411	4133	8102	1152	0	32654	32740	32903	32596	32217	32623	33307	32579	
2414	0	4341	6464	4213	8091	1153	0	32703	32611	32870	32626	32244	32843	33391	32596	
2415	0	4311	6444	4163	8064	1154	0	32684	32732	32819	32745	31919	32900	32823	32774	
2416	0	4328	6412	4196	8060	1155	0	32743	32567	32839	32751	31815	32877	32423	32757	
2417	0	4306	6432	4172	8057	1156	0	32788	32775	32833	32788	31727	32887	32429	32643	
2418	0	4325	6485	4118	8094	1157	0	32844	32801	32837	32839	32196	32655	32963	32852	
2419	0	4298	6444	4152	8061	1158	0	32844	32791	32837	32702	32263	32775	33197	32849	
2420	0	4290	6400	4174	8048	1159	0	32810	32795	32767	32663	32026	32741	33180	32675	
2421	0	4314	6450	4156	8074	1160	0	32807	32790	32690	32579	32319	32887	32587	32700	
2422	0	4304	6459	4141	8055	1161	0	32756	32757	32775	32707	32449	32730	32293	32876	
2423	0	4345	6459	4164	8061	1162	0	32800	32667	32816	32721	32463	32793	32426	32959	
2424	0	4348	6454	4135	8096	1163	0	32742	32742	32863	32716	32340	32797	33087	32818	
2425	0	4347	6407	4109	8068	1164	0	32719	32583	32885	32749	32898	32831	33255	33109	
2426	0	4285	6465	4146	8052	1165	0	32720	32691	32855	32667	33543	32527	32743	33355	
2427	0	4304	6466	4157	8072	1166	0	32742	32671	32802	32751	34182	32586	32327	33268	
2428	0	4317	6433	4165	8066	1167	0	32788	32659	32732	32767	34633	32560	32336	33084	
2429	0	4311	6406	4156	8056	1168	0	32804	32719	32740	32756	34460	32351	32775	32991	
2430	0	4370	6416	4140	8084	1169	0	32804	32775	32731	32734	33959	32417	33255	32919	
2431	0	4284	6435	4128	8088	1170	0	32764	32647	32692	32715	33467	32567	33135	32903	
2432	0	4297	6419	4182	8003	1171	0	32756	32756	32703	32735	33357	32431	32543	32812	
2433	0	4299	6433	4133	8076	1172	0	32775	32775	32646	32578	33309	32723	32096	32728	
2434	0	4294	6442	4140	8048	1173	0	32763	32709	32743	32642	32918	32857	32557	32523	
2435	0	4349	6399	4153	8052	1174	0	32749	32749	32813	32629	32567	32834	33111	32235	
2436	0	4361	6472	4156	8047	1175	0	32745	32541	32832	32743	32191	32790	33268	32129	
2437	0	4339	6468	4114	8010	1176	0	32706	32757	32733	32711	32255	32788	32891	32289	
2438	0	4306	6410	4150	8024	1177	0	32740	32724	32735	32797	32110	32839	32221	32355	
2439	0	4312	6443	4123	8033	1178	0	32715	32623	32797	32786	31862	32655	32287	32439	
2440	0	4344	6457	4134	8034	1179	0	32741	32770	32799	32834	31925	32900	32727	32502	
2441	0	4319	6448	4149	8064	1180	0	32733	32614	32757	32719	31941	32934	33227	32703	
2442	0	4364	6464	4142	8054	1181	0	32764	32644	32873	32751	32189	32916	33159	32947	
2443	0	4292	6478	4123	8018	1182	0	32790	32563	32847	32643	32251	32791	32531	32997	
2444	0	4323	6428	4130	8065	1183	0	32791	32743	32818	32683	32183	32815	32219	33172	
2445	0	4328	6470	4121	7992	1184	0	32766	32726	32761	32612	31890	32736	32468	33086	
2446	0	4309	6471	4170	7999	1185	0	32741	32567	32723	32583	31988	32930	32924	33101	
2447	0	4304	6445	4134	8040	1186	0	32809	32685	32727	32689	32040	32784	33115	32945	
2448	0	4316	6458	4140	8061	1187	0	32727	32749	32771	32671	31639	33030	32740	32583	
2449	0	4336	6452	4179	8072	1188	0	32724	32590	32795	32707	31927	32997	32275	32525	
2450	0	4298	6428	4155	8031	1189	0	32788	32660	32817	32676	32185	32689	32200	32596	
2451	0	4335	6437	4113	8041	1190	0	32708	32679	32801	32742	31973	32836	32567	32503	
2452	0	4344	6431	4130	8008	1191	0	32715	32753	32679	32709	32106	32799	33117	32519	
2453	0	4316	6456	4158	8044	1192	0	32708	32723	32647	32759	32135	32895	33107	32631	
2454	0	4268	6460	4128	8005	1193	0	32756	32692	32725	32731	32541	32739	32625	32643	
2455	0	4325	6486	4131	8008	1194	0	32676	32731	32562	32783	32743	32870	32126	32535	
2456	0	4317	6463	4129	8001	1195	0	32762	32621	32615	32724	33439	32759	32434	32596	
2457	0	4308	6468	4139	8000	1196	0	32812	32695	32647	32743	33933	32812	33103	32858	
2458	0	4327	6504	4136	7983	1197	0	32802	32711	32666	32713	34240	32439	33248	33103	
2459	0	4333	6440	4160	8002	1198	0	32732	32795	32693	32815	34183	32591	33007	33138	
2460	0	4341	6482	4144	7998	1199	0	32780	32771	32703	32799	34081	32722	32333	33153	
2461	0	4324	6444	4152	8034	1200	0	32826	32775	32783	32692	34503	32588	32252	33192	
2462	0	4331	6428	4206	8012	1201	0	32805	32770	32879	32775	34962	32383	32765	33053	
2463	0	4356	6496	4152	8012	1202	0	32822	32615	32915	32744	34429	32461	33108	33050	
2464	0	4344	6442	4130	7964	1203	0	32814	32751	32974	32781	33349	32735	33106	33011	
2465	0	4314	6458	4086	8014	1204	0	32846	32628	32935	32751	32711	32758	32655	32596	
2466	0	4345	6482	4113	8000	1205	0	32775	32719	32819	32743	32047	32699	32337	32402	
2467	0	4312	6510	4149	7992	1206	0	32749	32610	32772	32681	31928	32593	32436	32271	
2468	0	4312	6450	4130	7984	1207	0	32744	32700	32711	32683	31813	32551	32775	32202	
2469	0	4346	6480	4090	8012	1208	0	32820	32545	32678	32711	31938	32563	33311	32391	
2470	0	4289	6431	4133	7998	1209	0	32790	32678	32615	32645	32084	32898	33012	32540	
2471	0	4301	6477	4187	8002	1210	0	32732	32538	32541	32703	32239	32839	32527	32727	
2472	0	4324	6514	4138	7996	1211	0	32713	32671	32690	32695	32249	32860	32426	32744	
2473	0	4322	6440	4081	8036	1212	0	32700	32576	32751	32726	32447	32892	32761	32789	
2474	0	4299	6456	4094	8027	1213	0	32704	32743	32775	32674	32433	32744	33391	32749	
2475	0	4325	6483	4096	8029	1214	0	32749	32743	32812	32583	32370	32587	33525	32751	
2476	0	4312	6453	4112	7958	1215	0	32748	32658	32853	32645	32423	32775	32959	32791	
2477	0	4334	6509	4086	7985	1216	0	32733	32691	32809	32643	32836	32763	32455	32841	
2478	0	4338	6504	4141	7978	1217	0	32769	32727	32685	32748	33260	32813	32615	32932	
2479	0	4324	6427	4069	8026	1218	0	32826	32799	32647	32726	33201	32747	33087	33095	
2480	0	4352	6488	4156	7984	1219	0	32766	32647	32671	32811	32903	32667	33415	33023	
2481	0	4270	6467	4120	7996	1220	0	32773	32700	32747	32758	32587	32799	33191	32972	
2482	0	4361	6494	4117	7998	1221	0	32793	32613	32647	32683	32559	32790	32550	32871	
2483	0	4320	6464	4091	7984	1222	0	32818	32763	32694	32719	32583	32834	32274	32797	
2484	0	4325	6474	4118	8016	1223	0	32708	32780	32641	32760	32386	32637	32692	32724	
2485	0	4297	6447	4134	7972	1224	0	32764	32645	32644	32771	32487	32790	33151	32687	
2486	0	4301	6452	4096	8007	1225	0	32721	32791	32745	32790	32460	32837	33270	32725	
2487	0	4308	6448	4119	7932	1226	0	32711	32751	32762	32701	32596	32594	32713	32771	
2488	0	4322	6457	4114	7960	1227	0	32745	32571	32737	32637	32607	32775	32166	32753	
2489	0	4331	6458	4101	8038	1228	0	32663	32655	32727	32615	32518	32799	32414	32717	
2490	0	4326	6484	4135	8014	1229	0	32720	32775	32804	32723	32600	32655	32949	32647	
2491	0	4307	6481	4148	7981	1230	0	32749	32637	32791	32683	32541	32785	33125	32673	
2492	0	4302	6447	4143	7980	1231	0	32703	32639	32873	32791	32575	32743	32991	32709	
2493	0	4336	6400	4068	7963	1232	0	32711	32588	32791	32686	32591	32787	32359	32647	
2494	0	4344	6441	4075	7953	1233	0	32762	32734	32727	32719	32813	32637	32253	32758	
2495	0	4298	6475	4094	7974	1234	0	32779	32736	32718	32706	32911	32798	32564	32713	
2496	0	4306	6478	4116	7972	1235	0	32763	32752	32803	32663	32975	32845	33155	32799	
2497	0	4333	6433	4106	7987	1236	0	32812	32722	32855	32811	32955	32723	33191	32799	
2498	0	4305	6444	4144	7972	1237	0	32780	32565	32787	32803	32797	32795	32647	32769	
2499	0	4319	6473	4116	7977	1238	0	32811	32695	32800	32836	32724	32771	32263	32731	
2500	0	4308	6442	4138	8002	1239	0	32839	32631	32743	32764	32588	32834	32238	32662	
2501	0	4314	6448	4132	7976	1240	0	32767	32718	32759	32852	32484	32839	32807	32713	
2502	0	4304	6429	4165	7955	1241	0	32692	32556	32815	32776	32640	32739	33023	32732	
2503	0	4315	6480	4139	8001	1242	0	32720	32679	32834	32687	32601	32807	32917	32743	
2504	0	4312	6476	4135	7975	1243	0	32710	32663	32879	32715	32719	32725	32191	32727	
2505	0	4313	6504	4137	7971	1244	0	32719	32755	32836	32607	32469	32858	32080	32694	
2506	0	4315	6507	4132	7941	1245	0	32741	32681	32727	32589	32565	32677	32421	32670	
2507	0	4294	6477	4118	7940	1246	0	32772	32566	32749	32551	32539	32747	32925	32669	
2508	0	4352	6488	4112	7960	1247	0	32805	32749	32727	32654	32665	32819	33220	32756	
2509	0	4327	6446	4105	7967	1248	0	32769	32756	32699	32609	32602	32693	32689	32795	
2510	0	4340	6480	4116	7984	1249	0	32801	32661	32605	32695	32877	32589	32263	32743	
2511	0	4316	6464	4124	7946	1250	0	32847	32721	32644	32667	32863	32696	32239	32735	
2512	0	4296	6524	4155	7952	1251	0	32775	32560	32630	32724	32765	32781	32734	32599	
2513	0	4325	6448	4148	7990	1252	0	32847	32724	32735	32706	32483	32839	33298	32593	
2514	0	4261	6458	4088	7993	1253	0	32816	32559	32799	32759	32578	32693	33263	32597	
2515	0	4284	6476	4110	7971	1254	0	32857	32818	32855	32708	32587	32612	32687	32633	
2516	0	4296	6468	4154	7956	1255	0	32822	32639	32800	32582	32791	32659	32199	32751	
2517	0	4265	6427	4164	7990	1256	0	32884	32773	32827	32762	32478	32702	32607	32691	
2518	0	4313	6424	4111	7972	1257	0	32896	32628	32991	32885	32343	32805	33203	32715	
2519	0	4326	6488	4125	7992	1258	0	32896	32846	33074	32903	32054	32707	33302	32677	
2520	0	4306	6437	4120	7942	1259	0	32854	32791	33107	32859	32149	32594	33095	32623	
2521	0	4306	6517	4108	7980	1260	0	32917	32647	33101	32903	32270	32893	32495	32641	
2522	0	4275	6474	4159	7958	1261	0	32826	32775	33134	32745	32332	32647	32540	32673	
2523	0	4271	6482	4143	7982	1262	0	32801	32647	33047	32745	33094	32771	32929	32756	
2524	0	4331	6431	4087	7973	1263	0	32791	32519	32836	32639	33367	32749	33265	32815	
2525	0	4305	6495	4122	7968	1264	0	32775	32647	32573	32785	33354	32775	33271	32871	
2526	0	4306	6465	4111	7985	1265	0	32702	32660	32540	32671	33191	32500	32721	32797	
2527	0	4296	6474	4105	7917	1266	0	32716	32620	32582	32730	33135	32693	32332	32803	
2528	0	4308	6482	4120	7996	1267	0	32801	32665	32626	32658	33159	32647	32673	32837	
2529	0	4338	6412	4136	7974	1268	0	32688	32711	32632	32716	33116	32759	33202	32877	
2530	0	4264	6476	4147	7954	1269	0	32679	32453	32581	32708	32903	32806	33307	32813	
2531	0	4265	6499	4159	8013	1270	0	32676	32599	32631	32639	33262	32727	32791	32835	
2532	0	4272	6465	4127	7973	1271	0	32585	32493	32615	32439	33667	32567	32390	32943	
2533	0	4276	6451	4108	7986	1272	0	32556	32540	32587	32399	33599	32807	32400	32926	
2534	0	4300	6510	4137	7958	1273	0	32615	32471	32509	32295	33251	32911	32728	32903	
2535	0	4294	6497	4123	7979	1274	0	32601	32246	32448	32279	32813	32783	33267	32847	
2536	0	4293	6484	4135	8027	1275	0	32639	32362	32375	32252	32692	32974	33170	32943	
2537	0	4267	6467	4157	7972	1276	0	32691	32343	32443	32260	32647	32998	32571	32975	
2538	0	4276	6416	4106	7940	1277	0	32644	32307	32413	32340	32631	33061	32253	32897	
2539	0	4245	6530	4148	7945	1278	0	32669	32336	32493	32499	32716	32955	32423	32999	
2540	0	4330	6482	4137	7944	1279	0	32724	32437	32510	32734	32652	32822	32999	33047	
2541	0	4278	6454	4053	7920	1280	0	32695	32615	32799	32937	32903	32855	32999	33109	
2542	0	4280	6498	4114	7980	1281	0	32745	32621	32919	33091	33044	32690	32559	33117	
2543	0	4285	6462	4152	7944	1282	0	32763	32664	32983	33102	32919	32564	31959	33082	
2544	0	4258	6500	4116	7971	1283	0	32798	32741	33065	32996	32684	32732	32186	32871	
2545	0	4313	6504	4101	7930	1284	0	32793	32806	33037	32887	32498	32647	32839	32841	
2546	0	4318	6493	4112	7956	1285	0	32714	32871	32946	32789	32468	32903	33133	32751	
2547	0	4323	6512	4133	7937	1286	0	32678	33035	32951	32863	32351	32789	33030	32667	
2548	0	4309	6493	4164	7972	1287	0	32771	33047	33095	32945	32467	32631	32343	32668	
2549	0	4320	6515	4125	7942	1288	0	32671	33082	32963	33014	32521	32762	32157	32554	
2550	0	4308	6470	4147	7980	1289	0	32699	33068	32895	33014	32873	32507	32603	32684	
2551	0	4327	6541	4125	7941	1290	0	32692	32977	32847	33103	33269	32679	33255	32677	
2552	0	4254	6473	4138	7996	1291	0	32669	32982	32837	33082	33303	32563	33212	32763	
2553	0	4338	6524	4090	7968	1292	0	32638	32862	32903	33015	32911	32503	32692	32614	
2554	0	4269	6486	4158	7960	1293	0	32644	32903	32807	32955	32787	32787	32211	32748	
2555	0	4282	6518	4132	7949	1294	0	32715	32866	32858	32740	33129	32708	32714	32717	
2556	0	4309	6500	4176	7944	1295	0	32676	32829	32884	32709	33412	32409	33335	32820	
2557	0	4291	6496	4132	7946	1296	0	32676	32782	32807	32748	33570	32535	33287	32887	
2558	0	4324	6502	4137	7949	1297	0	32695	32707	32750	32749	33060	32499	32946	32921	
2559	0	4271	6500	4165	7959	1298	0	32647	32829	32754	32809	32548	32615	32450	32805	
2560	0	4358	6470	4141	7935	1299	0	32676	32765	32787	32813	32246	32621	32501	32773	
2561	0	4306	6500	4169	7945	1300	0	32612	32751	32855	32846	31948	32689	32940	32551	
2562	0	4276	6508	4131	7952	1301	0	32686	32751	32718	32807	31879	32739	33292	32701	
2563	0	4325	6508	4129	8021	1302	0	32732	32569	32631	32623	31825	32839	33029	32571	
2564	0	4285	6480	4138	7927	1303	0	32827	32492	32535	32635	32007	32771	32557	32581	
2565	0	4292	6449	4192	7983	1304	0	32820	32575	32470	32737	32147	32868	32413	32640	
2566	0	4300	6506	4142	7967	1305	0	32858	32622	32407	32703	32260	32865	32687	32563	
2567	0	4325	6479	4099	7948	1306	0	32917	32543	32535	32634	32415	32775	33255	32567	
2568	0	4320	6478	4131	7992	1307	0	32960	32677	32629	32609	32540	32826	33247	32642	
2569	0	4300	6520	4131	7972	1308	0	32901	32681	32591	32604	32567	32819	32619	32639	
2570	0	4321	6466	4142	7992	1309	0	32933	32628	32631	32535	32471	32807	32220	32608	
2571	0	4264	6484	4176	7939	1310	0	32969	32703	32772	32685	32718	32810	32438	32674	
2572	0	4304	6503	4162	7941	1311	0	32918	32717	32733	32695	32742	32671	32869	32705	
2573	0	4240	6472	4178	7930	1312	0	32912	32668	32708	32647	32711	32661	33177	32607	
2574	0	4272	6466	4119	7921	1313	0	32965	32673	32767	32575	32676	32822	32741	32575	
2575	0	4293	6493	4134	7938	1314	0	33044	32735	32753	32314	32835	32930	32217	32527	
2576	0	4288	6492	4157	7947	1315	0	33009	32766	32882	32361	32671	33011	32131	32530	
2577	0	4252	6498	4155	8010	1316	0	33036	32782	32931	32253	32768	32749	32527	32588	
2578	0	4281	6500	4102	7961	1317	0	32984	32647	33017	32336	32809	32820	33081	32615	
2579	0	4308	6492	4181	7930	1318	0	32971	32775	32971	32284	32659	32821	33127	32635	
2580	0	4290	6564	4152	7981	1319	0	32964	32655	33053	32549	32482	32925	32564	32807	
2581	0	4318	6508	4149	7948	1320	0	32884	32795	32839	32646	32399	32887	32142	32797	
2582	0	4300	6511	4162	7972	1321	0	32805	32588	32727	32628	32228	32679	32427	32764	
2583	0	4324	6525	4132	7976	1322	0	32762	32684	32671	32747	32351	32811	33036	32828	
2584	0	4280	6498	4086	7964	1323	0	32738	32489	32674	32700	32336	32775	33391	32787	
2585	0	4292	6532	4182	7981	1324	0	32740	32599	32646	32687	32415	32839	33039	32755	
2586	0	4339	6548	4217	7977	1325	0	32761	32438	32603	32817	32327	32655	32692	32711	
2587	0	4294	6506	4158	7931	1326	0	32762	32597	32653	32647	32549	32566	32471	32763	
2588	0	4324	6512	4136	7960	1327	0	32736	32542	32719	32839	32471	32714	32863	32775	
2589	0	4300	6482	4121	8002	1328	0	32787	32709	32854	32804	32545	32837	33263	32847	
2590	0	4360	6524	4103	7961	1329	0	32769	32711	32831	32893	32435	32727	33413	32807	
2591	0	4292	6520	4174	7972	1330	0	32756	32647	32841	32766	32615	32717	32951	32826	
2592	0	4274	6514	4140	8019	1331	0	32769	32679	32847	32877	32915	32761	32403	32769	
2593	0	4309	6509	4104	7932	1332	0	32711	32660	32812	32708	33159	32703	32423	32822	
2594	0	4270	6537	4121	7929	1333	0	32684	32803	32804	32770	33754	32615	32671	32930	
2595	0	4286	6566	4128	7911	1334	0	32700	32687	32730	32637	33751	32711	33215	32949	
2596	0	4333	6562	4142	8005	1335	0	32745	32571	32687	32725	33575	32818	33043	32903	
2597	0	4318	6527	4138	7968	1336	0	32695	32724	32668	32773	33402	32557	32355	32845	
2598	0	4318	6520	4168	7985	1337	0	32740	32623	32729	32813	33381	32749	32282	32873	
2599	0	4344	6532	4199	7930	1338	0	32756	32703	32724	32737	33042	32831	32466	32887	
2600	0	4284	6530	4090	8017	1339	0	32764	32763	32782	32823	32661	32685	32929	32884	
2601	0	4314	6538	4147	7960	1340	0	32729	32596	32814	32739	32391	32788	33204	32823	
2602	0	4306	6519	4112	7963	1341	0	32745	32635	32806	32788	32108	32791	32775	32841	
2603	0	4323	6484	4172	7966	1342	0	32669	32577	32799	32625	32156	32935	32199	32786	
2604	0	4282	6522	4129	7956	1343	0	32716	32703	32791	32676	32250	32659	32466	32807	
2605	0	4343	6540	4167	7960	1344	0	32742	32719	32804	32743	32431	32606	32983	32797	
2606	0	4370	6582	4170	7965	1345	0	32665	32719	32869	32797	32454	32802	33248	32791	
2607	0	4300	6530	4115	7957	1346	0	32733	32804	32753	32743	32674	32831	33087	32839	
2608	0	4384	6492	4166	8011	1347	0	32707	32767	32799	32646	32643	32915	32579	32839	
2609	0	4319	6550	4167	7987	1348	0	32699	32701	32787	32695	32644	32671	32104	32812	
2610	0	4350	6546	4102	7957	1349	0	32714	32804	32660	32724	32679	32599	32310	32705	
2611	0	4324	6512	4160	7960	1350	0	32728	32783	32633	32723	32770	32775	32971	32741	
2612	0	4324	6534	4177	7966	1351	0	32772	32647	32774	32765	32845	32865	33155	32679	
2613	0	4328	6563	4175	7940	1352	0	32751	32718	32887	32608	33004	32764	32991	32771	
2614	0	4345	6509	4112	8002	1353	0	32780	32483	32847	32695	32998	32773	32405	32786	
2615	0	4303	6528	4110	7956	1354	0	32763	32647	32797	32667	33009	32756	32429	32775	
2616	0	4317	6542	4167	7964	1355	0	32728	32743	32791	32705	32799	32883	32903	32727	
2617	0	4337	6565	4122	7956	1356	0	32723	32606	32754	32687	32795	32615	33415	32668	
2618	0	4383	6545	4090	7917	1357	0	32751	32701	32671	32662	32729	32775	33298	32676	
2619	0	4354	6528	4132	7988	1358	0	32786	32723	32711	32671	32602	32815	32555	32723	
2620	0	4370	6546	4064	7968	1359	0	32781	32621	32679	32785	32709	32582	32338	32796	
2621	0	4324	6488	4137	7941	1360	0	32826	32705	32803	32820	32671	32789	32588	32836	
2622	0	4314	6581	4082	7970	1361	0	32826	32597	32729	32831	32709	32879	32980	32813	
2623	0	4329	6565	4152	7957	1362	0	32798	32757	32711	32751	32647	32687	33260	32767	
2624	0	4375	6538	4142	7967	1363	0	32781	32755	32749	32787	32703	32804	32883	32804	
2625	0	4352	6539	4149	7926	1364	0	32735	32733	32786	32645	32645	32823	32343	32799	
2626	0	4370	6553	4168	7924	1365	0	32735	32775	32788	32732	32626	32831	32284	32786	
2627	0	4404	6557	4144	7979	1366	0	32692	32540	32860	32698	32654	32611	32743	32751	
2628	0	4334	6518	4133	7976	1367	0	32686	32679	32995	32775	32687	32731	33093	32851	
2629	0	4333	6544	4099	7923	1368	0	32696	32587	32957	32689	32775	32695	33069	32765	
2630	0	4387	6534	4150	7905	1369	0	32724	32735	32865	32755	32799	32845	32559	32719	
2631	0	4358	6552	4128	7924	1370	0	32711	32551	32834	32726	32695	32755	32034	32749	
2632	0	4380	6579	4091	7930	1371	0	32710	32719	32846	32623	32679	32576	32485	32735	
2633	0	4374	6552	4140	7958	1372	0	32741	32571	32736	32601	32550	32709	33047	32734	
2634	0	4401	6550	4102	7906	1373	0	32762	32775	32671	32625	32615	32765	33068	32748	
2635	0	4394	6562	4107	7936	1374	0	32719	32559	32659	32723	32501	32940	32884	32679	
2636	0	4422	6563	4080	7976	1375	0	32775	32743	32741	32735	32631	32711	32381	32756	
2637	0	4388	6572	4136	7950	1376	0	32811	32576	32764	32796	32496	32541	32414	32719	
2638	0	4414	6589	4127	7951	1377	0	32769	32773	32772	32775	32738	32793	32703	32727	
2639	0	4428	6574	4135	7901	1378	0	32799	32732	32716	32598	32668	32847	33334	32742	
2640	0	4420	6573	4132	7912	1379	0	32750	32727	32621	32705	32885	32797	33267	32799	
2641	0	4353	6580	4070	7938	1380	0	32806	32751	32609	32603	32742	32647	32599	32732	
2642	0	4394	6565	4163	7941	1381	0	32732	32647	32647	32735	32854	32655	32327	32669	
2643	0	4427	6609	4114	7900	1382	0	32741	32674	32743	32732	32844	32766	32482	32771	
2644	0	4404	6562	4161	7912	1383	0	32712	32593	32719	32799	32877	32809	33007	32716	
2645	0	4448	6563	4096	7915	1384	0	32821	32660	32713	32795	32806	32831	33404	32741	
2646	0	4415	6612	4141	7936	1385	0	32818	32630	32871	32775	32743	32647	32959	32721	
2647	0	4424	6628	4098	7914	1386	0	32736	32695	32957	32802	32756	32780	32351	32751	
2648	0	4432	6561	4150	7894	1387	0	32679	32547	32885	32741	33063	32844	32379	32838	
2649	0	4429	6585	4105	7928	1388	0	32652	32658	32699	32679	32974	32895	32740	32823	
2650	0	4462	6596	4108	7932	1389	0	32719	32537	32655	32527	32903	32617	33205	32797	
2651	0	4429	6596	4160	7892	1390	0	32728	32679	32635	32582	32734	32709	33079	32775	
2652	0	4418	6587	4090	7894	1391	0	32687	32715	32493	32445	32591	32697	32617	32743	
2653	0	4435	6602	4124	7896	1392	0	32765	32743	32620	32589	32684	32687	32130	32738	
2654	0	4433	6599	4103	7872	1393	0	32775	32751	32644	32647	32476	32594	32470	32786	
2655	0	4460	6622	4092	7880	1394	0	32775	32647	32611	32767	32591	32724	32975	32689	
2656	0	4460	6621	4080	7906	1395	0	32722	32805	32662	32775	32615	32775	33323	32643	
2657	0	4450	6595	4117	7907	1396	0	32833	32775	32797	32703	32727	32791	32943	32757	
2658	0	4475	6600	4142	7868	1397	0	32850	32807	32787	32806	32765	32743	32442	32706	
2659	0	4435	6594	4155	7875	1398	0	32870	32738	32903	32828	32879	32623	32373	32702	
2660	0	4498	6618	4120	7875	1399	0	32898	32884	32802	32775	32690	32724	32589	32764	
2661	0	4409	6633	4112	7875	1400	0	32893	32682	32804	32843	32699	32763	33127	32775	
2662	0	4452	6595	4123	7896	1401	0	32738	32713	32982	32756	32706	32827	33123	32775	
2663	0	4460	6600	4118	7904	1402	0	32711	32575	32975	32849	32783	32623	32493	32744	
2664	0	4493	6681	4104	7856	1403	0	32764	32742	32982	32775	32677	32694	32236	32711	
2665	0	4482	6587	4112	7870	1404	0	32817	32690	33031	32808	32925	32775	32352	32782	
2666	0	4438	6610	4088	7855	1405	0	32722	32572	32917	32794	32850	32722	32975	32797	
2667	0	4489	6642	4091	7880	1406	0	32729	32671	32709	32756	32813	32810	33197	32803	
2668	0	4501	6594	4076	7818	1407	0	32702	32540	32575	32601	32659	32814	33063	32808	
2669	0	4500	6575	4105	7866	1408	0	32742	32643	32583	32735	32669	32814	32354	32887	
2670	0	4490	6597	4076	7840	1409	0	32706	32693	32623	32669	32662	32850	32317	32835	
2671	0	4473	6625	4071	7857	1410	0	32662	32765	32621	32751	32764	32656	32738	32855	
2672	0	4482	6614	4061	7874	1411	0	32745	32773	32644	32781	32646	32775	33117	32882	
2673	0	4492	6640	4083	7845	1412	0	32806	32657	32689	32809	32718	32871	33268	32802	
2674	0	4461	6596	4031	7842	1413	0	32771	32660	32718	32733	32705	32623	32737	32714	
2675	0	4466	6594	4099	7811	1414	0	32781	32550	32762	32607	32719	32646	32159	32679	
2676	0	4414	6648	4088	7849	1415	0	32796	32711	32732	32695	32775	32692	32455	32706	
2677	0	4461	6691	4036	7816	1416	0	32790	32775	32821	32647	32661	32775	32825	32647	
2678	0	4478	6574	4125	7831	1417	0	32856	32739	32903	32615	32679	32775	33092	32755	
2679	0	4513	6612	4061	7841	1418	0	32855	32677	32831	32599	32554	32775	32763	32775	
2680	0	4453	6579	4009	7817	1419	0	32875	32719	32845	32694	32609	32892	32340	32659	
2681	0	4513	6618	4063	7790	1420	0	32854	32785	32823	32646	32679	32775	32308	32783	
2682	0	4485	6621	4086	7824	1421	0	32766	32592	32727	32647	32749	32664	32679	32749	
2683	0	4528	6595	4067	7808	1422	0	32652	32634	32668	32667	32727	32826	33351	32741	
2684	0	4460	6612	4052	7828	1423	0	32630	32734	32715	32628	32743	32775	33167	32823	
2685	0	4429	6612	4070	7801	1424	0	32636	32727	32687	32620	32799	32742	32732	32764	
2686	0	4538	6596	4101	7819	1425	0	32695	32727	32687	32598	32730	32860	32367	32852	
2687	0	4442	6591	4075	7792	1426	0	32807	32631	32736	32642	32750	32815	32831	32822	
2688	0	4488	6587	4086	7778	1427	0	32743	32611	32787	32676	32773	32647	33321	32875	
2689	0	4458	6608	4042	7822	1428	0	32738	32675	32827	32753	32715	32725	33431	32759	
2690	0	4485	6640	4101	7808	1429	0	32749	32669	32795	32708	32757	32759	32831	32766	
2691	0	4511	6608	4082	7808	1430	0	32756	32821	32845	32719	32599	32655	32391	32631	
2692	0	4481	6608	4093	7822	1431	0	32796	32775	32727	32718	32674	32769	32519	32745	
2693	0	4444	6591	4110	7792	1432	0	32761	32754	32798	32711	32711	32765	32925	32711	
2694	0	4532	6580	4066	7788	1433	0	32774	32743	32774	32767	32806	32721	33175	32661	
2695	0	4489	6576	4082	7805	1434	0	32767	32707	32743	32871	32739	32833	32694	32609	
2696	0	4524	6628	4099	7778	1435	0	32710	32751	32790	32895	32703	32735	32135	32711	
2697	0	4516	6622	4093	7795	1436	0	32739	32729	32655	32847	32715	32607	32092	32711	
2698	0	4463	6630	4093	7735	1437	0	32786	32647	32644	32801	32691	32827	32543	32790	
2699	0	4499	6570	4079	7822	1438	0	32812	32633	32542	32823	32647	32769	33201	32817	
2700	0	4511	6612	4051	7797	1439	0	32775	32637	32592	32951	32699	32667	33159	32919	
2701	0	4570	6595	4002	7820	1440	0	32792	32663	32679	32943	32686	32855	32589	32839	
2702	0	4522	6609	4059	7846	1441	0	32756	32513	32639	32854	32638	32772	32356	32784	
