# OpenSignals Text File Format
# {"00:07:80:3B:46:38": {"sensor": ["CUSTOM/0.5/1.0/V", "CUSTOM/0.5/1.0/V", "CUSTOM/0.5/1.0/V", "CUSTOM/0.5/1.0/V", "CUSTOM/0.5/1.0/V", "CUSTOM/0.5/1.0/V", "CUSTOM/0.5/1.0/V", "CUSTOM/0.5/1.0/V"], "device name": "EMGs", "column": ["nSeq", "DI", "RA_L", "RA_R", "OE_L", "OE:R", "IL_L", "IL_R", "MF_L", "MF_R"], "sync interval": 2, "time": "16:18:21.87", "comments": "", "device connection": "BTH00:07:80:3B:46:38", "channels": [1, 2, 3, 4, 5, 6, 7, 8], "date": "2017-6-1", "mode": 0, "digital IO": [0, 1], "firmware version": 772, "device": "biosignalsplux", "position": 0, "sampling rate": 1000, "label": ["RA_L", "RA_R", "OE_L", "OE:R", "IL_L", "IL_R", "MF_L", "MF_R"], "resolution": [16, 16, 16, 16, 16, 16, 16, 16], "special": [{}, {}, {}, {}, {}, {}, {}, {}]}}
# EndOfHeader
0	0	32749	32683	32882	32731	32773	32677	32787	32735	
1	0	32761	32755	32790	32706	32758	32708	32679	32823	
2	0	32742	32563	32867	32719	32775	32719	32718	32627	
3	0	32751	32666	32814	32751	32820	32615	32605	32749	
4	0	32773	32787	32693	32764	32659	32692	32630	32867	
5	0	32760	32559	32799	32748	32591	32705	32699	32633	
6	0	32704	32693	32805	32775	32703	32607	32683	32763	
7	0	32738	32605	32850	32741	32748	32693	32487	32806	
8	0	32783	32708	32846	32822	32724	32692	32743	32594	
9	0	32804	32711	32683	32775	32828	32615	32743	32769	
10	0	32786	32730	32807	32716	32667	32726	32647	32869	
11	0	32762	32747	32783	32802	32687	32655	32719	32561	
12	0	32758	32575	32731	32725	32731	32663	32551	32759	
13	0	32738	32674	32743	32731	32679	32735	32765	32815	
14	0	32772	32666	32775	32775	32743	32655	32731	32603	
15	0	32754	32827	32713	32792	32685	32767	32644	32803	
16	0	32772	32775	32745	32765	32647	32775	32543	32751	
17	0	32732	32660	32663	32818	32745	32703	32551	32579	
18	0	32694	32735	32830	32750	32719	32725	32739	32795	
19	0	32687	32519	32762	32679	32699	32706	32589	32637	
20	0	32699	32655	32775	32707	32709	32731	32703	32691	
21	0	32734	32557	32703	32763	32727	32706	32674	32655	
22	0	32751	32758	32695	32891	32807	32751	32598	32675	
23	0	32759	32715	32617	32802	32727	32751	32708	32562	
24	0	32836	32671	32735	32805	32703	32647	32617	32726	
25	0	32782	32700	32671	32799	32643	32731	32687	32844	
26	0	32790	32596	32597	32733	32685	32686	32573	32639	
27	0	32751	32621	32574	32749	32676	32623	32647	32865	
28	0	32736	32755	32813	32759	32783	32703	32745	32615	
29	0	32730	32609	32826	32715	32743	32621	32659	32742	
30	0	32699	32679	32827	32755	32733	32713	32605	32771	
31	0	32721	32567	32685	32713	32646	32743	32679	32647	
32	0	32731	32711	32759	32783	32711	32719	32647	32751	
33	0	32773	32662	32801	32775	32753	32742	32751	32757	
34	0	32769	32725	32795	32722	32803	32679	32545	32615	
35	0	32711	32708	32853	32719	32743	32679	32767	32765	
36	0	32769	32583	32703	32727	32759	32759	32659	32835	
37	0	32801	32749	32719	32733	32621	32583	32687	32587	
38	0	32782	32753	32716	32759	32709	32775	32615	32791	
39	0	32761	32718	32711	32758	32821	32706	32551	32720	
40	0	32749	32754	32839	32729	32709	32615	32729	32753	
41	0	32775	32630	32851	32769	32733	32743	32659	32867	
42	0	32745	32790	32735	32799	32733	32751	32627	32635	
43	0	32809	32775	32686	32711	32871	32646	32578	32772	
44	0	32798	32693	32810	32767	32647	32739	32722	32819	
45	0	32774	32667	32663	32685	32639	32627	32706	32589	
46	0	32715	32807	32717	32726	32640	32713	32573	32839	
47	0	32848	32751	32759	32775	32751	32675	32839	32759	
48	0	32833	32743	32607	32721	32706	32615	32607	32725	
49	0	32804	32595	32771	32845	32703	32707	32655	32767	
50	0	32816	32719	32711	32771	32626	32630	32541	32855	
51	0	32823	32695	32703	32771	32623	32626	32791	32607	
52	0	32851	32839	32743	32842	32789	32742	32766	32805	
53	0	32847	32705	32631	32803	32785	32646	32653	32871	
54	0	32895	32807	32865	32871	32727	32699	32775	32773	
55	0	32813	32769	32729	32837	32695	32658	32646	32695	
56	0	32862	32751	32771	32773	32767	32771	32638	32933	
57	0	32871	32747	32635	32743	32683	32727	32786	32903	
58	0	32893	32605	32702	32775	32694	32626	32833	32695	
59	0	32892	32738	32661	32729	32740	32775	32751	32895	
60	0	32978	32636	32758	32790	32727	32721	32615	32915	
61	0	32848	32811	32689	32717	32823	32790	32644	32859	
62	0	32927	32785	32806	32725	32772	32775	32834	32655	
63	0	32879	32541	32647	32694	32835	32703	32821	32847	
64	0	32847	32647	32758	32647	32791	32813	32759	32818	
65	0	32756	32535	32612	32678	32737	32822	32655	32591	
66	0	32738	32598	32823	32635	32838	32660	32791	32756	
67	0	32713	32647	32835	32647	32811	32765	32733	32767	
68	0	32666	32556	32894	32721	32791	32739	32703	32595	
69	0	32698	32613	33050	32775	32745	32677	32486	32695	
70	0	32667	32711	32947	32731	32701	32701	32743	32795	
71	0	32700	32535	33017	32743	32822	32732	32710	32551	
72	0	32723	32617	32951	32662	32853	32903	32676	32663	
73	0	32690	32423	33085	32687	32891	32847	32639	32695	
74	0	32694	32629	32898	32693	32797	32717	32498	32585	
75	0	32698	32599	32873	32669	32737	32838	32671	32599	
76	0	32706	32518	33003	32670	32840	32839	32635	32647	
77	0	32722	32531	32911	32621	32855	32743	32647	32575	
78	0	32731	32351	32935	32734	32963	32875	32679	32506	
79	0	32743	32582	32799	32631	32839	32790	32573	32679	
80	0	32809	32694	32859	32575	32807	32871	32727	32711	
81	0	32700	32497	32932	32599	32773	32831	32679	32570	
82	0	32713	32529	32918	32553	32865	32715	32615	32727	
83	0	32655	32607	32771	32563	32839	32783	32611	32598	
84	0	32647	32551	32841	32683	32791	32811	32619	32598	
85	0	32547	32542	32617	32803	32749	32661	32404	32518	
86	0	32470	32460	32629	32831	32667	32694	32229	32445	
87	0	32432	32695	32639	33007	32561	32671	31983	32221	
88	0	32374	32737	32548	33016	32623	32514	32071	32389	
89	0	32350	32683	32481	32999	32511	32543	32101	32479	
90	0	32342	32783	32327	33099	32483	32543	31917	32335	
91	0	32369	32645	32359	32942	32549	32467	32203	32555	
92	0	32339	32868	32447	32903	32531	32574	32163	32563	
93	0	32334	32847	32389	32950	32465	32514	32228	32613	
94	0	32371	32658	32463	32871	32566	32567	32199	32644	
95	0	32415	32775	32389	32903	32591	32647	32503	32703	
96	0	32477	32900	32491	32867	32529	32532	32471	32775	
97	0	32516	32570	32444	32875	32612	32591	32454	32903	
98	0	32636	32722	32437	32787	32647	32639	32551	32640	
99	0	32709	32719	32519	32877	32569	32578	32638	32735	
100	0	32677	32612	32598	32823	32587	32643	32647	32861	
101	0	32686	32789	32511	32762	32675	32677	32659	32659	
102	0	32812	32789	32627	32786	32693	32631	32819	32900	
103	0	32858	32595	32766	32775	32686	32675	32806	32918	
104	0	32870	32749	32703	32823	32679	32703	32835	32642	
105	0	32890	32771	32887	32879	32719	32719	32655	32830	
106	0	32914	32605	32871	32783	32751	32527	32819	32695	
107	0	32756	32775	32655	32834	32605	32667	32831	32815	
108	0	32769	32743	32724	32835	32683	32678	32642	32932	
109	0	32841	32609	32807	32831	32663	32575	32773	32840	
110	0	32822	32763	32858	32791	32722	32598	32836	32919	
111	0	32852	32831	32767	32850	32751	32751	32751	32735	
112	0	32903	32903	32755	32837	32671	32663	32818	32918	
113	0	32957	32708	32815	32775	32737	32693	32902	32898	
114	0	33049	32820	32719	32737	32647	32783	32839	33005	
115	0	33098	32767	32767	32701	32806	32775	32997	32940	
116	0	33100	32695	32871	32671	32718	32663	32898	32805	
117	0	33086	32695	32892	32663	32679	32727	32959	32866	
118	0	33124	32671	32871	32663	32733	32885	32831	32999	
119	0	33143	32663	32775	32585	32815	32703	32976	32815	
120	0	33062	32706	32711	32546	32751	32765	32997	32941	
121	0	33077	32701	32879	32599	32795	32831	32871	33035	
122	0	33149	32821	32850	32549	32795	32751	32986	32878	
123	0	33095	32848	32861	32659	32668	32775	33027	32887	
124	0	33109	32705	32775	32587	32719	32785	32946	33055	
125	0	33087	32797	32935	32558	32770	32775	32951	32879	
126	0	33112	32623	32879	32671	32878	32795	32829	32949	
127	0	33041	32721	32926	32612	32903	32699	33007	32932	
128	0	32987	32708	32841	32717	32863	32769	33004	33007	
129	0	33062	32895	32979	32675	32767	32701	32854	32783	
130	0	33022	32887	32835	32687	32775	32723	32883	32971	
131	0	32919	32885	32835	32667	32822	32804	32958	33026	
132	0	32858	32879	32707	32707	32797	32655	32874	32715	
133	0	32879	32638	32747	32706	32723	32718	32808	32839	
134	0	32769	32743	32755	32681	32806	32656	32719	32821	
135	0	32775	32611	32623	32708	32791	32802	32623	32738	
136	0	32733	32756	32799	32697	32874	32759	32619	32577	
137	0	32745	32771	32887	32726	32761	32817	32679	32775	
138	0	32743	32533	32809	32775	32743	32765	32593	32723	
139	0	32692	32667	32717	32839	32743	32692	32710	32491	
140	0	32672	32505	32811	32815	32759	32746	32525	32689	
141	0	32669	32612	32677	32799	32775	32671	32499	32767	
142	0	32615	32534	32819	32775	32681	32727	32539	32568	
143	0	32663	32687	32711	32783	32713	32673	32555	32685	
144	0	32671	32647	32835	32771	32711	32755	32579	32663	
145	0	32676	32639	32794	32743	32685	32719	32467	32711	
146	0	32678	32667	32775	32813	32775	32591	32677	32511	
147	0	32621	32518	32736	32727	32699	32742	32569	32681	
148	0	32626	32671	32663	32769	32719	32675	32535	32754	
149	0	32674	32527	32796	32683	32743	32679	32615	32515	
150	0	32685	32647	32678	32806	32723	32715	32566	32677	
151	0	32698	32559	32795	32736	32625	32629	32487	32727	
152	0	32621	32671	32611	32771	32647	32735	32639	32642	
153	0	32644	32595	32679	32831	32771	32647	32567	32722	
154	0	32718	32743	32783	32719	32735	32709	32575	32767	
155	0	32725	32803	32751	32759	32761	32619	32455	32595	
156	0	32730	32759	32717	32732	32674	32711	32439	32543	
157	0	32687	32700	32733	32879	32727	32614	32647	32769	
158	0	32715	32570	32767	32786	32710	32795	32662	32825	
159	0	32741	32635	32783	32819	32767	32805	32591	32547	
160	0	32748	32540	32604	32746	32619	32735	32631	32655	
161	0	32711	32687	32804	32847	32771	32659	32487	32739	
162	0	32694	32470	32764	32733	32706	32740	32727	32723	
163	0	32725	32667	32719	32838	32738	32775	32583	32716	
164	0	32685	32615	32598	32726	32607	32678	32660	32687	
165	0	32772	32717	32711	32788	32742	32727	32646	32827	
166	0	32726	32681	32743	32739	32789	32562	32613	32617	
167	0	32696	32734	32791	32807	32671	32671	32564	32667	
168	0	32727	32741	32719	32798	32687	32674	32706	32763	
169	0	32686	32547	32661	32701	32699	32763	32679	32604	
170	0	32694	32715	32818	32751	32743	32703	32623	32662	
171	0	32756	32675	32759	32710	32731	32629	32463	32759	
172	0	32724	32742	32786	32823	32759	32724	32593	32775	
173	0	32710	32765	32639	32790	32687	32619	32769	32633	
174	0	32721	32715	32799	32791	32714	32709	32720	32795	
175	0	32748	32773	32740	32725	32786	32647	32623	32747	
176	0	32771	32639	32582	32827	32748	32742	32695	32771	
177	0	32803	32677	32797	32767	32655	32743	32715	32535	
178	0	32794	32681	32758	32706	32706	32631	32543	32692	
179	0	32775	32726	32746	32823	32818	32749	32711	32739	
180	0	32728	32727	32793	32755	32807	32745	32644	32660	
181	0	32724	32621	32735	32745	32725	32625	32674	32832	
182	0	32791	32773	32722	32861	32819	32753	32519	32742	
183	0	32722	32719	32895	32771	32745	32759	32788	32773	
184	0	32775	32567	32829	32706	32627	32591	32644	32795	
185	0	32711	32732	32855	32787	32687	32747	32631	32661	
186	0	32730	32731	32727	32698	32707	32713	32539	32543	
187	0	32823	32691	32791	32807	32683	32756	32619	32759	
188	0	32782	32663	32772	32793	32755	32775	32733	32871	
189	0	32786	32594	32815	32799	32685	32678	32631	32639	
190	0	32821	32703	32647	32741	32710	32723	32623	32551	
191	0	32749	32735	32759	32735	32775	32659	32563	32769	
192	0	32690	32693	32731	32775	32835	32735	32563	32775	
193	0	32742	32690	32831	32751	32733	32658	32703	32703	
194	0	32726	32557	32644	32811	32646	32709	32571	32575	
195	0	32738	32658	32828	32740	32695	32727	32707	32731	
196	0	32758	32823	32791	32756	32770	32635	32591	32863	
197	0	32758	32755	32773	32711	32783	32763	32509	32631	
198	0	32750	32725	32757	32711	32795	32645	32621	32751	
199	0	32730	32660	32903	32775	32687	32719	32695	32759	
200	0	32778	32667	32820	32725	32727	32767	32647	32831	
201	0	32742	32479	32773	32746	32665	32699	32684	32559	
202	0	32759	32769	32607	32751	32692	32694	32541	32703	
203	0	32791	32737	32794	32794	32775	32663	32743	32763	
204	0	32771	32551	32775	32764	32647	32790	32671	32612	
205	0	32834	32751	32775	32727	32670	32695	32751	32757	
206	0	32797	32695	32827	32790	32687	32703	32531	32811	
207	0	32743	32565	32663	32775	32791	32675	32743	32763	
208	0	32756	32599	32647	32717	32775	32762	32678	32597	
209	0	32767	32671	32797	32773	32759	32773	32695	32823	
210	0	32882	32657	32567	32685	32811	32639	32551	32799	
211	0	32826	32685	32699	32683	32647	32751	32733	32481	
212	0	32771	32771	32647	32747	32662	32749	32743	32668	
213	0	32742	32583	32610	32699	32735	32679	32655	32814	
214	0	32744	32730	32786	32765	32747	32671	32543	32567	
215	0	32726	32814	32711	32797	32767	32607	32775	32775	
216	0	32702	32739	32798	32745	32797	32687	32691	32834	
217	0	32719	32711	32719	32827	32685	32783	32717	32819	
218	0	32734	32605	32705	32775	32659	32655	32546	32748	
219	0	32793	32623	32709	32711	32719	32727	32707	32839	
220	0	32775	32679	32775	32775	32748	32671	32607	32711	
221	0	32711	32643	32815	32783	32784	32645	32725	32797	
222	0	32743	32775	32771	32730	32726	32775	32559	32838	
223	0	32743	32791	32733	32760	32647	32749	32727	32903	
224	0	32679	32551	32775	32764	32681	32661	32643	32713	
225	0	32797	32643	32706	32739	32679	32623	32559	32895	
226	0	32772	32659	32739	32879	32707	32729	32670	32883	
227	0	32786	32527	32759	32802	32699	32590	32669	32647	
228	0	32775	32703	32770	32783	32676	32727	32724	32694	
229	0	32765	32756	32737	32743	32759	32727	32519	32619	
230	0	32721	32541	32671	32727	32735	32621	32695	32455	
231	0	32743	32711	32647	32762	32731	32767	32679	32708	
232	0	32721	32773	32791	32742	32751	32667	32660	32749	
233	0	32757	32733	32767	32785	32719	32711	32557	32571	
234	0	32783	32707	32751	32775	32711	32756	32735	32789	
235	0	32794	32535	32673	32795	32647	32717	32677	32869	
236	0	32746	32745	32863	32731	32718	32775	32642	32647	
237	0	32828	32799	32738	32733	32805	32630	32679	32700	
238	0	32829	32626	32843	32767	32699	32765	32530	32831	
239	0	32803	32698	32735	32751	32783	32726	32739	32663	
240	0	32807	32713	32663	32703	32659	32583	32619	32749	
241	0	32791	32557	32719	32743	32670	32773	32525	32807	
242	0	32745	32767	32791	32747	32709	32699	32786	32661	
243	0	32749	32754	32748	32813	32769	32655	32687	32738	
244	0	32826	32531	32821	32783	32772	32691	32729	32837	
245	0	32794	32695	32796	32773	32775	32771	32773	32587	
246	0	32822	32637	32807	32730	32707	32631	32678	32802	
247	0	32734	32687	32663	32775	32828	32749	32607	32775	
248	0	32748	32511	32759	32737	32662	32695	32603	32647	
249	0	32752	32643	32695	32786	32719	32613	32759	32834	
250	0	32725	32745	32814	32832	32745	32739	32684	32834	
251	0	32730	32561	32786	32718	32711	32735	32535	32775	
252	0	32720	32751	32740	32738	32706	32647	32749	32921	
253	0	32780	32732	32631	32835	32782	32627	32647	32679	
254	0	32709	32605	32593	32767	32800	32775	32623	32871	
255	0	32749	32748	32845	32715	32670	32791	32627	32637	
256	0	32701	32717	32739	32814	32719	32647	32690	32717	
257	0	32686	32631	32822	32771	32754	32732	32667	32775	
258	0	32711	32767	32758	32743	32775	32591	32647	32783	
259	0	32775	32619	32863	32805	32694	32717	32647	32627	
260	0	32796	32703	32783	32783	32723	32679	32601	32737	
261	0	32735	32603	32761	32706	32775	32751	32749	32842	
262	0	32775	32692	32799	32663	32725	32727	32684	32578	
263	0	32708	32724	32659	32775	32761	32687	32593	32791	
264	0	32759	32611	32797	32717	32681	32758	32511	32807	
265	0	32804	32733	32769	32749	32719	32735	32751	32556	
266	0	32791	32615	32767	32726	32743	32751	32727	32711	
267	0	32732	32745	32609	32731	32725	32775	32643	32839	
268	0	32769	32701	32813	32749	32670	32579	32767	32587	
269	0	32717	32681	32654	32691	32673	32695	32647	32743	
270	0	32749	32786	32751	32709	32731	32647	32583	32790	
271	0	32788	32663	32659	32725	32714	32726	32541	32773	
272	0	32775	32718	32833	32775	32685	32641	32727	32591	
273	0	32793	32647	32827	32799	32754	32743	32709	32751	
274	0	32769	32719	32667	32783	32801	32658	32707	32723	
275	0	32769	32702	32707	32759	32853	32681	32635	32767	
276	0	32775	32717	32706	32799	32715	32775	32641	32727	
277	0	32748	32745	32722	32695	32759	32725	32487	32743	
278	0	32800	32742	32810	32711	32775	32721	32557	32879	
279	0	32775	32695	32711	32738	32815	32626	32743	32645	
280	0	32741	32540	32839	32758	32684	32749	32609	32735	
281	0	32788	32677	32730	32738	32775	32678	32717	32781	
282	0	32750	32501	32751	32839	32775	32731	32643	32802	
283	0	32756	32655	32643	32739	32725	32671	32611	32615	
284	0	32826	32585	32783	32815	32695	32791	32735	32831	
285	0	32760	32676	32667	32751	32710	32767	32635	32879	
286	0	32822	32619	32769	32679	32745	32686	32747	32615	
287	0	32731	32599	32787	32794	32679	32638	32559	32827	
288	0	32815	32599	32767	32834	32735	32735	32687	32738	
289	0	32721	32663	32591	32703	32748	32732	32706	32815	
290	0	32783	32766	32685	32766	32671	32694	32532	32831	
291	0	32767	32578	32819	32747	32707	32775	32773	32603	
292	0	32769	32749	32720	32715	32767	32751	32658	32769	
293	0	32709	32583	32855	32771	32775	32687	32719	32715	
294	0	32759	32785	32839	32773	32775	32799	32567	32738	
295	0	32738	32745	32834	32743	32743	32702	32695	32860	
296	0	32804	32658	32684	32675	32831	32660	32722	32596	
297	0	32775	32743	32655	32711	32703	32677	32510	32742	
298	0	32759	32678	32784	32647	32669	32707	32758	32727	
299	0	32755	32572	32715	32703	32711	32647	32615	32760	
300	0	32758	32702	32767	32769	32727	32691	32677	32821	
301	0	32739	32700	32727	32707	32718	32714	32575	32605	
302	0	32743	32551	32623	32731	32733	32617	32641	32711	
303	0	32679	32723	32637	32775	32747	32597	32623	32731	
304	0	32790	32725	32703	32711	32730	32745	32658	32566	
305	0	32789	32627	32833	32711	32667	32754	32597	32785	
306	0	32793	32695	32765	32783	32658	32610	32751	32871	
307	0	32726	32715	32845	32706	32767	32743	32641	32614	
308	0	32730	32711	32789	32771	32747	32719	32761	32797	
309	0	32746	32710	32691	32719	32730	32657	32663	32827	
310	0	32744	32503	32847	32844	32660	32695	32734	32583	
311	0	32783	32775	32748	32775	32675	32678	32759	32763	
312	0	32761	32695	32671	32726	32694	32653	32607	32699	
313	0	32773	32647	32702	32691	32740	32749	32707	32666	
314	0	32738	32711	32687	32758	32775	32791	32606	32870	
315	0	32725	32685	32570	32761	32799	32643	32713	32597	
316	0	32745	32827	32755	32719	32727	32719	32550	32725	
317	0	32749	32715	32727	32727	32742	32705	32729	32698	
318	0	32791	32743	32847	32703	32775	32627	32641	32775	
319	0	32753	32591	32758	32839	32695	32727	32691	32829	
320	0	32812	32710	32826	32739	32743	32631	32677	32727	
321	0	32697	32765	32792	32823	32732	32834	32493	32791	
322	0	32761	32609	32851	32844	32711	32790	32717	32839	
323	0	32759	32739	32807	32838	32756	32762	32679	32623	
324	0	32748	32723	32705	32807	32771	32662	32579	32871	
325	0	32704	32573	32876	32827	32748	32739	32597	32707	
326	0	32749	32731	32733	32794	32627	32591	32660	32767	
327	0	32745	32722	32763	32731	32638	32703	32579	32775	
328	0	32775	32607	32707	32773	32709	32722	32621	32593	
329	0	32753	32695	32675	32695	32679	32677	32555	32741	
330	0	32751	32719	32741	32679	32749	32739	32719	32835	
331	0	32750	32591	32810	32711	32723	32773	32711	32559	
332	0	32742	32659	32804	32707	32725	32637	32583	32743	
333	0	32799	32718	32835	32718	32813	32763	32623	32807	
334	0	32754	32725	32819	32743	32695	32749	32727	32647	
335	0	32788	32645	32660	32729	32719	32623	32714	32745	
336	0	32804	32633	32663	32775	32763	32727	32553	32818	
337	0	32768	32724	32677	32703	32707	32647	32643	32675	
338	0	32764	32711	32719	32759	32754	32667	32719	32796	
339	0	32730	32613	32755	32831	32771	32719	32747	32853	
340	0	32733	32644	32690	32775	32791	32682	32514	32595	
341	0	32799	32711	32619	32714	32693	32643	32770	32816	
342	0	32713	32687	32749	32799	32627	32765	32631	32647	
343	0	32765	32754	32735	32804	32647	32739	32637	32685	
344	0	32816	32687	32675	32740	32701	32670	32636	32814	
345	0	32757	32775	32707	32747	32655	32674	32675	32786	
346	0	32736	32547	32711	32837	32771	32754	32513	32803	
347	0	32773	32775	32629	32802	32769	32751	32735	32644	
348	0	32748	32715	32775	32775	32757	32658	32683	32775	
349	0	32775	32647	32823	32771	32771	32775	32543	32732	
350	0	32724	32683	32735	32791	32747	32686	32715	32725	
351	0	32789	32597	32758	32716	32742	32630	32615	32845	
352	0	32759	32637	32820	32773	32797	32708	32642	32627	
353	0	32776	32596	32662	32822	32711	32677	32577	32789	
354	0	32762	32695	32683	32767	32663	32660	32637	32727	
355	0	32789	32742	32774	32767	32663	32667	32660	32744	
356	0	32810	32567	32701	32858	32679	32707	32503	32847	
357	0	32787	32759	32758	32772	32747	32751	32717	32615	
358	0	32751	32803	32734	32805	32631	32607	32610	32729	
359	0	32743	32773	32682	32805	32775	32755	32662	32821	
360	0	32758	32749	32745	32726	32801	32669	32615	32681	
361	0	32743	32691	32743	32797	32663	32709	32544	32701	
362	0	32708	32811	32685	32807	32679	32751	32638	32751	
363	0	32739	32755	32748	32801	32775	32647	32643	32708	
364	0	32766	32571	32801	32771	32687	32695	32604	32737	
365	0	32733	32786	32755	32727	32707	32722	32629	32747	
366	0	32694	32767	32767	32775	32775	32543	32743	32742	
367	0	32781	32626	32612	32775	32614	32663	32734	32581	
368	0	32784	32775	32663	32749	32613	32775	32765	32763	
369	0	32786	32809	32647	32805	32667	32713	32500	32804	
370	0	32753	32686	32723	32731	32793	32743	32605	32615	
371	0	32806	32735	32666	32775	32703	32611	32684	32767	
372	0	32705	32626	32577	32871	32775	32719	32647	32833	
373	0	32723	32751	32794	32742	32679	32639	32733	32541	
374	0	32751	32817	32804	32767	32642	32628	32543	32723	
375	0	32692	32555	32858	32847	32647	32718	32707	32623	
376	0	32774	32758	32804	32795	32658	32709	32647	32742	
377	0	32742	32725	32791	32718	32660	32659	32578	32775	
378	0	32713	32595	32801	32739	32775	32655	32535	32718	
379	0	32744	32667	32685	32765	32743	32751	32704	32679	
380	0	32740	32485	32829	32741	32793	32589	32717	32807	
381	0	32734	32711	32795	32747	32647	32679	32605	32627	
382	0	32757	32755	32807	32738	32679	32700	32615	32775	
383	0	32839	32628	32902	32807	32715	32642	32621	32767	
384	0	32798	32743	32702	32775	32726	32767	32725	32794	
385	0	32775	32647	32692	32727	32795	32759	32642	32796	
386	0	32742	32547	32772	32747	32727	32694	32486	32639	
387	0	32781	32724	32775	32747	32775	32775	32735	32741	
388	0	32775	32755	32839	32747	32825	32733	32643	32843	
389	0	32749	32583	32710	32813	32687	32647	32669	32565	
390	0	32791	32743	32647	32766	32733	32700	32597	32775	
391	0	32789	32703	32855	32722	32806	32679	32770	32741	
392	0	32767	32621	32806	32742	32775	32667	32739	32742	
393	0	32775	32815	32841	32727	32699	32719	32642	32783	
394	0	32758	32679	32811	32767	32711	32711	32621	32566	
395	0	32735	32583	32639	32775	32775	32647	32628	32767	
396	0	32807	32711	32860	32733	32677	32791	32748	32829	
397	0	32740	32675	32713	32775	32754	32691	32773	32643	
398	0	32756	32567	32767	32711	32769	32636	32620	32807	
399	0	32711	32629	32581	32759	32702	32775	32715	32775	
400	0	32705	32491	32643	32751	32775	32789	32738	32623	
401	0	32775	32695	32739	32667	32654	32647	32722	32797	
402	0	32758	32755	32751	32775	32713	32695	32605	32850	
403	0	32768	32599	32827	32743	32773	32658	32612	32601	
404	0	32738	32647	32727	32685	32699	32794	32703	32727	
405	0	32753	32647	32719	32743	32733	32714	32626	32756	
406	0	32774	32702	32679	32713	32647	32663	32684	32583	
407	0	32762	32759	32733	32773	32694	32789	32695	32755	
408	0	32724	32617	32554	32722	32715	32671	32579	32847	
409	0	32676	32687	32719	32724	32773	32679	32677	32627	
410	0	32742	32677	32773	32770	32755	32751	32715	32791	
411	0	32776	32805	32735	32673	32762	32687	32646	32775	
412	0	32851	32791	32743	32719	32647	32833	32708	32834	
413	0	32734	32550	32655	32766	32647	32754	32549	32636	
414	0	32745	32771	32775	32735	32763	32642	32715	32801	
415	0	32775	32686	32775	32799	32743	32679	32706	32807	
416	0	32799	32723	32811	32730	32738	32675	32670	32615	
417	0	32808	32701	32765	32765	32859	32731	32589	32717	
418	0	32796	32575	32686	32804	32839	32707	32645	32823	
419	0	32803	32749	32743	32743	32705	32730	32702	32612	
420	0	32797	32743	32825	32727	32773	32660	32617	32709	
421	0	32772	32634	32823	32726	32727	32719	32503	32871	
422	0	32784	32683	32847	32735	32807	32589	32802	32671	
423	0	32759	32571	32775	32719	32714	32747	32701	32579	
424	0	32775	32724	32845	32641	32721	32641	32700	32766	
425	0	32793	32615	32827	32759	32767	32725	32686	32830	
426	0	32804	32767	32783	32709	32687	32767	32554	32679	
427	0	32734	32727	32663	32775	32687	32637	32765	32759	
428	0	32763	32615	32623	32747	32761	32729	32655	32834	
429	0	32802	32726	32790	32708	32662	32713	32549	32767	
430	0	32772	32822	32783	32791	32679	32639	32587	32596	
431	0	32742	32703	32827	32803	32742	32702	32703	32775	
432	0	32765	32775	32839	32739	32761	32705	32741	32599	
433	0	32778	32775	32683	32742	32825	32679	32581	32765	
434	0	32819	32551	32851	32823	32786	32717	32694	32831	
435	0	32814	32695	32773	32753	32791	32753	32628	32545	
436	0	32817	32677	32743	32724	32818	32622	32787	32820	
437	0	32793	32583	32726	32806	32627	32775	32629	32891	
438	0	32785	32796	32706	32711	32695	32753	32543	32622	
439	0	32792	32530	32775	32711	32747	32641	32742	32758	
440	0	32752	32749	32721	32743	32694	32726	32647	32805	
441	0	32730	32719	32751	32685	32679	32791	32694	32788	
442	0	32742	32631	32775	32799	32706	32658	32503	32877	
443	0	32709	32715	32743	32695	32781	32677	32670	32595	
444	0	32745	32669	32549	32754	32751	32775	32706	32847	
445	0	32736	32737	32636	32769	32810	32871	32641	32679	
446	0	32708	32703	32775	32805	32709	32687	32597	32732	
447	0	32676	32647	32726	32763	32677	32791	32727	32813	
448	0	32718	32594	32759	32791	32771	32663	32663	32755	
449	0	32753	32659	32796	32735	32701	32719	32693	32575	
450	0	32758	32597	32743	32807	32795	32717	32647	32758	
451	0	32785	32738	32797	32804	32635	32638	32543	32799	
452	0	32769	32751	32647	32783	32667	32761	32775	32575	
453	0	32758	32577	32810	32790	32714	32674	32690	32735	
454	0	32783	32707	32835	32711	32743	32687	32701	32811	
455	0	32756	32743	32742	32753	32711	32732	32599	32627	
456	0	32773	32527	32735	32748	32775	32766	32754	32727	
457	0	32799	32695	32695	32669	32754	32605	32623	32811	
458	0	32791	32684	32713	32725	32644	32740	32687	32687	
459	0	32825	32487	32671	32783	32679	32732	32667	32839	
460	0	32807	32705	32757	32759	32726	32682	32751	32647	
461	0	32822	32791	32687	32799	32835	32698	32665	32726	
462	0	32775	32757	32825	32703	32775	32769	32687	32784	
463	0	32783	32804	32845	32775	32751	32734	32701	32729	
464	0	32815	32565	32839	32699	32691	32757	32525	32819	
465	0	32791	32699	32894	32749	32791	32707	32461	32821	
466	0	32742	32567	32823	32743	32757	32733	32541	32847	
467	0	32738	32711	32922	32711	32796	32647	32735	32631	
468	0	32761	32613	32740	32759	32713	32687	32708	32750	
469	0	32710	32733	32827	32807	32703	32637	32700	32767	
470	0	32742	32628	32903	32775	32798	32741	32623	32887	
471	0	32790	32730	32819	32807	32660	32647	32607	32623	
472	0	32725	32559	32734	32695	32775	32722	32662	32751	
473	0	32778	32724	32737	32769	32669	32773	32571	32850	
474	0	32810	32643	32518	32795	32751	32711	32581	32689	
475	0	32783	32687	32723	32671	32709	32685	32700	32735	
476	0	32764	32695	32671	32859	32655	32615	32639	32805	
477	0	32718	32582	32717	32741	32758	32727	32727	32642	
478	0	32695	32732	32679	32711	32775	32727	32589	32713	
479	0	32752	32731	32583	32845	32728	32671	32609	32826	
480	0	32779	32610	32733	32733	32771	32722	32705	32723	
481	0	32765	32683	32756	32804	32671	32643	32727	32599	
482	0	32745	32605	32819	32758	32735	32646	32679	32751	
483	0	32773	32726	32714	32735	32711	32647	32695	32659	
484	0	32799	32706	32822	32721	32719	32748	32583	32755	
485	0	32783	32605	32858	32702	32703	32699	32716	32827	
486	0	32810	32740	32847	32815	32668	32723	32604	32587	
487	0	32775	32806	32847	32767	32719	32627	32679	32743	
488	0	32801	32594	32759	32711	32775	32731	32578	32844	
489	0	32780	32735	32729	32804	32758	32783	32637	32591	
490	0	32791	32791	32772	32738	32749	32683	32755	32759	
491	0	32793	32775	32707	32659	32671	32745	32628	32759	
492	0	32708	32719	32767	32757	32687	32727	32575	32679	
493	0	32788	32723	32775	32743	32563	32630	32805	32829	
494	0	32815	32623	32660	32703	32647	32727	32639	32607	
495	0	32806	32685	32679	32765	32815	32719	32617	32746	
496	0	32751	32717	32751	32717	32809	32667	32702	32742	
497	0	32838	32566	32747	32691	32751	32715	32623	32687	
498	0	32751	32751	32795	32763	32717	32735	32643	32802	
499	0	32729	32752	32818	32751	32790	32695	32527	32535	
500	0	32762	32611	32587	32751	32679	32703	32575	32731	
501	0	32785	32659	32775	32775	32711	32775	32679	32887	
502	0	32710	32623	32759	32735	32679	32754	32660	32611	
503	0	32741	32703	32738	32738	32766	32580	32591	32857	
504	0	32806	32679	32731	32815	32713	32755	32619	32647	
505	0	32819	32791	32759	32775	32736	32759	32671	32783	
506	0	32740	32548	32711	32735	32747	32688	32655	32799	
507	0	32775	32751	32844	32846	32799	32691	32641	32620	
508	0	32727	32755	32721	32709	32689	32704	32747	32743	
509	0	32653	32727	32802	32759	32719	32628	32702	32751	
510	0	32716	32671	32679	32736	32738	32723	32644	32801	
511	0	32695	32567	32823	32827	32765	32671	32727	32567	
512	0	32729	32662	32713	32783	32690	32731	32551	32822	
513	0	32754	32523	32831	32805	32671	32759	32647	32802	
514	0	32830	32717	32636	32738	32745	32621	32695	32621	
515	0	32767	32719	32727	32661	32756	32687	32590	32797	
516	0	32808	32559	32806	32767	32839	32709	32703	32775	
517	0	32808	32703	32751	32703	32854	32619	32615	32727	
518	0	32743	32639	32819	32807	32687	32711	32747	32786	
519	0	32821	32741	32635	32771	32797	32585	32663	32819	
520	0	32745	32797	32853	32797	32767	32722	32621	32667	
521	0	32788	32751	32742	32718	32692	32621	32655	32767	
522	0	32820	32774	32742	32841	32631	32715	32717	32767	
523	0	32771	32627	32723	32750	32703	32701	32775	32607	
524	0	32754	32767	32628	32717	32723	32784	32687	32719	
525	0	32791	32763	32743	32775	32712	32613	32678	32853	
526	0	32786	32598	32739	32751	32717	32743	32516	32565	
527	0	32804	32751	32837	32747	32692	32647	32732	32710	
528	0	32743	32679	32866	32782	32679	32775	32689	32811	
529	0	32756	32791	32681	32707	32692	32767	32702	32603	
530	0	32730	32731	32847	32767	32786	32647	32695	32751	
531	0	32711	32599	32829	32687	32733	32763	32563	32801	
532	0	32708	32717	32685	32790	32735	32687	32614	32858	
533	0	32699	32591	32621	32735	32718	32676	32686	32567	
534	0	32747	32711	32743	32719	32678	32711	32614	32751	
535	0	32760	32655	32773	32817	32687	32807	32530	32644	
536	0	32710	32671	32850	32855	32613	32621	32683	32767	
537	0	32744	32573	32708	32775	32711	32711	32707	32743	
538	0	32791	32730	32859	32851	32828	32702	32537	32595	
539	0	32766	32655	32662	32775	32831	32639	32567	32819	
540	0	32797	32775	32791	32706	32692	32791	32757	32845	
541	0	32750	32713	32772	32759	32727	32756	32694	32601	
542	0	32738	32694	32727	32700	32789	32683	32627	32793	
543	0	32728	32699	32647	32823	32709	32667	32692	32747	
544	0	32769	32591	32804	32703	32647	32711	32545	32647	
545	0	32791	32751	32743	32756	32639	32687	32579	32769	
546	0	32753	32805	32775	32663	32723	32721	32671	32855	
547	0	32780	32773	32687	32700	32729	32619	32723	32705	
548	0	32790	32789	32723	32803	32751	32771	32655	32769	
549	0	32751	32717	32698	32693	32673	32641	32527	32743	
550	0	32790	32711	32741	32815	32645	32734	32685	32703	
551	0	32769	32573	32711	32759	32714	32699	32583	32766	
552	0	32742	32681	32835	32671	32709	32647	32638	32837	
553	0	32791	32691	32703	32799	32813	32786	32765	32621	
554	0	32763	32623	32789	32662	32717	32615	32727	32761	
555	0	32772	32711	32717	32783	32723	32715	32683	32809	
556	0	32743	32749	32757	32671	32711	32755	32702	32717	
557	0	32738	32615	32626	32767	32725	32631	32525	32732	
558	0	32759	32643	32769	32707	32737	32759	32743	32807	
559	0	32766	32703	32749	32706	32717	32738	32695	32617	
560	0	32790	32661	32734	32751	32751	32677	32529	32738	
561	0	32729	32679	32757	32732	32691	32763	32775	32807	
562	0	32797	32583	32615	32827	32653	32671	32699	32617	
563	0	32775	32695	32791	32717	32783	32767	32646	32759	
564	0	32756	32631	32671	32841	32747	32789	32685	32807	
565	0	32736	32703	32767	32767	32711	32685	32583	32813	
566	0	32767	32745	32751	32843	32647	32718	32799	32647	
567	0	32783	32695	32738	32787	32775	32711	32647	32813	
568	0	32721	32734	32635	32795	32755	32775	32687	32831	
569	0	32774	32722	32695	32863	32783	32711	32743	32662	
570	0	32773	32766	32613	32743	32799	32551	32623	32763	
571	0	32742	32742	32754	32772	32679	32717	32775	32759	
572	0	32727	32583	32727	32669	32718	32643	32684	32599	
573	0	32742	32741	32846	32703	32783	32774	32767	32740	
574	0	32839	32594	32719	32690	32727	32757	32555	32695	
575	0	32735	32715	32771	32719	32767	32647	32613	32646	
576	0	32748	32751	32869	32767	32721	32692	32693	32791	
577	0	32701	32619	32858	32609	32671	32655	32606	32631	
578	0	32724	32621	32692	32737	32719	32771	32689	32563	
579	0	32743	32530	32767	32663	32721	32773	32543	32759	
580	0	32729	32631	32738	32755	32784	32671	32798	32754	
581	0	32794	32595	32825	32662	32653	32727	32717	32643	
582	0	32842	32727	32631	32783	32730	32663	32751	32771	
583	0	32799	32715	32773	32775	32715	32751	32532	32845	
584	0	32756	32551	32717	32746	32711	32711	32759	32644	
585	0	32775	32691	32767	32759	32679	32692	32669	32857	
586	0	32748	32532	32694	32747	32671	32751	32585	32747	
587	0	32708	32775	32799	32838	32759	32643	32671	32722	
588	0	32805	32743	32710	32803	32773	32723	32609	32769	
589	0	32740	32723	32719	32759	32775	32659	32734	32751	
590	0	32802	32727	32671	32877	32814	32658	32671	32647	
591	0	32802	32567	32892	32763	32663	32761	32699	32759	
592	0	32775	32685	32771	32781	32719	32735	32534	32753	
593	0	32710	32623	32871	32719	32799	32762	32583	32809	
594	0	32738	32758	32703	32764	32743	32679	32717	32595	
595	0	32797	32786	32787	32749	32632	32743	32702	32771	
596	0	32785	32743	32769	32835	32583	32775	32679	32818	
597	0	32801	32767	32679	32823	32759	32647	32695	32573	
598	0	32758	32615	32713	32739	32761	32691	32581	32787	
599	0	32786	32739	32700	32818	32683	32627	32717	32749	
600	0	32720	32635	32735	32723	32717	32748	32727	32638	
601	0	32764	32695	32754	32830	32731	32662	32679	32610	
602	0	32711	32535	32711	32711	32768	32727	32645	32754	
603	0	32754	32658	32810	32739	32795	32711	32663	32813	
604	0	32767	32676	32677	32791	32721	32623	32579	32603	
605	0	32791	32748	32847	32714	32710	32795	32740	32749	
606	0	32804	32767	32795	32759	32759	32727	32711	32821	
607	0	32802	32695	32660	32711	32788	32647	32643	32753	
608	0	32760	32715	32775	32775	32687	32751	32695	32598	
609	0	32805	32575	32747	32749	32629	32631	32534	32821	
610	0	32786	32759	32759	32719	32724	32751	32741	32799	
611	0	32776	32743	32634	32815	32699	32735	32646	32771	
612	0	32784	32577	32716	32759	32751	32627	32647	32869	
613	0	32745	32775	32733	32765	32775	32791	32579	32658	
614	0	32724	32786	32767	32763	32775	32615	32715	32671	
615	0	32748	32775	32781	32748	32695	32766	32679	32819	
616	0	32701	32727	32711	32811	32727	32743	32466	32611	
617	0	32743	32558	32699	32775	32765	32587	32493	32770	
618	0	32764	32679	32733	32796	32737	32725	32673	32775	
619	0	32774	32583	32743	32711	32631	32687	32707	32894	
620	0	32795	32669	32719	32845	32783	32711	32625	32679	
621	0	32804	32543	32797	32766	32732	32619	32661	32807	
622	0	32783	32767	32655	32743	32759	32775	32576	32804	
623	0	32759	32692	32903	32734	32667	32726	32599	32644	
624	0	32751	32612	32773	32735	32643	32635	32699	32693	
625	0	32821	32723	32796	32749	32759	32741	32668	32815	
626	0	32771	32563	32694	32732	32754	32631	32660	32604	
627	0	32739	32724	32754	32815	32763	32706	32620	32717	
628	0	32729	32671	32775	32703	32727	32773	32623	32749	
629	0	32791	32747	32807	32759	32749	32647	32703	32637	
630	0	32795	32747	32623	32707	32790	32721	32607	32596	
631	0	32773	32621	32750	32675	32759	32663	32588	32749	
632	0	32716	32785	32793	32711	32767	32743	32498	32837	
633	0	32769	32631	32734	32695	32711	32707	32749	32639	
634	0	32751	32775	32771	32686	32690	32667	32733	32835	
635	0	32732	32751	32647	32749	32691	32756	32719	32751	
636	0	32742	32621	32665	32727	32788	32729	32826	32803	
637	0	32750	32742	32658	32703	32798	32727	32599	32829	
638	0	32789	32706	32815	32822	32724	32703	32582	32573	
639	0	32764	32591	32732	32807	32761	32723	32567	32743	
640	0	32759	32771	32788	32701	32806	32673	32667	32691	
641	0	32785	32715	32807	32805	32803	32791	32668	32717	
642	0	32742	32666	32831	32767	32749	32746	32619	32823	
643	0	32775	32634	32708	32743	32663	32637	32783	32598	
644	0	32799	32691	32727	32695	32655	32700	32617	32845	
645	0	32784	32685	32715	32773	32595	32795	32511	32615	
646	0	32765	32575	32751	32743	32623	32727	32727	32802	
647	0	32791	32655	32699	32738	32699	32647	32687	32589	
648	0	32730	32732	32759	32709	32743	32775	32703	32719	
649	0	32719	32578	32793	32755	32711	32765	32515	32775	
650	0	32762	32797	32679	32773	32783	32639	32783	32655	
651	0	32754	32735	32827	32796	32687	32714	32685	32759	
652	0	32789	32506	32726	32775	32635	32669	32727	32879	
653	0	32804	32694	32736	32823	32687	32660	32629	32613	
654	0	32766	32823	32773	32853	32807	32742	32725	32735	
655	0	32684	32735	32630	32807	32735	32659	32727	32845	
656	0	32740	32723	32794	32691	32755	32751	32698	32626	
657	0	32725	32613	32754	32755	32795	32797	32609	32757	
658	0	32759	32773	32791	32829	32681	32595	32795	32865	
659	0	32760	32786	32619	32727	32773	32711	32735	32839	
660	0	32770	32609	32759	32799	32711	32795	32647	32775	
661	0	32772	32711	32699	32716	32773	32676	32692	32757	
662	0	32789	32578	32743	32758	32708	32735	32585	32811	
663	0	32699	32775	32657	32797	32698	32674	32621	32541	
664	0	32688	32743	32615	32727	32703	32767	32775	32815	
665	0	32708	32646	32805	32782	32726	32811	32663	32591	
666	0	32732	32701	32766	32795	32727	32663	32679	32786	
667	0	32740	32756	32785	32787	32767	32763	32519	32851	
668	0	32680	32659	32743	32758	32704	32775	32717	32599	
669	0	32712	32715	32689	32774	32674	32602	32615	32751	
670	0	32729	32805	32754	32759	32701	32735	32647	32703	
671	0	32747	32532	32799	32749	32669	32731	32775	32719	
672	0	32800	32738	32771	32733	32710	32682	32703	32775	
673	0	32810	32735	32827	32743	32795	32691	32723	32553	
674	0	32797	32611	32775	32692	32767	32723	32518	32724	
675	0	32775	32765	32789	32747	32723	32721	32800	32597	
676	0	32797	32685	32662	32697	32747	32663	32676	32706	
677	0	32783	32615	32757	32711	32761	32684	32667	32850	
678	0	32797	32665	32747	32751	32596	32631	32655	32591	
679	0	32793	32485	32679	32709	32691	32687	32567	32775	
680	0	32731	32631	32783	32759	32716	32635	32494	32819	
681	0	32816	32711	32797	32799	32730	32747	32694	32647	
682	0	32798	32627	32749	32773	32775	32742	32738	32763	
683	0	32804	32618	32767	32803	32631	32631	32719	32851	
684	0	32822	32588	32585	32775	32689	32810	32647	32647	
685	0	32757	32790	32726	32819	32711	32806	32796	32847	
686	0	32790	32732	32717	32787	32735	32658	32685	32886	
687	0	32786	32599	32754	32887	32751	32738	32691	32629	
688	0	32740	32668	32741	32764	32743	32661	32611	32804	
689	0	32775	32679	32626	32799	32753	32726	32565	32807	
690	0	32705	32789	32743	32757	32687	32751	32713	32607	
691	0	32773	32818	32647	32723	32708	32615	32615	32823	
692	0	32773	32509	32709	32743	32611	32773	32671	32794	
693	0	32790	32791	32757	32737	32711	32743	32605	32583	
694	0	32710	32679	32699	32691	32748	32655	32707	32782	
695	0	32764	32767	32814	32738	32751	32742	32639	32883	
696	0	32719	32743	32821	32687	32790	32647	32663	32596	
697	0	32708	32575	32887	32703	32775	32727	32482	32805	
698	0	32774	32677	32819	32755	32699	32759	32646	32704	
699	0	32783	32727	32815	32726	32631	32559	32553	32703	
700	0	32815	32582	32885	32687	32711	32743	32611	32797	
701	0	32831	32605	32875	32775	32671	32759	32571	32587	
702	0	32832	32583	32795	32739	32722	32619	32755	32745	
703	0	32825	32711	32763	32731	32693	32711	32703	32759	
704	0	32771	32695	32732	32807	32723	32746	32733	32621	
705	0	32765	32726	32717	32731	32691	32698	32754	32738	
706	0	32692	32726	32773	32859	32615	32743	32647	32787	
707	0	32729	32577	32622	32743	32759	32619	32491	32607	
708	0	32727	32647	32602	32755	32735	32666	32740	32726	
709	0	32716	32800	32735	32834	32738	32714	32725	32835	
710	0	32786	32647	32741	32786	32706	32715	32702	32599	
711	0	32791	32790	32743	32719	32799	32748	32623	32775	
712	0	32771	32628	32647	32743	32659	32740	32631	32813	
713	0	32757	32721	32767	32717	32743	32659	32749	32583	
714	0	32797	32678	32751	32732	32775	32738	32655	32785	
715	0	32750	32773	32743	32703	32711	32718	32647	32723	
716	0	32733	32741	32807	32632	32715	32661	32531	32716	
717	0	32738	32663	32772	32783	32749	32726	32707	32885	
718	0	32727	32577	32637	32836	32747	32739	32640	32631	
719	0	32797	32749	32605	32799	32669	32662	32644	32751	
720	0	32838	32615	32758	32679	32639	32695	32559	32830	
721	0	32766	32815	32743	32839	32790	32795	32750	32597	
722	0	32806	32775	32813	32796	32812	32591	32647	32759	
723	0	32764	32531	32623	32703	32711	32771	32735	32773	
724	0	32769	32775	32629	32795	32791	32675	32483	32692	
725	0	32738	32759	32820	32739	32820	32685	32694	32743	
726	0	32742	32724	32763	32710	32723	32663	32663	32552	
727	0	32710	32647	32787	32758	32634	32741	32822	32610	
728	0	32742	32647	32727	32727	32661	32727	32658	32701	
729	0	32775	32722	32767	32773	32717	32795	32719	32775	
730	0	32714	32627	32838	32755	32691	32766	32453	32775	
731	0	32766	32575	32788	32775	32703	32826	32630	32675	
732	0	32734	32457	32765	32823	32734	32755	32647	32761	
733	0	32759	32647	32803	32775	32727	32634	32715	32723	
734	0	32699	32723	32775	32810	32655	32685	32623	32615	
735	0	32737	32695	32756	32835	32772	32674	32631	32647	
736	0	32749	32637	32823	32787	32738	32765	32738	32655	
737	0	32770	32721	32763	32727	32697	32719	32790	32690	
738	0	32706	32715	32677	32736	32740	32694	32575	32821	
739	0	32720	32621	32791	32775	32804	32759	32738	32847	
740	0	32694	32655	32695	32751	32647	32731	32745	32823	
741	0	32781	32559	32733	32773	32805	32823	32571	32774	
742	0	32801	32705	32827	32755	32727	32679	32719	32751	
743	0	32812	32559	32827	32733	32757	32695	32685	32817	
744	0	32759	32687	32765	32815	32757	32735	32683	32795	
745	0	32783	32723	32647	32674	32758	32647	32588	32797	
746	0	32799	32595	32735	32689	32807	32690	32769	32579	
747	0	32695	32731	32831	32741	32717	32722	32675	32815	
748	0	32765	32753	32731	32689	32722	32647	32684	32797	
749	0	32748	32551	32843	32731	32690	32647	32557	32775	
750	0	32738	32735	32767	32756	32687	32733	32775	32772	
751	0	32738	32631	32695	32727	32711	32615	32615	32647	
752	0	32743	32673	32749	32820	32755	32628	32679	32735	
753	0	32808	32691	32775	32829	32790	32791	32692	32787	
754	0	32754	32767	32775	32835	32751	32759	32588	32737	
755	0	32772	32591	32746	32807	32751	32687	32564	32859	
756	0	32698	32789	32715	32903	32746	32551	32805	32635	
757	0	32747	32746	32765	32841	32742	32641	32687	32735	
758	0	32766	32719	32611	32811	32605	32657	32607	32783	
759	0	32731	32716	32835	32819	32735	32699	32620	32722	
760	0	32745	32634	32773	32743	32725	32699	32671	32551	
761	0	32799	32741	32709	32820	32795	32571	32450	32751	
762	0	32790	32571	32535	32671	32658	32711	32551	32846	
763	0	32765	32679	32724	32701	32631	32722	32738	32583	
764	0	32739	32623	32717	32738	32775	32698	32626	32747	
765	0	32733	32711	32743	32721	32751	32743	32640	32767	
766	0	32763	32659	32621	32756	32726	32685	32662	32735	
767	0	32787	32858	32763	32743	32660	32775	32583	32643	
768	0	32783	32719	32787	32813	32701	32671	32614	32809	
769	0	32790	32815	32677	32775	32715	32791	32799	32836	
770	0	32757	32817	32739	32775	32739	32647	32643	32590	
771	0	32798	32698	32795	32759	32757	32719	32647	32775	
772	0	32800	32775	32807	32703	32599	32742	32799	32763	
773	0	32815	32663	32628	32743	32759	32619	32623	32815	
774	0	32766	32775	32754	32743	32703	32706	32543	32615	
775	0	32757	32535	32661	32710	32751	32606	32539	32707	
776	0	32747	32713	32771	32699	32607	32735	32749	32757	
777	0	32724	32567	32687	32751	32783	32639	32647	32771	
778	0	32701	32695	32824	32748	32751	32699	32663	32615	
779	0	32710	32569	32767	32799	32787	32739	32706	32729	
780	0	32742	32757	32805	32711	32699	32623	32561	32783	
781	0	32745	32676	32663	32848	32687	32743	32751	32582	
782	0	32783	32799	32799	32695	32765	32647	32687	32735	
783	0	32718	32751	32763	32709	32712	32707	32659	32847	
784	0	32794	32657	32798	32678	32725	32699	32726	32731	
785	0	32763	32701	32695	32731	32724	32667	32645	32603	
786	0	32769	32535	32775	32796	32694	32767	32559	32750	
787	0	32775	32767	32855	32761	32706	32749	32735	32631	
788	0	32804	32759	32751	32683	32807	32733	32637	32743	
789	0	32801	32627	32791	32803	32682	32759	32682	32799	
790	0	32790	32691	32623	32775	32703	32645	32631	32663	
791	0	32720	32583	32687	32818	32647	32767	32499	32766	
792	0	32775	32715	32659	32813	32679	32725	32548	32767	
793	0	32751	32791	32771	32757	32790	32661	32705	32747	
794	0	32815	32583	32717	32742	32775	32671	32602	32726	
795	0	32786	32647	32743	32743	32731	32686	32759	32861	
796	0	32766	32727	32679	32807	32711	32775	32575	32623	
797	0	32749	32591	32637	32775	32731	32631	32655	32805	
798	0	32742	32695	32759	32804	32761	32724	32615	32611	
799	0	32745	32621	32743	32747	32711	32723	32743	32799	
800	0	32811	32767	32706	32839	32634	32607	32701	32851	
801	0	32722	32759	32583	32773	32645	32772	32727	32583	
802	0	32720	32576	32683	32751	32775	32731	32507	32751	
803	0	32798	32789	32655	32821	32727	32627	32527	32758	
804	0	32756	32783	32807	32747	32717	32721	32737	32555	
805	0	32799	32613	32655	32756	32815	32700	32740	32767	
806	0	32727	32663	32698	32762	32691	32677	32719	32807	
807	0	32718	32717	32903	32711	32634	32695	32577	32559	
808	0	32775	32564	32799	32663	32623	32775	32774	32775	
809	0	32744	32623	32885	32751	32677	32647	32663	32628	
810	0	32695	32775	32846	32647	32775	32691	32662	32711	
811	0	32772	32455	32594	32655	32717	32703	32583	32863	
812	0	32730	32755	32677	32758	32692	32684	32647	32607	
813	0	32743	32676	32757	32751	32775	32663	32735	32795	
814	0	32790	32631	32852	32724	32759	32793	32671	32621	
815	0	32789	32589	32751	32760	32809	32811	32659	32735	
816	0	32735	32687	32807	32775	32809	32599	32717	32718	
817	0	32720	32607	32820	32733	32695	32671	32601	32609	
818	0	32759	32695	32701	32841	32667	32631	32605	32775	
819	0	32807	32661	32831	32743	32735	32599	32683	32759	
820	0	32848	32747	32671	32790	32786	32735	32679	32743	
821	0	32846	32671	32681	32799	32751	32773	32534	32893	
822	0	32748	32723	32659	32759	32742	32627	32569	32659	
823	0	32775	32582	32519	32711	32785	32758	32735	32749	
824	0	32802	32767	32738	32771	32671	32647	32663	32805	
825	0	32790	32759	32743	32765	32679	32660	32663	32605	
826	0	32809	32797	32743	32739	32671	32775	32475	32709	
827	0	32753	32581	32804	32709	32684	32743	32691	32754	
828	0	32809	32711	32834	32868	32695	32615	32676	32767	
829	0	32759	32738	32701	32759	32769	32735	32567	32819	
830	0	32756	32543	32722	32678	32745	32694	32748	32623	
831	0	32690	32667	32893	32795	32727	32661	32607	32819	
832	0	32686	32727	32851	32775	32730	32711	32731	32821	
833	0	32751	32567	32879	32787	32735	32739	32491	32586	
834	0	32764	32711	32877	32807	32646	32643	32775	32783	
835	0	32756	32599	32663	32765	32663	32724	32679	32851	
836	0	32779	32655	32775	32671	32707	32734	32719	32576	
837	0	32767	32743	32694	32775	32725	32631	32623	32799	
838	0	32850	32659	32783	32793	32747	32725	32562	32882	
839	0	32766	32699	32751	32784	32749	32757	32743	32588	
840	0	32760	32811	32631	32818	32811	32644	32751	32863	
841	0	32758	32570	32599	32754	32637	32711	32630	32674	
842	0	32787	32711	32742	32698	32634	32692	32679	32762	
843	0	32749	32721	32797	32711	32671	32671	32631	32607	
844	0	32797	32615	32683	32737	32591	32685	32516	32678	
845	0	32785	32677	32731	32630	32735	32691	32724	32759	
846	0	32767	32759	32726	32751	32758	32663	32690	32687	
847	0	32767	32727	32555	32819	32700	32607	32595	32787	
848	0	32765	32700	32658	32787	32719	32719	32667	32818	
849	0	32746	32563	32775	32771	32679	32640	32647	32590	
850	0	32717	32740	32695	32887	32739	32737	32773	32711	
851	0	32771	32771	32719	32789	32687	32669	32557	32815	
852	0	32761	32582	32799	32802	32723	32708	32681	32701	
853	0	32731	32767	32710	32775	32638	32619	32762	32847	
854	0	32731	32775	32628	32807	32663	32677	32687	32703	
855	0	32712	32812	32743	32745	32687	32591	32638	32815	
856	0	32844	32831	32789	32807	32763	32738	32791	32855	
857	0	32893	32719	32766	32742	32763	32711	32704	32775	
858	0	32813	32763	32679	32658	32642	32580	32743	32788	
859	0	32837	32647	32705	32739	32626	32719	32638	32841	
860	0	32855	32820	32805	32775	32679	32745	32811	32783	
861	0	32903	32827	32775	32711	32725	32694	32751	32671	
862	0	32876	32767	32775	32823	32791	32679	32775	32826	
863	0	32846	32757	32635	32751	32665	32635	32605	32819	
864	0	32839	32615	32698	32708	32666	32741	32915	32791	
865	0	32848	32751	32825	32711	32647	32735	32775	32811	
866	0	32814	32804	32826	32659	32747	32690	32803	32845	
867	0	32823	32599	32807	32583	32775	32773	32895	32701	
868	0	32823	32681	32891	32665	32759	32797	32710	32725	
869	0	32838	32551	32747	32579	32790	32700	32774	32729	
870	0	32798	32582	32955	32703	32747	32827	32544	32797	
871	0	32749	32513	32775	32698	32751	32799	32623	32703	
872	0	32711	32663	32933	32757	32839	32807	32655	32535	
873	0	32768	32603	32855	32730	32786	32675	32666	32647	
874	0	32767	32647	32967	32722	32831	32694	32518	32751	
875	0	32700	32647	32959	32687	32916	32831	32666	32549	
876	0	32703	32492	32999	32711	32820	32725	32567	32632	
877	0	32734	32587	32850	32731	32799	32867	32631	32663	
878	0	32714	32557	32863	32739	32871	32845	32491	32667	
879	0	32740	32579	32897	32685	32893	32759	32583	32630	
880	0	32710	32561	33011	32635	32903	32711	32601	32711	
881	0	32665	32605	32900	32692	32959	32829	32646	32647	
882	0	32665	32493	33110	32615	32887	32775	32715	32749	
883	0	32696	32519	32851	32563	32935	32870	32786	32775	
884	0	32721	32402	33047	32559	32811	32887	32613	32655	
885	0	32719	32547	32959	32631	32775	32749	32615	32551	
886	0	32676	32519	32967	32663	32855	32799	32847	32695	
887	0	32591	32631	32743	32658	32839	32762	32557	32749	
888	0	32522	32617	32799	32682	32775	32783	32516	32380	
889	0	32477	32463	32615	32853	32679	32727	32250	32487	
890	0	32332	32659	32563	32951	32577	32535	32068	32514	
891	0	32327	32699	32383	32943	32545	32612	32079	32175	
892	0	32391	32519	32293	33036	32485	32583	31943	32325	
893	0	32382	32823	32447	33046	32503	32437	32043	32485	
894	0	32326	32775	32350	32967	32569	32493	31935	32323	
895	0	32378	32623	32322	33031	32471	32527	32262	32603	
896	0	32413	32795	32338	32933	32542	32423	32210	32668	
897	0	32475	32755	32299	32935	32550	32615	32364	32514	
898	0	32535	32781	32382	32983	32540	32623	32262	32695	
899	0	32576	32812	32359	32898	32479	32527	32575	32708	
900	0	32647	32773	32407	32775	32455	32668	32583	32821	
901	0	32643	32670	32452	32884	32505	32647	32647	32903	
902	0	32647	32821	32351	32875	32542	32705	32461	32655	
903	0	32756	32882	32511	32829	32662	32548	32727	32829	
904	0	32816	32583	32678	32735	32735	32695	32739	32743	
905	0	32836	32807	32695	32707	32647	32671	32708	32815	
906	0	32867	32799	32742	32747	32574	32620	32739	32950	
907	0	32862	32727	32624	32771	32679	32634	32815	32898	
908	0	32965	32738	32847	32775	32772	32607	32723	32695	
909	0	32903	32669	32713	32691	32693	32749	32838	32876	
910	0	32787	32775	32811	32839	32655	32703	32675	32935	
911	0	32738	32757	32815	32837	32695	32605	32803	32693	
912	0	32652	32639	32667	32819	32739	32597	32687	32742	
913	0	32676	32767	32788	32854	32707	32612	32639	32849	
914	0	32695	32771	32759	32775	32645	32626	32598	32609	
915	0	32780	32631	32807	32746	32703	32735	32845	32852	
916	0	32754	32876	32754	32919	32705	32623	32733	32986	
917	0	32831	32862	32679	32890	32647	32566	32879	32804	
918	0	32925	32755	32775	32791	32669	32685	32975	32988	
919	0	32986	32763	32863	32766	32742	32727	32884	32997	
920	0	33014	32701	32703	32719	32748	32611	32873	32835	
921	0	33069	32615	32751	32749	32756	32767	33084	32963	
922	0	33024	32611	32900	32707	32775	32835	32971	32967	
923	0	33116	32477	32873	32607	32741	32775	33053	32923	
924	0	33113	32679	32935	32622	32790	32855	32935	33005	
925	0	33108	32647	32767	32579	32843	32783	32919	33006	
926	0	33095	32719	32894	32559	32864	32850	33211	33051	
927	0	33101	32711	32919	32547	32775	32711	33063	32877	
928	0	33086	32607	32743	32563	32758	32775	33008	32809	
929	0	33050	32771	32894	32603	32787	32783	33067	32983	
930	0	33063	32737	32951	32599	32823	32725	32827	32991	
931	0	33080	32775	32998	32599	32871	32823	33025	32927	
932	0	33037	32741	32951	32647	32786	32799	33031	32967	
933	0	33063	32783	32747	32663	32773	32715	32891	32838	
934	0	32991	32839	32935	32711	32833	32748	33015	32889	
935	0	32962	32799	32869	32703	32717	32773	32903	32927	
936	0	32826	32691	32903	32685	32790	32674	32703	32637	
937	0	32859	32754	32859	32739	32721	32703	32628	32796	
938	0	32838	32854	32719	32756	32705	32868	32730	32550	
939	0	32768	32751	32691	32678	32666	32807	32713	32743	
940	0	32828	32831	32701	32690	32703	32815	32543	32628	
941	0	32804	32619	32663	32607	32690	32711	32631	32662	
942	0	32701	32711	32743	32675	32669	32719	32575	32513	
943	0	32726	32775	32629	32755	32677	32690	32539	32748	
944	0	32702	32791	32639	32807	32669	32767	32595	32686	
945	0	32754	32527	32597	32689	32647	32799	32581	32674	
946	0	32707	32747	32687	32770	32767	32604	32491	32826	
947	0	32617	32663	32717	32753	32719	32579	32647	32699	
948	0	32647	32737	32771	32775	32723	32749	32447	32691	
949	0	32658	32551	32620	32799	32771	32775	32566	32660	
950	0	32605	32715	32799	32741	32758	32647	32534	32787	
951	0	32647	32743	32834	32811	32703	32751	32642	32599	
952	0	32654	32695	32805	32761	32742	32614	32475	32667	
953	0	32630	32739	32723	32802	32715	32775	32573	32719	
954	0	32669	32498	32799	32783	32665	32722	32660	32617	
955	0	32657	32725	32870	32791	32738	32615	32541	32734	
956	0	32702	32708	32789	32791	32748	32701	32606	32686	
957	0	32673	32557	32711	32763	32742	32821	32495	32527	
958	0	32690	32569	32841	32823	32784	32669	32583	32707	
959	0	32697	32573	32727	32745	32704	32683	32631	32773	
960	0	32719	32799	32799	32735	32700	32672	32578	32595	
961	0	32700	32799	32699	32771	32794	32695	32636	32659	
962	0	32679	32767	32749	32743	32803	32679	32511	32691	
963	0	32699	32684	32799	32783	32817	32743	32465	32759	
964	0	32697	32540	32703	32775	32675	32743	32631	32477	
965	0	32704	32791	32623	32823	32593	32639	32629	32703	
966	0	32685	32745	32807	32850	32717	32770	32605	32743	
967	0	32700	32501	32711	32771	32724	32802	32450	32561	
968	0	32727	32631	32743	32843	32773	32573	32695	32687	
969	0	32719	32732	32659	32794	32791	32697	32671	32717	
970	0	32702	32611	32749	32755	32687	32647	32675	32551	
971	0	32681	32639	32775	32763	32655	32679	32588	32739	
972	0	32764	32687	32742	32731	32708	32680	32663	32641	
973	0	32775	32596	32787	32698	32727	32774	32679	32759	
974	0	32797	32687	32804	32747	32799	32663	32527	32852	
975	0	32773	32727	32611	32763	32788	32763	32730	32573	
976	0	32751	32584	32685	32771	32769	32763	32647	32758	
977	0	32740	32687	32743	32775	32740	32659	32503	32711	
978	0	32759	32751	32703	32819	32765	32751	32667	32742	
979	0	32732	32553	32711	32709	32802	32735	32647	32735	
980	0	32775	32727	32791	32671	32619	32646	32495	32743	
981	0	32812	32590	32629	32667	32674	32718	32583	32626	
982	0	32758	32727	32791	32663	32663	32743	32703	32763	
983	0	32757	32721	32727	32767	32799	32617	32635	32717	
984	0	32716	32567	32791	32711	32734	32772	32577	32783	
985	0	32761	32659	32613	32743	32775	32699	32614	32797	
986	0	32774	32663	32759	32799	32687	32763	32799	32807	
987	0	32755	32790	32763	32774	32809	32775	32647	32601	
988	0	32825	32763	32767	32794	32725	32719	32734	32821	
989	0	32822	32751	32694	32747	32759	32715	32495	32846	
990	0	32788	32717	32877	32841	32647	32655	32775	32695	
991	0	32791	32550	32851	32819	32695	32771	32699	32758	
992	0	32793	32692	32839	32699	32731	32786	32516	32817	
993	0	32754	32647	32694	32827	32681	32634	32702	32574	
994	0	32719	32751	32735	32834	32718	32713	32647	32690	
995	0	32731	32765	32775	32822	32711	32671	32707	32751	
996	0	32738	32661	32791	32767	32738	32742	32695	32723	
997	0	32769	32693	32614	32822	32694	32767	32535	32757	
998	0	32844	32591	32703	32804	32812	32629	32711	32785	
999	0	32756	32719	32715	32863	32793	32687	32690	32836	
1000	0	32704	32615	32775	32775	32659	32607	32658	32588	
1001	0	32724	32775	32691	32759	32751	32789	32695	32735	
1002	0	32724	32797	32694	32775	32713	32647	32567	32699	
1003	0	32739	32667	32790	32719	32771	32730	32623	32731	
1004	0	32722	32658	32731	32751	32711	32711	32687	32611	
1005	0	32795	32547	32671	32700	32685	32605	32630	32783	
1006	0	32762	32715	32674	32743	32736	32710	32658	32758	
1007	0	32808	32722	32797	32733	32790	32751	32545	32759	
1008	0	32767	32633	32751	32725	32748	32641	32621	32855	
1009	0	32772	32787	32711	32767	32775	32739	32727	32855	
1010	0	32715	32559	32775	32687	32678	32796	32676	32590	
1011	0	32711	32677	32786	32733	32711	32710	32689	32783	
1012	0	32746	32591	32735	32673	32810	32724	32677	32757	
1013	0	32743	32797	32829	32703	32703	32645	32587	32767	
1014	0	32749	32703	32773	32793	32772	32755	32518	32605	
1015	0	32722	32606	32723	32731	32671	32692	32535	32763	
1016	0	32679	32647	32646	32703	32662	32791	32707	32791	
1017	0	32694	32711	32818	32735	32743	32719	32614	32607	
1018	0	32753	32621	32815	32671	32738	32639	32735	32707	
1019	0	32865	32670	32846	32745	32711	32746	32491	32823	
1020	0	32849	32615	32671	32719	32775	32775	32783	32597	
1021	0	32792	32771	32837	32667	32789	32711	32709	32775	
1022	0	32738	32823	32859	32810	32629	32706	32647	32831	
1023	0	32731	32583	32802	32775	32674	32659	32709	32602	
1024	0	32749	32764	32614	32809	32642	32647	32499	32775	
1025	0	32770	32759	32722	32834	32754	32757	32519	32803	
1026	0	32767	32731	32711	32727	32759	32697	32735	32748	
1027	0	32771	32723	32579	32789	32803	32819	32691	32551	
1028	0	32770	32742	32679	32727	32686	32655	32626	32647	
1029	0	32708	32738	32699	32711	32808	32727	32671	32743	
1030	0	32740	32623	32612	32775	32685	32740	32503	32660	
1031	0	32743	32685	32759	32757	32753	32690	32677	32556	
1032	0	32740	32547	32647	32815	32670	32682	32655	32738	
1033	0	32728	32775	32627	32730	32795	32617	32755	32775	
1034	0	32703	32525	32891	32773	32771	32722	32747	32751	
1035	0	32715	32743	32743	32722	32695	32643	32647	32771	
1036	0	32786	32717	32809	32722	32767	32751	32799	32763	
1037	0	32754	32795	32709	32783	32655	32751	32701	32791	
1038	0	32802	32737	32755	32638	32709	32687	32675	32563	
1039	0	32889	32583	32797	32692	32735	32773	32555	32735	
1040	0	32791	32721	32789	32804	32818	32727	32687	32859	
1041	0	32769	32775	32700	32775	32743	32631	32719	32679	
1042	0	32751	32514	32864	32775	32743	32805	32666	32877	
1043	0	32797	32715	32723	32805	32717	32619	32743	32855	
1044	0	32767	32759	32766	32711	32690	32647	32607	32671	
1045	0	32808	32575	32711	32775	32683	32655	32673	32783	
1046	0	32738	32807	32578	32795	32676	32772	32571	32795	
1047	0	32731	32663	32739	32713	32692	32614	32734	32585	
1048	0	32652	32506	32647	32773	32679	32667	32627	32718	
1049	0	32732	32812	32711	32835	32627	32653	32692	32850	
1050	0	32825	32751	32619	32775	32711	32679	32532	32612	
1051	0	32804	32615	32734	32849	32801	32695	32591	32791	
1052	0	32763	32647	32820	32806	32607	32636	32695	32775	
1053	0	32758	32549	32810	32743	32685	32703	32679	32647	
1054	0	32739	32788	32847	32773	32761	32715	32671	32787	
1055	0	32757	32687	32786	32735	32733	32695	32791	32827	
1056	0	32788	32671	32841	32743	32790	32713	32597	32595	
1057	0	32783	32638	32895	32782	32751	32742	32615	32791	
1058	0	32709	32715	32823	32687	32647	32687	32509	32863	
1059	0	32813	32556	32817	32708	32624	32695	32738	32589	
1060	0	32809	32756	32747	32749	32690	32715	32702	32717	
1061	0	32861	32741	32609	32717	32801	32655	32738	32791	
1062	0	32807	32727	32821	32724	32767	32743	32667	32679	
1063	0	32829	32770	32751	32711	32743	32645	32510	32595	
1064	0	32800	32579	32775	32791	32679	32679	32757	32762	
1065	0	32793	32679	32701	32815	32775	32756	32695	32843	
1066	0	32796	32514	32749	32809	32759	32690	32647	32797	
1067	0	32753	32637	32739	32754	32747	32711	32738	32758	
1068	0	32688	32606	32703	32743	32615	32585	32535	32698	
1069	0	32686	32690	32815	32725	32765	32755	32527	32774	
1070	0	32749	32645	32642	32683	32719	32641	32775	32743	
1071	0	32772	32756	32723	32797	32717	32687	32662	32596	
1072	0	32809	32727	32621	32800	32695	32607	32669	32789	
1073	0	32745	32705	32830	32766	32787	32686	32737	32815	
1074	0	32666	32743	32721	32679	32794	32665	32557	32866	
1075	0	32673	32728	32811	32797	32711	32748	32593	32607	
1076	0	32700	32726	32645	32721	32723	32663	32699	32751	
1077	0	32732	32646	32639	32811	32741	32732	32676	32747	
1078	0	32773	32735	32721	32719	32805	32791	32639	32743	
1079	0	32754	32614	32611	32791	32742	32671	32711	32739	
1080	0	32748	32679	32867	32668	32690	32769	32527	32551	
1081	0	32762	32485	32821	32706	32751	32742	32575	32719	
1082	0	32770	32634	32755	32700	32766	32745	32743	32743	
1083	0	32788	32529	32846	32773	32677	32647	32631	32807	
1084	0	32754	32741	32844	32730	32643	32775	32643	32630	
1085	0	32805	32639	32837	32839	32692	32629	32663	32567	
1086	0	32811	32797	32731	32767	32722	32714	32538	32742	
1087	0	32783	32742	32831	32803	32683	32609	32541	32759	
1088	0	32767	32727	32823	32722	32623	32743	32579	32835	
1089	0	32743	32743	32647	32749	32742	32696	32773	32663	
1090	0	32708	32594	32887	32759	32759	32766	32725	32765	
1091	0	32765	32727	32732	32804	32769	32755	32694	32787	
1092	0	32789	32583	32815	32766	32668	32681	32742	32830	
1093	0	32789	32739	32699	32795	32653	32687	32751	32615	
1094	0	32780	32655	32767	32773	32794	32679	32583	32754	
1095	0	32759	32742	32823	32686	32723	32749	32732	32750	
1096	0	32740	32695	32647	32748	32767	32738	32647	32799	
1097	0	32724	32607	32621	32711	32775	32790	32674	32811	
1098	0	32782	32754	32790	32727	32644	32830	32615	32750	
1099	0	32864	32775	32679	32707	32635	32635	32659	32887	
1100	0	32800	32597	32751	32759	32699	32773	32719	32627	
1101	0	32733	32747	32631	32741	32699	32740	32607	32831	
1102	0	32701	32751	32734	32758	32719	32603	32738	32847	
1103	0	32754	32615	32675	32839	32783	32735	32706	32655	
1104	0	32743	32767	32725	32803	32719	32743	32595	32811	
1105	0	32722	32707	32770	32843	32775	32679	32711	32726	
1106	0	32758	32507	32695	32756	32751	32715	32711	32535	
1107	0	32748	32679	32859	32759	32715	32647	32689	32754	
1108	0	32691	32607	32731	32709	32725	32671	32545	32811	
1109	0	32718	32722	32793	32795	32814	32721	32475	32615	
1110	0	32717	32694	32629	32767	32765	32687	32727	32715	
1111	0	32694	32669	32787	32790	32799	32683	32647	32767	
1112	0	32690	32711	32695	32783	32748	32639	32694	32787	
1113	0	32738	32668	32818	32683	32647	32683	32498	32743	
1114	0	32716	32743	32706	32727	32685	32706	32745	32807	
1115	0	32681	32775	32812	32751	32709	32601	32739	32773	
1116	0	32744	32543	32862	32727	32791	32742	32694	32727	
1117	0	32666	32719	32773	32836	32717	32749	32583	32771	
1118	0	32751	32717	32807	32834	32775	32743	32628	32749	
1119	0	32761	32774	32727	32751	32767	32647	32684	32799	
1120	0	32740	32733	32805	32731	32719	32751	32518	32748	
1121	0	32722	32738	32647	32769	32711	32644	32735	32562	
1122	0	32761	32500	32827	32742	32731	32775	32695	32775	
1123	0	32839	32740	32635	32762	32775	32757	32775	32690	
1124	0	32822	32660	32722	32775	32783	32663	32574	32755	
1125	0	32823	32583	32737	32662	32694	32790	32742	32826	
1126	0	32741	32747	32603	32748	32679	32735	32711	32638	
1127	0	32782	32775	32711	32743	32717	32715	32695	32759	
1128	0	32722	32703	32692	32745	32713	32703	32687	32775	
1129	0	32805	32721	32719	32749	32709	32623	32535	32743	
1130	0	32748	32567	32705	32763	32675	32775	32593	32626	
1131	0	32820	32639	32804	32843	32667	32623	32734	32823	
1132	0	32805	32567	32795	32745	32791	32679	32719	32822	
1133	0	32764	32738	32859	32794	32756	32634	32773	32695	
1134	0	32737	32786	32663	32773	32773	32743	32647	32775	
1135	0	32745	32591	32800	32695	32757	32725	32539	32826	
1136	0	32756	32714	32671	32831	32676	32577	32719	32583	
1137	0	32759	32645	32739	32711	32671	32723	32671	32715	
1138	0	32762	32791	32619	32719	32767	32725	32690	32835	
1139	0	32684	32775	32719	32677	32773	32670	32661	32532	
1140	0	32766	32726	32601	32789	32756	32760	32431	32691	
1141	0	32745	32751	32692	32783	32759	32681	32711	32835	
1142	0	32789	32533	32589	32726	32663	32774	32647	32639	
1143	0	32758	32689	32679	32719	32647	32693	32705	32815	
1144	0	32827	32775	32786	32783	32711	32658	32561	32828	
1145	0	32843	32647	32726	32759	32746	32731	32581	32571	
1146	0	32764	32711	32887	32757	32711	32699	32715	32743	
1147	0	32822	32567	32836	32817	32715	32627	32587	32775	
1148	0	32817	32751	32903	32711	32757	32673	32647	32607	
1149	0	32817	32695	32822	32783	32658	32643	32543	32767	
1150	0	32704	32775	32903	32743	32614	32734	32730	32813	
1151	0	32725	32725	32935	32743	32666	32764	32655	32757	
1152	0	32769	32771	32800	32747	32626	32775	32577	32821	
1153	0	32774	32629	32679	32843	32759	32621	32773	32607	
1154	0	32743	32743	32751	32797	32759	32703	32631	32727	
1155	0	32829	32707	32706	32809	32775	32641	32676	32774	
1156	0	32761	32736	32711	32785	32769	32707	32525	32647	
1157	0	32748	32775	32590	32759	32663	32743	32663	32739	
1158	0	32746	32754	32847	32773	32610	32647	32623	32753	
1159	0	32754	32742	32767	32793	32679	32758	32677	32775	
1160	0	32754	32511	32775	32835	32671	32679	32647	32567	
1161	0	32703	32659	32591	32719	32677	32718	32635	32658	
1162	0	32743	32631	32730	32773	32759	32727	32572	32871	
1163	0	32738	32743	32719	32761	32695	32655	32749	32571	
1164	0	32739	32659	32659	32733	32679	32725	32619	32749	
1165	0	32735	32591	32511	32773	32707	32623	32613	32854	
1166	0	32769	32695	32511	32807	32766	32594	32615	32599	
1167	0	32738	32751	32647	32709	32698	32735	32689	32763	
1168	0	32837	32662	32687	32765	32775	32647	32637	32815	
1169	0	32783	32727	32606	32667	32633	32719	32612	32684	
1170	0	32798	32540	32607	32775	32655	32731	32671	32681	
1171	0	32791	32691	32615	32775	32764	32673	32642	32751	
1172	0	32752	32607	32758	32769	32719	32723	32621	32759	
1173	0	32734	32703	32638	32819	32747	32640	32530	32583	
1174	0	32740	32756	32866	32749	32794	32741	32647	32742	
1175	0	32740	32617	32833	32799	32690	32679	32703	32759	
1176	0	32754	32683	32879	32765	32647	32733	32631	32581	
1177	0	32726	32621	32793	32751	32696	32727	32455	32818	
1178	0	32731	32835	32873	32815	32764	32639	32578	32739	
1179	0	32746	32775	32895	32743	32818	32700	32719	32583	
1180	0	32698	32570	32941	32804	32783	32751	32663	32759	
1181	0	32739	32684	32935	32771	32679	32686	32674	32711	
1182	0	32718	32694	32749	32683	32683	32743	32539	32551	
1183	0	32708	32791	32729	32703	32770	32655	32551	32721	
1184	0	32718	32747	32733	32711	32711	32679	32646	32735	
1185	0	32738	32711	32631	32823	32814	32590	32710	32767	
1186	0	32749	32775	32671	32756	32658	32671	32633	32577	
1187	0	32849	32639	32722	32827	32759	32669	32626	32787	
1188	0	32802	32731	32805	32767	32748	32751	32615	32855	
1189	0	32775	32535	32631	32807	32699	32647	32743	32647	
1190	0	32764	32660	32799	32755	32603	32765	32540	32759	
1191	0	32775	32647	32734	32725	32683	32745	32751	32775	
1192	0	32727	32745	32810	32767	32775	32689	32694	32645	
1193	0	32708	32767	32708	32734	32793	32727	32639	32589	
1194	0	32831	32711	32871	32743	32732	32647	32703	32815	
1195	0	32821	32763	32831	32683	32694	32727	32691	32885	
1196	0	32790	32795	32679	32797	32767	32567	32566	32626	
1197	0	32791	32835	32791	32718	32762	32743	32575	32772	
1198	0	32721	32687	32735	32781	32671	32644	32766	32796	
1199	0	32764	32775	32623	32751	32612	32719	32750	32707	
1200	0	32769	32569	32749	32767	32793	32709	32646	32735	
1201	0	32731	32775	32708	32847	32706	32629	32710	32814	
1202	0	32775	32758	32783	32723	32707	32703	32655	32574	
1203	0	32768	32510	32660	32749	32755	32766	32571	32775	
1204	0	32834	32695	32711	32767	32819	32722	32751	32765	
1205	0	32773	32681	32579	32695	32661	32771	32681	32615	
1206	0	32686	32677	32524	32797	32775	32677	32721	32759	
1207	0	32718	32711	32491	32695	32775	32758	32711	32820	
1208	0	32727	32613	32661	32815	32756	32670	32683	32726	
1209	0	32762	32715	32786	32844	32795	32687	32479	32759	
1210	0	32713	32722	32868	32775	32813	32735	32698	32788	
1211	0	32764	32595	32946	32714	32721	32727	32703	32731	
1212	0	32770	32562	32815	32775	32723	32659	32572	32773	
1213	0	32814	32679	32675	32822	32703	32646	32835	32555	
1214	0	32768	32758	32823	32703	32731	32763	32690	32769	
1215	0	32708	32546	32829	32727	32708	32729	32719	32759	
1216	0	32732	32662	32964	32823	32743	32647	32567	32746	
1217	0	32727	32707	32963	32775	32751	32715	32820	32834	
1218	0	32772	32535	32806	32679	32743	32717	32711	32579	
1219	0	32735	32724	32713	32723	32751	32687	32719	32743	
1220	0	32800	32667	32827	32717	32787	32743	32509	32815	
1221	0	32740	32679	32731	32742	32655	32763	32555	32564	
1222	0	32751	32677	32691	32725	32663	32596	32740	32743	
1223	0	32742	32579	32591	32679	32697	32711	32682	32893	
1224	0	32721	32748	32758	32773	32733	32684	32597	32658	
1225	0	32715	32727	32588	32759	32795	32735	32694	32614	
1226	0	32763	32572	32706	32757	32691	32694	32535	32727	
1227	0	32721	32719	32670	32775	32647	32582	32597	32855	
1228	0	32775	32539	32775	32711	32775	32647	32705	32659	
1229	0	32782	32709	32850	32759	32789	32695	32637	32719	
1230	0	32756	32702	32939	32711	32771	32625	32658	32775	
1231	0	32766	32574	32868	32739	32687	32756	32527	32643	
1232	0	32700	32764	32811	32743	32743	32742	32735	32837	
1233	0	32798	32730	32911	32791	32747	32641	32695	32867	
1234	0	32743	32515	32927	32703	32613	32756	32738	32685	
1235	0	32761	32642	32914	32770	32750	32655	32717	32735	
1236	0	32807	32763	32791	32789	32775	32666	32509	32834	
1237	0	32782	32612	32855	32724	32765	32713	32765	32631	
1238	0	32804	32701	32631	32767	32743	32663	32697	32530	
1239	0	32804	32695	32621	32695	32759	32647	32714	32769	
1240	0	32793	32715	32479	32666	32675	32706	32587	32775	
1241	0	32682	32751	32663	32711	32635	32647	32617	32573	
1242	0	32761	32575	32747	32727	32811	32730	32739	32751	
1243	0	32754	32773	32775	32756	32775	32786	32756	32863	
1244	0	32747	32738	32610	32727	32753	32663	32511	32621	
1245	0	32759	32626	32670	32767	32735	32735	32733	32783	
1246	0	32763	32763	32789	32735	32756	32766	32722	32815	
1247	0	32710	32669	32684	32846	32671	32678	32679	32599	
1248	0	32747	32511	32641	32759	32683	32735	32603	32761	
1249	0	32784	32695	32429	32756	32705	32695	32775	32827	
1250	0	32748	32746	32543	32803	32775	32687	32617	32622	
1251	0	32719	32755	32574	32772	32718	32749	32663	32775	
1252	0	32773	32743	32732	32791	32767	32639	32573	32775	
1253	0	32701	32517	32694	32884	32679	32759	32611	32735	
1254	0	32740	32717	32917	32679	32732	32826	32695	32607	
1255	0	32735	32575	32910	32743	32727	32617	32641	32753	
1256	0	32773	32764	32961	32667	32809	32764	32670	32875	
1257	0	32778	32813	32927	32666	32729	32631	32605	32801	
1258	0	32825	32787	32827	32735	32727	32670	32637	32597	
1259	0	32775	32755	32875	32775	32702	32679	32734	32761	
1260	0	32836	32574	32749	32701	32775	32737	32668	32695	
1261	0	32755	32647	32833	32673	32647	32769	32678	32733	
1262	0	32807	32591	32871	32795	32726	32690	32707	32555	
1263	0	32773	32730	32717	32711	32647	32729	32548	32750	
1264	0	32764	32598	32911	32751	32722	32640	32775	32759	
1265	0	32814	32643	32791	32727	32742	32711	32647	32749	
1266	0	32742	32671	32850	32762	32627	32786	32702	32557	
1267	0	32726	32586	32633	32751	32750	32639	32603	32722	
1268	0	32763	32770	32842	32831	32754	32703	32580	32825	
1269	0	32729	32833	32676	32729	32718	32730	32691	32611	
1270	0	32709	32647	32775	32757	32663	32683	32708	32826	
1271	0	32774	32579	32802	32763	32767	32663	32743	32613	
1272	0	32749	32719	32677	32746	32775	32731	32719	32718	
1273	0	32847	32658	32755	32764	32800	32664	32615	32811	
1274	0	32765	32687	32695	32758	32716	32715	32647	32636	
1275	0	32712	32681	32705	32766	32729	32703	32492	32786	
1276	0	32727	32627	32647	32749	32735	32617	32703	32878	
1277	0	32779	32647	32699	32820	32737	32705	32635	32647	
1278	0	32801	32748	32583	32775	32783	32736	32559	32827	
1279	0	32767	32785	32614	32727	32723	32703	32589	32707	
1280	0	32721	32711	32725	32815	32726	32767	32699	32613	
1281	0	32747	32685	32763	32762	32737	32751	32690	32775	
1282	0	32735	32511	32734	32711	32659	32655	32759	32854	
1283	0	32775	32730	32609	32748	32683	32742	32543	32599	
1284	0	32725	32711	32621	32731	32788	32791	32775	32775	
1285	0	32756	32605	32757	32805	32771	32687	32775	32879	
1286	0	32781	32679	32687	32727	32749	32711	32732	32735	
1287	0	32790	32589	32699	32767	32635	32635	32533	32589	
1288	0	32796	32695	32751	32765	32683	32775	32799	32742	
1289	0	32781	32751	32867	32743	32694	32695	32703	32835	
1290	0	32791	32567	32789	32764	32730	32655	32556	32786	
1291	0	32846	32698	32727	32787	32711	32741	32734	32775	
1292	0	32836	32783	32851	32743	32807	32659	32577	32671	
1293	0	32765	32727	32695	32771	32715	32639	32621	32629	
1294	0	32753	32759	32741	32725	32751	32719	32583	32733	
1295	0	32716	32588	32694	32783	32750	32662	32802	32827	
1296	0	32775	32695	32746	32706	32717	32686	32684	32597	
1297	0	32785	32548	32743	32639	32749	32647	32613	32687	
1298	0	32732	32693	32743	32692	32684	32759	32647	32745	
1299	0	32785	32587	32717	32731	32775	32787	32727	32839	
1300	0	32711	32786	32871	32795	32711	32691	32543	32619	
1301	0	32716	32755	32826	32759	32671	32723	32591	32719	
1302	0	32743	32711	32811	32831	32645	32658	32636	32790	
1303	0	32751	32708	32925	32775	32733	32706	32612	32679	
1304	0	32773	32607	32903	32731	32807	32775	32702	32710	
1305	0	32718	32669	32854	32751	32775	32647	32607	32764	
1306	0	32736	32702	32895	32736	32775	32828	32807	32645	
1307	0	32756	32661	32647	32767	32677	32719	32681	32735	
1308	0	32743	32775	32643	32724	32647	32632	32671	32799	
1309	0	32705	32797	32839	32710	32711	32745	32514	32665	
1310	0	32749	32598	32765	32775	32759	32695	32539	32699	
1311	0	32740	32735	32799	32699	32763	32722	32739	32803	
1312	0	32786	32835	32607	32758	32715	32711	32642	32727	
1313	0	32833	32671	32748	32667	32694	32579	32647	32543	
1314	0	32797	32647	32743	32691	32759	32706	32644	32791	
1315	0	32775	32583	32621	32742	32790	32707	32559	32861	
1316	0	32747	32683	32617	32749	32712	32647	32567	32641	
1317	0	32767	32639	32534	32819	32773	32738	32719	32708	
1318	0	32763	32694	32695	32743	32691	32702	32629	32749	
1319	0	32815	32730	32691	32751	32751	32695	32695	32767	
1320	0	32796	32493	32807	32759	32748	32638	32759	32583	
1321	0	32727	32759	32727	32706	32717	32718	32586	32790	
1322	0	32765	32671	32797	32759	32739	32634	32581	32853	
1323	0	32723	32727	32815	32725	32631	32719	32764	32700	
1324	0	32734	32719	32975	32795	32791	32772	32707	32743	
1325	0	32758	32548	32885	32791	32807	32703	32694	32799	
1326	0	32809	32773	32738	32727	32754	32759	32543	32652	
1327	0	32783	32757	32831	32815	32711	32807	32751	32738	
1328	0	32791	32516	32726	32765	32687	32676	32659	32829	
1329	0	32783	32772	32853	32787	32639	32731	32557	32583	
1330	0	32751	32751	32765	32818	32673	32647	32759	32787	
1331	0	32742	32567	32621	32795	32749	32703	32686	32839	
1332	0	32702	32723	32619	32818	32759	32675	32671	32627	
1333	0	32734	32634	32805	32775	32817	32609	32491	32773	
1334	0	32755	32829	32751	32807	32667	32739	32548	32775	
1335	0	32775	32743	32665	32711	32762	32642	32719	32715	
1336	0	32769	32647	32660	32731	32807	32735	32630	32756	
1337	0	32784	32773	32771	32721	32694	32738	32709	32850	
1338	0	32767	32647	32815	32691	32731	32639	32549	32675	
1339	0	32745	32812	32855	32797	32747	32763	32577	32735	
1340	0	32806	32711	32838	32787	32663	32637	32700	32775	
1341	0	32783	32640	32663	32743	32657	32759	32628	32741	
1342	0	32745	32716	32726	32829	32721	32719	32647	32775	
1343	0	32721	32691	32755	32791	32727	32612	32607	32775	
1344	0	32694	32515	32683	32787	32755	32709	32711	32677	
1345	0	32720	32767	32763	32775	32711	32811	32695	32644	
1346	0	32724	32739	32623	32662	32669	32671	32662	32725	
1347	0	32783	32623	32740	32775	32612	32741	32489	32743	
1348	0	32803	32709	32685	32706	32721	32647	32524	32631	
1349	0	32704	32580	32763	32735	32759	32711	32715	32799	
1350	0	32681	32711	32663	32691	32695	32639	32733	32803	
1351	0	32691	32599	32775	32726	32692	32717	32707	32887	
1352	0	32775	32695	32786	32662	32791	32679	32718	32647	
1353	0	32701	32767	32738	32796	32739	32751	32644	32735	
1354	0	32724	32567	32701	32757	32775	32755	32725	32860	
1355	0	32733	32687	32573	32719	32788	32674	32538	32607	
1356	0	32766	32709	32508	32775	32671	32615	32707	32843	
1357	0	32780	32633	32635	32711	32675	32765	32583	32613	
1358	0	32735	32747	32597	32723	32653	32757	32607	32785	
1359	0	32705	32667	32694	32775	32717	32611	32543	32743	
1360	0	32724	32647	32845	32781	32742	32707	32725	32766	
1361	0	32743	32667	32923	32753	32773	32711	32665	32791	
1362	0	32781	32701	32903	32707	32775	32679	32501	32590	
1363	0	32775	32631	32735	32790	32738	32683	32759	32757	
1364	0	32793	32591	32775	32698	32757	32709	32639	32738	
1365	0	32818	32647	32948	32658	32815	32647	32739	32547	
1366	0	32852	32543	32892	32751	32687	32727	32505	32725	
1367	0	32812	32711	32951	32715	32709	32703	32503	32791	
1368	0	32782	32775	32807	32815	32771	32607	32685	32635	
1369	0	32798	32626	32676	32771	32727	32685	32719	32775	
1370	0	32769	32734	32683	32751	32743	32658	32788	32709	
1371	0	32772	32739	32725	32775	32716	32691	32572	32745	
1372	0	32775	32551	32602	32759	32700	32685	32775	32799	
1373	0	32852	32691	32775	32767	32797	32737	32615	32587	
1374	0	32779	32553	32605	32791	32693	32607	32647	32711	
1375	0	32783	32703	32679	32771	32662	32775	32726	32797	
1376	0	32791	32647	32785	32770	32705	32727	32612	32557	
1377	0	32758	32535	32823	32799	32711	32629	32617	32715	
1378	0	32749	32799	32767	32789	32725	32755	32703	32823	
1379	0	32735	32763	32647	32783	32687	32715	32681	32625	
1380	0	32775	32555	32579	32795	32676	32647	32679	32733	
1381	0	32725	32695	32685	32741	32695	32743	32652	32775	
1382	0	32771	32807	32685	32872	32747	32615	32623	32663	
1383	0	32692	32573	32799	32815	32741	32675	32743	32751	
1384	0	32751	32718	32823	32703	32783	32731	32711	32833	
1385	0	32757	32708	32647	32703	32826	32639	32675	32627	
1386	0	32767	32631	32875	32687	32658	32799	32621	32754	
1387	0	32807	32696	32823	32739	32655	32775	32532	32815	
1388	0	32724	32533	32871	32719	32774	32699	32583	32601	
1389	0	32759	32711	32807	32799	32765	32751	32734	32686	
1390	0	32789	32711	32869	32821	32827	32647	32632	32839	
1391	0	32762	32646	32704	32715	32711	32706	32747	32599	
1392	0	32759	32703	32807	32771	32683	32703	32549	32766	
1393	0	32790	32726	32711	32692	32661	32663	32717	32797	
1394	0	32791	32541	32647	32769	32767	32743	32749	32775	
1395	0	32790	32725	32601	32806	32735	32708	32693	32775	
1396	0	32830	32727	32759	32806	32709	32671	32695	32787	
1397	0	32767	32647	32709	32793	32718	32726	32465	32614	
1398	0	32822	32711	32697	32815	32591	32695	32710	32751	
1399	0	32784	32703	32738	32743	32662	32719	32586	32690	
1400	0	32788	32790	32743	32759	32786	32639	32597	32807	
1401	0	32750	32579	32711	32710	32643	32690	32739	32607	
1402	0	32743	32747	32567	32815	32601	32775	32615	32732	
1403	0	32753	32711	32501	32708	32727	32671	32643	32876	
1404	0	32734	32706	32775	32751	32773	32795	32569	32647	
1405	0	32703	32727	32759	32718	32797	32607	32743	32719	
1406	0	32761	32549	32834	32719	32655	32751	32660	32775	
1407	0	32751	32789	32789	32807	32719	32747	32703	32596	
1408	0	32788	32725	32762	32667	32775	32599	32738	32775	
1409	0	32763	32615	32767	32639	32639	32771	32562	32834	
1410	0	32689	32748	32894	32834	32743	32717	32783	32671	
1411	0	32748	32701	32797	32773	32727	32645	32757	32785	
1412	0	32742	32669	32852	32765	32807	32743	32669	32647	
1413	0	32860	32709	32790	32751	32725	32711	32647	32783	
1414	0	32839	32727	32711	32770	32758	32647	32583	32826	
1415	0	32785	32772	32647	32722	32763	32704	32711	32583	
1416	0	32746	32727	32669	32807	32699	32666	32627	32755	
1417	0	32735	32739	32762	32759	32647	32679	32669	32767	
1418	0	32716	32571	32796	32759	32740	32682	32661	32743	
1419	0	32762	32823	32815	32775	32797	32798	32515	32755	
1420	0	32742	32781	32863	32747	32762	32647	32751	32657	
1421	0	32731	32529	32756	32735	32755	32695	32719	32787	
1422	0	32709	32695	32671	32797	32811	32740	32698	32871	
1423	0	32768	32623	32662	32700	32692	32621	32670	32724	
1424	0	32804	32757	32675	32749	32695	32739	32685	32715	
1425	0	32761	32679	32727	32821	32787	32743	32532	32847	
1426	0	32738	32738	32843	32749	32755	32671	32647	32743	
1427	0	32786	32513	32749	32694	32775	32668	32586	32839	
1428	0	32807	32694	32759	32754	32725	32707	32705	32572	
1429	0	32773	32710	32891	32803	32671	32762	32543	32786	
1430	0	32757	32500	32955	32735	32743	32622	32735	32612	
1431	0	32739	32751	32924	32687	32735	32799	32751	32775	
1432	0	32785	32681	32887	32812	32751	32647	32647	32819	
1433	0	32734	32589	32847	32723	32742	32655	32604	32575	
1434	0	32742	32703	32807	32662	32644	32647	32565	32836	
1435	0	32719	32717	32647	32747	32647	32715	32727	32572	
1436	0	32691	32802	32564	32794	32638	32786	32695	32743	
1437	0	32713	32601	32687	32751	32769	32627	32511	32805	
1438	0	32696	32751	32770	32710	32815	32758	32807	32781	
1439	0	32708	32775	32685	32822	32749	32751	32739	32807	
1440	0	32729	32628	32719	32759	32722	32647	32626	32692	
1441	0	32720	32698	32543	32811	32676	32727	32707	32721	
1442	0	32740	32588	32669	32783	32647	32647	32567	32842	
1443	0	32717	32767	32690	32719	32775	32765	32507	32686	
1444	0	32831	32775	32773	32711	32679	32756	32745	32671	
1445	0	32836	32571	32767	32676	32775	32663	32663	32807	
1446	0	32753	32775	32587	32743	32707	32677	32717	32615	
1447	0	32754	32722	32551	32838	32647	32727	32607	32775	
1448	0	32774	32579	32749	32804	32759	32710	32533	32677	
1449	0	32728	32671	32805	32719	32655	32671	32693	32745	
1450	0	32763	32741	32665	32799	32659	32715	32647	32813	
1451	0	32797	32763	32711	32809	32711	32683	32703	32729	
1452	0	32802	32549	32751	32766	32715	32681	32549	32823	
1453	0	32713	32789	32819	32809	32763	32660	32503	32614	
1454	0	32762	32705	32751	32823	32775	32722	32711	32731	
1455	0	32770	32743	32687	32815	32727	32796	32642	32655	
1456	0	32730	32583	32681	32791	32647	32693	32639	32742	
1457	0	32805	32797	32827	32866	32732	32679	32603	32807	
1458	0	32758	32718	32865	32775	32738	32756	32799	32757	
1459	0	32775	32731	32839	32711	32807	32799	32757	32818	
1460	0	32809	32623	32759	32687	32814	32644	32655	32655	
1461	0	32772	32775	32764	32806	32695	32669	32756	32858	
1462	0	32684	32743	32743	32775	32812	32755	32685	32642	
1463	0	32710	32845	32821	32761	32683	32715	32715	32761	
1464	0	32749	32561	32825	32716	32684	32647	32699	32715	
1465	0	32760	32795	32823	32677	32671	32619	32479	32753	
1466	0	32806	32775	32781	32758	32663	32767	32755	32719	
1467	0	32818	32799	32775	32726	32725	32733	32688	32715	
1468	0	32795	32607	32663	32663	32735	32647	32685	32775	
1469	0	32790	32739	32786	32743	32725	32734	32612	32583	
1470	0	32781	32647	32690	32708	32747	32748	32558	32759	
1471	0	32824	32703	32689	32719	32743	32662	32796	32795	
1472	0	32763	32719	32717	32839	32775	32731	32765	32612	
1473	0	32748	32626	32751	32743	32822	32757	32593	32795	
1474	0	32718	32799	32607	32786	32646	32689	32671	32847	
1475	0	32734	32715	32789	32767	32737	32679	32679	32647	
1476	0	32784	32573	32759	32789	32711	32643	32557	32801	
1477	0	32765	32719	32735	32751	32806	32771	32487	32858	
1478	0	32767	32571	32696	32693	32690	32762	32762	32611	
1479	0	32775	32763	32751	32791	32667	32639	32751	32790	
1480	0	32759	32754	32663	32803	32749	32707	32602	32797	
1481	0	32760	32685	32749	32749	32807	32629	32699	32647	
1482	0	32746	32699	32815	32695	32809	32756	32571	32695	
1483	0	32793	32750	32607	32707	32627	32757	32470	32858	
1484	0	32798	32615	32761	32855	32681	32647	32548	32727	
1485	0	32783	32695	32698	32786	32727	32743	32617	32794	
1486	0	32833	32595	32775	32828	32731	32645	32751	32765	
1487	0	32806	32679	32611	32762	32775	32787	32675	32749	
1488	0	32740	32631	32636	32735	32685	32754	32606	32646	
1489	0	32711	32606	32749	32787	32630	32642	32719	32814	
1490	0	32765	32705	32702	32763	32722	32743	32623	32887	
1491	0	32735	32552	32751	32786	32733	32627	32639	32643	
1492	0	32801	32739	32629	32732	32695	32646	32583	32772	
1493	0	32766	32689	32767	32683	32740	32699	32787	32828	
1494	0	32806	32619	32815	32791	32691	32630	32757	32743	
1495	0	32790	32617	32795	32789	32719	32639	32564	32827	
1496	0	32734	32719	32747	32770	32711	32748	32601	32623	
1497	0	32797	32791	32871	32775	32715	32711	32717	32709	
1498	0	32781	32613	32823	32767	32813	32659	32663	32719	
1499	0	32692	32737	32763	32742	32743	32766	32710	32755	
1500	0	32719	32675	32743	32794	32711	32747	32579	32845	
1501	0	32729	32605	32791	32799	32730	32647	32562	32605	
1502	0	32692	32759	32836	32769	32775	32738	32703	32715	
1503	0	32719	32775	32852	32695	32739	32681	32629	32807	
1504	0	32751	32583	32727	32804	32735	32729	32654	32549	
1505	0	32782	32747	32846	32731	32647	32663	32534	32775	
1506	0	32746	32701	32791	32685	32706	32735	32559	32707	
1507	0	32789	32523	32633	32773	32733	32671	32759	32743	
1508	0	32775	32747	32762	32691	32714	32755	32605	32687	
1509	0	32774	32775	32799	32719	32731	32765	32631	32613	
1510	0	32858	32559	32625	32762	32767	32647	32639	32701	
1511	0	32789	32717	32685	32725	32647	32643	32561	32747	
1512	0	32696	32711	32752	32693	32647	32739	32724	32555	
1513	0	32742	32501	32655	32767	32711	32775	32647	32679	
1514	0	32699	32646	32694	32734	32762	32647	32583	32782	
1515	0	32726	32703	32773	32711	32763	32741	32578	32566	
1516	0	32683	32523	32766	32769	32743	32727	32473	32749	
1517	0	32751	32717	32767	32703	32799	32621	32791	32675	
1518	0	32722	32775	32861	32745	32700	32746	32703	32699	
1519	0	32741	32615	32708	32775	32662	32709	32735	32807	
1520	0	32819	32655	32727	32726	32743	32641	32611	32647	
1521	0	32742	32701	32719	32751	32681	32666	32713	32775	
1522	0	32716	32567	32794	32812	32775	32749	32667	32871	
1523	0	32735	32711	32655	32743	32707	32719	32634	32647	
1524	0	32722	32741	32733	32775	32743	32637	32642	32783	
1525	0	32734	32647	32756	32756	32775	32775	32503	32814	
1526	0	32742	32694	32798	32749	32799	32747	32713	32571	
1527	0	32751	32677	32620	32711	32789	32604	32775	32839	
1528	0	32757	32783	32711	32801	32700	32637	32639	32623	
1529	0	32706	32603	32711	32743	32694	32799	32595	32743	
1530	0	32746	32786	32797	32719	32647	32707	32795	32749	
1531	0	32736	32791	32719	32711	32685	32747	32738	32759	
1532	0	32759	32591	32775	32799	32672	32727	32695	32863	
1533	0	32705	32695	32748	32771	32701	32719	32555	32668	
1534	0	32687	32710	32775	32797	32646	32757	32823	32830	
1535	0	32772	32765	32631	32815	32647	32655	32690	32839	
1536	0	32794	32643	32835	32795	32791	32629	32598	32799	
1537	0	32775	32775	32742	32775	32749	32741	32631	32887	
1538	0	32731	32742	32644	32743	32731	32783	32507	32659	
1539	0	32783	32525	32731	32837	32699	32711	32676	32732	
1540	0	32718	32717	32738	32769	32759	32719	32643	32783	
1541	0	32782	32687	32643	32787	32773	32725	32679	32589	
1542	0	32785	32450	32787	32811	32733	32663	32642	32743	
1543	0	32687	32722	32813	32800	32695	32725	32580	32623	
1544	0	32765	32678	32727	32721	32695	32711	32740	32747	
1545	0	32712	32804	32730	32811	32751	32711	32598	32662	
1546	0	32770	32571	32749	32862	32811	32637	32635	32695	
1547	0	32764	32775	32663	32762	32751	32718	32559	32819	
1548	0	32780	32723	32470	32754	32715	32741	32775	32594	
1549	0	32751	32487	32631	32754	32725	32607	32623	32775	
1550	0	32765	32751	32767	32717	32751	32639	32677	32807	
1551	0	32769	32671	32799	32652	32775	32699	32575	32751	
1552	0	32772	32771	32854	32717	32803	32705	32751	32886	
1553	0	32824	32647	33047	32659	32681	32636	32677	32751	
1554	0	32858	32661	32997	32739	32658	32722	32775	32804	
1555	0	32766	32757	32855	32814	32653	32687	32694	32869	
1556	0	32802	32687	32901	32807	32718	32582	32655	32674	
1557	0	32821	32683	32935	32758	32731	32709	32603	32786	
1558	0	32787	32806	32887	32754	32693	32734	32798	32837	
1559	0	32789	32733	32877	32759	32747	32645	32743	32567	
1560	0	32828	32725	32767	32815	32611	32719	32623	32754	
1561	0	32746	32643	32775	32733	32663	32724	32695	32889	
1562	0	32799	32767	32775	32695	32758	32631	32607	32567	
1563	0	32756	32701	32671	32796	32749	32734	32482	32803	
1564	0	32795	32629	32714	32763	32737	32765	32557	32711	
1565	0	32773	32771	32716	32751	32771	32589	32677	32686	
1566	0	32785	32739	32607	32817	32686	32766	32628	32819	
1567	0	32738	32603	32735	32691	32635	32742	32655	32669	
1568	0	32786	32819	32629	32766	32737	32642	32623	32639	
1569	0	32736	32749	32706	32767	32786	32693	32634	32795	
1570	0	32765	32581	32687	32707	32743	32763	32639	32636	
1571	0	32765	32735	32615	32741	32743	32634	32607	32825	
1572	0	32769	32695	32775	32787	32719	32719	32753	32727	
1573	0	32749	32647	32765	32747	32759	32788	32655	32724	
1574	0	32690	32569	32711	32695	32767	32677	32743	32849	
1575	0	32775	32743	32695	32799	32827	32789	32663	32605	
1576	0	32719	32658	32787	32711	32699	32679	32525	32731	
1577	0	32710	32676	32813	32711	32721	32748	32739	32627	
1578	0	32742	32676	32711	32780	32765	32681	32655	32739	
1579	0	32713	32643	32781	32695	32822	32742	32647	32852	
1580	0	32722	32703	32751	32707	32797	32629	32721	32673	
1581	0	32775	32703	32775	32756	32695	32730	32685	32807	
1582	0	32762	32643	32647	32715	32758	32695	32527	32805	
1583	0	32724	32687	32799	32747	32755	32671	32516	32597	
1584	0	32745	32703	32757	32775	32684	32775	32519	32677	
1585	0	32764	32702	32831	32675	32686	32751	32711	32791	
1586	0	32858	32647	32775	32807	32663	32653	32679	32663	
1587	0	32740	32724	32713	32775	32671	32750	32695	32734	
1588	0	32797	32699	32667	32706	32764	32747	32533	32811	
1589	0	32827	32775	32775	32789	32781	32683	32647	32613	
1590	0	32844	32697	32685	32759	32731	32730	32799	32807	
1591	0	32775	32703	32789	32715	32751	32749	32663	32917	
1592	0	32747	32555	32703	32796	32715	32663	32679	32631	
1593	0	32754	32715	32775	32713	32705	32818	32623	32786	
1594	0	32759	32786	32740	32802	32775	32743	32587	32919	
1595	0	32740	32639	32775	32783	32807	32667	32683	32605	
1596	0	32759	32670	32771	32769	32727	32743	32711	32711	
1597	0	32851	32749	32587	32806	32783	32738	32711	32789	
1598	0	32773	32583	32587	32823	32757	32671	32539	32687	
1599	0	32743	32773	32887	32756	32679	32721	32575	32806	
1600	0	32732	32759	32696	32719	32646	32769	32690	32695	
1601	0	32754	32571	32772	32757	32663	32630	32509	32763	
1602	0	32775	32797	32706	32703	32758	32769	32631	32775	
1603	0	32793	32710	32612	32711	32703	32686	32743	32827	
1604	0	32761	32583	32765	32733	32751	32711	32599	32622	
1605	0	32751	32695	32871	32717	32635	32725	32647	32775	
1606	0	32695	32775	32787	32765	32645	32591	32674	32816	
1607	0	32758	32603	32687	32707	32699	32692	32673	32595	
1608	0	32757	32703	32767	32735	32775	32642	32706	32773	
1609	0	32735	32718	32871	32754	32669	32705	32503	32758	
1610	0	32741	32572	32891	32707	32773	32775	32773	32759	
1611	0	32791	32719	32845	32732	32698	32755	32698	32805	
1612	0	32725	32679	32925	32775	32751	32613	32575	32583	
1613	0	32764	32486	32775	32742	32811	32751	32555	32703	
1614	0	32852	32721	32677	32765	32710	32689	32759	32814	
1615	0	32825	32759	32775	32827	32668	32668	32646	32553	
1616	0	32772	32735	32701	32851	32743	32711	32564	32802	
1617	0	32771	32690	32855	32812	32791	32632	32742	32775	
1618	0	32754	32709	32710	32783	32764	32703	32567	32655	
1619	0	32759	32633	32735	32692	32765	32700	32588	32635	
1620	0	32727	32655	32799	32709	32773	32666	32770	32771	
1621	0	32698	32726	32641	32750	32699	32749	32599	32695	
1622	0	32734	32603	32735	32731	32692	32685	32711	32720	
1623	0	32751	32647	32698	32749	32666	32627	32487	32767	
1624	0	32783	32743	32612	32785	32703	32749	32629	32703	
1625	0	32815	32715	32782	32716	32735	32807	32833	32601	
1626	0	32718	32742	32675	32726	32739	32679	32709	32755	
1627	0	32744	32582	32711	32775	32683	32692	32645	32883	
1628	0	32767	32747	32659	32676	32647	32682	32687	32579	
1629	0	32806	32775	32799	32789	32682	32741	32677	32713	
1630	0	32775	32621	32694	32743	32722	32685	32615	32843	
1631	0	32765	32785	32693	32736	32709	32617	32695	32628	
1632	0	32731	32711	32736	32820	32731	32647	32733	32763	
1633	0	32716	32587	32799	32791	32715	32695	32643	32787	
1634	0	32799	32802	32660	32735	32677	32659	32507	32617	
1635	0	32742	32799	32829	32820	32611	32678	32563	32791	
1636	0	32767	32623	32795	32773	32655	32646	32717	32791	
1637	0	32820	32773	32667	32791	32717	32759	32679	32807	
1638	0	32865	32823	32695	32795	32677	32583	32687	32915	
1639	0	32877	32746	32719	32772	32717	32647	32595	32703	
1640	0	32885	32911	32635	32715	32735	32647	32593	32855	
1641	0	32823	32843	32783	32837	32725	32719	32647	32991	
1642	0	32914	32642	32661	32801	32699	32771	32732	32670	
1643	0	32898	32775	32686	32703	32676	32715	32709	32844	
1644	0	32878	32862	32647	32719	32759	32767	32683	32941	
1645	0	32839	32775	32599	32765	32775	32667	32695	32743	
1646	0	32875	32783	32692	32823	32743	32749	32803	32831	
1647	0	32927	32658	32739	32731	32819	32767	32831	32893	
1648	0	32918	32759	32866	32676	32751	32708	32742	32679	
1649	0	32872	32678	32941	32685	32745	32647	32871	32849	
1650	0	32837	32767	32903	32725	32757	32815	32850	32725	
1651	0	32812	32591	32903	32690	32717	32839	32795	32791	
1652	0	32828	32643	33095	32647	32763	32677	32736	32807	
1653	0	32806	32677	33135	32716	32775	32743	32595	32495	
1654	0	32774	32519	32991	32663	32797	32734	32775	32687	
1655	0	32721	32623	32951	32668	32862	32707	32645	32509	
1656	0	32782	32639	32903	32751	32815	32709	32698	32679	
1657	0	32790	32587	33015	32796	32839	32757	32553	32529	
1658	0	32799	32556	33005	32690	32815	32823	32535	32669	
1659	0	32796	32579	32869	32695	32859	32709	32747	32735	
1660	0	32729	32623	32899	32738	32844	32783	32613	32479	
1661	0	32677	32553	33007	32687	32837	32717	32647	32647	
1662	0	32668	32548	32927	32670	32757	32767	32575	32571	
1663	0	32671	32582	33050	32735	32855	32859	32597	32647	
1664	0	32647	32431	33111	32659	32926	32903	32793	32818	
1665	0	32703	32551	33027	32615	32903	32719	32641	32519	
1666	0	32691	32621	32831	32718	32941	32925	32773	32663	
1667	0	32732	32357	32966	32595	32887	32898	32676	32679	
1668	0	32658	32537	32847	32591	32851	32835	32543	32637	
1669	0	32598	32595	32813	32647	32805	32821	32759	32739	
1670	0	32532	32403	32726	32647	32749	32786	32621	32443	
1671	0	32487	32598	32630	32797	32658	32647	32375	32527	
1672	0	32310	32551	32537	32903	32679	32695	32109	32555	
1673	0	32277	32698	32545	32932	32575	32515	31927	32167	
1674	0	32313	32719	32420	32997	32468	32592	31959	32343	
1675	0	32253	32799	32381	33027	32437	32543	31873	32413	
1676	0	32282	32719	32159	33013	32462	32405	31823	32306	
1677	0	32342	32732	32314	32983	32519	32523	31997	32446	
1678	0	32342	32599	32219	32927	32506	32477	32263	32591	
1679	0	32417	32791	32190	32996	32454	32611	32415	32474	
1680	0	32491	32604	32295	32850	32493	32634	32487	32509	
1681	0	32559	32711	32298	32847	32533	32636	32583	32757	
1682	0	32589	32639	32390	32819	32613	32659	32594	32865	
1683	0	32557	32687	32349	32791	32667	32631	32540	32599	
1684	0	32630	32711	32530	32889	32587	32727	32621	32769	
1685	0	32683	32705	32590	32823	32519	32687	32507	32845	
1686	0	32775	32759	32686	32799	32578	32611	32749	32871	
1687	0	32802	32798	32831	32815	32679	32703	32727	32798	
1688	0	32871	32617	32789	32798	32659	32575	32676	32874	
1689	0	32861	32854	32851	32819	32735	32703	32786	32743	
1690	0	32894	32735	32833	32767	32643	32699	32765	32896	
1691	0	32838	32805	32893	32755	32607	32567	32643	33029	
1692	0	32845	32809	32759	32827	32685	32679	32663	32726	
1693	0	32842	32708	32831	32799	32735	32663	32879	32879	
1694	0	32766	32691	32845	32813	32669	32551	32751	32869	
1695	0	32728	32725	32854	32903	32708	32679	32643	32599	
1696	0	32786	32551	32675	32829	32639	32627	32627	32821	
1697	0	32786	32754	32751	32873	32679	32603	32715	32850	
1698	0	32850	32614	32742	32817	32667	32597	32727	32979	
1699	0	32950	32859	32747	32933	32684	32687	32897	32775	
1700	0	32966	32927	32591	32775	32756	32709	32956	32963	
1701	0	33031	32828	32695	32795	32687	32583	32949	33060	
1702	0	33074	32795	32775	32697	32764	32735	32839	32903	
1703	0	33116	32703	32759	32679	32799	32739	32843	32873	
1704	0	33159	32731	32829	32591	32715	32819	32877	32996	
1705	0	33127	32690	32923	32521	32711	32731	32999	33035	
1706	0	33143	32708	32821	32564	32775	32791	33123	32819	
1707	0	33183	32687	32759	32521	32775	32732	33121	33015	
1708	0	33095	32749	32945	32547	32794	32858	33035	33073	
1709	0	33141	32743	32921	32559	32852	32855	33086	32833	
1710	0	33010	32647	32918	32507	32831	32743	32918	32957	
1711	0	33065	32869	32897	32578	32719	32831	32967	32994	
1712	0	33055	32821	32819	32611	32775	32815	33191	32913	
1713	0	33108	32715	32950	32597	32871	32775	33015	33000	
1714	0	33069	32871	32967	32629	32827	32824	33015	32807	
1715	0	33039	32885	32855	32674	32775	32868	33015	32951	
1716	0	33005	32831	32828	32689	32823	32681	32927	32903	
1717	0	32958	32838	32755	32738	32775	32742	32813	32885	
1718	0	32935	32647	32867	32700	32725	32727	32751	32679	
1719	0	32842	32695	32827	32775	32845	32775	32789	32823	
1720	0	32793	32723	32851	32742	32757	32799	32767	32839	
1721	0	32788	32695	32823	32655	32735	32639	32527	32735	
1722	0	32797	32702	32739	32691	32791	32727	32670	32787	
1723	0	32808	32643	32751	32735	32795	32813	32631	32611	
1724	0	32689	32738	32747	32714	32719	32691	32583	32661	
1725	0	32718	32789	32774	32807	32719	32733	32483	32702	
1726	0	32671	32603	32788	32711	32809	32799	32658	32626	
1727	0	32743	32783	32647	32711	32767	32639	32538	32674	
1728	0	32699	32733	32775	32743	32765	32804	32529	32758	
1729	0	32677	32743	32767	32818	32775	32751	32611	32566	
1730	0	32695	32690	32793	32743	32710	32655	32415	32655	
1731	0	32684	32559	32751	32809	32729	32722	32418	32683	
1732	0	32700	32673	32855	32758	32701	32645	32639	32734	
1733	0	32742	32479	32687	32795	32806	32711	32598	32487	
1734	0	32610	32631	32759	32775	32698	32738	32482	32681	
1735	0	32716	32716	32584	32771	32642	32621	32591	32723	
1736	0	32620	32676	32742	32795	32812	32743	32428	32549	
1737	0	32672	32695	32631	32801	32726	32662	32557	32692	
1738	0	32604	32591	32708	32867	32773	32745	32593	32764	
1739	0	32673	32595	32658	32803	32699	32708	32531	32775	
1740	0	32684	32487	32674	32773	32733	32669	32564	32501	
1741	0	32623	32633	32759	32835	32719	32721	32602	32615	
1742	0	32676	32598	32662	32719	32711	32647	32459	32828	
1743	0	32591	32694	32627	32775	32679	32677	32669	32553	
1744	0	32645	32609	32711	32813	32787	32743	32553	32720	
1745	0	32747	32581	32855	32740	32705	32647	32637	32751	
1746	0	32722	32695	32795	32769	32710	32687	32475	32601	
1747	0	32710	32716	32815	32835	32679	32685	32755	32741	
1748	0	32784	32638	32757	32767	32732	32701	32566	32747	
1749	0	32714	32716	32794	32791	32765	32715	32659	32591	
1750	0	32704	32725	32788	32811	32772	32751	32580	32742	
1751	0	32739	32706	32787	32791	32697	32711	32500	32754	
1752	0	32761	32667	32717	32749	32681	32727	32718	32706	
1753	0	32760	32611	32775	32757	32743	32639	32638	32545	
1754	0	32724	32721	32797	32738	32725	32727	32607	32711	
1755	0	32660	32743	32828	32798	32754	32705	32639	32773	
1756	0	32732	32685	32519	32765	32711	32724	32634	32726	
1757	0	32794	32692	32748	32791	32631	32723	32707	32707	
1758	0	32713	32559	32673	32751	32647	32607	32719	32749	
1759	0	32743	32658	32751	32757	32775	32771	32413	32659	
1760	0	32728	32630	32711	32719	32747	32775	32671	32683	
1761	0	32718	32518	32631	32675	32739	32585	32563	32707	
1762	0	32791	32772	32721	32702	32707	32707	32659	32607	
1763	0	32687	32769	32835	32775	32775	32719	32563	32788	
1764	0	32743	32569	32783	32775	32643	32647	32820	32879	
1765	0	32750	32679	32687	32829	32662	32727	32661	32615	
1766	0	32738	32595	32756	32727	32702	32703	32631	32700	
1767	0	32740	32751	32754	32791	32710	32711	32709	32729	
1768	0	32726	32771	32827	32751	32686	32747	32511	32759	
1769	0	32748	32645	32663	32703	32699	32669	32527	32518	
1770	0	32750	32695	32883	32694	32767	32700	32771	32749	
1771	0	32749	32571	32720	32719	32715	32632	32679	32794	
1772	0	32738	32706	32809	32767	32751	32715	32719	32629	
1773	0	32756	32613	32582	32703	32701	32670	32647	32771	
1774	0	32783	32773	32733	32775	32687	32700	32621	32811	
1775	0	32775	32775	32643	32797	32771	32763	32791	32669	
1776	0	32754	32711	32819	32807	32731	32684	32665	32799	
1777	0	32798	32722	32775	32835	32783	32706	32549	32903	
1778	0	32757	32673	32615	32722	32703	32740	32607	32623	
1779	0	32812	32751	32821	32719	32647	32681	32751	32767	
1780	0	32795	32725	32751	32713	32730	32739	32595	32831	
1781	0	32782	32646	32829	32671	32677	32647	32637	32783	
1782	0	32791	32647	32663	32805	32751	32703	32715	32691	
1783	0	32792	32643	32743	32758	32716	32699	32623	32835	
1784	0	32805	32759	32743	32799	32785	32671	32551	32835	
1785	0	32792	32719	32799	32751	32768	32687	32727	32631	
1786	0	32762	32743	32717	32775	32732	32557	32711	32801	
1787	0	32848	32735	32835	32708	32687	32709	32661	32793	
1788	0	32743	32606	32711	32851	32683	32671	32677	32765	
1789	0	32795	32747	32815	32758	32719	32767	32715	32614	
1790	0	32751	32615	32687	32839	32739	32663	32743	32715	
1791	0	32726	32775	32765	32709	32683	32741	32547	32833	
1792	0	32748	32791	32670	32770	32686	32722	32606	32673	
1793	0	32658	32708	32789	32823	32775	32669	32685	32603	
1794	0	32698	32765	32633	32739	32775	32787	32679	32791	
1795	0	32685	32742	32623	32718	32677	32711	32759	32797	
1796	0	32685	32727	32579	32845	32671	32631	32765	32861	
1797	0	32703	32711	32759	32803	32732	32771	32647	32613	
1798	0	32692	32715	32658	32797	32681	32747	32597	32686	
1799	0	32753	32577	32742	32711	32675	32675	32660	32763	
1800	0	32796	32631	32671	32771	32757	32711	32717	32727	
1801	0	32731	32597	32823	32790	32759	32647	32642	32655	
1802	0	32750	32693	32751	32805	32669	32727	32631	32787	
1803	0	32760	32655	32815	32761	32727	32677	32530	32839	
1804	0	32790	32676	32699	32703	32737	32775	32710	32621	
1805	0	32761	32741	32813	32775	32773	32715	32765	32511	
1806	0	32754	32729	32903	32727	32647	32711	32695	32683	
1807	0	32763	32767	32742	32754	32743	32748	32710	32762	
1808	0	32745	32638	32711	32711	32810	32761	32628	32775	
1809	0	32801	32585	32727	32685	32670	32683	32634	32717	
1810	0	32757	32703	32749	32815	32751	32839	32635	32585	
1811	0	32749	32609	32684	32703	32726	32647	32615	32759	
1812	0	32793	32795	32749	32791	32799	32717	32669	32775	
1813	0	32748	32771	32638	32733	32701	32751	32583	32695	
1814	0	32787	32583	32861	32733	32687	32647	32598	32790	
1815	0	32786	32647	32727	32775	32751	32727	32773	32795	
1816	0	32780	32811	32807	32745	32743	32679	32670	32757	
1817	0	32745	32714	32793	32821	32719	32612	32703	32795	
1818	0	32719	32735	32679	32813	32807	32685	32539	32747	
1819	0	32762	32663	32753	32735	32791	32686	32711	32668	
1820	0	32786	32761	32783	32839	32679	32727	32647	32540	
1821	0	32741	32763	32899	32727	32698	32759	32701	32775	
1822	0	32775	32679	32677	32767	32759	32688	32485	32869	
1823	0	32768	32691	32759	32724	32745	32711	32639	32583	
1824	0	32743	32575	32626	32685	32749	32718	32699	32830	
1825	0	32775	32795	32747	32823	32643	32791	32719	32961	
1826	0	32673	32731	32876	32771	32663	32731	32623	32584	
1827	0	32687	32539	32727	32691	32719	32699	32583	32763	
1828	0	32743	32703	32845	32815	32729	32749	32715	32871	
1829	0	32773	32687	32799	32758	32741	32717	32599	32735	
1830	0	32815	32743	32749	32807	32679	32694	32628	32602	
1831	0	32830	32767	32617	32727	32703	32711	32731	32789	
1832	0	32764	32599	32709	32719	32694	32647	32519	32749	
1833	0	32743	32749	32739	32740	32733	32750	32727	32748	
1834	0	32763	32773	32809	32805	32775	32759	32669	32775	
1835	0	32743	32738	32900	32726	32770	32658	32738	32703	
1836	0	32783	32677	32789	32799	32783	32748	32531	32731	
1837	0	32775	32559	32919	32738	32686	32633	32594	32773	
1838	0	32786	32631	32839	32715	32693	32738	32767	32775	
1839	0	32757	32599	32839	32719	32738	32739	32661	32620	
1840	0	32774	32645	32647	32719	32742	32639	32655	32758	
1841	0	32782	32658	32655	32739	32721	32773	32556	32714	
1842	0	32787	32647	32687	32811	32716	32726	32687	32764	
1843	0	32852	32583	32685	32807	32769	32756	32734	32635	
1844	0	32782	32582	32725	32799	32667	32643	32615	32735	
1845	0	32724	32615	32601	32703	32669	32735	32731	32871	
1846	0	32751	32621	32742	32783	32716	32733	32623	32606	
1847	0	32797	32699	32807	32825	32655	32661	32743	32785	
1848	0	32803	32791	32659	32731	32623	32751	32786	32773	
1849	0	32829	32607	32812	32815	32635	32711	32519	32700	
1850	0	32726	32693	32719	32737	32719	32637	32787	32759	
1851	0	32723	32765	32835	32791	32759	32703	32629	32626	
1852	0	32786	32698	32775	32771	32763	32703	32626	32769	
1853	0	32783	32677	32642	32733	32815	32739	32677	32807	
1854	0	32839	32603	32711	32775	32718	32727	32548	32607	
1855	0	32738	32791	32663	32722	32669	32623	32607	32695	
1856	0	32751	32749	32631	32647	32699	32807	32655	32875	
1857	0	32718	32564	32719	32743	32783	32775	32563	32594	
1858	0	32783	32739	32691	32717	32679	32630	32725	32735	
1859	0	32786	32707	32771	32782	32743	32685	32573	32844	
1860	0	32748	32615	32823	32733	32799	32783	32785	32623	
1861	0	32767	32716	32837	32682	32644	32658	32685	32799	
1862	0	32762	32751	32863	32703	32684	32783	32707	32693	
1863	0	32739	32607	32763	32785	32692	32767	32530	32718	
1864	0	32732	32670	32689	32775	32767	32623	32733	32899	
1865	0	32790	32703	32822	32794	32629	32676	32639	32813	
1866	0	32786	32775	32626	32747	32679	32749	32572	32841	
1867	0	32817	32607	32613	32807	32710	32759	32655	32756	
1868	0	32719	32751	32695	32795	32759	32699	32731	32877	
1869	0	32692	32719	32751	32775	32731	32727	32563	32706	
1870	0	32738	32586	32694	32759	32762	32715	32834	32823	
1871	0	32748	32669	32761	32811	32721	32639	32791	32799	
1872	0	32767	32621	32626	32796	32655	32834	32733	32734	
1873	0	32758	32791	32827	32755	32775	32674	32663	32775	
1874	0	32750	32631	32765	32710	32829	32685	32532	32790	
1875	0	32780	32589	32743	32773	32783	32742	32773	32613	
1876	0	32735	32667	32807	32717	32718	32613	32661	32789	
1877	0	32742	32666	32743	32723	32731	32690	32671	32790	
1878	0	32701	32578	32563	32749	32788	32671	32623	32591	
1879	0	32733	32691	32804	32717	32717	32563	32567	32831	
1880	0	32770	32766	32677	32733	32663	32775	32733	32827	
1881	0	32807	32669	32810	32691	32770	32799	32687	32627	
1882	0	32742	32731	32818	32685	32706	32615	32687	32718	
1883	0	32738	32811	32655	32767	32749	32683	32669	32851	
1884	0	32843	32751	32755	32737	32850	32639	32561	32588	
1885	0	32775	32749	32867	32685	32724	32702	32770	32742	
1886	0	32775	32647	32745	32811	32675	32724	32749	32843	
1887	0	32799	32671	32831	32826	32711	32698	32754	32596	
1888	0	32796	32747	32717	32738	32773	32735	32719	32757	
1889	0	32797	32594	32788	32795	32763	32775	32587	32847	
1890	0	32750	32745	32766	32764	32733	32628	32570	32547	
1891	0	32759	32789	32759	32775	32677	32731	32695	32783	
1892	0	32765	32711	32839	32831	32663	32710	32615	32852	
1893	0	32717	32679	32837	32788	32742	32607	32713	32644	
1894	0	32703	32715	32698	32708	32801	32775	32463	32766	
1895	0	32724	32627	32811	32815	32773	32759	32614	32685	
1896	0	32760	32603	32772	32691	32788	32620	32699	32719	
1897	0	32786	32517	32812	32767	32663	32669	32642	32783	
1898	0	32706	32775	32775	32707	32677	32685	32677	32647	
1899	0	32751	32747	32626	32683	32739	32692	32637	32759	
1900	0	32787	32527	32710	32749	32726	32718	32599	32791	
1901	0	32729	32701	32703	32687	32759	32635	32667	32726	
1902	0	32745	32791	32711	32711	32675	32751	32686	32823	
1903	0	32736	32663	32662	32767	32615	32703	32707	32818	
1904	0	32693	32751	32791	32767	32690	32711	32751	32745	
1905	0	32763	32733	32735	32775	32711	32574	32669	32842	
1906	0	32753	32663	32733	32724	32725	32773	32695	32599	
1907	0	32756	32783	32731	32748	32765	32781	32555	32742	
1908	0	32749	32743	32660	32803	32748	32579	32751	32811	
1909	0	32739	32685	32815	32815	32757	32751	32659	32626	
1910	0	32760	32765	32695	32743	32708	32637	32634	32623	
1911	0	32793	32660	32733	32795	32732	32732	32605	32799	
1912	0	32775	32647	32711	32751	32698	32749	32689	32755	
1913	0	32754	32623	32575	32700	32719	32671	32607	32582	
1914	0	32745	32775	32727	32854	32729	32743	32599	32823	
1915	0	32810	32789	32686	32711	32726	32743	32746	32741	
1916	0	32822	32527	32598	32747	32644	32695	32671	32695	
1917	0	32729	32671	32775	32743	32612	32686	32675	32813	
1918	0	32751	32717	32695	32735	32711	32673	32526	32719	
1919	0	32766	32667	32810	32775	32737	32631	32599	32788	
1920	0	32799	32751	32829	32762	32724	32727	32734	32903	
1921	0	32713	32559	32727	32748	32748	32657	32647	32671	
1922	0	32742	32813	32751	32821	32727	32713	32595	32764	
1923	0	32748	32723	32839	32756	32770	32727	32492	32795	
1924	0	32711	32703	32863	32725	32739	32759	32775	32749	
1925	0	32680	32549	32841	32791	32732	32718	32647	32749	
1926	0	32713	32711	32802	32739	32663	32759	32568	32599	
1927	0	32712	32610	32815	32687	32597	32741	32607	32725	
1928	0	32775	32690	32818	32787	32663	32661	32783	32850	
1929	0	32771	32711	32669	32756	32775	32775	32699	32612	
1930	0	32803	32562	32749	32727	32775	32759	32767	32799	
1931	0	32775	32788	32773	32852	32773	32645	32647	32715	
1932	0	32728	32695	32671	32799	32708	32739	32771	32723	
1933	0	32727	32535	32815	32775	32802	32694	32681	32860	
1934	0	32783	32793	32807	32751	32807	32677	32687	32583	
1935	0	32754	32807	32631	32740	32679	32775	32633	32711	
1936	0	32787	32599	32631	32753	32687	32726	32611	32815	
1937	0	32742	32743	32595	32820	32751	32623	32623	32562	
1938	0	32732	32691	32615	32775	32759	32647	32535	32726	
1939	0	32765	32739	32743	32839	32701	32711	32751	32823	
1940	0	32772	32735	32751	32743	32727	32615	32694	32613	
1941	0	32738	32737	32703	32719	32751	32685	32671	32803	
1942	0	32774	32604	32751	32767	32759	32719	32591	32839	
1943	0	32786	32742	32871	32867	32655	32679	32743	32615	
1944	0	32812	32724	32965	32763	32599	32687	32573	32815	
1945	0	32795	32638	32917	32742	32666	32771	32617	32738	
1946	0	32743	32678	32810	32803	32707	32732	32493	32785	
1947	0	32762	32639	32767	32738	32755	32638	32751	32815	
1948	0	32718	32685	32623	32772	32742	32709	32683	32639	
1949	0	32789	32743	32733	32717	32733	32647	32659	32724	
1950	0	32746	32487	32663	32684	32675	32735	32595	32759	
1951	0	32704	32611	32783	32759	32607	32727	32679	32674	
1952	0	32751	32703	32687	32711	32623	32692	32604	32743	
1953	0	32724	32555	32546	32703	32722	32679	32549	32852	
1954	0	32736	32668	32727	32743	32721	32759	32775	32679	
1955	0	32709	32749	32726	32709	32711	32663	32677	32687	
1956	0	32748	32639	32805	32775	32669	32691	32645	32829	
1957	0	32814	32767	32671	32729	32702	32741	32686	32711	
1958	0	32687	32658	32643	32824	32694	32612	32535	32641	
1959	0	32742	32717	32815	32850	32711	32671	32499	32767	
1960	0	32757	32546	32733	32831	32767	32629	32671	32799	
1961	0	32775	32767	32771	32799	32811	32787	32707	32573	
1962	0	32773	32814	32859	32749	32711	32731	32719	32751	
1963	0	32728	32611	32677	32817	32742	32607	32563	32707	
1964	0	32766	32761	32775	32765	32675	32706	32743	32581	
1965	0	32745	32607	32845	32738	32647	32693	32723	32751	
1966	0	32758	32703	32869	32871	32759	32783	32725	32813	
1967	0	32772	32711	32687	32751	32765	32703	32623	32607	
1968	0	32828	32679	32615	32823	32743	32727	32671	32751	
1969	0	32797	32723	32747	32775	32747	32719	32463	32775	
1970	0	32741	32622	32751	32745	32769	32662	32679	32543	
1971	0	32749	32716	32756	32813	32796	32605	32655	32727	
1972	0	32730	32711	32723	32743	32671	32724	32658	32721	
1973	0	32733	32519	32775	32703	32677	32637	32686	32769	
1974	0	32794	32697	32629	32775	32775	32757	32607	32815	
1975	0	32820	32775	32783	32679	32759	32775	32663	32827	
1976	0	32771	32663	32710	32759	32775	32685	32811	32663	
1977	0	32796	32720	32743	32760	32783	32737	32655	32759	
1978	0	32739	32639	32791	32719	32662	32647	32706	32835	
1979	0	32733	32740	32591	32695	32633	32703	32659	32599	
1980	0	32719	32726	32615	32708	32706	32787	32531	32773	
1981	0	32748	32589	32895	32689	32647	32710	32775	32666	
1982	0	32745	32756	32685	32681	32734	32679	32737	32735	
1983	0	32769	32751	32839	32681	32633	32788	32703	32823	
1984	0	32745	32596	32605	32767	32719	32660	32535	32706	
1985	0	32804	32673	32709	32702	32774	32718	32743	32743	
1986	0	32745	32717	32762	32682	32761	32791	32631	32843	
1987	0	32751	32799	32692	32686	32727	32735	32535	32775	
1988	0	32831	32591	32809	32822	32790	32805	32748	32775	
1989	0	32754	32639	32679	32775	32679	32711	32687	32639	
1990	0	32773	32623	32821	32727	32659	32757	32574	32711	
1991	0	32782	32731	32823	32783	32707	32581	32731	32847	
1992	0	32828	32748	32647	32711	32807	32692	32614	32628	
1993	0	32775	32605	32735	32713	32812	32775	32567	32775	
1994	0	32796	32751	32831	32775	32725	32671	32726	32845	
1995	0	32820	32771	32813	32735	32724	32775	32687	32591	
1996	0	32756	32630	32821	32775	32775	32731	32663	32743	
1997	0	32749	32666	32684	32763	32700	32582	32551	32703	
1998	0	32760	32519	32804	32739	32660	32738	32578	32599	
1999	0	32730	32743	32843	32804	32799	32729	32709	32756	
2000	0	32719	32723	32738	32757	32807	32647	32659	32726	
2001	0	32717	32534	32819	32741	32767	32714	32613	32708	
2002	0	32737	32687	32801	32811	32713	32638	32647	32903	
2003	0	32773	32725	32628	32741	32731	32597	32690	32580	
2004	0	32761	32487	32741	32731	32801	32769	32647	32743	
2005	0	32786	32701	32732	32767	32661	32666	32638	32767	
2006	0	32820	32751	32756	32717	32671	32795	32551	32747	
2007	0	32765	32751	32775	32831	32743	32675	32523	32660	
2008	0	32748	32699	32698	32731	32743	32594	32681	32817	
2009	0	32729	32647	32671	32671	32731	32755	32695	32677	
2010	0	32761	32751	32768	32807	32725	32835	32586	32751	
2011	0	32769	32706	32685	32793	32787	32708	32791	32807	
2012	0	32742	32575	32827	32739	32681	32786	32738	32695	
2013	0	32708	32709	32803	32751	32647	32750	32767	32743	
2014	0	32758	32691	32683	32735	32796	32647	32703	32747	
2015	0	32775	32765	32749	32839	32663	32749	32519	32775	
2016	0	32734	32734	32689	32763	32775	32598	32627	32543	
2017	0	32730	32559	32671	32723	32684	32811	32713	32775	
2018	0	32748	32717	32700	32719	32703	32705	32720	32631	
2019	0	32773	32681	32753	32741	32693	32680	32639	32769	
2020	0	32752	32703	32647	32757	32719	32708	32575	32814	
2021	0	32769	32727	32863	32805	32813	32662	32749	32707	
2022	0	32787	32679	32735	32710	32721	32637	32724	32751	
2023	0	32782	32535	32775	32813	32743	32775	32647	32815	
2024	0	32818	32639	32801	32757	32679	32719	32716	32726	
2025	0	32775	32583	32670	32703	32694	32660	32636	32612	
2026	0	32834	32699	32852	32769	32783	32771	32582	32810	
2027	0	32796	32749	32823	32717	32731	32627	32595	32865	
2028	0	32809	32700	32933	32865	32766	32723	32647	32614	
2029	0	32743	32743	32710	32738	32691	32775	32635	32735	
2030	0	32726	32599	32839	32732	32659	32615	32773	32797	
2031	0	32740	32759	32858	32809	32727	32765	32603	32578	
2032	0	32769	32705	32773	32782	32786	32718	32667	32755	
2033	0	32749	32535	32852	32743	32759	32671	32751	32758	
2034	0	32727	32733	32845	32742	32772	32690	32655	32586	
2035	0	32763	32787	32635	32681	32703	32717	32679	32737	
2036	0	32789	32535	32615	32695	32663	32759	32621	32735	
2037	0	32793	32634	32783	32711	32647	32743	32495	32548	
2038	0	32793	32773	32765	32711	32739	32661	32756	32791	
2039	0	32794	32655	32738	32711	32727	32743	32671	32719	
2040	0	32767	32701	32811	32698	32711	32721	32687	32743	
2041	0	32743	32556	32641	32668	32767	32657	32677	32726	
2042	0	32732	32783	32687	32710	32679	32716	32647	32903	
2043	0	32804	32715	32615	32733	32799	32643	32555	32760	
2044	0	32748	32775	32719	32846	32759	32719	32535	32639	
2045	0	32737	32723	32711	32775	32723	32720	32738	32789	
2046	0	32749	32543	32566	32742	32710	32626	32630	32809	
2047	0	32751	32767	32687	32839	32756	32802	32737	32578	
2048	0	32733	32787	32803	32719	32687	32771	32719	32775	
2049	0	32714	32669	32775	32783	32770	32740	32554	32837	
2050	0	32780	32733	32742	32795	32723	32699	32586	32629	
2051	0	32731	32575	32717	32775	32769	32647	32767	32763	
2052	0	32732	32727	32847	32770	32659	32695	32705	32807	
2053	0	32757	32839	32843	32756	32660	32629	32703	32709	
2054	0	32735	32621	32877	32813	32701	32619	32631	32771	
2055	0	32761	32735	32841	32815	32821	32751	32627	32773	
2056	0	32754	32757	32676	32716	32810	32695	32729	32579	
2057	0	32803	32756	32829	32831	32769	32707	32715	32739	
2058	0	32814	32743	32754	32749	32665	32711	32627	32769	
2059	0	32802	32718	32647	32716	32702	32627	32647	32789	
2060	0	32775	32736	32762	32742	32707	32717	32693	32775	
2061	0	32775	32603	32822	32742	32699	32669	32527	32807	
2062	0	32811	32679	32586	32745	32757	32658	32839	32706	
2063	0	32806	32647	32767	32758	32738	32675	32727	32771	
2064	0	32751	32614	32807	32787	32715	32673	32687	32847	
2065	0	32785	32727	32775	32767	32743	32687	32647	32546	
2066	0	32765	32691	32724	32743	32706	32711	32591	32775	
2067	0	32769	32531	32743	32727	32713	32623	32803	32791	
2068	0	32732	32659	32843	32748	32844	32765	32672	32551	
2069	0	32782	32647	32783	32719	32722	32831	32703	32727	
2070	0	32749	32771	32735	32795	32785	32677	32631	32788	
2071	0	32708	32717	32799	32749	32655	32791	32727	32871	
2072	0	32743	32706	32735	32743	32743	32662	32629	32655	
2073	0	32780	32655	32607	32775	32725	32799	32487	32771	
2074	0	32788	32519	32642	32738	32710	32751	32719	32852	
2075	0	32761	32646	32674	32717	32775	32670	32684	32593	
2076	0	32751	32615	32767	32717	32691	32725	32619	32833	
2077	0	32742	32775	32674	32747	32775	32647	32603	32797	
2078	0	32710	32684	32788	32711	32723	32759	32667	32799	
2079	0	32741	32695	32817	32749	32675	32615	32705	32669	
2080	0	32735	32711	32674	32767	32655	32685	32723	32713	
2081	0	32775	32707	32629	32823	32786	32677	32559	32765	
2082	0	32786	32731	32623	32773	32771	32671	32642	32775	
2083	0	32775	32612	32690	32786	32755	32743	32745	32722	
2084	0	32773	32754	32743	32818	32799	32675	32637	32803	
2085	0	32817	32749	32621	32755	32683	32671	32675	32689	
2086	0	32839	32621	32885	32843	32709	32714	32750	32601	
2087	0	32803	32711	32903	32775	32773	32647	32549	32807	
2088	0	32803	32674	32935	32702	32735	32739	32826	32711	
2089	0	32723	32766	32811	32788	32711	32773	32713	32587	
2090	0	32750	32753	32899	32751	32617	32623	32620	32709	
2091	0	32730	32573	32923	32647	32655	32769	32647	32719	
2092	0	32740	32719	32702	32793	32747	32809	32495	32691	
2093	0	32764	32735	32807	32739	32785	32607	32561	32799	
2094	0	32695	32594	32663	32711	32764	32749	32767	32615	
2095	0	32697	32695	32669	32789	32751	32731	32673	32783	
2096	0	32711	32725	32795	32701	32797	32687	32711	32823	
2097	0	32701	32715	32743	32781	32683	32775	32694	32663	
2098	0	32706	32711	32645	32724	32765	32679	32493	32761	
2099	0	32707	32591	32715	32783	32787	32763	32519	32751	
2100	0	32751	32692	32717	32767	32799	32727	32664	32767	
2101	0	32798	32554	32735	32759	32699	32668	32719	32566	
2102	0	32775	32714	32555	32759	32723	32732	32718	32743	
2103	0	32747	32633	32742	32751	32735	32583	32621	32863	
2104	0	32728	32807	32685	32787	32667	32717	32660	32613	
2105	0	32741	32775	32756	32740	32713	32735	32724	32775	
2106	0	32807	32723	32647	32799	32647	32738	32502	32759	
2107	0	32737	32711	32703	32743	32759	32711	32515	32879	
2108	0	32748	32583	32647	32685	32793	32684	32756	32612	
2109	0	32732	32759	32722	32731	32727	32835	32613	32785	
2110	0	32773	32765	32609	32747	32745	32703	32631	32829	
2111	0	32798	32706	32773	32709	32675	32612	32653	32587	
2112	0	32767	32763	32647	32747	32783	32727	32487	32735	
2113	0	32769	32533	32819	32710	32698	32647	32535	32783	
2114	0	32754	32662	32738	32763	32711	32742	32763	32742	
2115	0	32796	32621	32773	32717	32683	32647	32716	32610	
2116	0	32749	32767	32753	32775	32661	32757	32658	32767	
2117	0	32843	32700	32823	32687	32754	32773	32660	32875	
2118	0	32759	32511	32703	32734	32726	32622	32749	32583	
2119	0	32811	32655	32821	32791	32713	32763	32585	32767	
2120	0	32743	32743	32727	32743	32755	32775	32751	32775	
2121	0	32749	32723	32775	32719	32679	32631	32681	32591	
2122	0	32738	32701	32678	32716	32623	32775	32578	32725	
2123	0	32743	32647	32799	32687	32743	32717	32711	32921	
2124	0	32678	32815	32811	32793	32803	32663	32567	32581	
2125	0	32743	32695	32775	32795	32787	32723	32567	32755	
2126	0	32752	32567	32693	32750	32765	32703	32687	32829	
2127	0	32742	32686	32797	32863	32711	32727	32699	32614	
2128	0	32783	32621	32677	32727	32679	32743	32675	32733	
2129	0	32749	32823	32775	32787	32818	32662	32607	32807	
2130	0	32769	32687	32716	32749	32742	32739	32708	32681	
2131	0	32769	32815	32715	32823	32775	32565	32730	32595	
2132	0	32755	32775	32775	32795	32662	32686	32570	32757	
2133	0	32807	32681	32607	32726	32703	32623	32487	32899	
2134	0	32806	32711	32786	32707	32711	32709	32540	32655	
2135	0	32771	32591	32895	32747	32769	32679	32741	32719	
2136	0	32783	32687	32714	32842	32682	32599	32679	32818	
2137	0	32713	32735	32722	32795	32683	32735	32674	32655	
2138	0	32773	32567	32711	32676	32763	32705	32775	32641	
2139	0	32802	32711	32819	32809	32775	32769	32503	32754	
2140	0	32760	32736	32682	32740	32666	32734	32771	32699	
2141	0	32716	32775	32839	32698	32759	32559	32727	32563	
2142	0	32735	32703	32763	32831	32679	32772	32647	32739	
2143	0	32812	32565	32855	32759	32615	32834	32643	32806	
2144	0	32711	32737	32741	32810	32758	32639	32722	32615	
2145	0	32820	32617	32788	32747	32745	32733	32727	32735	
2146	0	32799	32817	32597	32717	32739	32645	32592	32815	
2147	0	32806	32767	32694	32789	32687	32775	32537	32677	
