# OpenSignals Text File Format
# {"00:07:80:3B:46:38": {"sensor": ["CUSTOM/0.5/1.0/V", "CUSTOM/0.5/1.0/V", "CUSTOM/0.5/1.0/V", "CUSTOM/0.5/1.0/V", "CUSTOM/0.5/1.0/V", "CUSTOM/0.5/1.0/V", "CUSTOM/0.5/1.0/V", "CUSTOM/0.5/1.0/V"], "device name": "EMGs", "column": ["nSeq", "DI", "RA_L", "RA_R", "OE_L", "OE:R", "IL_L", "IL_R", "MF_L", "MF_R"], "sync interval": 2, "time": "16:16:34.399", "comments": "", "device connection": "BTH00:07:80:3B:46:38", "channels": [1, 2, 3, 4, 5, 6, 7, 8], "date": "2017-6-1", "mode": 0, "digital IO": [0, 1], "firmware version": 772, "device": "biosignalsplux", "position": 0, "sampling rate": 1000, "label": ["RA_L", "RA_R", "OE_L", "OE:R", "IL_L", "IL_R", "MF_L", "MF_R"], "resolution": [16, 16, 16, 16, 16, 16, 16, 16], "special": [{}, {}, {}, {}, {}, {}, {}, {}]}}
# EndOfHeader
0	0	32800	32647	32853	32735	32695	32747	32555	32804	
1	0	32740	32669	32638	32767	32743	32705	32631	32759	
2	0	32744	32687	32727	32755	32741	32635	32631	32807	
3	0	32807	32743	32663	32711	32743	32676	32708	32757	
4	0	32699	32595	32775	32747	32743	32706	32643	32807	
5	0	32769	32662	32734	32775	32710	32727	32675	32813	
6	0	32748	32788	32757	32695	32719	32775	32699	32795	
7	0	32743	32702	32791	32767	32667	32671	32611	32762	
8	0	32732	32732	32743	32763	32703	32673	32663	32791	
9	0	32787	32802	32790	32716	32757	32681	32698	32749	
10	0	32739	32487	32715	32799	32727	32738	32727	32775	
11	0	32756	32781	32701	32803	32719	32715	32587	32765	
12	0	32787	32713	32765	32743	32748	32743	32575	32804	
13	0	32812	32743	32775	32740	32719	32647	32559	32815	
14	0	32745	32591	32837	32743	32775	32625	32719	32723	
15	0	32771	32575	32847	32743	32790	32694	32679	32747	
16	0	32773	32701	32802	32758	32742	32711	32710	32788	
17	0	32774	32701	32801	32807	32663	32720	32748	32807	
18	0	32778	32685	32817	32771	32775	32759	32735	32739	
19	0	32765	32739	32862	32703	32690	32751	32711	32773	
20	0	32775	32626	32861	32812	32748	32633	32677	32831	
21	0	32762	32543	32775	32645	32678	32639	32681	32871	
22	0	32790	32683	32855	32758	32742	32638	32630	32851	
23	0	32726	32803	32766	32775	32705	32734	32694	32804	
24	0	32796	32738	32747	32711	32658	32791	32799	32730	
25	0	32775	32804	32791	32703	32791	32757	32617	32647	
26	0	32726	32559	32690	32751	32819	32765	32503	32662	
27	0	32767	32655	32676	32717	32663	32667	32685	32633	
28	0	32731	32645	32676	32727	32745	32631	32683	32683	
29	0	32751	32682	32671	32773	32735	32571	32647	32589	
30	0	32799	32759	32607	32743	32687	32735	32617	32579	
31	0	32740	32775	32659	32773	32672	32772	32713	32758	
32	0	32765	32749	32645	32763	32751	32755	32679	32729	
33	0	32738	32626	32631	32711	32751	32727	32642	32836	
34	0	32742	32575	32647	32766	32811	32743	32615	32797	
35	0	32781	32615	32623	32695	32735	32687	32692	32790	
36	0	32810	32713	32618	32727	32701	32711	32703	32811	
37	0	32775	32703	32644	32821	32757	32693	32723	32809	
38	0	32788	32727	32685	32761	32695	32609	32727	32804	
39	0	32761	32539	32775	32765	32684	32731	32574	32875	
40	0	32786	32666	32759	32807	32759	32797	32575	32845	
41	0	32775	32709	32743	32807	32655	32709	32511	32838	
42	0	32782	32669	32711	32739	32767	32711	32750	32743	
43	0	32769	32530	32775	32735	32811	32647	32655	32751	
44	0	32740	32695	32831	32719	32705	32739	32709	32843	
45	0	32806	32647	32647	32783	32751	32719	32743	32701	
46	0	32782	32711	32830	32798	32731	32697	32543	32717	
47	0	32806	32615	32825	32743	32781	32667	32637	32715	
48	0	32770	32765	32775	32754	32699	32767	32708	32641	
49	0	32771	32727	32799	32775	32751	32687	32621	32587	
50	0	32782	32794	32769	32759	32671	32767	32677	32614	
51	0	32718	32615	32799	32757	32647	32611	32679	32775	
52	0	32688	32659	32690	32751	32727	32719	32685	32579	
53	0	32746	32813	32621	32765	32719	32765	32759	32772	
54	0	32752	32703	32698	32711	32685	32759	32575	32742	
55	0	32775	32743	32774	32708	32703	32743	32428	32695	
56	0	32824	32591	32698	32710	32743	32663	32668	32594	
57	0	32775	32683	32775	32841	32689	32671	32718	32564	
58	0	32775	32647	32775	32743	32786	32691	32659	32625	
59	0	32766	32717	32647	32695	32766	32711	32701	32603	
60	0	32737	32671	32620	32763	32687	32663	32702	32647	
61	0	32795	32631	32698	32807	32773	32631	32545	32623	
62	0	32796	32711	32833	32837	32767	32739	32613	32644	
63	0	32775	32671	32775	32711	32637	32714	32725	32723	
64	0	32781	32709	32791	32742	32679	32766	32707	32679	
65	0	32775	32647	32775	32795	32775	32807	32685	32612	
66	0	32726	32567	32725	32775	32619	32667	32695	32564	
67	0	32743	32636	32802	32789	32763	32631	32692	32598	
68	0	32812	32771	32799	32773	32755	32677	32659	32711	
69	0	32781	32803	32767	32717	32716	32663	32699	32735	
70	0	32773	32670	32767	32775	32839	32749	32640	32702	
71	0	32779	32626	32765	32759	32743	32739	32706	32703	
72	0	32716	32583	32722	32738	32683	32681	32773	32713	
73	0	32739	32771	32638	32710	32799	32638	32659	32719	
74	0	32732	32711	32694	32823	32695	32637	32727	32774	
75	0	32784	32699	32612	32727	32797	32583	32743	32831	
76	0	32794	32727	32846	32735	32679	32762	32612	32811	
77	0	32782	32659	32839	32807	32703	32771	32551	32791	
78	0	32758	32574	32677	32775	32692	32783	32559	32790	
79	0	32793	32759	32647	32735	32678	32686	32529	32747	
80	0	32751	32767	32679	32765	32708	32599	32631	32803	
81	0	32740	32749	32811	32821	32694	32751	32683	32844	
82	0	32742	32541	32642	32707	32743	32756	32585	32775	
83	0	32709	32647	32673	32646	32715	32785	32690	32791	
84	0	32775	32773	32751	32711	32687	32647	32691	32831	
85	0	32743	32675	32805	32769	32775	32675	32755	32782	
86	0	32783	32669	32762	32706	32745	32713	32727	32795	
87	0	32725	32621	32743	32670	32662	32729	32721	32799	
88	0	32718	32683	32767	32689	32709	32723	32662	32827	
89	0	32765	32727	32787	32771	32770	32745	32591	32785	
90	0	32829	32687	32845	32709	32687	32631	32551	32807	
91	0	32756	32619	32699	32729	32678	32642	32703	32755	
92	0	32769	32695	32685	32775	32647	32642	32719	32743	
93	0	32749	32711	32757	32839	32821	32763	32711	32775	
94	0	32769	32711	32749	32805	32827	32668	32723	32734	
95	0	32724	32583	32734	32707	32715	32607	32705	32590	
96	0	32775	32690	32665	32703	32766	32789	32708	32589	
97	0	32785	32674	32727	32802	32759	32742	32663	32564	
98	0	32692	32735	32815	32817	32803	32707	32647	32615	
99	0	32742	32645	32807	32771	32758	32646	32647	32665	
100	0	32767	32514	32791	32791	32694	32667	32661	32571	
101	0	32826	32727	32623	32819	32671	32775	32703	32607	
102	0	32753	32703	32690	32821	32667	32766	32602	32639	
103	0	32775	32787	32775	32775	32786	32703	32519	32671	
104	0	32787	32571	32783	32724	32752	32707	32626	32767	
105	0	32775	32671	32723	32745	32603	32695	32509	32703	
106	0	32804	32623	32769	32775	32804	32791	32655	32694	
107	0	32765	32726	32741	32717	32711	32714	32687	32749	
108	0	32702	32543	32843	32690	32759	32685	32679	32835	
109	0	32698	32756	32683	32723	32807	32775	32695	32791	
110	0	32745	32684	32647	32801	32695	32749	32708	32750	
111	0	32741	32738	32653	32751	32717	32695	32599	32727	
112	0	32749	32546	32595	32671	32725	32775	32503	32693	
113	0	32736	32719	32667	32751	32775	32666	32541	32742	
114	0	32814	32755	32647	32813	32660	32679	32559	32637	
115	0	32807	32706	32671	32711	32741	32687	32639	32620	
116	0	32780	32599	32795	32763	32733	32747	32705	32635	
117	0	32765	32717	32791	32765	32738	32671	32635	32877	
118	0	32836	32647	32687	32783	32757	32590	32634	32839	
119	0	32747	32731	32769	32719	32727	32599	32748	32827	
120	0	32780	32535	32796	32707	32763	32731	32613	32737	
121	0	32799	32806	32719	32795	32754	32747	32707	32795	
122	0	32738	32687	32601	32787	32655	32775	32731	32775	
123	0	32736	32763	32666	32715	32755	32743	32749	32801	
124	0	32809	32769	32726	32740	32759	32623	32663	32850	
125	0	32751	32595	32679	32775	32715	32703	32647	32805	
126	0	32771	32732	32671	32775	32764	32645	32692	32871	
127	0	32735	32620	32805	32751	32775	32735	32722	32845	
128	0	32813	32683	32713	32813	32641	32790	32743	32869	
129	0	32711	32639	32625	32828	32790	32751	32687	32799	
130	0	32745	32549	32721	32739	32759	32751	32732	32818	
131	0	32752	32717	32735	32771	32710	32747	32567	32729	
132	0	32765	32687	32799	32731	32727	32659	32575	32763	
133	0	32813	32809	32848	32723	32719	32635	32727	32683	
134	0	32738	32479	32795	32674	32589	32749	32703	32807	
135	0	32786	32647	32789	32722	32775	32705	32645	32711	
136	0	32748	32674	32711	32773	32801	32685	32660	32839	
137	0	32736	32707	32763	32771	32659	32703	32553	32853	
138	0	32704	32557	32759	32721	32723	32693	32535	32804	
139	0	32826	32627	32773	32811	32751	32807	32479	32799	
140	0	32810	32715	32847	32775	32687	32775	32522	32743	
141	0	32773	32775	32774	32723	32799	32787	32595	32775	
142	0	32728	32751	32791	32727	32796	32767	32619	32671	
143	0	32775	32631	32617	32835	32655	32617	32708	32683	
144	0	32775	32620	32635	32771	32749	32580	32647	32751	
145	0	32725	32791	32675	32694	32719	32775	32628	32763	
146	0	32695	32763	32709	32758	32711	32683	32758	32693	
147	0	32679	32605	32740	32758	32735	32797	32677	32727	
148	0	32738	32604	32754	32723	32791	32668	32611	32647	
149	0	32745	32827	32747	32775	32671	32623	32619	32583	
150	0	32810	32731	32698	32765	32775	32682	32476	32579	
151	0	32828	32850	32782	32751	32749	32662	32581	32691	
152	0	32738	32543	32823	32765	32698	32719	32647	32679	
153	0	32708	32815	32863	32751	32727	32754	32639	32662	
154	0	32802	32711	32823	32775	32775	32661	32647	32666	
155	0	32775	32761	32759	32775	32647	32668	32722	32717	
156	0	32782	32647	32575	32756	32749	32815	32599	32811	
157	0	32724	32701	32739	32747	32647	32702	32677	32847	
158	0	32798	32722	32823	32769	32734	32663	32587	32838	
159	0	32762	32551	32773	32767	32757	32663	32507	32895	
160	0	32799	32671	32719	32766	32663	32716	32551	32851	
161	0	32763	32639	32749	32727	32757	32759	32687	32794	
162	0	32772	32684	32741	32771	32749	32775	32673	32797	
163	0	32828	32711	32735	32695	32655	32694	32645	32815	
164	0	32865	32756	32726	32711	32735	32754	32661	32751	
165	0	32807	32663	32739	32802	32759	32727	32675	32681	
166	0	32784	32503	32739	32754	32826	32659	32679	32662	
167	0	32753	32655	32699	32765	32711	32663	32695	32607	
168	0	32719	32820	32658	32788	32789	32679	32747	32546	
169	0	32742	32765	32703	32743	32743	32738	32567	32615	
170	0	32708	32791	32855	32754	32647	32729	32555	32635	
171	0	32754	32553	32811	32695	32727	32645	32685	32628	
172	0	32775	32711	32812	32767	32762	32655	32681	32591	
173	0	32734	32731	32783	32719	32692	32685	32623	32589	
174	0	32720	32691	32596	32726	32769	32717	32689	32615	
175	0	32759	32647	32633	32707	32829	32759	32707	32658	
176	0	32847	32515	32647	32810	32717	32671	32739	32605	
177	0	32812	32543	32655	32745	32746	32577	32727	32571	
178	0	32822	32705	32692	32724	32815	32647	32622	32619	
179	0	32820	32663	32690	32805	32711	32663	32631	32567	
180	0	32799	32658	32684	32724	32647	32679	32714	32721	
181	0	32722	32709	32673	32735	32775	32765	32583	32743	
182	0	32775	32735	32669	32815	32705	32647	32563	32692	
183	0	32769	32535	32750	32701	32611	32759	32631	32766	
184	0	32733	32643	32743	32748	32694	32695	32699	32767	
185	0	32769	32674	32775	32745	32741	32661	32727	32570	
186	0	32804	32786	32788	32775	32671	32795	32702	32635	
187	0	32806	32647	32797	32685	32751	32773	32659	32640	
188	0	32775	32534	32775	32755	32758	32710	32679	32621	
189	0	32775	32647	32793	32835	32690	32775	32647	32613	
190	0	32783	32731	32767	32732	32719	32739	32678	32755	
191	0	32786	32679	32673	32725	32759	32713	32750	32534	
192	0	32711	32723	32667	32703	32714	32705	32611	32579	
193	0	32770	32532	32739	32753	32673	32739	32591	32548	
194	0	32738	32436	32699	32731	32775	32739	32487	32538	
195	0	32713	32629	32717	32757	32790	32733	32546	32583	
196	0	32791	32739	32775	32783	32687	32771	32471	32574	
197	0	32740	32748	32719	32679	32715	32756	32527	32564	
198	0	32747	32659	32797	32758	32767	32775	32628	32527	
199	0	32751	32694	32829	32767	32789	32745	32723	32734	
200	0	32763	32727	32834	32686	32694	32627	32671	32748	
201	0	32743	32611	32759	32717	32742	32663	32730	32723	
202	0	32774	32621	32731	32775	32771	32775	32687	32583	
203	0	32718	32727	32748	32796	32735	32742	32708	32597	
204	0	32761	32647	32801	32790	32693	32735	32742	32551	
205	0	32733	32797	32775	32786	32735	32775	32459	32567	
206	0	32746	32711	32807	32749	32811	32667	32479	32576	
207	0	32716	32605	32689	32767	32677	32654	32539	32602	
208	0	32765	32559	32773	32803	32695	32634	32530	32613	
209	0	32719	32803	32795	32775	32748	32758	32702	32647	
210	0	32726	32714	32756	32743	32707	32767	32671	32559	
211	0	32742	32755	32806	32773	32727	32717	32633	32626	
212	0	32775	32789	32775	32786	32775	32735	32705	32623	
213	0	32831	32595	32841	32767	32807	32687	32789	32655	
214	0	32725	32677	32637	32743	32763	32626	32598	32727	
215	0	32708	32655	32615	32775	32758	32635	32583	32783	
216	0	32729	32743	32699	32821	32735	32733	32711	32771	
217	0	32796	32738	32629	32729	32658	32721	32738	32743	
218	0	32765	32583	32699	32759	32743	32713	32685	32759	
219	0	32692	32677	32658	32762	32667	32593	32646	32813	
220	0	32738	32703	32709	32747	32679	32655	32615	32662	
221	0	32751	32647	32807	32725	32711	32647	32688	32743	
222	0	32745	32673	32799	32766	32739	32685	32762	32765	
223	0	32775	32683	32759	32743	32775	32691	32679	32676	
224	0	32781	32731	32756	32770	32670	32765	32743	32611	
225	0	32748	32575	32783	32759	32700	32708	32626	32586	
226	0	32743	32514	32767	32701	32703	32735	32658	32585	
227	0	32708	32695	32759	32767	32739	32733	32513	32571	
228	0	32799	32735	32659	32799	32671	32743	32595	32591	
229	0	32784	32671	32662	32756	32723	32605	32527	32599	
230	0	32779	32735	32671	32793	32723	32615	32567	32581	
231	0	32804	32806	32703	32794	32717	32571	32475	32591	
232	0	32806	32662	32655	32707	32674	32671	32541	32601	
233	0	32787	32605	32647	32771	32727	32726	32573	32618	
234	0	32850	32684	32671	32775	32737	32805	32617	32605	
235	0	32775	32843	32642	32810	32783	32775	32571	32751	
236	0	32687	32775	32615	32805	32644	32719	32527	32725	
237	0	32766	32747	32775	32770	32759	32751	32602	32738	
238	0	32747	32717	32820	32754	32771	32759	32583	32735	
239	0	32730	32603	32758	32775	32642	32644	32571	32719	
240	0	32729	32729	32791	32757	32734	32599	32669	32719	
241	0	32783	32686	32786	32707	32685	32719	32678	32592	
242	0	32749	32762	32758	32763	32633	32770	32647	32549	
243	0	32740	32553	32732	32741	32807	32722	32694	32548	
244	0	32734	32567	32799	32763	32773	32698	32681	32535	
245	0	32775	32703	32740	32775	32761	32655	32655	32594	
246	0	32746	32739	32746	32795	32684	32731	32615	32629	
247	0	32687	32727	32735	32741	32788	32661	32673	32572	
248	0	32734	32839	32775	32703	32788	32756	32721	32701	
249	0	32774	32743	32733	32797	32679	32719	32739	32567	
250	0	32762	32534	32775	32743	32751	32775	32573	32581	
251	0	32787	32598	32791	32791	32797	32715	32548	32589	
252	0	32770	32647	32790	32755	32791	32703	32525	32575	
253	0	32759	32695	32709	32775	32786	32723	32559	32823	
254	0	32807	32711	32717	32711	32711	32694	32535	32820	
255	0	32757	32775	32743	32807	32677	32717	32579	32759	
256	0	32745	32699	32751	32741	32749	32743	32578	32807	
257	0	32767	32679	32703	32707	32732	32775	32519	32805	
258	0	32743	32637	32775	32737	32639	32642	32487	32767	
259	0	32782	32551	32790	32749	32751	32646	32551	32823	
260	0	32749	32685	32765	32647	32765	32758	32695	32771	
261	0	32756	32685	32765	32695	32627	32707	32722	32775	
262	0	32794	32725	32671	32743	32766	32771	32615	32767	
263	0	32818	32615	32811	32706	32715	32765	32607	32775	
264	0	32783	32527	32763	32745	32788	32775	32647	32863	
265	0	32773	32603	32749	32775	32701	32667	32639	32821	
266	0	32721	32711	32791	32707	32775	32594	32678	32821	
267	0	32726	32667	32647	32760	32837	32757	32731	32823	
268	0	32769	32806	32659	32821	32687	32708	32771	32839	
269	0	32832	32577	32591	32818	32759	32735	32629	32766	
270	0	32785	32549	32679	32751	32759	32815	32578	32801	
271	0	32751	32706	32658	32775	32663	32615	32572	32847	
272	0	32830	32743	32738	32772	32798	32660	32583	32731	
273	0	32783	32743	32802	32693	32839	32643	32567	32619	
274	0	32842	32681	32834	32751	32818	32701	32577	32631	
275	0	32760	32735	32738	32735	32631	32658	32620	32559	
276	0	32763	32763	32710	32756	32700	32738	32623	32591	
277	0	32769	32775	32807	32769	32719	32750	32679	32731	
278	0	32715	32615	32833	32666	32759	32756	32742	32701	
279	0	32708	32519	32823	32755	32661	32719	32678	32762	
280	0	32772	32655	32839	32767	32751	32758	32658	32735	
281	0	32772	32748	32871	32723	32747	32631	32703	32761	
282	0	32759	32679	32739	32743	32643	32623	32767	32791	
283	0	32710	32621	32821	32711	32741	32771	32595	32597	
284	0	32735	32530	32843	32751	32833	32737	32503	32615	
285	0	32762	32706	32670	32751	32726	32775	32663	32615	
286	0	32754	32673	32735	32742	32710	32653	32715	32581	
287	0	32745	32711	32647	32732	32799	32647	32733	32809	
288	0	32737	32723	32667	32735	32667	32692	32695	32756	
289	0	32735	32725	32668	32721	32733	32723	32660	32751	
290	0	32816	32543	32679	32755	32753	32730	32587	32739	
291	0	32775	32763	32765	32763	32647	32743	32658	32692	
292	0	32789	32735	32662	32761	32719	32647	32765	32599	
293	0	32764	32685	32733	32738	32654	32647	32662	32591	
294	0	32769	32557	32812	32740	32695	32791	32555	32583	
295	0	32767	32743	32827	32807	32711	32764	32447	32643	
296	0	32805	32765	32647	32775	32761	32749	32557	32598	
297	0	32769	32707	32733	32711	32679	32739	32557	32718	
298	0	32743	32770	32709	32673	32694	32647	32647	32595	
299	0	32725	32527	32765	32775	32690	32659	32639	32621	
300	0	32779	32669	32724	32815	32731	32738	32747	32553	
301	0	32799	32753	32803	32698	32738	32735	32681	32574	
302	0	32797	32689	32790	32764	32703	32628	32695	32605	
303	0	32822	32663	32796	32815	32729	32621	32791	32655	
304	0	32804	32581	32810	32710	32775	32692	32763	32789	
305	0	32739	32619	32787	32711	32679	32758	32607	32721	
306	0	32773	32715	32701	32759	32756	32749	32485	32733	
307	0	32734	32743	32727	32775	32775	32751	32551	32756	
308	0	32775	32711	32647	32735	32635	32623	32740	32581	
309	0	32743	32550	32759	32791	32769	32612	32661	32775	
310	0	32729	32775	32751	32799	32775	32743	32662	32647	
311	0	32711	32701	32820	32749	32687	32763	32652	32607	
312	0	32767	32743	32765	32707	32791	32684	32677	32762	
313	0	32775	32700	32759	32775	32802	32659	32703	32603	
314	0	32743	32567	32876	32782	32707	32615	32610	32623	
315	0	32747	32745	32775	32703	32839	32762	32531	32595	
316	0	32707	32647	32751	32767	32769	32759	32631	32588	
317	0	32693	32723	32751	32823	32668	32734	32679	32574	
318	0	32735	32691	32646	32733	32839	32743	32775	32551	
319	0	32762	32585	32646	32694	32822	32635	32671	32561	
320	0	32756	32565	32695	32751	32775	32627	32703	32741	
321	0	32818	32738	32671	32685	32701	32567	32626	32743	
322	0	32799	32662	32667	32767	32735	32673	32659	32764	
323	0	32807	32743	32711	32827	32770	32679	32701	32575	
324	0	32735	32639	32690	32791	32617	32759	32711	32533	
325	0	32797	32575	32704	32767	32690	32711	32727	32731	
326	0	32831	32659	32738	32771	32687	32623	32727	32767	
327	0	32751	32701	32623	32797	32620	32684	32591	32644	
328	0	32796	32726	32714	32735	32717	32724	32703	32603	
329	0	32799	32581	32711	32761	32647	32709	32751	32677	
330	0	32786	32683	32583	32746	32695	32643	32727	32799	
331	0	32746	32727	32628	32787	32721	32647	32677	32827	
332	0	32789	32802	32767	32821	32655	32687	32743	32878	
333	0	32886	32846	32829	32745	32756	32719	32725	32887	
334	0	32890	32563	32734	32807	32675	32771	32827	32973	
335	0	32818	32813	32711	32775	32639	32757	32603	32927	
336	0	32803	32804	32703	32727	32707	32738	32631	32879	
337	0	32799	32738	32733	32759	32707	32663	32621	32903	
338	0	32911	32785	32775	32743	32745	32637	32710	32895	
339	0	32910	32711	32891	32739	32767	32669	32775	32991	
340	0	32842	32677	32909	32803	32830	32619	32801	32921	
341	0	32864	32613	32925	32735	32826	32719	32786	32863	
342	0	32818	32671	32859	32605	32719	32783	32823	32769	
343	0	32831	32731	32935	32722	32727	32877	32847	32718	
344	0	32839	32662	32877	32663	32843	32885	32742	32655	
345	0	32775	32681	32815	32745	32871	32797	32747	32591	
346	0	32772	32699	32786	32741	32770	32759	32719	32511	
347	0	32775	32519	32798	32703	32865	32703	32735	32514	
348	0	32716	32571	32887	32674	32805	32737	32731	32539	
349	0	32711	32687	32916	32719	32719	32745	32551	32575	
350	0	32687	32615	32890	32694	32855	32775	32450	32530	
351	0	32728	32703	32942	32730	32799	32831	32679	32495	
352	0	32728	32677	32891	32795	32890	32807	32719	32477	
353	0	32705	32551	32866	32799	32805	32786	32527	32455	
354	0	32647	32545	32844	32727	32892	32879	32594	32455	
355	0	32663	32475	32919	32810	32862	32821	32509	32576	
356	0	32661	32455	32935	32739	32850	32845	32675	32639	
357	0	32703	32365	32951	32687	32955	32890	32770	32643	
358	0	32647	32399	32929	32630	32843	32790	32815	32631	
359	0	32742	32647	32975	32692	32933	32751	32535	32647	
360	0	32791	32581	32937	32656	32914	32749	32679	32756	
361	0	32730	32535	32971	32583	32829	32857	32749	32671	
362	0	32677	32559	32923	32621	32783	32925	32695	32714	
363	0	32708	32575	32855	32587	32834	32893	32583	32653	
364	0	32620	32641	32702	32675	32829	32801	32551	32614	
365	0	32582	32533	32600	32799	32711	32759	32439	32578	
366	0	32519	32543	32541	32863	32591	32676	32263	32499	
367	0	32483	32660	32444	32933	32603	32629	32041	32503	
368	0	32466	32775	32413	33036	32581	32461	32025	32523	
369	0	32487	32773	32319	32971	32460	32422	32050	32578	
370	0	32450	32770	32328	33047	32342	32407	32066	32638	
371	0	32482	32799	32335	33005	32439	32431	32165	32630	
372	0	32492	32790	32389	32900	32433	32527	32255	32655	
373	0	32530	32847	32499	32934	32374	32526	32169	32723	
374	0	32506	32671	32486	32863	32437	32570	32223	32621	
375	0	32529	32565	32459	32866	32484	32599	32292	32710	
376	0	32588	32775	32483	32831	32541	32567	32454	32731	
377	0	32583	32735	32569	32821	32498	32583	32583	32775	
378	0	32592	32687	32551	32771	32634	32677	32553	32807	
379	0	32631	32635	32551	32848	32590	32681	32564	32731	
380	0	32591	32727	32581	32812	32583	32683	32687	32637	
381	0	32706	32739	32655	32737	32631	32679	32690	32660	
382	0	32773	32553	32642	32785	32635	32719	32798	32775	
383	0	32876	32647	32668	32759	32673	32775	32823	32751	
384	0	32903	32547	32733	32757	32604	32706	32775	32851	
385	0	32881	32719	32735	32743	32783	32631	32871	32855	
386	0	32850	32746	32837	32749	32726	32623	32799	32883	
387	0	32788	32727	32790	32863	32667	32601	32815	32684	
388	0	32756	32771	32643	32847	32669	32619	32786	32699	
389	0	32807	32621	32679	32749	32692	32679	32807	32703	
390	0	32849	32647	32773	32783	32775	32643	32799	32910	
391	0	32879	32775	32754	32786	32647	32682	32855	32954	
392	0	32935	32869	32775	32745	32671	32596	32923	32988	
393	0	32971	32879	32815	32799	32705	32587	33027	33003	
394	0	33024	32742	32751	32789	32615	32671	33065	32999	
395	0	33012	32620	32839	32748	32751	32763	32871	32999	
396	0	33063	32591	32837	32723	32742	32790	32903	32966	
397	0	33037	32647	32823	32642	32732	32803	32893	32983	
398	0	32948	32755	32916	32629	32814	32832	32835	32991	
399	0	33055	32703	32855	32597	32731	32847	32947	32925	
400	0	33034	32706	32933	32640	32839	32835	32846	32775	
401	0	33022	32687	32814	32598	32838	32828	33003	32743	
402	0	33061	32711	32948	32521	32887	32795	32895	32789	
403	0	33034	32746	32871	32562	32791	32775	32885	32921	
404	0	32991	32787	32925	32555	32754	32760	32815	32938	
405	0	32932	32713	32895	32647	32855	32751	32865	32957	
406	0	32989	32615	32967	32636	32852	32730	32983	32962	
407	0	33058	32661	32935	32605	32831	32773	33043	32943	
408	0	32985	32763	32879	32703	32820	32743	32998	32809	
409	0	32971	32817	32738	32631	32828	32786	32915	32862	
410	0	32887	32773	32747	32655	32807	32743	32935	32767	
411	0	32943	32839	32711	32687	32742	32807	32962	32723	
412	0	32883	32847	32677	32730	32839	32687	32935	32711	
413	0	32861	32635	32639	32757	32731	32681	32669	32756	
414	0	32890	32647	32763	32775	32727	32658	32621	32719	
415	0	32772	32643	32734	32738	32709	32679	32487	32748	
416	0	32775	32639	32727	32810	32731	32679	32511	32756	
417	0	32748	32743	32603	32683	32775	32677	32431	32796	
418	0	32646	32724	32630	32791	32783	32791	32530	32767	
419	0	32694	32742	32751	32775	32755	32767	32519	32802	
420	0	32678	32679	32716	32711	32815	32775	32471	32655	
421	0	32662	32599	32743	32791	32743	32743	32627	32634	
422	0	32667	32558	32786	32839	32859	32671	32607	32631	
423	0	32671	32742	32871	32719	32637	32635	32597	32573	
424	0	32656	32655	32855	32775	32759	32735	32564	32539	
425	0	32668	32695	32839	32766	32719	32767	32591	32555	
426	0	32634	32665	32719	32793	32774	32691	32556	32683	
427	0	32716	32643	32703	32787	32710	32695	32403	32731	
428	0	32657	32658	32775	32775	32705	32734	32554	32647	
429	0	32727	32695	32804	32833	32727	32681	32551	32658	
430	0	32700	32619	32803	32799	32711	32727	32628	32756	
431	0	32689	32487	32791	32742	32646	32751	32674	32815	
432	0	32650	32599	32743	32751	32775	32644	32574	32743	
433	0	32677	32713	32695	32684	32731	32667	32599	32718	
434	0	32706	32703	32691	32775	32762	32612	32541	32617	
435	0	32716	32715	32739	32843	32593	32646	32531	32577	
436	0	32707	32815	32828	32726	32705	32717	32644	32607	
437	0	32796	32599	32775	32749	32775	32718	32599	32519	
438	0	32724	32571	32775	32815	32671	32723	32549	32567	
439	0	32686	32787	32799	32735	32803	32759	32487	32710	
440	0	32751	32699	32756	32794	32785	32623	32463	32727	
441	0	32708	32634	32741	32878	32699	32679	32563	32765	
442	0	32749	32711	32765	32733	32659	32647	32517	32733	
443	0	32748	32703	32787	32775	32759	32629	32493	32751	
444	0	32754	32747	32861	32695	32685	32639	32427	32829	
445	0	32695	32690	32819	32775	32723	32642	32483	32687	
446	0	32713	32679	32773	32671	32740	32663	32550	32623	
447	0	32719	32599	32751	32711	32694	32743	32645	32619	
448	0	32743	32647	32791	32879	32755	32691	32711	32583	
449	0	32746	32719	32766	32749	32748	32695	32671	32549	
450	0	32743	32735	32839	32783	32662	32765	32687	32717	
451	0	32690	32677	32751	32711	32631	32749	32663	32741	
452	0	32703	32807	32711	32757	32634	32721	32723	32805	
453	0	32733	32815	32756	32754	32810	32751	32703	32727	
454	0	32756	32695	32770	32803	32773	32751	32743	32644	
455	0	32703	32663	32719	32701	32742	32679	32675	32605	
456	0	32748	32719	32749	32767	32647	32621	32647	32601	
457	0	32678	32749	32732	32767	32731	32677	32607	32740	
458	0	32775	32519	32739	32693	32695	32718	32577	32791	
459	0	32775	32591	32749	32823	32837	32764	32641	32694	
460	0	32783	32799	32815	32809	32749	32702	32745	32702	
461	0	32774	32635	32791	32760	32709	32743	32670	32769	
462	0	32772	32734	32775	32764	32676	32679	32762	32759	
463	0	32724	32524	32615	32751	32807	32742	32607	32751	
464	0	32745	32677	32590	32807	32742	32722	32548	32796	
465	0	32750	32759	32638	32812	32709	32743	32427	32763	
466	0	32752	32673	32695	32820	32791	32671	32637	32830	
467	0	32706	32703	32772	32775	32791	32738	32727	32853	
468	0	32730	32751	32775	32695	32715	32677	32711	32827	
469	0	32786	32549	32767	32775	32755	32610	32647	32799	
470	0	32775	32593	32799	32771	32711	32735	32679	32818	
471	0	32751	32729	32727	32707	32683	32722	32663	32818	
472	0	32806	32703	32690	32726	32743	32743	32645	32751	
473	0	32753	32751	32738	32775	32691	32762	32667	32663	
474	0	32775	32767	32647	32747	32711	32647	32726	32623	
475	0	32796	32511	32783	32719	32723	32623	32628	32647	
476	0	32772	32690	32786	32759	32758	32679	32763	32679	
477	0	32743	32677	32662	32769	32687	32714	32574	32827	
478	0	32759	32749	32735	32687	32743	32643	32623	32878	
479	0	32702	32543	32771	32679	32676	32711	32639	32833	
480	0	32727	32715	32647	32743	32743	32775	32612	32847	
481	0	32741	32639	32709	32765	32709	32730	32703	32830	
482	0	32685	32783	32789	32757	32662	32803	32669	32829	
483	0	32743	32647	32767	32751	32675	32607	32484	32820	
484	0	32807	32709	32679	32761	32695	32759	32669	32752	
485	0	32743	32735	32683	32795	32775	32690	32733	32775	
486	0	32790	32686	32647	32733	32761	32724	32683	32772	
487	0	32734	32627	32827	32768	32645	32645	32679	32759	
488	0	32772	32735	32791	32812	32701	32665	32719	32767	
489	0	32802	32767	32847	32799	32663	32727	32731	32743	
490	0	32791	32535	32820	32802	32735	32759	32615	32719	
491	0	32768	32735	32643	32747	32743	32631	32529	32756	
492	0	32775	32695	32775	32757	32647	32762	32627	32613	
493	0	32726	32771	32822	32787	32747	32739	32687	32626	
494	0	32806	32699	32762	32743	32735	32743	32647	32775	
495	0	32799	32559	32727	32751	32710	32684	32679	32595	
496	0	32765	32687	32833	32807	32763	32703	32611	32588	
497	0	32743	32743	32810	32749	32724	32811	32717	32555	
498	0	32805	32759	32775	32759	32807	32790	32713	32547	
499	0	32771	32647	32772	32799	32679	32775	32773	32767	
500	0	32783	32551	32791	32663	32727	32714	32743	32783	
501	0	32749	32647	32767	32735	32756	32723	32727	32763	
502	0	32769	32738	32749	32771	32751	32804	32775	32731	
503	0	32738	32679	32708	32685	32713	32610	32783	32691	
504	0	32734	32745	32639	32747	32711	32613	32548	32679	
505	0	32797	32771	32615	32737	32799	32599	32517	32718	
506	0	32818	32675	32598	32748	32703	32627	32551	32804	
507	0	32732	32531	32669	32759	32767	32705	32510	32775	
508	0	32737	32647	32845	32763	32626	32677	32623	32720	
509	0	32783	32747	32885	32731	32775	32735	32589	32785	
510	0	32799	32767	32775	32751	32775	32758	32503	32786	
511	0	32728	32735	32727	32716	32759	32763	32547	32628	
512	0	32775	32679	32647	32775	32767	32663	32527	32559	
513	0	32760	32743	32743	32751	32703	32599	32538	32751	
514	0	32713	32717	32755	32687	32731	32644	32671	32791	
515	0	32743	32607	32775	32721	32743	32711	32723	32763	
516	0	32652	32727	32775	32692	32715	32791	32687	32797	
517	0	32705	32675	32679	32663	32719	32775	32751	32769	
518	0	32700	32738	32711	32783	32727	32687	32662	32787	
519	0	32749	32543	32763	32743	32679	32731	32679	32775	
520	0	32775	32722	32695	32647	32775	32692	32598	32787	
521	0	32775	32743	32644	32787	32711	32685	32604	32799	
522	0	32775	32695	32679	32775	32807	32756	32561	32751	
523	0	32742	32717	32635	32711	32694	32655	32566	32748	
524	0	32804	32699	32679	32786	32799	32683	32685	32735	
525	0	32762	32519	32859	32847	32679	32734	32655	32823	
526	0	32770	32788	32812	32765	32791	32692	32706	32787	
527	0	32804	32681	32745	32695	32765	32733	32631	32831	
528	0	32754	32679	32775	32775	32705	32807	32713	32871	
529	0	32753	32757	32815	32690	32671	32677	32695	32807	
530	0	32805	32615	32699	32769	32646	32679	32643	32699	
531	0	32742	32567	32678	32733	32762	32626	32669	32593	
532	0	32727	32549	32707	32751	32791	32627	32731	32775	
533	0	32726	32639	32743	32789	32791	32733	32683	32767	
534	0	32790	32765	32747	32719	32690	32767	32677	32789	
535	0	32769	32690	32743	32775	32703	32763	32647	32811	
536	0	32717	32729	32727	32816	32755	32699	32730	32811	
537	0	32800	32763	32775	32759	32806	32702	32804	32767	
538	0	32710	32541	32755	32725	32669	32677	32799	32865	
539	0	32734	32607	32775	32775	32700	32663	32482	32841	
540	0	32743	32775	32617	32739	32689	32654	32604	32859	
541	0	32762	32767	32607	32727	32669	32726	32647	32867	
542	0	32825	32639	32871	32807	32719	32711	32623	32834	
543	0	32795	32707	32834	32860	32711	32679	32676	32823	
544	0	32811	32671	32742	32768	32597	32647	32571	32757	
545	0	32764	32679	32751	32710	32673	32722	32519	32830	
546	0	32720	32722	32813	32745	32722	32727	32501	32815	
547	0	32679	32493	32827	32701	32771	32671	32623	32815	
548	0	32811	32703	32759	32717	32687	32764	32695	32827	
549	0	32769	32706	32807	32758	32731	32666	32695	32810	
550	0	32717	32719	32742	32825	32799	32573	32639	32793	
551	0	32775	32568	32637	32819	32647	32724	32631	32813	
552	0	32743	32688	32661	32745	32756	32699	32735	32807	
553	0	32690	32647	32804	32831	32647	32667	32551	32855	
554	0	32741	32738	32695	32815	32775	32707	32647	32911	
555	0	32774	32562	32705	32807	32814	32775	32674	32831	
556	0	32738	32711	32775	32735	32706	32690	32666	32763	
557	0	32796	32668	32811	32679	32755	32655	32679	32767	
558	0	32740	32723	32759	32831	32788	32675	32683	32755	
559	0	32788	32756	32742	32668	32647	32647	32698	32753	
560	0	32799	32527	32662	32773	32743	32735	32799	32738	
561	0	32800	32605	32621	32823	32679	32762	32751	32775	
562	0	32822	32742	32647	32700	32681	32748	32630	32722	
563	0	32782	32751	32666	32699	32679	32719	32618	32758	
564	0	32791	32687	32625	32759	32787	32667	32535	32789	
565	0	32799	32742	32655	32655	32727	32683	32718	32903	
566	0	32774	32719	32791	32743	32723	32631	32619	32863	
567	0	32743	32573	32823	32754	32811	32738	32535	32886	
568	0	32711	32775	32790	32767	32773	32711	32562	32903	
569	0	32789	32787	32799	32755	32793	32715	32613	32767	
570	0	32820	32751	32828	32803	32663	32754	32757	32795	
571	0	32765	32813	32757	32741	32807	32694	32555	32766	
572	0	32759	32487	32799	32660	32829	32662	32590	32819	
573	0	32775	32558	32798	32735	32662	32583	32571	32839	
574	0	32726	32743	32767	32815	32788	32718	32510	32827	
575	0	32752	32695	32719	32743	32754	32741	32599	32798	
576	0	32763	32738	32669	32687	32647	32719	32647	32785	
577	0	32746	32577	32647	32735	32658	32750	32647	32845	
578	0	32722	32535	32719	32663	32823	32793	32551	32687	
579	0	32743	32674	32715	32765	32735	32771	32503	32711	
580	0	32714	32732	32669	32721	32694	32692	32531	32687	
581	0	32710	32681	32775	32675	32699	32647	32587	32763	
582	0	32729	32749	32775	32707	32783	32655	32550	32719	
583	0	32742	32564	32791	32759	32729	32723	32519	32701	
584	0	32767	32647	32715	32694	32582	32751	32595	32709	
585	0	32773	32687	32775	32694	32668	32692	32709	32817	
586	0	32806	32773	32855	32775	32749	32615	32703	32823	
587	0	32791	32743	32871	32767	32657	32639	32743	32845	
588	0	32774	32509	32767	32727	32767	32602	32663	32735	
589	0	32749	32566	32797	32806	32739	32679	32635	32599	
590	0	32790	32759	32630	32719	32716	32807	32682	32727	
591	0	32763	32671	32715	32775	32759	32764	32753	32811	
592	0	32727	32722	32775	32831	32765	32733	32756	32753	
593	0	32773	32691	32759	32756	32775	32767	32703	32695	
594	0	32791	32583	32807	32775	32687	32690	32734	32695	
595	0	32789	32709	32771	32871	32747	32637	32581	32743	
596	0	32766	32727	32690	32844	32770	32726	32548	32745	
597	0	32786	32711	32713	32717	32678	32775	32559	32647	
598	0	32681	32711	32811	32782	32774	32694	32695	32586	
599	0	32757	32659	32775	32783	32711	32687	32666	32575	
600	0	32735	32586	32775	32731	32795	32739	32686	32751	
601	0	32772	32588	32743	32767	32669	32773	32591	32743	
602	0	32764	32637	32639	32727	32639	32711	32529	32819	
603	0	32807	32662	32719	32751	32747	32711	32559	32795	
604	0	32754	32758	32811	32708	32703	32709	32635	32847	
605	0	32732	32763	32799	32742	32727	32771	32636	32801	
606	0	32772	32709	32875	32775	32710	32775	32628	32685	
607	0	32816	32655	32831	32737	32687	32702	32591	32639	
608	0	32753	32647	32796	32815	32703	32661	32614	32613	
609	0	32756	32737	32743	32707	32719	32643	32775	32639	
610	0	32759	32723	32823	32767	32692	32563	32731	32621	
611	0	32731	32659	32783	32790	32647	32660	32663	32751	
612	0	32799	32591	32751	32718	32795	32743	32770	32741	
613	0	32721	32639	32691	32758	32783	32819	32559	32799	
614	0	32762	32718	32679	32767	32681	32751	32575	32823	
615	0	32775	32702	32708	32727	32775	32756	32687	32754	
616	0	32738	32767	32755	32735	32786	32799	32699	32775	
617	0	32733	32551	32717	32775	32703	32671	32644	32811	
618	0	32800	32639	32701	32757	32723	32611	32702	32782	
619	0	32769	32775	32601	32691	32738	32670	32727	32773	
620	0	32769	32671	32692	32766	32645	32751	32543	32786	
621	0	32766	32746	32803	32788	32764	32738	32639	32773	
622	0	32769	32591	32691	32793	32742	32661	32703	32742	
623	0	32808	32590	32692	32755	32663	32692	32719	32775	
624	0	32823	32735	32771	32783	32743	32659	32685	32807	
625	0	32672	32709	32847	32815	32759	32694	32645	32788	
626	0	32705	32731	32721	32751	32791	32769	32659	32767	
627	0	32738	32719	32837	32775	32699	32707	32663	32811	
628	0	32763	32703	32740	32732	32647	32735	32597	32619	
629	0	32765	32723	32758	32833	32775	32685	32547	32554	
630	0	32782	32685	32787	32699	32743	32711	32547	32740	
631	0	32788	32605	32775	32791	32647	32749	32611	32775	
632	0	32745	32594	32717	32775	32766	32658	32583	32732	
633	0	32782	32756	32821	32799	32766	32634	32695	32788	
634	0	32751	32723	32815	32717	32667	32647	32703	32727	
635	0	32789	32697	32695	32775	32773	32711	32690	32764	
636	0	32764	32581	32681	32802	32741	32725	32571	32787	
637	0	32753	32498	32695	32738	32735	32683	32647	32763	
638	0	32778	32551	32719	32763	32677	32739	32683	32747	
639	0	32730	32686	32685	32719	32769	32705	32647	32761	
640	0	32724	32771	32702	32787	32759	32700	32727	32758	
641	0	32745	32711	32631	32807	32749	32767	32667	32687	
642	0	32751	32687	32655	32717	32767	32763	32581	32645	
643	0	32756	32735	32692	32795	32643	32722	32646	32566	
644	0	32762	32559	32681	32886	32749	32647	32723	32559	
645	0	32762	32759	32711	32743	32783	32757	32687	32559	
646	0	32740	32775	32788	32755	32691	32659	32543	32567	
647	0	32706	32755	32711	32773	32738	32661	32626	32615	
648	0	32745	32533	32703	32769	32643	32603	32662	32579	
649	0	32756	32743	32703	32754	32759	32642	32579	32597	
650	0	32786	32723	32711	32743	32773	32738	32638	32615	
651	0	32752	32643	32745	32805	32733	32687	32671	32579	
652	0	32755	32679	32607	32789	32655	32727	32729	32601	
653	0	32815	32611	32594	32737	32654	32638	32525	32631	
654	0	32713	32700	32726	32711	32685	32599	32499	32593	
655	0	32743	32775	32767	32679	32613	32607	32575	32569	
656	0	32751	32742	32702	32789	32669	32733	32511	32641	
657	0	32775	32767	32721	32757	32741	32751	32525	32575	
658	0	32791	32525	32766	32805	32675	32709	32595	32599	
659	0	32734	32735	32815	32791	32729	32751	32738	32591	
660	0	32673	32671	32719	32809	32775	32633	32662	32617	
661	0	32708	32745	32599	32785	32679	32675	32615	32628	
662	0	32748	32707	32631	32788	32767	32615	32641	32803	
663	0	32749	32714	32773	32738	32707	32607	32687	32735	
664	0	32781	32674	32631	32715	32677	32663	32687	32795	
665	0	32786	32595	32635	32758	32660	32722	32678	32791	
666	0	32768	32812	32765	32743	32737	32765	32773	32784	
667	0	32785	32775	32807	32739	32787	32645	32555	32756	
668	0	32831	32679	32734	32757	32655	32759	32601	32749	
669	0	32791	32551	32727	32791	32787	32719	32535	32738	
670	0	32802	32759	32815	32806	32751	32749	32739	32790	
671	0	32786	32647	32685	32733	32739	32695	32621	32559	
672	0	32757	32603	32611	32765	32775	32621	32718	32538	
673	0	32791	32535	32689	32783	32770	32647	32741	32567	
674	0	32763	32645	32647	32739	32642	32754	32751	32745	
675	0	32775	32743	32757	32749	32775	32745	32769	32715	
676	0	32741	32631	32795	32797	32787	32742	32503	32695	
677	0	32798	32749	32722	32784	32685	32775	32527	32722	
678	0	32740	32703	32717	32727	32727	32729	32500	32739	
679	0	32727	32551	32815	32806	32747	32703	32500	32759	
680	0	32721	32727	32785	32840	32731	32677	32570	32803	
681	0	32733	32773	32739	32734	32661	32663	32559	32786	
682	0	32738	32711	32743	32815	32663	32669	32587	32754	
683	0	32739	32725	32775	32763	32743	32663	32663	32807	
684	0	32775	32739	32821	32722	32695	32749	32684	32803	
685	0	32773	32711	32752	32683	32699	32687	32630	32631	
686	0	32765	32671	32771	32773	32738	32751	32685	32614	
687	0	32799	32735	32775	32815	32634	32775	32715	32612	
688	0	32832	32675	32814	32695	32770	32723	32663	32541	
689	0	32756	32477	32813	32699	32759	32738	32689	32579	
690	0	32761	32759	32791	32794	32707	32655	32711	32619	
691	0	32803	32711	32813	32703	32763	32643	32755	32631	
692	0	32752	32711	32823	32733	32701	32647	32645	32759	
693	0	32780	32791	32663	32731	32759	32703	32543	32721	
694	0	32793	32625	32669	32817	32797	32711	32783	32599	
695	0	32797	32755	32797	32719	32727	32647	32702	32550	
696	0	32775	32770	32807	32679	32668	32611	32692	32574	
697	0	32722	32599	32764	32766	32722	32743	32641	32647	
698	0	32751	32582	32766	32775	32757	32775	32790	32591	
699	0	32710	32683	32767	32647	32715	32797	32611	32557	
700	0	32723	32695	32772	32803	32751	32775	32527	32598	
701	0	32749	32686	32811	32763	32743	32773	32531	32771	
702	0	32740	32657	32775	32733	32821	32742	32551	32709	
703	0	32769	32763	32786	32743	32687	32709	32637	32775	
704	0	32743	32583	32796	32698	32729	32770	32733	32763	
705	0	32765	32763	32750	32685	32761	32647	32689	32771	
706	0	32775	32735	32711	32813	32695	32687	32706	32822	
707	0	32819	32671	32727	32847	32727	32765	32555	32719	
708	0	32790	32644	32743	32727	32683	32721	32567	32731	
709	0	32760	32769	32703	32775	32695	32713	32719	32797	
710	0	32797	32695	32739	32818	32658	32605	32671	32791	
711	0	32780	32759	32763	32685	32665	32653	32619	32775	
712	0	32764	32769	32767	32742	32663	32655	32627	32853	
713	0	32757	32559	32805	32817	32679	32647	32655	32831	
714	0	32759	32590	32830	32695	32796	32669	32669	32738	
715	0	32735	32691	32801	32682	32751	32719	32709	32683	
716	0	32723	32676	32742	32735	32738	32742	32751	32631	
717	0	32765	32687	32774	32767	32694	32765	32623	32661	
718	0	32749	32647	32647	32763	32765	32753	32595	32614	
719	0	32786	32559	32647	32791	32850	32787	32615	32586	
720	0	32788	32733	32642	32713	32667	32639	32645	32632	
721	0	32767	32646	32802	32722	32743	32635	32685	32582	
722	0	32844	32726	32773	32772	32745	32677	32671	32791	
723	0	32699	32679	32747	32750	32647	32607	32599	32787	
724	0	32751	32551	32711	32743	32836	32722	32615	32747	
725	0	32744	32741	32695	32813	32775	32757	32679	32822	
726	0	32793	32677	32735	32807	32707	32706	32759	32779	
727	0	32783	32710	32786	32703	32707	32759	32719	32775	
728	0	32775	32733	32811	32767	32707	32775	32551	32801	
729	0	32745	32587	32807	32660	32798	32775	32701	32775	
730	0	32797	32601	32807	32717	32727	32770	32583	32847	
731	0	32773	32679	32855	32767	32669	32775	32523	32804	
732	0	32801	32769	32702	32687	32756	32676	32535	32679	
733	0	32773	32717	32676	32727	32767	32619	32642	32737	
734	0	32774	32690	32679	32804	32702	32659	32694	32587	
735	0	32742	32703	32775	32723	32733	32647	32733	32583	
736	0	32760	32571	32819	32738	32789	32791	32659	32635	
737	0	32769	32839	32714	32743	32687	32668	32727	32577	
738	0	32704	32715	32753	32807	32743	32759	32783	32607	
739	0	32722	32751	32751	32738	32703	32659	32799	32621	
740	0	32713	32487	32763	32735	32663	32601	32587	32567	
741	0	32775	32748	32639	32771	32775	32683	32647	32583	
742	0	32738	32662	32675	32719	32763	32821	32700	32605	
743	0	32759	32599	32751	32689	32647	32707	32684	32597	
744	0	32775	32529	32717	32775	32751	32727	32719	32559	
745	0	32743	32743	32775	32762	32709	32783	32751	32531	
746	0	32729	32659	32815	32711	32685	32715	32555	32581	
747	0	32769	32748	32819	32679	32733	32647	32628	32601	
748	0	32738	32521	32647	32785	32775	32785	32734	32601	
749	0	32816	32739	32783	32838	32731	32733	32631	32575	
750	0	32754	32687	32775	32759	32787	32818	32692	32567	
751	0	32775	32615	32751	32741	32695	32632	32535	32612	
752	0	32704	32687	32821	32793	32733	32691	32577	32759	
753	0	32703	32731	32799	32799	32679	32695	32679	32711	
754	0	32712	32749	32823	32709	32623	32764	32619	32688	
755	0	32756	32621	32739	32717	32746	32753	32615	32739	
756	0	32759	32604	32799	32751	32749	32723	32634	32591	
757	0	32766	32719	32755	32701	32763	32695	32634	32598	
758	0	32753	32685	32775	32750	32666	32583	32667	32636	
759	0	32745	32719	32819	32791	32739	32675	32519	32687	
760	0	32802	32630	32695	32732	32762	32732	32551	32655	
761	0	32758	32583	32577	32719	32647	32733	32532	32575	
762	0	32775	32735	32698	32795	32749	32718	32645	32591	
763	0	32775	32679	32762	32709	32742	32695	32613	32607	
764	0	32788	32759	32839	32679	32671	32723	32741	32594	
765	0	32764	32585	32773	32765	32763	32791	32700	32613	
766	0	32775	32559	32775	32677	32798	32685	32687	32763	
767	0	32798	32644	32721	32749	32703	32701	32655	32763	
768	0	32806	32729	32775	32791	32639	32572	32734	32786	
769	0	32787	32773	32811	32731	32771	32647	32727	32637	
770	0	32856	32587	32815	32743	32723	32691	32674	32599	
771	0	32805	32815	32721	32804	32738	32719	32643	32623	
772	0	32816	32775	32695	32814	32816	32811	32682	32611	
773	0	32806	32767	32667	32813	32751	32802	32669	32643	
774	0	32700	32631	32748	32804	32799	32775	32678	32631	
775	0	32694	32572	32791	32795	32659	32647	32734	32605	
776	0	32754	32797	32711	32731	32775	32639	32759	32563	
777	0	32752	32711	32699	32756	32787	32774	32647	32566	
778	0	32701	32593	32751	32767	32623	32707	32491	32634	
779	0	32719	32551	32797	32701	32799	32691	32470	32647	
780	0	32758	32667	32754	32679	32767	32697	32639	32676	
781	0	32753	32617	32637	32815	32662	32615	32677	32758	
782	0	32787	32734	32759	32773	32749	32722	32635	32731	
783	0	32762	32511	32771	32766	32756	32751	32725	32743	
784	0	32786	32711	32771	32717	32623	32749	32760	32607	
785	0	32754	32634	32687	32726	32738	32734	32543	32603	
786	0	32724	32727	32823	32787	32767	32767	32517	32623	
787	0	32773	32679	32743	32738	32647	32699	32583	32591	
788	0	32810	32629	32630	32714	32775	32645	32713	32655	
789	0	32826	32743	32686	32711	32775	32626	32713	32663	
790	0	32773	32703	32823	32772	32671	32751	32661	32694	
791	0	32783	32787	32775	32795	32759	32775	32647	32582	
792	0	32759	32727	32811	32751	32733	32743	32659	32591	
793	0	32735	32605	32844	32831	32687	32687	32692	32603	
794	0	32700	32743	32787	32743	32831	32671	32554	32667	
795	0	32757	32663	32757	32685	32796	32603	32516	32727	
796	0	32734	32767	32755	32757	32685	32591	32621	32703	
797	0	32740	32591	32623	32801	32751	32791	32660	32749	
798	0	32792	32622	32711	32756	32774	32767	32671	32743	
799	0	32721	32755	32643	32759	32795	32735	32694	32623	
800	0	32747	32743	32675	32807	32708	32733	32699	32598	
801	0	32770	32647	32713	32714	32731	32703	32725	32595	
802	0	32765	32711	32775	32754	32764	32687	32751	32517	
803	0	32822	32743	32703	32818	32723	32795	32755	32603	
804	0	32775	32535	32735	32699	32739	32655	32787	32623	
805	0	32713	32583	32758	32674	32703	32716	32647	32596	
806	0	32679	32757	32759	32751	32759	32683	32512	32738	
807	0	32714	32756	32850	32747	32749	32687	32619	32730	
808	0	32783	32695	32797	32807	32630	32637	32585	32791	
809	0	32757	32747	32748	32837	32753	32716	32571	32743	
810	0	32801	32623	32739	32731	32753	32695	32677	32790	
811	0	32782	32578	32775	32749	32615	32747	32665	32839	
812	0	32768	32589	32775	32759	32703	32694	32678	32775	
813	0	32775	32701	32809	32692	32775	32756	32725	32861	
814	0	32755	32727	32806	32699	32756	32675	32631	32847	
815	0	32756	32735	32590	32751	32647	32679	32677	32839	
816	0	32748	32551	32642	32789	32743	32743	32695	32806	
817	0	32747	32683	32663	32715	32775	32762	32813	32791	
818	0	32732	32747	32790	32675	32727	32758	32525	32793	
819	0	32789	32803	32715	32756	32743	32625	32676	32797	
820	0	32742	32514	32749	32809	32631	32643	32661	32845	
821	0	32773	32670	32775	32751	32751	32718	32715	32791	
822	0	32739	32687	32805	32761	32756	32707	32747	32708	
823	0	32687	32693	32771	32807	32615	32719	32549	32765	
824	0	32775	32724	32673	32743	32850	32738	32542	32755	
825	0	32788	32515	32630	32760	32740	32754	32543	32787	
826	0	32739	32684	32671	32791	32687	32671	32622	32805	
827	0	32784	32769	32799	32775	32763	32659	32683	32817	
828	0	32809	32721	32722	32771	32747	32793	32629	32774	
829	0	32775	32679	32679	32719	32695	32725	32713	32734	
830	0	32781	32607	32718	32745	32799	32698	32783	32786	
831	0	32743	32754	32726	32751	32738	32731	32524	32711	
832	0	32732	32734	32742	32715	32631	32647	32583	32807	
833	0	32732	32767	32765	32775	32725	32643	32706	32807	
834	0	32767	32562	32663	32758	32772	32719	32692	32767	
835	0	32764	32558	32639	32727	32722	32674	32606	32775	
836	0	32786	32753	32837	32742	32775	32719	32687	32742	
837	0	32768	32695	32783	32711	32683	32575	32719	32591	
838	0	32775	32607	32804	32812	32829	32695	32541	32613	
839	0	32764	32731	32847	32733	32787	32695	32731	32629	
840	0	32785	32646	32764	32815	32670	32722	32703	32591	
841	0	32773	32749	32687	32786	32690	32615	32611	32671	
842	0	32763	32589	32727	32707	32666	32594	32736	32829	
843	0	32781	32721	32775	32743	32733	32711	32758	32815	
844	0	32764	32711	32709	32803	32711	32785	32643	32775	
845	0	32743	32727	32699	32719	32701	32711	32571	32787	
846	0	32740	32689	32755	32726	32645	32743	32559	32775	
847	0	32790	32551	32791	32827	32771	32751	32613	32787	
848	0	32780	32735	32775	32719	32796	32688	32634	32831	
849	0	32756	32727	32773	32709	32671	32671	32579	32775	
850	0	32787	32771	32719	32755	32775	32771	32703	32789	
851	0	32748	32717	32711	32822	32728	32830	32754	32746	
852	0	32783	32525	32839	32733	32695	32807	32610	32782	
853	0	32746	32751	32831	32705	32739	32775	32667	32758	
854	0	32699	32767	32783	32775	32725	32725	32603	32763	
855	0	32727	32655	32819	32698	32687	32642	32660	32775	
856	0	32701	32739	32751	32751	32727	32677	32647	32786	
857	0	32782	32643	32747	32739	32695	32685	32765	32756	
858	0	32730	32567	32724	32711	32775	32703	32629	32763	
859	0	32808	32727	32751	32717	32735	32771	32537	32711	
860	0	32749	32671	32751	32719	32701	32581	32615	32775	
861	0	32761	32767	32735	32775	32719	32636	32689	32775	
862	0	32756	32675	32753	32695	32655	32605	32515	32835	
863	0	32713	32525	32775	32823	32818	32647	32511	32799	
864	0	32702	32606	32748	32821	32742	32771	32631	32763	
865	0	32758	32804	32658	32695	32677	32695	32755	32787	
866	0	32769	32751	32735	32813	32695	32739	32679	32871	
867	0	32755	32663	32756	32770	32775	32771	32655	32823	
868	0	32763	32775	32647	32729	32775	32679	32727	32858	
869	0	32782	32743	32679	32826	32674	32679	32703	32767	
870	0	32780	32579	32711	32862	32764	32683	32647	32799	
871	0	32780	32743	32762	32743	32775	32786	32709	32847	
872	0	32775	32695	32769	32741	32727	32694	32765	32885	
873	0	32709	32803	32741	32820	32809	32765	32775	32847	
874	0	32745	32627	32695	32738	32831	32671	32586	32823	
875	0	32796	32711	32847	32667	32762	32621	32653	32831	
876	0	32836	32690	32829	32684	32758	32759	32659	32783	
877	0	32725	32690	32723	32755	32692	32702	32615	32823	
878	0	32774	32725	32720	32695	32753	32706	32661	32771	
879	0	32756	32493	32699	32695	32706	32727	32655	32769	
880	0	32716	32727	32611	32756	32673	32676	32719	32767	
881	0	32751	32687	32626	32799	32715	32667	32771	32828	
882	0	32756	32667	32751	32742	32695	32647	32603	32762	
883	0	32756	32579	32803	32695	32661	32727	32660	32775	
884	0	32762	32599	32713	32785	32726	32719	32773	32773	
885	0	32769	32775	32679	32775	32743	32751	32707	32796	
886	0	32813	32701	32769	32727	32769	32812	32703	32863	
887	0	32773	32722	32749	32831	32662	32749	32713	32859	
888	0	32838	32723	32771	32743	32691	32674	32742	32807	
889	0	32820	32555	32817	32755	32673	32681	32666	32767	
890	0	32770	32679	32799	32723	32789	32605	32671	32742	
891	0	32765	32716	32692	32703	32679	32615	32646	32699	
892	0	32754	32722	32670	32719	32742	32754	32663	32723	
893	0	32743	32565	32679	32791	32678	32698	32564	32811	
894	0	32775	32630	32833	32831	32733	32695	32509	32711	
895	0	32746	32767	32805	32775	32759	32627	32548	32834	
896	0	32748	32763	32699	32735	32742	32615	32631	32855	
897	0	32764	32551	32763	32686	32748	32789	32647	32797	
898	0	32766	32781	32743	32787	32815	32739	32599	32841	
899	0	32807	32699	32710	32711	32725	32775	32695	32791	
900	0	32742	32695	32696	32725	32695	32641	32633	32834	
901	0	32759	32575	32775	32789	32676	32599	32582	32861	
902	0	32807	32765	32769	32846	32661	32635	32683	32843	
903	0	32747	32706	32707	32749	32717	32735	32675	32830	
904	0	32740	32725	32727	32708	32787	32705	32647	32815	
905	0	32705	32573	32761	32771	32679	32731	32702	32767	
906	0	32767	32693	32743	32775	32743	32767	32647	32751	
907	0	32796	32703	32756	32756	32707	32663	32535	32862	
908	0	32820	32707	32717	32702	32775	32791	32567	32839	
909	0	32795	32578	32775	32727	32727	32743	32647	32813	
910	0	32726	32671	32789	32811	32663	32727	32607	32886	
911	0	32815	32767	32743	32723	32790	32775	32644	32775	
912	0	32758	32681	32711	32739	32735	32687	32607	32767	
913	0	32722	32741	32713	32767	32669	32643	32723	32749	
914	0	32726	32631	32751	32745	32790	32698	32637	32698	
915	0	32775	32575	32835	32727	32725	32751	32543	32620	
916	0	32745	32499	32810	32807	32686	32727	32523	32604	
917	0	32771	32731	32759	32695	32732	32719	32503	32578	
918	0	32758	32691	32785	32735	32751	32794	32579	32546	
919	0	32717	32735	32647	32796	32717	32678	32635	32567	
920	0	32751	32591	32587	32682	32709	32695	32695	32535	
921	0	32729	32647	32692	32719	32715	32705	32628	32474	
922	0	32769	32679	32759	32751	32631	32771	32647	32591	
923	0	32749	32738	32771	32785	32703	32739	32647	32767	
924	0	32775	32703	32783	32679	32731	32687	32759	32717	
925	0	32759	32553	32819	32736	32723	32711	32625	32767	
926	0	32760	32631	32890	32775	32690	32708	32563	32687	
927	0	32703	32799	32747	32717	32743	32643	32619	32738	
928	0	32750	32669	32703	32767	32769	32583	32751	32767	
929	0	32760	32707	32764	32775	32695	32735	32703	32803	
930	0	32742	32559	32831	32775	32742	32725	32647	32767	
931	0	32759	32727	32695	32711	32759	32707	32686	32734	
932	0	32788	32683	32687	32737	32767	32663	32753	32740	
933	0	32762	32692	32719	32751	32775	32642	32566	32817	
934	0	32788	32551	32834	32791	32663	32692	32580	32806	
935	0	32723	32743	32785	32799	32774	32727	32623	32791	
936	0	32696	32683	32775	32732	32751	32743	32707	32805	
937	0	32798	32658	32786	32749	32683	32647	32642	32715	
938	0	32727	32751	32626	32747	32767	32676	32783	32724	
939	0	32733	32711	32630	32751	32745	32735	32583	32635	
940	0	32736	32726	32715	32751	32711	32727	32545	32671	
941	0	32751	32558	32813	32753	32749	32795	32623	32559	
942	0	32759	32734	32775	32773	32686	32627	32722	32625	
943	0	32804	32698	32751	32775	32796	32683	32739	32775	
944	0	32722	32747	32807	32826	32717	32799	32775	32809	
945	0	32767	32765	32683	32754	32694	32711	32754	32711	
946	0	32767	32575	32643	32709	32766	32735	32775	32679	
947	0	32838	32707	32639	32743	32733	32715	32722	32604	
948	0	32809	33027	32675	32743	32679	32702	32737	32579	
949	0	32797	33183	32827	32727	32745	32647	32638	32623	
950	0	32795	33031	32784	32827	32687	32689	32589	32591	
951	0	32774	32701	32727	32865	32703	32705	32655	32591	
952	0	32796	32715	32771	32705	32813	32743	32639	32614	
953	0	32839	32685	32804	32767	32764	32701	32599	32630	
954	0	32786	32623	32766	32735	32703	32681	32617	32643	
955	0	32766	32503	32775	32804	32820	32647	32759	32601	
956	0	32766	32519	32607	32751	32775	32813	32742	32743	
957	0	32722	32444	32647	32770	32646	32743	32735	32677	
958	0	32671	32258	32719	32770	32786	32731	32599	32612	
959	0	32741	32342	32839	32823	32711	32635	32479	32676	
960	0	32728	32359	32823	32711	32719	32639	32671	32694	
961	0	32773	32471	32703	32687	32711	32671	32703	32738	
962	0	32743	32475	32725	32719	32679	32743	32647	32655	
963	0	32802	32647	32756	32787	32691	32739	32615	32571	
964	0	32775	32548	32775	32720	32735	32691	32571	32591	
965	0	32754	32603	32823	32815	32647	32775	32635	32623	
966	0	32716	32708	32831	32775	32775	32647	32663	32583	
967	0	32804	32721	32639	32775	32762	32635	32743	32575	
968	0	32724	32819	32613	32687	32671	32721	32647	32599	
969	0	32734	32687	32703	32735	32775	32763	32758	32655	
970	0	32757	32765	32755	32734	32765	32759	32765	32623	
971	0	32771	32804	32755	32674	32683	32775	32475	32539	
972	0	32727	32819	32705	32679	32793	32661	32477	32579	
973	0	32745	32595	32759	32786	32747	32727	32692	32606	
974	0	32771	32870	32625	32719	32765	32730	32628	32783	
975	0	32751	32775	32615	32749	32749	32738	32666	32741	
976	0	32752	32823	32660	32757	32679	32767	32644	32739	
977	0	32772	32723	32681	32788	32727	32731	32679	32715	
978	0	32739	32579	32655	32756	32733	32627	32749	32655	
979	0	32775	32831	32749	32711	32685	32687	32647	32799	
980	0	32799	32742	32669	32775	32742	32751	32531	32835	
981	0	32739	32791	32740	32839	32741	32702	32599	32842	
982	0	32767	32604	32758	32703	32697	32686	32645	32775	
983	0	32778	32749	32740	32708	32775	32634	32731	32850	
984	0	32837	32674	32687	32749	32717	32667	32630	32775	
985	0	32828	32720	32771	32739	32683	32671	32685	32819	
986	0	32759	32595	32825	32827	32731	32757	32771	32799	
987	0	32802	32811	32773	32754	32733	32673	32619	32803	
988	0	32716	32685	32806	32735	32731	32597	32548	32804	
989	0	32756	32732	32757	32746	32706	32783	32543	32787	
990	0	32744	32534	32614	32787	32627	32719	32584	32775	
991	0	32759	32614	32685	32735	32757	32695	32597	32781	
992	0	32682	32759	32709	32757	32773	32751	32691	32754	
993	0	32738	32647	32801	32751	32711	32639	32690	32711	
994	0	32758	32675	32775	32729	32733	32647	32621	32767	
995	0	32759	32666	32813	32724	32736	32743	32671	32775	
996	0	32830	32551	32700	32767	32662	32722	32721	32724	
997	0	32772	32591	32690	32785	32740	32751	32599	32811	
998	0	32715	32723	32679	32733	32743	32738	32631	32879	
999	0	32745	32759	32721	32772	32794	32739	32557	32767	
1000	0	32783	32707	32715	32711	32689	32668	32623	32698	
1001	0	32751	32715	32783	32733	32767	32696	32535	32711	
1002	0	32769	32711	32858	32775	32733	32637	32562	32743	
1003	0	32832	32615	32851	32741	32690	32677	32571	32615	
1004	0	32814	32543	32775	32797	32685	32703	32602	32551	
1005	0	32740	32700	32723	32835	32772	32690	32549	32567	
1006	0	32745	32706	32662	32828	32751	32801	32509	32629	
1007	0	32763	32702	32809	32676	32795	32605	32717	32795	
1008	0	32766	32583	32708	32741	32791	32749	32647	32815	
1009	0	32807	32759	32755	32775	32735	32717	32735	32855	
1010	0	32749	32671	32734	32762	32722	32775	32535	32859	
1011	0	32782	32687	32737	32727	32804	32772	32545	32823	
1012	0	32764	32691	32775	32759	32704	32793	32595	32766	
1013	0	32782	32642	32687	32838	32771	32667	32674	32831	
1014	0	32790	32555	32709	32771	32743	32643	32630	32806	
1015	0	32738	32669	32837	32732	32673	32767	32647	32829	
1016	0	32767	32785	32799	32814	32753	32762	32690	32842	
1017	0	32746	32775	32815	32705	32683	32727	32639	32742	
1018	0	32781	32647	32826	32831	32769	32729	32670	32658	
1019	0	32679	32723	32843	32822	32717	32711	32719	32611	
1020	0	32773	32751	32669	32731	32799	32743	32790	32663	
1021	0	32794	32565	32719	32759	32702	32722	32756	32615	
1022	0	32764	32557	32773	32771	32759	32731	32613	32527	
1023	0	32757	32699	32771	32704	32639	32635	32575	32583	
1024	0	32736	32700	32783	32759	32723	32631	32623	32615	
1025	0	32775	32687	32855	32775	32685	32607	32646	32627	
1026	0	32765	32717	32755	32727	32655	32647	32567	32554	
1027	0	32767	32767	32699	32739	32671	32766	32563	32730	
1028	0	32769	32765	32795	32719	32775	32719	32555	32734	
1029	0	32727	32749	32787	32775	32679	32775	32535	32769	
1030	0	32766	32766	32724	32739	32699	32743	32775	32819	
1031	0	32832	32614	32643	32671	32702	32767	32663	32871	
1032	0	32758	32562	32594	32727	32727	32734	32611	32773	
1033	0	32723	32699	32699	32745	32743	32756	32524	32813	
1034	0	32806	32689	32719	32705	32833	32692	32479	32790	
1035	0	32786	32711	32663	32829	32699	32655	32550	32718	
1036	0	32784	32627	32700	32677	32679	32727	32450	32631	
1037	0	32781	32743	32799	32702	32755	32647	32635	32674	
1038	0	32756	32775	32787	32775	32795	32703	32727	32587	
1039	0	32762	32698	32676	32715	32647	32647	32643	32583	
1040	0	32762	32594	32759	32735	32699	32679	32631	32585	
1041	0	32763	32642	32793	32791	32692	32743	32635	32626	
1042	0	32720	32621	32836	32758	32785	32791	32717	32739	
1043	0	32743	32708	32850	32727	32690	32733	32717	32727	
1044	0	32764	32747	32804	32791	32786	32759	32653	32719	
1045	0	32766	32719	32636	32739	32716	32659	32667	32703	
1046	0	32739	32671	32681	32769	32759	32654	32713	32759	
1047	0	32705	32710	32791	32699	32662	32647	32631	32775	
1048	0	32790	32711	32658	32692	32823	32623	32717	32724	
1049	0	32722	32630	32775	32683	32786	32679	32553	32775	
1050	0	32713	32757	32647	32751	32735	32740	32662	32773	
1051	0	32700	32767	32759	32827	32799	32742	32775	32722	
1052	0	32759	32582	32801	32788	32731	32667	32643	32614	
1053	0	32772	32551	32693	32745	32839	32683	32711	32792	
1054	0	32782	32775	32731	32830	32813	32767	32708	32631	
1055	0	32738	32775	32706	32807	32783	32716	32551	32567	
1056	0	32717	32533	32771	32831	32726	32765	32597	32567	
1057	0	32711	32513	32737	32747	32749	32671	32572	32615	
1058	0	32756	32663	32719	32775	32629	32699	32527	32735	
1059	0	32773	32775	32809	32751	32775	32681	32647	32743	
1060	0	32804	32743	32775	32707	32757	32663	32677	32815	
1061	0	32810	32671	32687	32743	32647	32817	32659	32767	
1062	0	32749	32745	32735	32775	32759	32723	32699	32727	
1063	0	32726	32770	32815	32756	32727	32731	32715	32708	
1064	0	32784	32627	32846	32775	32677	32786	32805	32741	
1065	0	32771	32546	32737	32811	32634	32754	32734	32807	
1066	0	32738	32754	32753	32730	32703	32647	32751	32815	
1067	0	32769	32687	32773	32729	32772	32647	32775	32811	
1068	0	32839	32731	32822	32747	32627	32738	32599	32807	
1069	0	32790	32727	32742	32742	32802	32743	32591	32871	
1070	0	32839	32534	32645	32727	32775	32739	32551	32871	
1071	0	32844	32583	32759	32771	32681	32751	32578	32871	
1072	0	32821	32751	32775	32773	32819	32639	32741	32807	
1073	0	32788	32647	32725	32771	32827	32659	32647	32759	
1074	0	32694	32732	32751	32710	32711	32681	32687	32849	
1075	0	32791	32584	32789	32695	32723	32733	32693	32839	
1076	0	32771	32647	32759	32771	32751	32743	32743	32789	
1077	0	32754	32715	32709	32723	32683	32711	32583	32813	
1078	0	32743	32671	32671	32735	32741	32733	32667	32790	
1079	0	32671	32692	32739	32775	32711	32685	32721	32861	
1080	0	32724	32717	32818	32765	32677	32633	32743	32775	
1081	0	32745	32591	32727	32743	32756	32732	32751	32819	
1082	0	32692	32751	32751	32775	32646	32751	32527	32811	
1083	0	32716	32734	32819	32831	32762	32735	32596	32791	
1084	0	32754	32767	32709	32823	32775	32603	32734	32771	
1085	0	32729	32655	32647	32773	32695	32582	32703	32725	
1086	0	32748	32541	32691	32789	32771	32601	32591	32751	
1087	0	32775	32643	32767	32799	32767	32684	32699	32791	
1088	0	32769	32771	32711	32669	32655	32717	32704	32863	
1089	0	32749	32775	32802	32759	32735	32741	32711	32839	
1090	0	32805	32677	32761	32815	32685	32719	32743	32823	
1091	0	32775	32735	32759	32731	32725	32722	32706	32679	
1092	0	32751	32711	32721	32801	32703	32751	32709	32610	
1093	0	32789	32634	32786	32647	32751	32711	32719	32586	
1094	0	32751	32517	32799	32671	32740	32647	32643	32591	
1095	0	32775	32663	32795	32709	32687	32699	32540	32592	
1096	0	32708	32755	32743	32711	32675	32707	32567	32756	
1097	0	32735	32745	32773	32725	32751	32755	32596	32807	
1098	0	32765	32743	32699	32751	32723	32691	32767	32811	
1099	0	32746	32647	32711	32709	32755	32635	32595	32829	
1100	0	32786	32751	32647	32775	32669	32727	32510	32835	
1101	0	32706	32627	32615	32807	32775	32775	32597	32790	
1102	0	32729	32602	32615	32819	32719	32738	32621	32783	
1103	0	32769	32535	32663	32829	32711	32725	32759	32745	
1104	0	32775	32707	32678	32763	32679	32719	32695	32621	
1105	0	32770	32638	32807	32743	32709	32743	32659	32735	
1106	0	32800	32735	32698	32804	32733	32607	32677	32754	
1107	0	32766	32635	32729	32817	32758	32595	32719	32637	
1108	0	32823	32661	32829	32694	32743	32655	32751	32639	
1109	0	32813	32798	32793	32740	32685	32743	32663	32595	
1110	0	32818	32747	32855	32743	32673	32749	32527	32585	
1111	0	32762	32722	32839	32718	32819	32747	32604	32767	
1112	0	32786	32743	32815	32839	32747	32754	32567	32844	
1113	0	32818	32747	32775	32743	32743	32675	32491	32791	
1114	0	32784	32703	32827	32807	32655	32767	32584	32762	
1115	0	32755	32667	32695	32726	32795	32734	32583	32767	
1116	0	32726	32571	32669	32700	32758	32687	32647	32838	
1117	0	32761	32645	32662	32775	32771	32775	32671	32845	
1118	0	32734	32711	32623	32755	32734	32661	32695	32847	
1119	0	32815	32676	32716	32783	32711	32646	32615	32771	
1120	0	32786	32703	32797	32854	32678	32621	32703	32789	
1121	0	32806	32615	32799	32759	32727	32743	32610	32767	
1122	0	32814	32506	32695	32727	32738	32769	32755	32821	
1123	0	32747	32698	32745	32799	32755	32735	32509	32815	
1124	0	32722	32734	32743	32768	32767	32743	32554	32743	
1125	0	32782	32674	32775	32715	32721	32719	32516	32663	
1126	0	32783	32727	32796	32823	32739	32797	32590	32613	
1127	0	32790	32763	32775	32706	32647	32783	32543	32591	
1128	0	32769	32803	32741	32718	32735	32643	32553	32647	
1129	0	32823	32633	32775	32775	32722	32690	32515	32763	
1130	0	32775	32607	32671	32687	32671	32695	32667	32598	
1131	0	32698	32773	32767	32710	32775	32821	32710	32558	
1132	0	32754	32709	32866	32751	32823	32731	32647	32599	
1133	0	32742	32758	32839	32751	32698	32737	32647	32715	
1134	0	32791	32738	32852	32717	32639	32743	32613	32727	
1135	0	32794	32691	32823	32751	32769	32763	32661	32775	
1136	0	32745	32527	32783	32757	32765	32799	32591	32743	
1137	0	32742	32529	32811	32786	32818	32692	32611	32803	
1138	0	32742	32551	32809	32700	32705	32724	32639	32823	
1139	0	32714	32647	32711	32733	32741	32679	32823	32791	
1140	0	32758	32714	32795	32755	32763	32671	32548	32773	
1141	0	32703	32747	32787	32734	32623	32763	32541	32769	
1142	0	32763	32663	32727	32722	32771	32703	32751	32589	
1143	0	32781	32733	32831	32742	32767	32747	32691	32501	
1144	0	32775	32539	32803	32705	32678	32679	32515	32615	
1145	0	32743	32567	32863	32727	32662	32700	32567	32589	
1146	0	32756	32741	32763	32823	32807	32733	32599	32557	
1147	0	32731	32647	32621	32663	32797	32674	32679	32571	
1148	0	32766	32723	32743	32715	32690	32615	32613	32635	
1149	0	32717	32743	32749	32775	32775	32667	32723	32596	
1150	0	32769	32543	32794	32775	32763	32809	32751	32607	
1151	0	32801	32692	32819	32730	32643	32739	32613	32655	
1152	0	32790	32724	32733	32727	32775	32742	32551	32677	
1153	0	32783	32701	32747	32775	32724	32712	32575	32604	
1154	0	32741	32783	32767	32715	32749	32758	32647	32575	
1155	0	32770	32605	32743	32823	32687	32679	32693	32815	
1156	0	32775	32615	32746	32844	32739	32671	32647	32751	
1157	0	32775	32743	32738	32775	32747	32627	32647	32727	
1158	0	32770	32727	32775	32835	32687	32621	32735	32783	
1159	0	32740	32807	32679	32773	32731	32702	32687	32814	
1160	0	32759	32701	32647	32735	32772	32703	32627	32795	
1161	0	32750	32695	32699	32767	32775	32775	32662	32863	
1162	0	32809	32655	32623	32722	32763	32703	32695	32735	
1163	0	32732	32679	32671	32805	32669	32715	32743	32605	
1164	0	32737	32685	32735	32747	32658	32765	32724	32619	
1165	0	32710	32733	32790	32810	32748	32677	32695	32762	
1166	0	32715	32675	32771	32738	32711	32763	32749	32708	
1167	0	32708	32551	32775	32746	32754	32763	32711	32729	
1168	0	32729	32529	32727	32807	32636	32663	32549	32820	
1169	0	32749	32589	32775	32705	32739	32819	32543	32863	
1170	0	32752	32663	32762	32795	32735	32711	32535	32799	
1171	0	32737	32645	32710	32817	32695	32595	32695	32767	
1172	0	32801	32749	32615	32769	32749	32637	32775	32749	
1173	0	32774	32769	32609	32811	32759	32629	32679	32655	
1174	0	32766	32626	32658	32820	32732	32686	32703	32735	
1175	0	32758	32659	32771	32735	32743	32713	32741	32667	
1176	0	32718	32731	32742	32663	32735	32714	32759	32605	
1177	0	32756	32855	32740	32775	32775	32675	32553	32623	
1178	0	32820	32695	32794	32743	32659	32791	32515	32611	
1179	0	32804	32774	32811	32763	32727	32671	32603	32794	
1180	0	32765	32694	32758	32786	32791	32695	32615	32773	
1181	0	32799	32763	32742	32715	32819	32727	32514	32797	
1182	0	32801	32813	32769	32747	32671	32671	32559	32851	
1183	0	32687	32509	32751	32767	32761	32645	32612	32876	
1184	0	32784	32647	32821	32775	32723	32694	32719	32891	
1185	0	32806	32667	32775	32711	32623	32703	32703	32831	
1186	0	32836	32762	32831	32795	32687	32775	32643	32811	
1187	0	32754	32629	32811	32699	32717	32580	32757	32810	
1188	0	32799	32583	32783	32724	32638	32647	32743	32775	
1189	0	32745	32754	32797	32775	32727	32687	32603	32755	
1190	0	32792	32745	32623	32789	32687	32747	32567	32743	
1191	0	32770	32823	32611	32665	32759	32750	32679	32745	
1192	0	32772	32509	32681	32694	32731	32687	32662	32770	
1193	0	32748	32739	32754	32775	32647	32719	32619	32787	
1194	0	32730	32775	32631	32786	32715	32735	32679	32734	
1195	0	32719	32823	32737	32785	32671	32707	32706	32786	
1196	0	32720	32815	32747	32743	32719	32775	32495	32775	
1197	0	32715	32660	32758	32755	32735	32647	32469	32807	
1198	0	32722	32599	32754	32719	32790	32658	32486	32871	
1199	0	32726	32581	32785	32759	32679	32647	32471	32845	
1200	0	32769	32627	32730	32774	32677	32595	32487	32687	
1201	0	32806	32690	32685	32722	32756	32677	32461	32598	
1202	0	32743	32711	32701	32791	32742	32662	32535	32611	
1203	0	32771	32695	32742	32795	32742	32717	32495	32732	
1204	0	32795	32703	32703	32827	32759	32631	32717	32810	
1205	0	32790	32679	32773	32711	32642	32767	32566	32807	
1206	0	32749	32657	32763	32711	32770	32741	32643	32861	
1207	0	32759	32734	32805	32703	32703	32747	32539	32772	
1208	0	32783	32723	32765	32759	32775	32703	32659	32715	
1209	0	32727	32573	32863	32756	32667	32743	32690	32599	
1210	0	32718	32519	32791	32751	32726	32756	32691	32563	
1211	0	32726	32705	32826	32745	32717	32766	32626	32617	
1212	0	32804	32701	32833	32807	32783	32741	32675	32775	
1213	0	32795	32733	32819	32711	32659	32775	32719	32755	
1214	0	32711	32797	32837	32751	32709	32797	32695	32791	
1215	0	32813	32695	32775	32687	32766	32743	32711	32787	
1216	0	32800	32637	32847	32764	32715	32719	32707	32877	
1217	0	32793	32647	32862	32757	32759	32796	32765	32883	
1218	0	32726	32709	32787	32710	32614	32694	32727	32823	
1219	0	32787	32622	32685	32748	32791	32671	32737	32739	
1220	0	32780	32586	32711	32703	32749	32719	32734	32573	
1221	0	32710	32671	32783	32862	32749	32695	32631	32786	
1222	0	32747	32610	32877	32765	32761	32679	32631	32749	
1223	0	32807	32617	32749	32771	32715	32709	32539	32791	
1224	0	32815	32563	32762	32703	32677	32662	32555	32775	
1225	0	32758	32639	32835	32739	32743	32655	32550	32877	
1226	0	32761	32708	32759	32773	32735	32639	32487	32759	
1227	0	32754	32771	32815	32711	32775	32711	32527	32690	
1228	0	32793	32683	32814	32759	32643	32739	32599	32623	
1229	0	32771	32745	32847	32775	32803	32766	32638	32577	
1230	0	32755	32775	32722	32719	32703	32759	32676	32598	
1231	0	32692	32797	32835	32797	32769	32711	32687	32743	
1232	0	32745	32647	32721	32655	32679	32727	32647	32726	
1233	0	32742	32519	32751	32732	32803	32715	32637	32775	
1234	0	32710	32545	32723	32783	32839	32756	32695	32729	
1235	0	32771	32583	32802	32684	32799	32647	32723	32790	
1236	0	32775	32615	32834	32775	32771	32775	32607	32797	
1237	0	32768	32659	32799	32719	32799	32756	32539	32735	
1238	0	32710	32751	32815	32772	32695	32763	32660	32655	
1239	0	32759	32659	32743	32741	32758	32706	32515	32623	
1240	0	32719	32685	32830	32790	32709	32679	32591	32727	
1241	0	32790	32726	32802	32653	32686	32605	32479	32739	
1242	0	32774	32711	32807	32731	32810	32663	32503	32787	
1243	0	32712	32661	32818	32743	32743	32601	32493	32851	
1244	0	32762	32679	32866	32758	32810	32618	32655	32818	
1245	0	32797	32775	32711	32758	32775	32647	32657	32709	
1246	0	32718	32722	32791	32735	32807	32529	32619	32602	
1247	0	32733	32663	32725	32755	32683	32658	32687	32617	
1248	0	32804	32687	32745	32753	32723	32647	32615	32775	
1249	0	32816	32567	32743	32727	32703	32751	32617	32759	
1250	0	32786	32583	32771	32791	32723	32676	32662	32711	
1251	0	32780	32731	32780	32775	32675	32756	32715	32751	
1252	0	32807	32687	32639	32713	32806	32715	32615	32735	
1253	0	32839	32716	32621	32769	32727	32658	32609	32751	
1254	0	32761	32734	32759	32797	32647	32740	32672	32775	
1255	0	32786	32655	32772	32734	32647	32764	32647	32795	
1256	0	32738	32586	32751	32785	32809	32774	32706	32839	
1257	0	32730	32522	32823	32767	32687	32671	32703	32847	
1258	0	32745	32587	32775	32820	32711	32738	32722	32839	
1259	0	32701	32751	32749	32815	32687	32711	32591	32843	
1260	0	32679	32727	32775	32739	32767	32775	32501	32695	
1261	0	32724	32727	32755	32829	32727	32707	32551	32709	
1262	0	32788	32759	32760	32701	32715	32734	32515	32571	
1263	0	32771	32725	32817	32735	32666	32735	32690	32627	
1264	0	32782	32621	32809	32759	32758	32655	32705	32589	
1265	0	32820	32603	32775	32751	32742	32699	32751	32628	
1266	0	32823	32629	32739	32711	32708	32786	32695	32595	
1267	0	32773	32681	32685	32817	32671	32727	32663	32615	
1268	0	32801	32727	32692	32743	32774	32584	32639	32807	
1269	0	32836	32799	32661	32791	32711	32703	32640	32775	
1270	0	32804	32727	32647	32722	32655	32695	32711	32839	
1271	0	32775	32719	32644	32811	32639	32639	32731	32835	
1272	0	32833	32773	32589	32759	32735	32621	32769	32859	
1273	0	32842	32820	32647	32758	32699	32655	32735	32859	
1274	0	32807	32672	32667	32687	32647	32621	32715	32879	
1275	0	32888	32642	32805	32799	32711	32543	32751	32891	
1276	0	32829	32663	32733	32807	32753	32647	32733	32851	
1277	0	32793	32819	32775	32719	32775	32677	32775	32901	
1278	0	32832	32774	32687	32735	32638	32751	32797	32887	
1279	0	32871	32731	32715	32714	32827	32637	32851	32877	
1280	0	32868	32786	32694	32775	32699	32786	32819	32941	
1281	0	32824	32807	32756	32751	32759	32771	32723	32927	
1282	0	32840	32595	32819	32762	32743	32715	32638	32866	
1283	0	32837	32687	32934	32678	32867	32775	32732	32877	
1284	0	32790	32692	32882	32673	32855	32751	32771	32871	
1285	0	32780	32727	32918	32699	32739	32721	32834	32815	
1286	0	32815	32715	32789	32637	32867	32774	32727	32795	
1287	0	32791	32717	32775	32647	32767	32820	32679	32755	
1288	0	32722	32577	32935	32679	32743	32775	32722	32735	
1289	0	32709	32507	32855	32711	32845	32871	32723	32657	
1290	0	32708	32703	32871	32692	32823	32803	32554	32677	
1291	0	32721	32537	32949	32683	32731	32671	32487	32647	
1292	0	32732	32663	32935	32628	32855	32819	32495	32669	
1293	0	32684	32423	32821	32711	32962	32735	32647	32631	
1294	0	32647	32546	33037	32735	32851	32857	32566	32670	
1295	0	32678	32655	32999	32734	32891	32855	32591	32617	
1296	0	32646	32615	32971	32787	32943	32711	32623	32586	
1297	0	32694	32599	32903	32731	32791	32829	32629	32621	
1298	0	32716	32567	32919	32635	32975	32903	32749	32647	
1299	0	32694	32404	33077	32643	32903	32791	32775	32627	
1300	0	32756	32419	33010	32711	32798	32859	32662	32679	
1301	0	32743	32443	32999	32625	32836	32933	32597	32735	
1302	0	32699	32569	32951	32602	32865	32783	32676	32741	
1303	0	32740	32599	32855	32639	32866	32923	32647	32706	
1304	0	32655	32683	32775	32646	32751	32866	32463	32623	
1305	0	32559	32551	32751	32735	32807	32723	32365	32538	
1306	0	32479	32647	32566	32775	32647	32713	32319	32455	
1307	0	32475	32583	32475	32839	32547	32691	32020	32350	
1308	0	32489	32555	32404	33019	32505	32548	31991	32275	
1309	0	32550	32557	32391	33015	32509	32567	31997	32283	
1310	0	32525	32722	32367	32991	32406	32519	32011	32319	
1311	0	32445	32799	32381	33087	32332	32411	32047	32423	
1312	0	32465	32711	32279	33037	32461	32455	32049	32485	
1313	0	32519	32823	32329	32890	32453	32495	32031	32549	
1314	0	32533	32837	32327	32914	32367	32563	32130	32563	
1315	0	32560	32742	32327	32859	32375	32433	32200	32614	
1316	0	32614	32683	32335	32897	32495	32509	32332	32767	
1317	0	32655	32598	32357	32871	32455	32631	32423	32855	
1318	0	32692	32549	32491	32815	32607	32631	32591	32866	
1319	0	32634	32761	32586	32783	32523	32508	32615	32820	
1320	0	32709	32731	32598	32756	32617	32655	32567	32830	
1321	0	32786	32759	32663	32775	32661	32707	32681	32863	
1322	0	32793	32797	32711	32792	32679	32674	32789	32943	
1323	0	32850	32771	32839	32775	32662	32641	32855	32999	
1324	0	32856	32735	32834	32775	32707	32607	32871	32999	
1325	0	32866	32773	32871	32775	32716	32647	32807	32895	
1326	0	32821	32791	32827	32775	32749	32668	32887	32839	
1327	0	32775	32847	32804	32844	32743	32625	32871	32815	
1328	0	32816	32748	32806	32766	32674	32563	32661	32687	
1329	0	32614	32709	32843	32774	32630	32583	32676	32791	
1330	0	32632	32595	32703	32861	32775	32643	32631	32738	
1331	0	32676	32713	32735	32802	32743	32612	32627	32602	
1332	0	32687	32839	32796	32773	32685	32603	32717	32626	
1333	0	32749	32795	32798	32813	32719	32660	32813	32926	
1334	0	32782	32863	32797	32791	32689	32599	32827	32841	
1335	0	32935	32839	32699	32771	32621	32627	32983	32885	
1336	0	32970	32743	32735	32805	32775	32674	32996	32854	
1337	0	33039	32535	32773	32715	32791	32751	32987	32841	
1338	0	33057	32615	32791	32713	32819	32755	32975	32931	
1339	0	33065	32583	32809	32667	32751	32807	33029	32915	
1340	0	33106	32711	32837	32569	32854	32807	33139	32903	
1341	0	33061	32705	32893	32647	32831	32755	33039	32919	
1342	0	33063	32700	32899	32634	32758	32802	33081	32935	
1343	0	33095	32700	33026	32553	32799	32867	33039	32900	
1344	0	33012	32710	33026	32605	32871	32815	33026	32943	
1345	0	33036	32767	32935	32543	32839	32847	33030	32895	
1346	0	33053	32679	32979	32647	32863	32717	33095	33015	
1347	0	33024	32707	32903	32626	32899	32703	32991	32875	
1348	0	33007	32647	32943	32703	32775	32834	32895	32751	
1349	0	33015	32679	32767	32630	32788	32842	32839	32916	
1350	0	33000	32611	32837	32679	32859	32769	32775	32878	
1351	0	32962	32687	32841	32623	32869	32667	32726	32867	
1352	0	32946	32802	32823	32638	32726	32813	32659	32859	
1353	0	32879	32775	32817	32764	32767	32737	32588	32807	
1354	0	32858	32773	32799	32773	32748	32837	32583	32787	
1355	0	32782	32717	32819	32719	32804	32757	32530	32749	
1356	0	32813	32711	32769	32727	32808	32677	32679	32597	
1357	0	32704	32710	32762	32685	32729	32867	32511	32543	
1358	0	32727	32703	32845	32757	32820	32822	32445	32517	
1359	0	32733	32603	32742	32703	32791	32666	32447	32542	
1360	0	32748	32533	32788	32694	32759	32749	32414	32518	
1361	0	32662	32615	32710	32741	32717	32687	32382	32574	
1362	0	32685	32723	32762	32711	32706	32673	32516	32549	
1363	0	32671	32598	32705	32775	32669	32637	32580	32511	
1364	0	32705	32709	32694	32797	32670	32743	32558	32509	
1365	0	32701	32771	32775	32787	32679	32647	32509	32503	
1366	0	32702	32507	32823	32687	32726	32727	32623	32577	
1367	0	32727	32659	32711	32687	32774	32734	32626	32564	
1368	0	32710	32686	32739	32757	32732	32644	32690	32607	
1369	0	32701	32723	32807	32795	32707	32715	32483	32541	
1370	0	32639	32767	32748	32749	32717	32691	32485	32516	
1371	0	32589	32577	32727	32783	32747	32647	32610	32500	
1372	0	32703	32758	32645	32807	32733	32687	32623	32499	
1373	0	32692	32679	32671	32715	32713	32703	32581	32527	
1374	0	32663	32703	32678	32823	32795	32647	32606	32519	
1375	0	32685	32647	32743	32799	32823	32743	32543	32562	
1376	0	32656	32615	32773	32795	32661	32721	32559	32583	
1377	0	32722	32703	32702	32775	32756	32679	32595	32543	
1378	0	32703	32679	32685	32811	32775	32703	32659	32562	
1379	0	32629	32725	32715	32807	32647	32721	32629	32717	
1380	0	32733	32735	32669	32797	32707	32627	32647	32737	
1381	0	32701	32551	32710	32799	32722	32679	32492	32727	
1382	0	32711	32545	32732	32798	32703	32717	32412	32739	
1383	0	32782	32669	32763	32742	32619	32646	32463	32748	
1384	0	32745	32691	32831	32829	32694	32615	32477	32813	
1385	0	32721	32717	32738	32757	32719	32709	32559	32671	
1386	0	32736	32798	32710	32795	32769	32767	32550	32575	
1387	0	32762	32734	32768	32699	32797	32713	32667	32591	
1388	0	32839	32754	32857	32749	32714	32795	32638	32741	
1389	0	32834	32711	32790	32691	32687	32645	32647	32809	
1390	0	32765	32735	32750	32759	32701	32703	32545	32719	
1391	0	32791	32571	32795	32783	32775	32763	32503	32684	
1392	0	32754	32503	32823	32827	32626	32615	32500	32742	
1393	0	32781	32598	32789	32692	32719	32747	32561	32794	
1394	0	32751	32711	32818	32795	32735	32725	32551	32749	
1395	0	32768	32789	32775	32727	32738	32745	32567	32815	
1396	0	32790	32710	32775	32692	32743	32635	32527	32767	
1397	0	32708	32698	32775	32747	32758	32695	32583	32820	
1398	0	32743	32623	32761	32791	32727	32619	32575	32891	
1399	0	32717	32566	32591	32703	32671	32666	32742	32791	
1400	0	32751	32687	32621	32791	32719	32703	32663	32799	
1401	0	32690	32763	32655	32817	32735	32647	32694	32823	
1402	0	32687	32647	32695	32707	32695	32614	32709	32843	
1403	0	32703	32671	32629	32815	32631	32743	32695	32638	
1404	0	32693	32691	32580	32749	32670	32711	32621	32611	
1405	0	32743	32703	32647	32749	32739	32617	32628	32623	
1406	0	32757	32562	32694	32791	32771	32701	32617	32643	
1407	0	32745	32603	32692	32695	32675	32787	32647	32617	
1408	0	32769	32804	32759	32725	32767	32658	32647	32557	
1409	0	32789	32693	32775	32807	32763	32732	32719	32631	
1410	0	32802	32631	32791	32743	32674	32717	32690	32567	
1411	0	32761	32709	32723	32785	32646	32679	32797	32613	
1412	0	32784	32563	32759	32781	32735	32711	32509	32599	
1413	0	32775	32590	32782	32726	32743	32711	32501	32576	
1414	0	32766	32591	32804	32739	32669	32724	32555	32627	
1415	0	32743	32738	32823	32715	32695	32631	32551	32713	
1416	0	32751	32739	32858	32646	32754	32738	32596	32701	
1417	0	32751	32775	32836	32711	32739	32764	32513	32791	
1418	0	32745	32724	32839	32711	32827	32775	32599	32751	
1419	0	32804	32695	32807	32775	32723	32627	32556	32806	
1420	0	32775	32694	32809	32730	32679	32783	32684	32858	
1421	0	32748	32545	32820	32724	32711	32758	32635	32807	
1422	0	32732	32514	32729	32813	32772	32677	32679	32711	
1423	0	32800	32623	32691	32734	32671	32732	32719	32591	
1424	0	32827	32707	32742	32679	32775	32742	32695	32647	
1425	0	32775	32699	32749	32815	32795	32655	32637	32598	
1426	0	32766	32759	32775	32732	32735	32775	32629	32571	
1427	0	32783	32581	32740	32758	32775	32757	32635	32572	
1428	0	32788	32557	32711	32775	32739	32599	32687	32607	
1429	0	32763	32583	32681	32809	32851	32735	32668	32797	
1430	0	32742	32787	32709	32815	32721	32771	32639	32771	
1431	0	32781	32711	32749	32802	32799	32599	32719	32783	
1432	0	32769	32733	32805	32759	32775	32751	32709	32791	
1433	0	32743	32791	32828	32733	32669	32727	32827	32827	
1434	0	32784	32655	32787	32791	32783	32676	32522	32823	
1435	0	32799	32669	32642	32708	32739	32647	32587	32799	
1436	0	32775	32775	32629	32749	32749	32809	32734	32807	
1437	0	32729	32695	32715	32733	32691	32659	32610	32848	
1438	0	32751	32727	32647	32680	32755	32611	32679	32878	
1439	0	32726	32749	32691	32731	32757	32703	32681	32669	
1440	0	32720	32751	32735	32767	32686	32731	32639	32591	
1441	0	32759	32711	32658	32671	32662	32735	32662	32629	
1442	0	32741	32623	32679	32811	32759	32645	32639	32731	
1443	0	32749	32587	32639	32707	32679	32619	32668	32759	
1444	0	32724	32539	32659	32741	32775	32700	32677	32735	
1445	0	32783	32715	32711	32775	32660	32754	32591	32733	
1446	0	32846	32711	32839	32786	32735	32647	32679	32807	
1447	0	32775	32695	32811	32774	32759	32692	32679	32903	
1448	0	32769	32749	32759	32822	32694	32715	32641	32901	
1449	0	32682	32827	32771	32743	32751	32662	32617	32775	
1450	0	32704	32647	32691	32775	32692	32708	32535	32647	
1451	0	32744	32631	32715	32815	32751	32719	32647	32663	
1452	0	32754	32772	32775	32746	32743	32687	32658	32707	
1453	0	32760	32759	32775	32775	32686	32743	32619	32634	
1454	0	32743	32743	32767	32751	32819	32642	32687	32615	
1455	0	32722	32734	32773	32703	32694	32630	32646	32581	
1456	0	32743	32763	32783	32685	32727	32771	32669	32775	
1457	0	32804	32573	32775	32767	32701	32748	32730	32831	
1458	0	32807	32577	32826	32730	32751	32668	32766	32755	
1459	0	32873	32556	32837	32732	32663	32641	32694	32765	
1460	0	32836	32647	32756	32743	32724	32742	32690	32823	
1461	0	32815	32771	32773	32789	32735	32742	32730	32817	
1462	0	32791	32717	32760	32807	32739	32589	32692	32715	
1463	0	32748	32732	32807	32743	32692	32695	32666	32615	
1464	0	32765	32711	32761	32823	32663	32775	32551	32583	
1465	0	32750	32789	32758	32800	32775	32719	32543	32551	
1466	0	32772	32667	32713	32735	32786	32671	32602	32574	
1467	0	32764	32575	32788	32799	32720	32726	32567	32567	
1468	0	32791	32583	32803	32767	32667	32741	32595	32831	
1469	0	32751	32555	32775	32751	32765	32687	32773	32775	
1470	0	32735	32630	32787	32807	32755	32687	32687	32847	
1471	0	32751	32637	32803	32799	32773	32647	32631	32807	
1472	0	32752	32756	32743	32799	32699	32711	32721	32679	
1473	0	32716	32741	32743	32701	32758	32689	32675	32682	
1474	0	32756	32647	32828	32751	32717	32637	32647	32555	
1475	0	32751	32717	32863	32839	32747	32631	32623	32583	
1476	0	32747	32711	32767	32631	32633	32803	32589	32764	
1477	0	32788	32749	32845	32735	32756	32753	32506	32759	
1478	0	32733	32559	32800	32709	32735	32692	32615	32711	
1479	0	32701	32565	32641	32683	32682	32699	32627	32751	
1480	0	32748	32711	32638	32692	32775	32685	32609	32769	
1481	0	32764	32623	32690	32711	32710	32668	32633	32825	
1482	0	32773	32626	32677	32707	32783	32637	32557	32783	
1483	0	32772	32691	32813	32761	32655	32773	32743	32831	
1484	0	32718	32741	32819	32802	32743	32699	32575	32827	
1485	0	32764	32567	32851	32679	32751	32667	32579	32767	
1486	0	32775	32607	32731	32738	32679	32763	32681	32794	
1487	0	32753	32751	32683	32809	32815	32696	32734	32843	
1488	0	32786	32711	32804	32711	32766	32657	32573	32775	
1489	0	32762	32703	32767	32742	32695	32710	32543	32783	
1490	0	32715	32599	32771	32693	32805	32725	32730	32763	
1491	0	32729	32535	32724	32759	32790	32695	32605	32789	
1492	0	32759	32719	32610	32647	32647	32719	32607	32789	
1493	0	32832	32775	32631	32747	32735	32715	32709	32807	
1494	0	32793	32693	32611	32758	32719	32658	32759	32790	
1495	0	32793	32707	32659	32699	32775	32687	32783	32758	
1496	0	32795	32807	32743	32701	32703	32799	32743	32775	
1497	0	32751	32533	32771	32732	32705	32669	32756	32759	
1498	0	32745	32820	32811	32714	32695	32717	32663	32598	
1499	0	32768	32657	32829	32701	32804	32619	32598	32566	
1500	0	32708	32767	32646	32739	32775	32709	32597	32598	
1501	0	32716	32646	32666	32755	32631	32695	32553	32537	
1502	0	32725	32567	32663	32694	32711	32759	32831	32581	
1503	0	32756	32549	32775	32859	32743	32659	32638	32559	
1504	0	32751	32788	32799	32823	32719	32716	32502	32583	
1505	0	32806	32730	32847	32790	32751	32639	32533	32643	
1506	0	32762	32723	32839	32759	32747	32722	32524	32703	
1507	0	32775	32726	32855	32785	32719	32719	32551	32606	
1508	0	32767	32671	32860	32831	32722	32713	32583	32647	
1509	0	32780	32599	32775	32764	32663	32733	32634	32691	
1510	0	32770	32679	32631	32791	32785	32671	32679	32583	
1511	0	32745	32699	32687	32818	32691	32580	32719	32733	
1512	0	32714	32711	32799	32735	32731	32671	32619	32727	
1513	0	32764	32751	32751	32695	32762	32736	32657	32711	
1514	0	32767	32719	32759	32767	32647	32627	32669	32659	
1515	0	32764	32559	32847	32787	32807	32742	32647	32677	
1516	0	32786	32583	32759	32695	32711	32763	32602	32735	
1517	0	32739	32757	32791	32703	32647	32707	32698	32847	
1518	0	32764	32743	32663	32759	32803	32735	32699	32871	
1519	0	32738	32737	32583	32733	32791	32642	32788	32815	
1520	0	32767	32565	32767	32695	32691	32749	32595	32791	
1521	0	32764	32707	32839	32737	32751	32740	32529	32758	
1522	0	32702	32775	32804	32747	32837	32621	32641	32833	
1523	0	32744	32754	32766	32703	32737	32695	32615	32827	
1524	0	32796	32691	32759	32730	32727	32724	32769	32854	
1525	0	32799	32715	32813	32749	32737	32709	32685	32841	
1526	0	32749	32775	32772	32738	32711	32717	32667	32807	
1527	0	32839	32645	32843	32823	32681	32735	32663	32759	
1528	0	32743	32508	32803	32745	32791	32673	32636	32655	
1529	0	32751	32515	32761	32739	32727	32647	32678	32603	
1530	0	32735	32655	32711	32775	32791	32770	32642	32604	
1531	0	32731	32758	32775	32799	32671	32682	32655	32614	
1532	0	32770	32679	32701	32743	32736	32582	32609	32627	
1533	0	32815	32677	32775	32690	32772	32711	32646	32590	
1534	0	32697	32687	32727	32703	32679	32710	32681	32763	
1535	0	32721	32787	32694	32716	32738	32775	32708	32773	
1536	0	32769	32647	32709	32695	32787	32646	32679	32756	
1537	0	32754	32623	32721	32791	32755	32775	32691	32803	
1538	0	32713	32590	32767	32801	32738	32775	32726	32755	
1539	0	32793	32767	32799	32731	32699	32677	32711	32735	
1540	0	32806	32758	32797	32759	32807	32690	32557	32797	
1541	0	32811	32807	32738	32699	32719	32722	32574	32815	
1542	0	32710	32679	32791	32743	32742	32789	32563	32850	
1543	0	32694	32695	32786	32763	32687	32699	32764	32775	
1544	0	32769	32695	32811	32711	32759	32703	32713	32739	
1545	0	32750	32733	32745	32767	32669	32717	32739	32743	
1546	0	32764	32726	32743	32743	32662	32754	32679	32767	
1547	0	32798	32527	32686	32738	32655	32658	32759	32870	
1548	0	32708	32775	32839	32735	32755	32727	32775	32887	
1549	0	32805	32705	32784	32806	32743	32644	32663	32831	
1550	0	32751	32647	32757	32703	32743	32607	32685	32762	
1551	0	32715	32804	32681	32738	32719	32714	32715	32811	
1552	0	32749	32627	32731	32817	32798	32692	32694	32791	
1553	0	32727	32539	32773	32660	32695	32670	32657	32743	
1554	0	32764	32679	32807	32739	32754	32755	32683	32749	
1555	0	32722	32685	32695	32741	32791	32631	32691	32791	
1556	0	32775	32733	32663	32763	32671	32580	32771	32812	
1557	0	32787	32803	32677	32715	32783	32764	32717	32819	
1558	0	32843	32718	32679	32775	32793	32738	32701	32765	
1559	0	32772	32531	32726	32782	32662	32710	32628	32813	
1560	0	32780	32771	32764	32763	32775	32767	32703	32863	
1561	0	32759	32633	32743	32811	32745	32774	32685	32799	
1562	0	32801	32725	32802	32794	32695	32695	32637	32839	
1563	0	32757	32743	32691	32771	32775	32759	32685	32843	
1564	0	32788	32703	32742	32807	32655	32751	32678	32806	
1565	0	32717	32643	32735	32783	32663	32641	32751	32879	
1566	0	32718	32695	32774	32742	32663	32738	32655	32877	
1567	0	32720	32735	32711	32775	32775	32735	32706	32847	
1568	0	32742	32727	32771	32836	32676	32566	32647	32823	
1569	0	32710	32791	32694	32765	32731	32687	32670	32843	
1570	0	32775	32567	32713	32695	32748	32639	32743	32742	
1571	0	32759	32709	32709	32769	32695	32623	32739	32799	
1572	0	32767	32748	32742	32730	32679	32790	32695	32807	
1573	0	32832	32679	32769	32715	32775	32647	32707	32751	
1574	0	32757	32759	32810	32759	32755	32591	32642	32803	
1575	0	32684	32551	32811	32801	32655	32690	32717	32797	
1576	0	32775	32525	32769	32711	32795	32767	32655	32893	
1577	0	32756	32525	32771	32807	32699	32658	32679	32859	
1578	0	32775	32683	32742	32765	32767	32775	32706	32895	
1579	0	32731	32663	32823	32771	32671	32741	32623	32903	
1580	0	32782	32709	32775	32765	32761	32671	32623	32898	
1581	0	32775	32722	32774	32757	32715	32803	32645	32850	
1582	0	32767	32745	32775	32810	32657	32770	32647	32853	
1583	0	32775	32660	32754	32893	32626	32626	32635	32815	
1584	0	32765	32559	32808	32738	32719	32724	32687	32835	
1585	0	32799	32738	32667	32807	32676	32689	32631	32783	
1586	0	32735	32782	32667	32847	32620	32622	32647	32799	
1587	0	32771	32675	32526	32757	32738	32711	32739	32743	
1588	0	32782	32763	32699	32772	32705	32669	32751	32742	
1589	0	32743	32647	32751	32775	32646	32599	32583	32775	
1590	0	32788	32621	32735	32733	32684	32718	32579	32823	
1591	0	32727	32599	32663	32717	32738	32763	32751	32859	
1592	0	32732	32563	32647	32759	32753	32767	32707	32823	
1593	0	32769	32607	32759	32724	32732	32637	32703	32694	
1594	0	32728	32742	32817	32789	32635	32647	32679	32685	
1595	0	32803	32751	32631	32809	32742	32791	32694	32583	
1596	0	32729	32735	32647	32799	32765	32675	32587	32756	
1597	0	32769	32731	32615	32769	32677	32695	32662	32783	
1598	0	32796	32807	32671	32763	32722	32647	32555	32751	
1599	0	32772	32756	32628	32765	32681	32655	32461	32731	
1600	0	32784	32724	32679	32788	32671	32727	32695	32836	
1601	0	32751	32739	32797	32694	32679	32719	32711	32807	
1602	0	32695	32695	32846	32775	32799	32761	32634	32711	
1603	0	32751	32723	32823	32747	32775	32614	32607	32645	
1604	0	32695	32687	32765	32749	32715	32695	32647	32615	
1605	0	32722	32747	32773	32815	32628	32743	32673	32623	
1606	0	32705	32763	32757	32733	32681	32743	32599	32722	
1607	0	32767	32735	32815	32791	32749	32607	32698	32749	
1608	0	32773	32623	32847	32735	32698	32583	32530	32754	
1609	0	32724	32547	32790	32803	32663	32788	32535	32794	
1610	0	32786	32660	32822	32847	32667	32807	32603	32775	
1611	0	32729	32669	32924	32791	32775	32691	32773	32775	
1612	0	32767	32775	32855	32759	32743	32708	32690	32829	
1613	0	32783	32725	32791	32722	32771	32718	32723	32799	
1614	0	32800	32767	32603	32743	32638	32807	32719	32787	
1615	0	32791	32797	32647	32751	32785	32591	32753	32759	
1616	0	32827	32583	32725	32767	32775	32711	32727	32805	
1617	0	32759	32595	32743	32716	32687	32698	32759	32749	
1618	0	32730	32719	32719	32743	32806	32635	32669	32774	
1619	0	32706	32647	32707	32775	32762	32705	32627	32759	
1620	0	32756	32723	32775	32735	32663	32821	32692	32790	
1621	0	32687	32701	32827	32727	32685	32647	32711	32807	
1622	0	32766	32631	32823	32803	32724	32761	32647	32749	
1623	0	32706	32655	32788	32705	32754	32701	32588	32735	
1624	0	32764	32745	32775	32791	32773	32764	32695	32823	
1625	0	32721	32607	32805	32721	32710	32647	32679	32775	
1626	0	32775	32607	32807	32734	32725	32695	32655	32847	
1627	0	32711	32711	32835	32707	32773	32690	32668	32742	
1628	0	32802	32775	32863	32716	32759	32698	32670	32638	
1629	0	32753	32806	32769	32794	32751	32665	32567	32619	
1630	0	32719	32790	32715	32758	32665	32685	32559	32587	
1631	0	32781	32767	32699	32788	32615	32679	32571	32695	
1632	0	32794	32757	32786	32703	32751	32749	32759	32759	
1633	0	32767	32642	32709	32806	32807	32626	32715	32754	
1634	0	32828	32631	32746	32683	32822	32758	32662	32796	
1635	0	32775	32671	32735	32727	32707	32735	32588	32745	
1636	0	32803	32749	32788	32699	32669	32756	32775	32763	
1637	0	32755	32767	32727	32703	32787	32718	32682	32847	
1638	0	32764	32597	32679	32772	32791	32733	32575	32807	
1639	0	32756	32519	32647	32693	32774	32719	32647	32915	
1640	0	32741	32557	32751	32771	32722	32631	32567	32831	
1641	0	32749	32757	32799	32759	32807	32647	32573	32775	
1642	0	32745	32753	32793	32775	32749	32820	32515	32775	
1643	0	32757	32659	32863	32820	32717	32715	32546	32814	
1644	0	32738	32714	32775	32715	32694	32647	32479	32699	
1645	0	32770	32725	32819	32732	32721	32647	32605	32691	
1646	0	32725	32751	32820	32766	32695	32673	32768	32671	
1647	0	32766	32571	32838	32681	32788	32662	32707	32805	
1648	0	32738	32635	32701	32733	32729	32713	32739	32823	
1649	0	32749	32743	32658	32775	32812	32733	32699	32690	
1650	0	32782	32839	32627	32743	32735	32730	32690	32675	
1651	0	32743	32719	32660	32837	32797	32682	32654	32626	
1652	0	32790	32691	32673	32706	32645	32692	32634	32582	
1653	0	32775	32737	32711	32789	32742	32791	32628	32583	
1654	0	32805	32718	32639	32727	32775	32739	32583	32607	
1655	0	32820	32583	32647	32709	32727	32699	32679	32567	
1656	0	32655	32679	32775	32759	32771	32763	32603	32585	
1657	0	32735	32775	32803	32783	32767	32742	32703	32642	
1658	0	32782	32669	32754	32738	32693	32647	32707	32629	
1659	0	32743	32775	32715	32709	32786	32771	32740	32635	
1660	0	32784	32595	32831	32743	32735	32783	32589	32630	
1661	0	32762	32774	32815	32722	32659	32674	32629	32646	
1662	0	32718	32804	32791	32673	32668	32751	32775	32555	
1663	0	32775	32767	32727	32767	32775	32775	32771	32630	
1664	0	32882	32719	32775	32705	32771	32629	32805	32774	
1665	0	32796	32771	32771	32729	32671	32687	32791	32756	
1666	0	32738	32557	32807	32729	32711	32765	32757	32731	
1667	0	32774	32471	32757	32667	32797	32715	32735	32767	
1668	0	32739	32595	32766	32759	32756	32621	32705	32797	
1669	0	32796	32671	32808	32734	32711	32642	32647	32847	
1670	0	32756	32755	32764	32695	32709	32790	32722	32875	
1671	0	32727	32729	32775	32762	32599	32749	32717	32695	
1672	0	32765	32671	32783	32727	32775	32671	32727	32617	
1673	0	32766	32735	32683	32717	32734	32647	32723	32571	
1674	0	32754	32659	32743	32811	32807	32751	32704	32579	
1675	0	32791	32595	32647	32763	32690	32706	32666	32580	
1676	0	32719	32628	32647	32745	32771	32596	32663	32769	
1677	0	32743	32690	32748	32823	32706	32707	32713	32740	
1678	0	32793	32669	32735	32743	32679	32731	32702	32709	
1679	0	32782	32735	32839	32815	32663	32684	32551	32743	
1680	0	32762	32731	32847	32815	32748	32811	32515	32747	
1681	0	32809	32711	32835	32730	32788	32725	32511	32823	
1682	0	32785	32576	32805	32845	32721	32690	32575	32810	
1683	0	32786	32759	32788	32699	32615	32663	32579	32833	
1684	0	32740	32709	32703	32719	32761	32782	32620	32775	
1685	0	32786	32693	32706	32743	32756	32663	32613	32895	
1686	0	32805	32685	32775	32755	32671	32655	32575	32864	
1687	0	32783	32604	32845	32739	32713	32647	32726	32850	
1688	0	32801	32687	32803	32701	32730	32666	32703	32843	
1689	0	32775	32775	32719	32799	32799	32667	32695	32797	
1690	0	32726	32670	32663	32707	32635	32711	32699	32839	
1691	0	32710	32711	32640	32658	32797	32647	32701	32772	
1692	0	32761	32767	32635	32801	32785	32638	32667	32683	
1693	0	32725	32805	32743	32671	32851	32767	32728	32647	
1694	0	32784	32687	32720	32775	32699	32727	32615	32587	
1695	0	32754	32530	32719	32823	32715	32647	32717	32596	
1696	0	32823	32685	32836	32719	32725	32735	32663	32611	
1697	0	32800	32775	32775	32775	32751	32765	32705	32583	
1698	0	32784	32683	32775	32797	32707	32660	32647	32717	
1699	0	32763	32707	32783	32767	32783	32647	32513	32755	
1700	0	32791	32731	32711	32803	32773	32763	32755	32813	
1701	0	32734	32765	32679	32732	32757	32733	32742	32815	
1702	0	32797	32639	32709	32775	32811	32643	32719	32871	
1703	0	32745	32479	32804	32783	32679	32717	32640	32867	
1704	0	32756	32503	32759	32775	32782	32751	32679	32835	
1705	0	32804	32663	32791	32775	32751	32732	32644	32801	
1706	0	32809	32767	32823	32705	32707	32641	32598	32758	
1707	0	32807	32663	32762	32694	32679	32739	32628	32690	
1708	0	32773	32719	32787	32795	32704	32767	32765	32659	
1709	0	32756	32745	32829	32742	32678	32762	32679	32557	
1710	0	32757	32671	32797	32759	32749	32669	32711	32571	
1711	0	32796	32727	32731	32763	32681	32709	32681	32655	
1712	0	32762	32725	32869	32705	32762	32671	32730	32711	
1713	0	32800	32607	32732	32719	32785	32717	32735	32727	
1714	0	32740	32571	32775	32727	32619	32643	32747	32827	
1715	0	32679	32734	32763	32820	32751	32647	32734	32731	
1716	0	32698	32751	32690	32755	32769	32695	32635	32685	
1717	0	32703	32748	32719	32717	32715	32615	32529	32816	
1718	0	32722	32655	32759	32725	32726	32766	32563	32775	
1719	0	32723	32632	32822	32764	32692	32639	32668	32715	
1720	0	32727	32751	32743	32723	32806	32763	32631	32748	
1721	0	32743	32523	32639	32801	32754	32695	32647	32796	
1722	0	32794	32599	32663	32703	32659	32685	32698	32803	
1723	0	32742	32729	32824	32711	32706	32738	32709	32751	
1724	0	32724	32711	32687	32727	32815	32690	32711	32759	
1725	0	32766	32643	32775	32799	32623	32690	32661	32752	
1726	0	32759	32591	32807	32743	32751	32655	32583	32765	
1727	0	32759	32695	32702	32708	32743	32799	32578	32739	
1728	0	32783	32698	32615	32743	32647	32723	32687	32593	
1729	0	32804	32554	32830	32763	32775	32763	32605	32605	
1730	0	32796	32515	32869	32793	32716	32717	32606	32599	
1731	0	32762	32782	32723	32752	32691	32602	32713	32567	
1732	0	32831	32685	32819	32787	32726	32719	32735	32555	
1733	0	32768	32701	32732	32799	32749	32735	32711	32557	
1734	0	32690	32555	32623	32773	32700	32711	32643	32615	
1735	0	32705	32703	32698	32734	32749	32679	32493	32663	
1736	0	32708	32687	32829	32694	32773	32591	32495	32685	
1737	0	32678	32747	32787	32707	32687	32695	32583	32634	
1738	0	32724	32583	32749	32770	32795	32737	32660	32647	
1739	0	32775	32719	32783	32754	32749	32719	32759	32806	
1740	0	32775	32637	32611	32690	32663	32717	32731	32879	
1741	0	32727	32717	32639	32787	32707	32687	32683	32802	
1742	0	32754	32647	32647	32784	32721	32751	32701	32745	
1743	0	32781	32571	32607	32735	32759	32727	32699	32671	
1744	0	32767	32671	32695	32757	32669	32631	32691	32699	
1745	0	32732	32759	32799	32719	32727	32723	32621	32701	
1746	0	32807	32703	32767	32731	32663	32739	32647	32743	
1747	0	32767	32647	32718	32699	32703	32675	32679	32692	
1748	0	32751	32605	32764	32767	32615	32751	32727	32642	
1749	0	32732	32647	32796	32797	32751	32711	32673	32641	
1750	0	32756	32687	32794	32717	32805	32621	32722	32709	
1751	0	32735	32788	32711	32759	32655	32745	32743	32634	
1752	0	32786	32574	32775	32821	32767	32789	32731	32679	
1753	0	32736	32647	32647	32663	32813	32647	32723	32630	
1754	0	32740	32687	32604	32714	32706	32725	32793	32705	
1755	0	32749	32739	32768	32741	32711	32627	32631	32655	
1756	0	32786	32669	32813	32735	32762	32731	32562	32710	
1757	0	32783	32583	32707	32699	32723	32775	32599	32679	
1758	0	32769	32740	32719	32775	32827	32687	32743	32631	
1759	0	32751	32773	32783	32819	32692	32595	32663	32623	
1760	0	32743	32703	32775	32775	32771	32693	32677	32599	
1761	0	32808	32711	32751	32775	32699	32724	32615	32627	
1762	0	32767	32775	32689	32743	32677	32677	32596	32769	
1763	0	32745	32566	32694	32727	32731	32749	32663	32773	
1764	0	32775	32647	32715	32722	32711	32766	32643	32713	
1765	0	32775	32727	32877	32799	32689	32671	32599	32771	
1766	0	32740	32695	32748	32647	32727	32687	32645	32827	
1767	0	32794	32739	32771	32727	32738	32759	32645	32791	
1768	0	32734	32756	32775	32699	32722	32719	32673	32821	
1769	0	32724	32589	32799	32701	32786	32655	32689	32791	
1770	0	32742	32723	32871	32799	32659	32764	32647	32793	
1771	0	32781	32723	32794	32743	32702	32775	32659	32813	
1772	0	32759	32767	32806	32815	32821	32663	32703	32615	
1773	0	32814	32703	32787	32745	32775	32742	32731	32613	
1774	0	32829	32641	32663	32724	32727	32759	32694	32566	
1775	0	32804	32540	32711	32802	32793	32639	32671	32611	
1776	0	32742	32700	32829	32739	32786	32775	32659	32559	
1777	0	32775	32719	32815	32732	32716	32743	32662	32555	
1778	0	32748	32691	32775	32831	32647	32630	32609	32750	
1779	0	32775	32679	32725	32715	32667	32687	32575	32748	
1780	0	32736	32675	32599	32799	32750	32740	32590	32822	
1781	0	32743	32810	32655	32711	32703	32751	32533	32789	
1782	0	32799	32703	32711	32756	32692	32639	32543	32813	
1783	0	32720	32515	32623	32817	32667	32675	32525	32687	
1784	0	32796	32683	32619	32719	32679	32727	32519	32641	
1785	0	32804	32727	32598	32787	32719	32748	32580	32619	
1786	0	32740	32679	32622	32722	32794	32679	32564	32600	
1787	0	32743	32699	32615	32801	32754	32671	32723	32740	
1788	0	32767	32711	32669	32789	32709	32727	32646	32795	
1789	0	32773	32788	32663	32725	32687	32749	32679	32769	
1790	0	32710	32563	32659	32739	32708	32581	32647	32722	
1791	0	32705	32583	32663	32749	32711	32727	32663	32855	
1792	0	32760	32727	32637	32729	32646	32715	32715	32899	
1793	0	32739	32785	32695	32731	32659	32750	32719	32719	
1794	0	32801	32677	32753	32725	32705	32647	32734	32610	
1795	0	32798	32685	32826	32757	32748	32642	32713	32591	
1796	0	32754	32751	32687	32731	32722	32711	32694	32681	
1797	0	32739	32665	32677	32754	32695	32775	32677	32755	
1798	0	32771	32583	32689	32775	32643	32685	32687	32759	
1799	0	32730	32746	32767	32775	32742	32725	32661	32562	
1800	0	32731	32742	32809	32742	32683	32639	32623	32535	
1801	0	32803	32642	32754	32791	32671	32742	32561	32579	
1802	0	32743	32547	32763	32775	32753	32724	32575	32787	
1803	0	32807	32579	32859	32743	32738	32755	32775	32755	
1804	0	32801	32747	32838	32791	32727	32677	32590	32743	
1805	0	32842	32711	32699	32735	32631	32756	32487	32801	
1806	0	32768	32783	32756	32721	32759	32738	32541	32799	
1807	0	32775	32661	32747	32855	32751	32692	32647	32847	
1808	0	32775	32531	32731	32739	32719	32749	32621	32805	
1809	0	32742	32659	32771	32710	32694	32721	32617	32647	
1810	0	32815	32695	32725	32735	32687	32775	32767	32590	
1811	0	32754	32725	32775	32719	32791	32579	32722	32615	
1812	0	32775	32763	32709	32763	32809	32775	32722	32647	
1813	0	32725	32749	32758	32700	32815	32743	32709	32785	
1814	0	32710	32534	32729	32701	32671	32639	32674	32769	
1815	0	32775	32658	32789	32763	32722	32669	32630	32731	
1816	0	32742	32717	32756	32721	32743	32751	32630	32771	
1817	0	32729	32735	32756	32727	32647	32695	32643	32771	
1818	0	32762	32655	32850	32762	32743	32739	32699	32741	
1819	0	32750	32559	32841	32759	32703	32754	32723	32731	
1820	0	32742	32766	32807	32705	32745	32666	32589	32711	
1821	0	32765	32647	32663	32815	32694	32816	32663	32739	
1822	0	32722	32679	32747	32818	32791	32759	32647	32803	
1823	0	32770	32814	32751	32767	32743	32681	32815	32739	
1824	0	32791	32683	32797	32763	32743	32679	32743	32719	
1825	0	32744	32561	32658	32715	32591	32711	32765	32745	
1826	0	32775	32687	32679	32683	32615	32751	32647	32771	
1827	0	32765	32763	32711	32759	32743	32615	32639	32815	
1828	0	32732	32706	32739	32767	32687	32686	32671	32755	
1829	0	32728	32711	32758	32793	32805	32746	32699	32565	
1830	0	32749	32682	32807	32735	32759	32647	32551	32591	
1831	0	32749	32629	32775	32767	32686	32642	32534	32770	
1832	0	32748	32731	32813	32713	32731	32623	32605	32799	
1833	0	32753	32623	32813	32755	32723	32729	32487	32735	
1834	0	32713	32557	32835	32751	32751	32742	32535	32750	
1835	0	32791	32642	32807	32711	32804	32715	32573	32803	
1836	0	32758	32754	32767	32775	32647	32678	32584	32844	
1837	0	32782	32681	32787	32831	32723	32705	32607	32931	
1838	0	32791	32766	32609	32787	32715	32627	32743	32879	
1839	0	32749	32589	32647	32765	32703	32759	32571	32790	
1840	0	32766	32631	32639	32769	32671	32687	32583	32859	
1841	0	32793	32759	32789	32807	32775	32661	32481	32823	
1842	0	32762	32685	32827	32701	32743	32755	32532	32847	
1843	0	32797	32751	32811	32749	32708	32763	32566	32844	
1844	0	32804	32579	32802	32836	32765	32662	32539	32831	
1845	0	32736	32578	32807	32733	32754	32633	32471	32660	
1846	0	32775	32557	32815	32722	32749	32731	32509	32639	
1847	0	32800	32593	32755	32727	32831	32711	32639	32646	
1848	0	32802	32635	32863	32740	32723	32663	32614	32847	
1849	0	32759	32717	32694	32807	32715	32641	32747	32737	
1850	0	32727	32799	32631	32738	32773	32740	32719	32805	
1851	0	32807	32703	32669	32757	32727	32775	32735	32775	
1852	0	32802	32707	32682	32773	32755	32786	32695	32870	
1853	0	32812	32743	32665	32763	32647	32625	32726	32813	
1854	0	32738	32754	32591	32815	32659	32775	32702	32685	
1855	0	32741	32703	32627	32713	32719	32795	32743	32837	
1856	0	32773	32603	32647	32705	32759	32687	32706	32679	
1857	0	32770	32679	32727	32791	32647	32771	32749	32609	
1858	0	32753	32743	32691	32699	32743	32701	32716	32583	
1859	0	32751	32690	32703	32698	32749	32655	32759	32562	
1860	0	32710	32681	32743	32807	32712	32671	32725	32593	
1861	0	32794	32751	32799	32751	32679	32668	32759	32759	
1862	0	32797	32571	32743	32713	32746	32666	32766	32761	
1863	0	32808	32556	32759	32759	32675	32679	32677	32793	
1864	0	32815	32674	32728	32819	32751	32737	32679	32765	
1865	0	32733	32769	32702	32705	32703	32739	32611	32757	
1866	0	32729	32637	32733	32758	32703	32639	32555	32799	
1867	0	32701	32735	32742	32807	32750	32735	32615	32757	
1868	0	32730	32570	32721	32775	32698	32655	32659	32773	
1869	0	32791	32695	32646	32699	32775	32615	32619	32772	
1870	0	32759	32773	32644	32783	32698	32753	32628	32799	
1871	0	32763	32749	32711	32783	32867	32775	32606	32743	
1872	0	32738	32791	32821	32683	32692	32685	32677	32743	
1873	0	32715	32609	32811	32751	32757	32705	32667	32738	
1874	0	32742	32647	32683	32718	32764	32590	32715	32717	
1875	0	32766	32709	32798	32756	32662	32679	32721	32767	
1876	0	32784	32701	32855	32742	32757	32695	32686	32755	
1877	0	32823	32691	32847	32755	32801	32635	32789	32751	
1878	0	32783	32535	32683	32791	32759	32732	32749	32623	
1879	0	32775	32735	32677	32799	32763	32759	32679	32545	
1880	0	32727	32755	32679	32741	32703	32699	32694	32625	
1881	0	32773	32667	32775	32766	32721	32759	32645	32794	
1882	0	32824	32662	32775	32809	32695	32766	32687	32749	
1883	0	32806	32735	32803	32698	32787	32703	32635	32773	
1884	0	32786	32535	32883	32735	32735	32695	32646	32807	
1885	0	32787	32635	32706	32791	32673	32711	32663	32706	
1886	0	32806	32743	32695	32753	32647	32667	32682	32742	
1887	0	32738	32686	32751	32741	32727	32749	32638	32763	
1888	0	32799	32735	32787	32807	32775	32802	32699	32743	
1889	0	32786	32591	32785	32763	32639	32676	32789	32733	
1890	0	32815	32565	32799	32727	32790	32685	32727	32762	
1891	0	32743	32747	32621	32685	32775	32607	32519	32751	
1892	0	32770	32709	32717	32775	32714	32751	32567	32794	
1893	0	32794	32751	32814	32769	32754	32701	32523	32772	
1894	0	32764	32635	32804	32735	32706	32726	32607	32786	
1895	0	32788	32613	32765	32763	32751	32703	32594	32773	
1896	0	32716	32567	32751	32690	32726	32721	32715	32763	
1897	0	32732	32677	32707	32719	32713	32711	32627	32829	
1898	0	32702	32754	32735	32759	32683	32643	32695	32822	
1899	0	32674	32699	32775	32703	32767	32751	32679	32799	
1900	0	32796	32677	32799	32758	32675	32735	32666	32687	
1901	0	32796	32699	32757	32786	32647	32715	32657	32583	
1902	0	32788	32727	32771	32823	32642	32679	32723	32613	
1903	0	32697	32711	32765	32743	32707	32743	32658	32748	
1904	0	32742	32711	32795	32764	32690	32717	32699	32703	
1905	0	32802	32631	32834	32749	32748	32765	32694	32742	
1906	0	32773	32613	32727	32735	32647	32671	32671	32775	
1907	0	32734	32665	32751	32727	32726	32740	32703	32795	
1908	0	32743	32621	32804	32799	32765	32681	32687	32823	
1909	0	32757	32807	32692	32799	32735	32596	32683	32847	
1910	0	32786	32690	32647	32770	32743	32725	32703	32871	
1911	0	32757	32674	32727	32802	32781	32735	32771	32815	
1912	0	32722	32775	32797	32775	32707	32662	32695	32775	
1913	0	32768	32591	32764	32729	32715	32735	32647	32773	
1914	0	32743	32523	32795	32773	32699	32722	32609	32806	
1915	0	32775	32583	32786	32727	32695	32647	32621	32767	
1916	0	32751	32687	32783	32761	32822	32636	32695	32731	
1917	0	32799	32719	32711	32757	32810	32743	32657	32721	
1918	0	32804	32711	32738	32679	32647	32698	32629	32711	
1919	0	32793	32711	32685	32723	32703	32687	32554	32589	
1920	0	32796	32751	32719	32775	32735	32743	32519	32601	
1921	0	32797	32583	32758	32631	32799	32758	32604	32610	
1922	0	32733	32612	32751	32724	32693	32685	32683	32596	
1923	0	32718	32669	32767	32775	32647	32739	32559	32613	
1924	0	32815	32751	32823	32743	32789	32711	32527	32738	
1925	0	32735	32675	32846	32743	32730	32698	32527	32759	
1926	0	32731	32690	32871	32821	32796	32667	32487	32823	
1927	0	32758	32667	32725	32819	32679	32723	32591	32747	
1928	0	32791	32775	32852	32855	32703	32695	32807	32799	
1929	0	32740	32813	32826	32739	32745	32775	32766	32822	
1930	0	32676	32789	32827	32797	32700	32701	32646	32710	
1931	0	32804	32621	32717	32775	32807	32759	32550	32775	
1932	0	32782	32743	32690	32717	32647	32771	32703	32846	
1933	0	32693	32709	32775	32709	32786	32671	32731	32887	
1934	0	32783	32631	32827	32751	32769	32690	32721	32893	
1935	0	32745	32709	32710	32771	32667	32769	32671	32859	
1936	0	32750	32703	32743	32724	32707	32647	32775	32871	
1937	0	32716	32731	32850	32761	32790	32735	32807	32815	
1938	0	32758	32571	32817	32758	32756	32691	32828	32646	
1939	0	32844	32568	32769	32751	32791	32677	32654	32605	
1940	0	32819	32809	32791	32751	32727	32714	32495	32662	
1941	0	32758	32731	32727	32775	32706	32769	32548	32807	
1942	0	32786	32741	32729	32775	32766	32642	32631	32807	
1943	0	32746	32517	32803	32726	32678	32683	32599	32823	
1944	0	32775	32582	32715	32773	32746	32749	32548	32809	
1945	0	32789	32707	32647	32731	32703	32639	32647	32791	
1946	0	32780	32751	32647	32745	32647	32817	32636	32791	
1947	0	32789	32751	32759	32686	32631	32775	32607	32847	
1948	0	32775	32771	32743	32863	32761	32691	32615	32769	
1949	0	32797	32669	32769	32756	32751	32709	32679	32731	
1950	0	32797	32549	32671	32679	32639	32639	32723	32775	
1951	0	32779	32775	32643	32749	32703	32719	32674	32740	
1952	0	32774	32695	32799	32783	32793	32677	32674	32711	
1953	0	32756	32739	32703	32770	32658	32647	32661	32748	
1954	0	32737	32518	32707	32765	32751	32707	32703	32592	
1955	0	32747	32683	32801	32716	32714	32655	32786	32611	
1956	0	32727	32668	32802	32799	32695	32765	32804	32663	
1957	0	32754	32699	32703	32707	32811	32727	32692	32697	
1958	0	32714	32557	32647	32667	32757	32671	32643	32671	
1959	0	32802	32557	32662	32775	32743	32668	32581	32527	
1960	0	32786	32614	32671	32679	32701	32702	32713	32562	
1961	0	32827	32727	32607	32773	32727	32717	32615	32603	
1962	0	32742	32820	32727	32748	32793	32629	32547	32613	
1963	0	32778	32763	32775	32754	32767	32711	32647	32609	
1964	0	32767	32703	32671	32711	32687	32749	32719	32631	
1965	0	32769	32539	32835	32727	32759	32677	32678	32711	
1966	0	32801	32679	32839	32724	32719	32722	32566	32623	
1967	0	32767	32709	32871	32655	32685	32683	32663	32679	
1968	0	32725	32703	32786	32771	32655	32632	32510	32639	
1969	0	32748	32747	32717	32759	32743	32740	32628	32699	
1970	0	32694	32695	32823	32733	32751	32743	32727	32647	
1971	0	32731	32557	32628	32803	32683	32703	32775	32671	
1972	0	32717	32639	32662	32847	32775	32747	32703	32749	
1973	0	32780	32799	32698	32718	32756	32647	32759	32743	
1974	0	32770	32685	32787	32767	32678	32690	32701	32727	
1975	0	32771	32711	32775	32741	32727	32716	32767	32812	
1976	0	32735	32742	32755	32703	32732	32687	32575	32644	
1977	0	32716	32573	32759	32751	32813	32727	32554	32663	
1978	0	32773	32567	32751	32787	32663	32726	32543	32625	
1979	0	32834	32559	32716	32707	32757	32764	32551	32604	
1980	0	32771	32699	32753	32727	32709	32679	32501	32631	
1981	0	32725	32687	32846	32687	32822	32766	32543	32719	
1982	0	32741	32621	32855	32672	32679	32720	32540	32718	
1983	0	32807	32681	32775	32739	32762	32645	32548	32763	
1984	0	32775	32766	32815	32731	32735	32775	32503	32807	
1985	0	32749	32606	32759	32767	32729	32717	32587	32773	
1986	0	32710	32645	32578	32743	32690	32619	32567	32751	
1987	0	32729	32717	32668	32827	32715	32716	32611	32767	
1988	0	32767	32732	32786	32690	32751	32671	32703	32791	
1989	0	32782	32795	32790	32733	32607	32639	32647	32787	
1990	0	32751	32753	32839	32767	32647	32769	32615	32795	
1991	0	32785	32571	32751	32748	32740	32771	32707	32755	
1992	0	32775	32774	32771	32767	32745	32715	32667	32700	
1993	0	32771	32715	32831	32799	32607	32775	32644	32759	
1994	0	32710	32734	32823	32797	32763	32718	32637	32797	
1995	0	32747	32659	32851	32783	32743	32715	32621	32743	
1996	0	32795	32574	32806	32733	32689	32701	32557	32747	
1997	0	32795	32731	32615	32818	32623	32679	32647	32763	
1998	0	32734	32725	32628	32727	32775	32647	32627	32734	
1999	0	32813	32687	32695	32771	32755	32698	32661	32763	
2000	0	32770	32716	32763	32788	32822	32775	32637	32734	
2001	0	32775	32737	32770	32731	32659	32590	32639	32831	
2002	0	32797	32535	32803	32804	32775	32702	32668	32775	
2003	0	32807	32727	32748	32799	32762	32791	32687	32798	
2004	0	32793	32685	32711	32673	32686	32623	32603	32839	
2005	0	32775	32742	32767	32708	32809	32753	32703	32759	
2006	0	32727	32631	32809	32790	32796	32691	32727	32695	
2007	0	32755	32564	32711	32727	32722	32727	32695	32711	
2008	0	32756	32709	32647	32757	32773	32719	32731	32717	
2009	0	32766	32661	32809	32711	32700	32698	32771	32746	
2010	0	32823	32660	32834	32738	32707	32791	32658	32771	
2011	0	32758	32507	32815	32831	32830	32719	32775	32713	
2012	0	32743	32691	32706	32707	32735	32675	32735	32756	
2013	0	32753	32663	32743	32783	32647	32699	32722	32743	
2014	0	32756	32638	32757	32743	32727	32759	32584	32759	
2015	0	32755	32717	32743	32694	32751	32716	32503	32715	
2016	0	32767	32718	32771	32671	32742	32763	32532	32786	
2017	0	32765	32583	32783	32717	32687	32743	32516	32759	
2018	0	32775	32529	32757	32708	32739	32660	32526	32755	
2019	0	32712	32699	32748	32707	32703	32711	32498	32751	
2020	0	32772	32727	32751	32769	32738	32723	32668	32775	
2021	0	32786	32687	32751	32736	32671	32663	32699	32775	
2022	0	32718	32715	32666	32740	32759	32556	32758	32797	
2023	0	32743	32802	32666	32775	32743	32727	32711	32739	
2024	0	32793	32621	32657	32823	32628	32700	32644	32775	
2025	0	32730	32547	32795	32739	32727	32607	32674	32811	
2026	0	32748	32735	32799	32799	32767	32690	32683	32811	
2027	0	32733	32725	32804	32757	32685	32701	32676	32871	
2028	0	32725	32700	32775	32796	32702	32631	32679	32787	
2029	0	32669	32690	32790	32871	32749	32743	32669	32819	
2030	0	32747	32725	32715	32791	32711	32727	32711	32751	
2031	0	32740	32599	32739	32799	32679	32615	32703	32727	
2032	0	32718	32523	32783	32806	32690	32690	32663	32762	
2033	0	32730	32757	32807	32769	32759	32676	32679	32790	
2034	0	32718	32714	32803	32747	32769	32787	32694	32809	
2035	0	32735	32710	32807	32807	32699	32655	32677	32799	
2036	0	32788	32751	32727	32823	32821	32711	32767	32749	
2037	0	32762	32577	32607	32723	32726	32683	32637	32807	
2038	0	32738	32741	32775	32762	32663	32735	32493	32751	
2039	0	32806	32743	32745	32718	32715	32643	32599	32772	
2040	0	32802	32755	32783	32795	32691	32707	32613	32513	
2041	0	32796	32679	32787	32761	32703	32711	32582	32587	
2042	0	32773	32673	32799	32671	32703	32629	32633	32647	
2043	0	32789	32767	32703	32711	32653	32700	32654	32655	
2044	0	32790	32733	32675	32802	32677	32678	32509	32671	
2045	0	32741	32660	32655	32743	32742	32635	32578	32646	
2046	0	32815	32743	32799	32791	32813	32751	32547	32655	
2047	0	32742	32550	32765	32770	32679	32787	32551	32667	
2048	0	32786	32595	32715	32769	32795	32679	32517	32611	
2049	0	32797	32759	32742	32674	32707	32595	32535	32662	
2050	0	32846	32699	32783	32731	32606	32710	32647	32631	
2051	0	32823	32743	32705	32763	32791	32679	32639	32639	
2052	0	32794	32748	32775	32687	32738	32660	32615	32613	
2053	0	32769	32675	32770	32715	32679	32765	32667	32593	
2054	0	32775	32605	32799	32771	32723	32723	32715	32612	
2055	0	32741	32720	32801	32735	32751	32631	32684	32607	
2056	0	32788	32743	32679	32775	32729	32805	32690	32626	
2057	0	32726	32685	32636	32772	32619	32747	32615	32675	
2058	0	32669	32765	32775	32767	32754	32647	32615	32755	
2059	0	32740	32559	32757	32739	32771	32755	32625	32850	
2060	0	32727	32669	32743	32719	32738	32690	32612	32864	
2061	0	32771	32739	32801	32823	32714	32669	32661	32814	
2062	0	32698	32719	32786	32717	32711	32709	32638	32783	
2063	0	32763	32733	32791	32743	32694	32775	32658	32803	
2064	0	32752	32661	32759	32751	32715	32611	32605	32739	
2065	0	32727	32591	32679	32797	32787	32711	32586	32766	
2066	0	32740	32607	32691	32742	32677	32766	32594	32742	
2067	0	32826	32731	32607	32819	32775	32591	32655	32847	
2068	0	32834	32743	32739	32847	32775	32775	32695	32751	
2069	0	32775	32671	32791	32749	32687	32738	32739	32807	
2070	0	32710	32743	32703	32759	32783	32645	32775	32743	
2071	0	32759	32571	32775	32741	32765	32742	32659	32773	
2072	0	32755	32655	32743	32823	32632	32647	32602	32607	
2073	0	32679	32767	32735	32775	32807	32729	32539	32591	
2074	0	32734	32710	32617	32775	32715	32700	32590	32579	
2075	0	32712	32721	32681	32771	32685	32789	32621	32545	
2076	0	32740	32630	32698	32703	32673	32631	32566	32613	
2077	0	32799	32557	32797	32708	32722	32695	32551	32571	
2078	0	32766	32679	32854	32771	32822	32727	32489	32591	
2079	0	32724	32686	32790	32695	32682	32611	32519	32615	
2080	0	32791	32786	32679	32701	32765	32767	32617	32615	
2081	0	32765	32566	32775	32747	32717	32703	32701	32627	
2082	0	32732	32763	32767	32773	32755	32743	32666	32735	
2083	0	32757	32703	32619	32761	32775	32743	32599	32831	
2084	0	32775	32709	32751	32707	32685	32605	32820	32827	
2085	0	32809	32631	32867	32771	32757	32753	32563	32828	
2086	0	32742	32687	32787	32695	32747	32751	32613	32773	
2087	0	32759	32735	32689	32711	32639	32683	32669	32823	
2088	0	32789	32762	32759	32617	32788	32711	32591	32767	
2089	0	32727	32702	32847	32690	32751	32635	32531	32730	
2090	0	32744	32579	32675	32766	32671	32611	32483	32741	
2091	0	32759	32595	32687	32723	32743	32695	32518	32783	
2092	0	32804	32669	32711	32719	32702	32609	32666	32751	
2093	0	32750	32727	32807	32739	32755	32691	32667	32789	
2094	0	32775	32727	32743	32775	32675	32709	32620	32749	
2095	0	32781	32743	32796	32739	32775	32711	32495	32743	
2096	0	32790	32621	32815	32783	32722	32685	32472	32809	
2097	0	32759	32573	32767	32709	32799	32738	32524	32868	
2098	0	32765	32535	32769	32802	32660	32775	32527	32795	
2099	0	32740	32627	32758	32775	32687	32769	32551	32751	
2100	0	32775	32711	32743	32753	32722	32687	32514	32741	
2101	0	32789	32647	32803	32731	32782	32751	32551	32773	
2102	0	32739	32719	32751	32769	32698	32722	32486	32726	
2103	0	32748	32592	32791	32745	32711	32673	32647	32639	
2104	0	32814	32535	32827	32783	32735	32759	32572	32754	
2105	0	32826	32660	32749	32745	32763	32725	32703	32700	
2106	0	32759	32719	32663	32700	32661	32647	32638	32749	
2107	0	32761	32690	32679	32788	32694	32727	32785	32723	
2108	0	32775	32771	32695	32813	32771	32791	32557	32839	
2109	0	32748	32554	32759	32759	32641	32699	32559	32871	
2110	0	32764	32775	32677	32679	32715	32717	32506	32837	
2111	0	32836	32715	32751	32734	32703	32666	32631	32790	
2112	0	32819	32818	32775	32799	32642	32771	32702	32815	
2113	0	32759	32543	32742	32741	32715	32765	32669	32775	
2114	0	32775	32722	32647	32729	32775	32607	32619	32723	
2115	0	32783	32693	32699	32703	32715	32747	32655	32743	
2116	0	32735	32698	32813	32759	32742	32659	32709	32783	
2117	0	32729	32604	32775	32783	32647	32735	32695	32759	
2118	0	32783	32503	32767	32775	32697	32749	32631	32787	
2119	0	32749	32601	32711	32775	32731	32644	32655	32719	
2120	0	32782	32687	32745	32796	32812	32663	32703	32765	
2121	0	32824	32663	32797	32727	32683	32775	32791	32814	
2122	0	32727	32727	32823	32767	32724	32646	32583	32823	
2123	0	32753	32803	32839	32797	32711	32723	32583	32757	
2124	0	32703	32647	32787	32743	32775	32703	32575	32813	
2125	0	32766	32599	32807	32735	32695	32583	32575	32804	
2126	0	32730	32719	32580	32699	32751	32740	32726	32786	
2127	0	32795	32613	32678	32807	32783	32702	32597	32743	
2128	0	32730	32701	32695	32771	32703	32627	32615	32750	
2129	0	32730	32772	32663	32775	32783	32727	32641	32751	
2130	0	32708	32647	32855	32813	32756	32751	32549	32750	
2131	0	32810	32663	32705	32774	32675	32647	32470	32782	
2132	0	32775	32730	32791	32735	32719	32710	32647	32809	
2133	0	32826	32741	32775	32727	32693	32615	32727	32735	
2134	0	32783	32763	32791	32857	32639	32587	32783	32758	
2135	0	32775	32775	32669	32775	32687	32727	32715	32795	
2136	0	32760	32547	32615	32719	32719	32671	32632	32795	
2137	0	32767	32786	32759	32787	32684	32757	32660	32711	
2138	0	32789	32735	32817	32836	32775	32716	32743	32739	
2139	0	32865	32787	32695	32807	32767	32615	32786	32663	
2140	0	32903	32775	32729	32743	32676	32711	32775	32634	
2141	0	32825	32635	32665	32735	32758	32698	32838	32667	
2142	0	32852	32709	32733	32804	32699	32615	32775	32647	
2143	0	32862	32827	32710	32807	32643	32699	32662	32681	
2144	0	32815	32787	32665	32698	32703	32671	32647	32874	
2145	0	32838	32791	32716	32675	32790	32708	32692	32884	
2146	0	32878	32734	32735	32674	32718	32767	32679	32829	
2147	0	32852	32643	32873	32743	32763	32660	32815	32941	
