# OpenSignals Text File Format
# {"00:07:80:64:6D:DA": {"sensor": ["CUSTOM/0.5/1.0/V", "CUSTOM/0.5/1.0/V", "CUSTOM/0.5/1.0/V", "CUSTOM/0.5/1.0/V"], "device name": "Platform", "column": ["nSeq", "DI", "CH1", "CH2", "CH3", "CH4"], "sync interval": 2, "time": "15:8:21.371", "comments": "", "device connection": "BTH00:07:80:64:6D:DA", "channels": [1, 2, 3, 4], "date": "2017-6-29", "mode": 0, "digital IO": [0, 1], "firmware version": 772, "device": "biosignalsplux", "position": 0, "sampling rate": 1000, "label": ["CH1", "CH2", "CH3", "CH4"], "resolution": [16, 16, 16, 16], "special": [{}, {}, {}, {}]}, "00:07:80:3B:46:38": {"sensor": ["EMG", "EMG", "EMG", "EMG", "EMG", "EMG", "EMG", "EMG"], "device name": "EMGs", "column": ["nSeq", "DI", "X", "CH2", "CH3", "CH4", "CH5", "CH6", "CH7", "CH8"], "sync interval": 2, "time": "15:8:21.371", "comments": "", "device connection": "BTH00:07:80:3B:46:38", "channels": [1, 2, 3, 4, 5, 6, 7, 8], "date": "2017-6-29", "mode": 0, "digital IO": [0, 1], "firmware version": 772, "device": "biosignalsplux", "position": 1, "sampling rate": 1000, "label": ["X", "CH2", "CH3", "CH4", "CH5", "CH6", "CH7", "CH8"], "resolution": [16, 16, 16, 16, 16, 16, 16, 16], "special": [{}, {}, {}, {}, {}, {}, {}, {}]}}
# EndOfHeader
429	0	1673	5639	4303	7002	0	0	32630	32743	32935	32807	32827	32647	32690	32703	
430	0	1700	5581	4306	6985	1	0	32741	32642	32993	32679	32965	32731	32676	32751	
431	0	1676	5650	4302	7018	2	0	32829	32834	33067	32859	32987	32535	32703	32554	
432	0	1668	5634	4304	7008	3	0	32828	33049	33147	32613	33079	32671	32743	32613	
433	0	1690	5654	4338	6986	4	0	32810	32973	33191	32758	33001	32629	32739	32486	
434	0	1701	5578	4325	7054	5	0	32878	32988	33127	32643	33084	32623	32735	32647	
435	0	1705	5649	4283	7022	6	0	32895	32765	33199	32727	33063	32743	32749	32789	
436	0	1746	5621	4364	7020	7	0	32805	32854	33095	32606	33063	32629	32749	32715	
437	0	1692	5585	4368	7010	8	0	32786	32737	32935	32639	32911	32710	32807	32839	
438	0	1699	5648	4319	7013	9	0	32783	32706	32849	32631	32867	32605	32863	32813	
439	0	1695	5586	4330	7000	10	0	32681	32575	32763	32603	32897	32589	32740	32740	
440	0	1668	5600	4311	7001	11	0	32679	32902	32687	32819	32871	32691	32775	32658	
441	0	1703	5594	4315	7042	12	0	32591	32877	32647	32775	32807	32775	32681	32717	
442	0	1695	5604	4296	7012	13	0	32585	32623	32615	32879	32766	32567	32647	32567	
443	0	1667	5597	4304	7049	14	0	32623	32955	32503	32875	32767	32623	32609	32727	
444	0	1751	5632	4296	7012	15	0	32722	32791	32443	32743	32655	32775	32637	32557	
445	0	1693	5617	4323	7012	16	0	32737	32719	32391	32675	32775	32791	32683	32709	
446	0	1655	5588	4331	6984	17	0	32804	32527	32511	32551	32783	32605	32643	32557	
447	0	1722	5610	4293	6995	18	0	32735	32473	32679	32562	32631	32701	32751	32580	
448	0	1654	5612	4302	6968	19	0	32814	32669	32677	32519	32903	32759	32615	32637	
449	0	1655	5602	4295	6978	20	0	32780	32549	32647	32743	33082	32759	32655	32658	
450	0	1699	5618	4373	7008	21	0	32786	32767	32729	32691	32895	32525	32743	32599	
451	0	1704	5607	4324	7003	22	0	32807	32815	32835	32923	32923	32739	32610	32690	
452	0	1684	5604	4275	6976	23	0	32921	32799	32919	32821	32964	32817	32577	32695	
453	0	1656	5644	4292	7000	24	0	32923	32646	33067	32987	33079	32556	32692	32517	
454	0	1692	5580	4318	6984	25	0	32819	32775	33028	33020	32863	32807	32721	32587	
455	0	1680	5613	4276	6999	26	0	32813	32875	33024	32852	32583	32749	32703	32439	
456	0	1668	5612	4268	6968	27	0	32783	32773	32943	32711	32629	32604	32615	32594	
457	0	1680	5564	4281	7043	28	0	32812	32690	32812	32701	32493	32658	32647	32535	
458	0	1741	5591	4292	6971	29	0	32719	32607	32767	32711	32495	32663	32701	32695	
459	0	1680	5584	4292	7000	30	0	32630	32915	32733	32553	32407	32643	32759	32655	
460	0	1724	5641	4278	7019	31	0	32605	32827	32726	32579	32518	32453	32773	32647	
461	0	1692	5628	4264	7001	32	0	32637	32698	32701	32644	32583	32527	32763	32714	
462	0	1654	5638	4291	7038	33	0	32558	32847	32620	32707	32583	32615	32737	32673	
463	0	1687	5560	4298	7035	34	0	32617	32863	32562	32893	32453	32667	32719	32679	
464	0	1668	5600	4265	7013	35	0	32730	32668	32469	32775	32485	32487	32765	32615	
465	0	1663	5617	4299	7023	36	0	32767	32344	32445	32708	32342	32703	32807	32802	
466	0	1641	5641	4258	6993	37	0	32775	32505	32489	32596	32405	32679	32705	32661	
467	0	1688	5622	4259	6978	38	0	32788	32459	32591	32628	32426	32799	32553	32742	
468	0	1652	5558	4328	6969	39	0	32836	32583	32734	32711	32669	32701	32645	32587	
469	0	1658	5603	4266	6999	40	0	32751	32708	32765	32583	32775	32733	32751	32722	
470	0	1654	5572	4285	6975	41	0	32773	33012	32829	32807	32734	32727	32703	32787	
471	0	1700	5598	4302	6990	42	0	32845	33039	32919	32717	32639	32576	32694	32694	
472	0	1640	5548	4296	7011	43	0	32850	32946	32859	32887	32879	32799	32684	32763	
473	0	1649	5605	4304	6944	44	0	32836	32715	32839	32861	32839	32711	32695	32647	
474	0	1699	5599	4291	6987	45	0	32854	32870	32845	32903	32876	32735	32763	32647	
475	0	1680	5592	4286	6998	46	0	32831	32821	32719	32916	32742	32647	32753	32631	
476	0	1705	5555	4260	6988	47	0	32808	32877	32595	32743	32727	32549	32737	32700	
477	0	1676	5563	4259	6992	48	0	32806	32979	32623	32834	32559	32655	32823	32697	
478	0	1671	5604	4287	7010	49	0	32742	33017	32690	32854	32631	32635	32644	32719	
479	0	1669	5598	4281	7014	50	0	32758	32943	32575	32709	32621	32763	32635	32692	
480	0	1693	5539	4276	7013	51	0	32724	33105	32557	32735	32748	32516	32647	32799	
481	0	1687	5591	4301	7014	52	0	32785	32877	32547	32703	32708	32767	32681	32748	
482	0	1710	5570	4305	7000	53	0	32861	32775	32727	32707	32691	32663	32620	32775	
483	0	1662	5561	4282	7013	54	0	32839	32647	33067	32532	32487	32685	32663	32594	
484	0	1692	5577	4316	7028	55	0	32962	32790	33191	32529	32639	32503	32575	32767	
485	0	1686	5551	4289	7043	56	0	32943	32639	33295	32468	32605	32739	32717	32677	
486	0	1677	5558	4282	7012	57	0	32868	32599	33110	32555	32663	32635	32663	32855	
487	0	1682	5563	4309	7014	58	0	32718	32461	32943	32666	32581	32607	32631	32867	
488	0	1672	5557	4302	6994	59	0	32629	32582	32763	32567	32747	32621	32586	32771	
489	0	1694	5552	4293	7037	60	0	32485	32495	32672	32759	32795	32731	32743	32823	
490	0	1717	5584	4296	7045	61	0	32524	32541	32812	32839	32767	32594	32756	32726	
491	0	1668	5604	4293	7059	62	0	32587	32903	32885	32817	32771	32646	32769	32743	
492	0	1697	5579	4248	7010	63	0	32502	32867	32919	33006	32953	32477	32854	32599	
493	0	1661	5558	4292	7001	64	0	32482	33159	32879	32920	32955	32743	32878	32607	
494	0	1722	5540	4333	7040	65	0	32450	33223	32804	33103	33030	32631	32866	32529	
495	0	1664	5582	4374	7008	66	0	32599	33439	32833	33003	32809	32715	32818	32575	
496	0	1681	5617	4308	7090	67	0	32687	33231	32860	33011	32799	32459	32735	32516	
497	0	1671	5600	4290	6997	68	0	32655	32803	32893	33003	32685	32548	32775	32507	
498	0	1658	5554	4303	7048	69	0	32663	32963	32861	32795	32804	32633	32879	32421	
499	0	1710	5624	4282	7000	70	0	32752	32791	32925	32960	32695	32575	32802	32484	
500	0	1689	5580	4254	7049	71	0	32749	32745	32769	32695	32601	32434	32775	32575	
501	0	1705	5628	4309	7038	72	0	32742	32546	32538	32743	32503	32412	32599	32548	
502	0	1700	5554	4289	7004	73	0	32623	32703	32397	32607	32657	32679	32503	32623	
503	0	1715	5577	4292	7026	74	0	32694	32493	32401	32551	32534	32610	32527	32643	
504	0	1710	5558	4321	7053	75	0	32775	32391	32508	32565	32502	32735	32430	32765	
505	0	1677	5574	4339	7074	76	0	32829	32315	32679	32477	32343	32643	32423	32828	
506	0	1670	5576	4302	7024	77	0	32791	32579	32815	32575	32551	32773	32483	32859	
507	0	1666	5539	4290	7032	78	0	32713	32499	32983	32423	32389	32837	32464	32632	
508	0	1629	5537	4288	7028	79	0	32646	32594	33074	32597	32611	32818	32284	32723	
509	0	1667	5552	4281	7056	80	0	32590	32639	33271	32551	32597	32703	32293	32659	
510	0	1670	5614	4333	7039	81	0	32559	32823	33379	32633	32641	32730	32335	32775	
511	0	1681	5588	4259	7045	82	0	32581	32723	33444	32670	32549	32833	32237	32646	
512	0	1668	5601	4274	7034	83	0	32646	32630	33415	32355	32625	32875	32127	32763	
513	0	1683	5589	4335	7042	84	0	32695	32805	33372	32353	32548	33021	32155	32847	
514	0	1735	5540	4254	7060	85	0	32768	32717	33403	32423	32667	32767	32119	32935	
515	0	1697	5538	4270	7046	86	0	32795	32567	33385	32279	32447	33081	32186	33124	
516	0	1705	5586	4298	7060	87	0	32854	32773	33343	32353	32533	33063	32109	33017	
517	0	1697	5574	4274	7072	88	0	33003	32747	32997	32461	32509	33082	32151	33185	
518	0	1722	5546	4293	7033	89	0	33127	32647	33003	32461	32470	32812	32303	33138	
519	0	1654	5545	4294	7035	90	0	33193	32433	33026	32517	32593	32914	32327	33259	
520	0	1727	5579	4282	7040	91	0	33338	32423	32925	32399	32743	33061	32510	33143	
521	0	1642	5557	4329	7066	92	0	33447	32113	32933	32447	32811	33183	32647	33223	
522	0	1723	5569	4338	7082	93	0	33512	31806	32877	32321	32858	32991	32723	33189	
523	0	1720	5538	4312	7042	94	0	33439	31907	32631	32389	33027	33215	32882	33283	
524	0	1660	5556	4326	7076	95	0	33292	32054	32444	32639	32951	33090	33039	33159	
525	0	1666	5603	4314	7080	96	0	33171	32045	32357	32695	33059	33018	33086	33207	
526	0	1680	5623	4325	7064	97	0	33111	32095	32350	33077	33059	32747	33171	33135	
527	0	1705	5570	4315	7058	98	0	33079	32479	32220	33335	33159	32873	33273	32927	
528	0	1706	5571	4322	7041	99	0	33007	32807	32231	33335	33193	32685	33391	32879	
529	0	1699	5559	4319	7070	100	0	32996	33074	32135	33581	33403	32481	33515	32708	
530	0	1691	5571	4277	7086	101	0	33029	33253	32109	33585	33494	32556	33615	32500	
531	0	1670	5534	4316	7102	102	0	32830	33258	32279	33823	33407	32347	33787	32287	
532	0	1626	5558	4328	7084	103	0	32700	33453	32515	33837	33565	32012	33854	32219	
533	0	1733	5508	4276	7095	104	0	32643	33600	32391	33939	33479	32207	33891	32045	
534	0	1663	5564	4332	7068	105	0	32642	33489	31919	33687	33663	32087	33951	32061	
535	0	1688	5577	4320	7112	106	0	32725	33319	31674	33773	33415	32070	33958	32066	
536	0	1688	5539	4235	7058	107	0	32735	33527	31559	33591	33479	32007	33967	32029	
537	0	1682	5572	4335	7106	108	0	32635	33409	31655	33277	33271	32095	33878	32111	
538	0	1616	5597	4329	7107	109	0	32484	33159	31861	33191	33191	32077	33657	31974	
539	0	1691	5572	4293	7126	110	0	32404	33437	32170	32867	32891	32271	33222	32183	
540	0	1689	5538	4286	7092	111	0	32375	33283	32428	32666	32757	32135	33045	32190	
541	0	1680	5568	4355	7099	112	0	32361	32935	32725	32589	32571	32338	32763	32281	
542	0	1667	5544	4322	7128	113	0	32303	32999	32965	32339	32583	32301	32575	32229	
543	0	1667	5594	4329	7138	114	0	32244	33127	33004	32359	32367	32427	32421	32319	
544	0	1698	5539	4301	7087	115	0	32297	32903	32903	32335	32383	32270	32371	32447	
545	0	1699	5562	4345	7120	116	0	32334	32662	32879	32309	32303	32516	32307	32455	
546	0	1700	5548	4314	7141	117	0	32372	32671	32887	32359	32311	32487	32263	32570	
547	0	1685	5579	4303	7088	118	0	32405	32775	32847	32167	32373	32609	32187	32486	
548	0	1673	5526	4328	7100	119	0	32445	32685	32805	32287	32423	32492	32156	32582	
549	0	1732	5555	4334	7106	120	0	32532	32543	32859	32421	32471	32578	32221	32551	
550	0	1710	5548	4348	7112	121	0	32562	32751	32900	32483	32556	32690	32277	32519	
551	0	1698	5530	4343	7123	122	0	32677	32687	32925	32694	32647	32775	32285	32407	
552	0	1639	5528	4338	7125	123	0	32762	32743	32903	32607	32711	32551	32351	32628	
553	0	1695	5536	4323	7160	124	0	32698	32617	32989	32775	32829	32797	32359	32695	
554	0	1651	5509	4304	7168	125	0	32790	32861	32972	32749	32773	32725	32399	32657	
555	0	1684	5531	4333	7106	126	0	32772	32655	33047	32637	32735	32839	32473	32775	
556	0	1717	5553	4365	7137	127	0	32781	32470	33071	32654	32599	32615	32383	32733	
557	0	1709	5550	4304	7152	128	0	32903	32636	33087	32693	32751	32841	32447	32757	
558	0	1721	5536	4324	7156	129	0	32988	32573	33159	32638	32791	32742	32525	32786	
559	0	1666	5552	4284	7122	130	0	32988	32642	33221	32740	32621	32847	32571	32837	
560	0	1702	5506	4331	7152	131	0	32921	32538	33247	32647	32563	32724	32577	32727	
561	0	1702	5587	4388	7104	132	0	32863	32725	33122	32647	32609	32877	32571	32842	
562	0	1732	5492	4300	7130	133	0	32666	32687	33092	32759	32589	32758	32575	32719	
563	0	1693	5511	4341	7137	134	0	32551	32787	32900	32619	32635	32615	32663	32902	
564	0	1696	5492	4286	7156	135	0	32621	32647	32871	32679	32658	32823	32667	32951	
565	0	1715	5510	4318	7139	136	0	32586	32804	32815	32511	32545	32775	32715	32843	
566	0	1693	5517	4352	7172	137	0	32742	32742	32583	32527	32719	32786	32791	32847	
567	0	1672	5487	4335	7172	138	0	32827	32732	32495	32537	32635	32530	32698	32799	
568	0	1698	5517	4320	7152	139	0	32845	32620	32599	32555	32897	32722	32711	32814	
569	0	1672	5504	4296	7180	140	0	32838	32815	32694	32743	32871	32719	32745	32631	
570	0	1739	5494	4318	7159	141	0	32809	32735	32578	32703	32946	32742	32758	32791	
571	0	1688	5488	4329	7179	142	0	32775	32631	32466	32831	32813	32567	32695	32703	
572	0	1683	5522	4279	7174	143	0	32816	32883	32487	32879	32955	32799	32703	32735	
573	0	1693	5484	4320	7190	144	0	32845	32871	32599	32711	32877	32687	32631	32633	
574	0	1695	5528	4268	7158	145	0	32893	32802	32739	32925	32923	32636	32743	32681	
575	0	1690	5505	4336	7173	146	0	32860	32499	32899	32761	32871	32759	32701	32615	
576	0	1687	5520	4343	7179	147	0	32841	32607	32901	32833	32717	32667	32647	32751	
577	0	1700	5544	4300	7170	148	0	32775	32679	32867	32644	32764	32661	32661	32834	
578	0	1701	5472	4325	7178	149	0	32871	32615	32795	32815	32607	32820	32823	32637	
579	0	1720	5543	4296	7167	150	0	32874	32677	32797	32663	32699	32679	32738	32743	
580	0	1700	5512	4323	7188	151	0	32851	32623	32903	32659	32767	32702	32645	32595	
581	0	1701	5449	4364	7192	152	0	32812	32911	32935	32675	32807	32509	32667	32695	
582	0	1704	5477	4329	7194	153	0	32869	32855	32875	32493	32639	32727	32573	32674	
583	0	1669	5506	4298	7226	154	0	32839	32579	32979	32445	32663	32687	32672	32755	
584	0	1707	5453	4294	7179	155	0	32885	32537	32988	32389	32751	32606	32582	32771	
585	0	1682	5529	4341	7152	156	0	32841	32703	32835	32554	32604	32703	32603	32615	
586	0	1662	5498	4327	7212	157	0	32815	32671	32687	32586	32739	32655	32703	32721	
587	0	1716	5468	4360	7186	158	0	32828	32535	32565	32829	32711	32722	32701	32791	
588	0	1678	5518	4338	7253	159	0	32724	32667	32677	32807	32815	32829	32711	32591	
589	0	1658	5492	4321	7246	160	0	32678	32891	32743	32929	32903	32759	32626	32807	
590	0	1667	5526	4319	7203	161	0	32590	32871	32854	32925	32775	32573	32622	32805	
591	0	1701	5439	4323	7205	162	0	32572	32791	32829	33004	32925	32759	32629	32629	
592	0	1687	5464	4302	7218	163	0	32577	32487	32975	32915	32901	32675	32647	32655	
593	0	1701	5484	4372	7279	164	0	32647	32525	32883	33055	32955	32563	32605	32503	
594	0	1682	5464	4293	7259	165	0	32769	32471	32871	33106	33010	32788	32647	32659	
595	0	1681	5501	4282	7188	166	0	32869	32421	32863	33125	32756	32743	32687	32795	
596	0	1674	5477	4303	7243	167	0	32916	32407	32710	32987	32787	32691	32758	32703	
597	0	1727	5504	4305	7272	168	0	32931	32723	32647	33039	32707	32541	32740	32727	
598	0	1687	5466	4280	7254	169	0	32839	32739	32455	32719	32719	32735	32695	32509	
599	0	1691	5469	4299	7208	170	0	32754	32845	32304	32867	32668	32727	32711	32748	
600	0	1734	5508	4336	7259	171	0	32709	32845	32220	32629	32659	32559	32685	32773	
601	0	1683	5478	4325	7190	172	0	32775	33135	32423	32637	32647	32743	32677	32611	
602	0	1712	5456	4314	7254	173	0	32829	33275	32493	32462	32794	32634	32717	32734	
603	0	1713	5428	4298	7229	174	0	32911	33239	32567	32495	32751	32602	32661	32824	
604	0	1672	5448	4318	7278	175	0	32850	33023	32771	32479	32742	32659	32677	32749	
605	0	1684	5479	4311	7282	176	0	32787	32994	32801	32669	32658	32703	32647	32885	
606	0	1709	5454	4318	7283	177	0	32661	32764	32994	32711	32647	32511	32647	32743	
607	0	1703	5495	4300	7242	178	0	32705	32631	33125	32797	32532	32727	32647	32769	
608	0	1657	5469	4355	7267	179	0	32718	32911	33071	32679	32759	32698	32679	32599	
609	0	1695	5408	4355	7301	180	0	32702	33229	32978	32739	32805	32525	32625	32700	
610	0	1691	5469	4274	7277	181	0	32583	33188	32609	32661	32903	32775	32675	32605	
611	0	1687	5461	4356	7296	182	0	32572	33189	32631	32615	32871	32734	32663	32615	
612	0	1676	5421	4278	7307	183	0	32541	33014	32710	32719	32932	32540	32606	32601	
613	0	1713	5436	4274	7318	184	0	32679	32975	32735	32850	33031	32587	32647	32629	
614	0	1727	5471	4252	7272	185	0	32772	32729	32595	32727	32957	32687	32711	32539	
615	0	1710	5402	4328	7282	186	0	32870	32499	32333	33111	32843	32754	32759	32647	
616	0	1714	5421	4272	7275	187	0	32903	32677	32322	32983	32775	32511	32797	32740	
617	0	1694	5416	4357	7298	188	0	32855	32471	32489	33117	32775	32705	32747	32555	
618	0	1700	5442	4297	7290	189	0	32821	32400	32805	33079	32677	32717	32703	32655	
619	0	1698	5388	4354	7320	190	0	32800	32364	33061	33111	32722	32543	32733	32519	
620	0	1698	5444	4276	7332	191	0	32722	32559	33110	33119	32625	32817	32756	32635	
621	0	1734	5444	4291	7372	192	0	32775	32659	33155	33054	32717	32711	32790	32671	
622	0	1764	5424	4341	7336	193	0	32798	32583	33191	32931	32683	32719	32727	32743	
623	0	1713	5427	4272	7329	194	0	32972	32935	33233	32673	32758	32643	32706	32863	
624	0	1693	5405	4305	7363	195	0	32950	32879	33267	32623	32663	32759	32731	32724	
625	0	1667	5429	4268	7337	196	0	32793	32838	33142	32484	32605	32743	32719	32718	
626	0	1738	5404	4323	7332	197	0	32709	32722	32831	32487	32592	32751	32797	32786	
627	0	1699	5390	4304	7380	198	0	32713	32615	32655	32566	32621	32646	32770	32679	
628	0	1657	5449	4274	7320	199	0	32780	32567	32879	32647	32694	32687	32748	32725	
629	0	1699	5384	4303	7380	200	0	32879	32591	32895	32487	32763	32527	32757	32661	
630	0	1683	5407	4322	7392	201	0	32817	32557	32812	32695	32949	32811	32765	32687	
631	0	1669	5429	4310	7364	202	0	32671	32737	32935	32647	32845	32729	32695	32501	
632	0	1684	5404	4306	7371	203	0	32692	32901	32863	32807	33047	32578	32775	32551	
633	0	1749	5445	4348	7388	204	0	32735	32859	32980	32716	33035	32770	32767	32541	
634	0	1700	5385	4305	7396	205	0	32663	32687	33031	32766	32983	32772	32669	32603	
635	0	1722	5437	4387	7369	206	0	32724	32645	33079	32621	32773	32515	32645	32647	
636	0	1726	5386	4291	7420	207	0	32699	32807	32805	32703	32663	32741	32791	32566	
637	0	1690	5419	4303	7392	208	0	32741	32707	32615	32625	32658	32775	32709	32703	
638	0	1734	5401	4275	7376	209	0	32740	32495	32599	32539	32706	32754	32703	32698	
639	0	1754	5418	4298	7392	210	0	32703	32703	32555	32594	32787	32527	32727	32735	
640	0	1693	5372	4237	7446	211	0	32738	32775	32466	32495	32726	32643	32679	32617	
641	0	1693	5376	4272	7396	212	0	32724	32823	32583	32583	32708	32668	32766	32743	
642	0	1740	5396	4274	7428	213	0	32657	32645	32727	32507	32695	32667	32749	32605	
643	0	1702	5399	4283	7445	214	0	32668	32848	32775	32671	32695	32574	32679	32633	
644	0	1739	5404	4278	7464	215	0	32610	32757	32887	32775	32861	32489	32681	32639	
645	0	1746	5410	4318	7412	216	0	32685	32633	32839	32727	32595	32695	32631	32859	
646	0	1704	5365	4276	7465	217	0	32706	32412	32749	32877	32742	32595	32663	32801	
647	0	1718	5372	4318	7464	218	0	32788	32551	32733	32783	32775	32647	32673	32794	
648	0	1709	5412	4293	7410	219	0	32743	32537	32663	32839	32863	32564	32693	32679	
649	0	1713	5339	4280	7482	220	0	32738	32630	32623	32832	32807	32751	32623	32753	
650	0	1764	5391	4262	7472	221	0	32855	32643	32551	32669	32822	32670	32609	32615	
651	0	1755	5362	4292	7468	222	0	32855	33031	32647	32692	33015	32711	32623	32679	
652	0	1764	5373	4266	7505	223	0	32841	33157	32418	32608	32895	32643	32823	32767	
653	0	1732	5328	4253	7484	224	0	32821	33181	32359	32695	33039	32715	32783	32647	
654	0	1796	5371	4292	7480	225	0	32842	33202	32325	32743	32921	32743	32814	32551	
655	0	1698	5358	4264	7530	226	0	32828	33316	32375	32719	32879	32716	32759	32635	
656	0	1735	5336	4329	7507	227	0	32865	32979	32419	32855	32731	32642	32735	32567	
657	0	1737	5335	4279	7505	228	0	32775	32655	32487	32724	32765	32559	32708	32669	
658	0	1739	5363	4244	7494	229	0	32797	32662	32565	32759	32685	32715	32659	32583	
659	0	1765	5316	4253	7567	230	0	32853	32461	32765	32868	32627	32631	32756	32753	
660	0	1731	5299	4267	7516	231	0	32861	32317	32871	32851	32615	32685	32783	32769	
661	0	1751	5296	4312	7490	232	0	32807	32195	32951	32915	32738	32770	32666	32591	
662	0	1761	5324	4288	7524	233	0	32825	32419	33159	32875	32643	32655	32743	32569	
663	0	1783	5349	4258	7572	234	0	32809	32637	33127	32925	32699	32677	32873	32703	
664	0	1743	5295	4306	7582	235	0	32802	32670	32989	32695	32693	32517	32755	32630	
665	0	1793	5326	4281	7563	236	0	32780	32794	32855	32731	32643	32724	32655	32775	
666	0	1786	5281	4290	7576	237	0	32724	32695	32847	32524	32621	32631	32695	32733	
667	0	1758	5364	4291	7620	238	0	32631	32875	32940	32647	32748	32570	32735	32717	
668	0	1756	5289	4272	7578	239	0	32610	32844	32924	32492	32814	32679	32695	32516	
669	0	1762	5282	4267	7562	240	0	32640	32711	32948	32694	32837	32775	32759	32623	
670	0	1775	5272	4272	7601	241	0	32679	33095	32961	32743	32775	32632	32639	32575	
671	0	1772	5240	4235	7604	242	0	32735	33039	32831	32821	32940	32581	32661	32604	
672	0	1748	5264	4293	7587	243	0	32743	33271	32751	32869	33062	32735	32763	32642	
673	0	1775	5240	4273	7590	244	0	32772	33110	32723	32951	32998	32783	32709	32621	
674	0	1761	5264	4271	7560	245	0	32749	32980	32737	32898	33011	32551	32759	32677	
675	0	1739	5287	4262	7628	246	0	32756	33027	32786	32761	32862	32766	32677	32755	
676	0	1786	5257	4304	7617	247	0	32743	32975	32845	32683	32751	32743	32733	32858	
677	0	1731	5232	4264	7638	248	0	32782	32839	32741	32690	32630	32627	32730	32773	
678	0	1758	5284	4273	7611	249	0	32838	32623	32771	32635	32655	32519	32763	32703	
679	0	1789	5246	4274	7635	250	0	32751	32451	32885	32751	32687	32709	32708	32671	
680	0	1722	5258	4264	7620	251	0	32732	32623	32839	32845	32732	32654	32668	32623	
681	0	1792	5268	4258	7614	252	0	32735	32623	32719	32818	32735	32737	32585	32701	
682	0	1783	5264	4293	7634	253	0	32772	32555	32687	32641	32799	32681	32847	32717	
683	0	1722	5219	4283	7640	254	0	32797	32519	32692	32646	32599	32486	32590	32743	
684	0	1767	5223	4250	7640	255	0	32825	32663	32693	32687	32647	32761	32711	32703	
685	0	1768	5218	4266	7658	256	0	32887	32622	32639	32742	32646	32683	32667	32756	
686	0	1771	5227	4196	7663	257	0	32782	32671	32628	32831	32605	32775	32751	32719	
687	0	1727	5225	4268	7640	258	0	32828	32577	32663	32775	32725	32610	32741	32698	
688	0	1770	5208	4243	7686	259	0	32788	32581	32679	32679	32751	32764	32807	32636	
689	0	1740	5236	4261	7706	260	0	32762	32503	32732	32806	32879	32487	32715	32735	
690	0	1760	5242	4262	7708	261	0	32800	32717	32749	32709	32935	32707	32655	32578	
691	0	1717	5176	4240	7694	262	0	32809	32671	32775	32887	32876	32671	32761	32646	
692	0	1774	5238	4241	7714	263	0	32735	32631	32823	32739	32935	32692	32773	32732	
693	0	1812	5166	4283	7705	264	0	32740	32682	32854	32885	32924	32658	32844	32693	
694	0	1748	5231	4242	7674	265	0	32712	33047	32833	32867	32844	32755	32719	32727	
695	0	1751	5184	4240	7707	266	0	32706	32918	32725	32877	32732	32694	32671	32692	
696	0	1757	5218	4240	7744	267	0	32731	32705	32679	32835	32679	32687	32684	32751	
697	0	1781	5158	4217	7698	268	0	32814	32977	32593	32637	32644	32581	32645	32759	
698	0	1786	5220	4208	7726	269	0	32775	32731	32558	32727	32551	32655	32639	32845	
699	0	1768	5182	4231	7696	270	0	32867	32739	32561	32757	32551	32783	32739	32783	
700	0	1805	5182	4224	7734	271	0	32765	32631	32581	32706	32631	32775	32717	32855	
701	0	1798	5169	4198	7717	272	0	32719	32885	32699	32805	32667	32532	32707	32804	
702	0	1764	5181	4249	7697	273	0	32677	32842	32935	32662	32695	32677	32735	32695	
703	0	1794	5172	4192	7698	274	0	32800	32895	32972	32646	32637	32727	32738	32594	
704	0	1788	5156	4155	7720	275	0	32921	32911	32955	32495	32742	32561	32771	32762	
705	0	1742	5175	4196	7770	276	0	32845	33172	32879	32631	32743	32747	32823	32782	
706	0	1755	5189	4220	7780	277	0	32784	32803	32809	32557	32687	32703	32751	32641	
707	0	1741	5135	4207	7720	278	0	32815	32601	32711	32710	32711	32564	32727	32679	
708	0	1749	5130	4166	7735	279	0	32711	32391	32503	32629	32724	32745	32756	32668	
709	0	1731	5110	4232	7781	280	0	32677	32534	32421	32735	32903	32683	32751	32727	
710	0	1797	5117	4176	7728	281	0	32729	32471	32519	32623	32815	32716	32775	32861	
711	0	1750	5170	4160	7736	282	0	32782	32343	32571	32898	32955	32550	32757	32679	
712	0	1744	5157	4210	7716	283	0	32801	32647	32671	32933	32869	32765	32719	32751	
713	0	1758	5139	4164	7775	284	0	32868	32811	32842	32791	32903	32676	32839	32729	
714	0	1742	5144	4112	7729	285	0	32937	32639	32989	32805	32956	32660	32791	32626	
715	0	1788	5119	4134	7743	286	0	32903	32857	33063	32671	32895	32612	32643	32759	
716	0	1750	5150	4096	7718	287	0	32743	32751	32903	32851	32743	32693	32663	32798	
717	0	1739	5142	4174	7778	288	0	32681	32772	32737	32815	32789	32724	32700	32707	
718	0	1758	5102	4131	7744	289	0	32426	32775	32837	32743	32711	32791	32669	32677	
719	0	1730	5100	4137	7757	290	0	32558	33209	32983	32793	32732	32543	32743	32483	
720	0	1761	5104	4108	7748	291	0	32673	33245	32999	32699	32588	32738	32725	32543	
721	0	1750	5116	4162	7771	292	0	32719	33151	33013	32685	32669	32597	32690	32454	
722	0	1736	5133	4110	7725	293	0	32775	32989	32899	32493	32590	32623	32615	32551	
723	0	1771	5137	4113	7769	294	0	32847	33326	32884	32591	32523	32533	32613	32444	
724	0	1752	5158	4122	7764	295	0	32959	33147	32879	32622	32523	32735	32583	32623	
725	0	1775	5136	4116	7723	296	0	32688	32765	32919	32807	32785	32687	32628	32548	
726	0	1748	5102	4102	7748	297	0	32407	32831	33043	33047	32711	32759	32796	32745	
727	0	1756	5116	4106	7745	298	0	32356	32685	33036	32935	32757	32487	32820	32631	
728	0	1723	5081	4131	7793	299	0	32444	32765	32965	33043	32684	32727	32662	32647	
729	0	1796	5058	4107	7758	300	0	32621	32677	32933	32839	32887	32667	32783	32572	
730	0	1767	5065	4077	7754	301	0	32716	32874	33020	32773	32816	32613	32731	32681	
731	0	1804	5117	4072	7736	302	0	32769	32735	32962	32839	32903	32583	32708	32485	
732	0	1759	5124	4120	7744	303	0	32841	32594	32863	32743	32949	32732	32775	32623	
733	0	1812	5078	4076	7752	304	0	32805	32828	32663	32903	32999	32647	32763	32735	
734	0	1799	5077	4093	7774	305	0	32818	32885	32633	32924	33117	32647	32711	32698	
735	0	1730	5096	4103	7733	306	0	32885	32687	32634	32939	33026	32615	32671	32688	
736	0	1739	5059	4069	7722	307	0	32895	32679	32598	33095	32711	32698	32653	32647	
737	0	1751	5092	4095	7770	308	0	32892	32769	32605	32879	32791	32711	32807	32617	
738	0	1691	5081	4095	7716	309	0	32871	32647	32615	32933	32725	32489	32707	32479	
739	0	1749	5108	4053	7832	310	0	32785	32479	32615	32723	32727	32731	32703	32709	
740	0	1720	5087	4039	7780	311	0	32731	32589	32559	32807	32676	32601	32621	32678	
741	0	1730	5128	4083	7722	312	0	32722	32551	32565	32783	32785	32647	32623	32683	
742	0	1760	5130	4096	7749	313	0	32807	32439	32559	32759	32687	32542	32686	32847	
743	0	1766	5127	4097	7769	314	0	32799	32587	32603	32771	32725	32710	32703	32785	
744	0	1753	5145	4101	7740	315	0	32775	32795	32583	32631	32749	32663	32803	32775	
745	0	1733	5070	4094	7730	316	0	32856	32723	32501	32747	32635	32619	32791	32710	
746	0	1781	5091	4049	7750	317	0	32793	32647	32509	32684	32565	32474	32787	32815	
747	0	1767	5083	4067	7723	318	0	32833	32818	32473	32615	32654	32735	32773	32670	
748	0	1710	5079	4066	7740	319	0	32797	32745	32591	32631	32622	32647	32719	32759	
749	0	1774	5088	4049	7729	320	0	32858	32679	32747	32551	32795	32509	32732	32806	
750	0	1774	5103	4052	7756	321	0	32851	32599	32830	32631	32854	32767	32795	32675	
751	0	1733	5092	4037	7696	322	0	32870	32805	32799	32505	32839	32775	32839	32619	
752	0	1764	5086	4080	7721	323	0	32893	32789	32715	32647	32927	32551	32769	32684	
753	0	1731	5028	4071	7774	324	0	32974	32751	32661	32543	32911	32739	32791	32605	
754	0	1782	5048	4074	7774	325	0	32962	32647	32787	32701	33106	32678	32791	32615	
755	0	1766	5063	4089	7740	326	0	32841	32533	32839	32647	32863	32594	32692	32459	
756	0	1769	5049	3980	7732	327	0	32754	32609	32739	32745	32761	32661	32647	32631	
757	0	1766	5027	4061	7736	328	0	32694	32743	32754	32811	32831	32703	32679	32655	
758	0	1769	5078	4042	7741	329	0	32582	32719	32710	32751	32757	32621	32759	32561	
759	0	1771	5048	4069	7769	330	0	32571	32683	32775	32925	32715	32629	32850	32666	
760	0	1734	5069	4088	7774	331	0	32596	32595	32661	32759	32723	32684	32673	32658	
761	0	1743	5096	4117	7768	332	0	32688	32891	32598	32911	32775	32535	32708	32579	
762	0	1779	5033	4079	7759	333	0	32711	33071	32579	32854	32711	32715	32739	32692	
763	0	1712	5063	4024	7724	334	0	32716	33091	32647	32847	32615	32742	32683	32559	
764	0	1719	5028	4085	7802	335	0	32751	32943	32724	32897	32724	32679	32671	32609	
765	0	1774	5050	4071	7707	336	0	32775	33039	32735	32773	32687	32647	32667	32791	
766	0	1753	5098	4039	7740	337	0	32732	32763	32658	32715	32660	32499	32786	32858	
767	0	1749	5047	4112	7693	338	0	32751	32830	32733	32737	32766	32615	32696	32854	
768	0	1763	5060	4067	7696	339	0	32772	32869	32759	32698	32863	32603	32799	32863	
769	0	1701	5055	4061	7704	340	0	32844	32775	32807	32671	32793	32727	32719	32791	
770	0	1738	5061	4056	7688	341	0	32899	32883	32890	32683	32899	32658	32733	32717	
771	0	1759	5042	4048	7723	342	0	32903	32725	32940	32711	32935	32615	32748	32669	
772	0	1755	5056	4032	7717	343	0	32852	32615	32948	32804	32875	32705	32769	32468	
773	0	1741	5064	4049	7721	344	0	32735	32655	32847	32946	33025	32549	32847	32445	
774	0	1734	5074	4050	7673	345	0	32653	32764	32807	32991	33095	32643	32772	32423	
775	0	1764	5035	4060	7741	346	0	32610	32689	32749	32900	32951	32735	32654	32523	
776	0	1804	5049	4085	7672	347	0	32721	32670	32735	32871	32835	32609	32692	32694	
777	0	1782	5060	4052	7716	348	0	32769	32823	32849	32871	32719	32775	32525	32711	
778	0	1733	5102	4067	7700	349	0	32766	32763	32799	32801	32767	32733	32732	32715	
779	0	1748	5073	4048	7707	350	0	32719	32690	32877	32823	32626	32461	32700	32588	
780	0	1760	5066	4072	7698	351	0	32724	32578	32847	32834	32535	32632	32804	32655	
781	0	1784	5086	4060	7746	352	0	32743	32615	32806	32738	32559	32660	32751	32685	
782	0	1740	5077	4068	7664	353	0	32743	32635	32810	32843	32599	32603	32735	32613	
783	0	1717	5058	4051	7693	354	0	32740	32632	32755	32833	32669	32411	32775	32637	
784	0	1810	5106	4066	7667	355	0	32775	32738	32709	32775	32687	32531	32691	32517	
785	0	1796	5062	4052	7682	356	0	32735	32775	32611	32676	32639	32623	32761	32627	
786	0	1764	5043	4092	7639	357	0	32676	32764	32487	32701	32647	32647	32679	32775	
787	0	1729	5107	4046	7700	358	0	32870	32607	32527	32647	32637	32794	32718	32819	
788	0	1774	5050	4085	7698	359	0	32827	32515	32717	32775	32811	32767	32754	32831	
789	0	1749	5084	4041	7657	360	0	32877	32453	32677	32815	32795	32621	32727	32789	
790	0	1765	5096	4050	7648	361	0	32887	32539	32675	32739	32945	32463	32818	32791	
791	0	1732	5094	4048	7644	362	0	32797	32365	32724	32597	32893	32764	32695	32813	
792	0	1765	5104	4058	7640	363	0	32817	32541	32687	32623	32884	32821	32738	32791	
793	0	1772	5117	4078	7650	364	0	32836	32623	32734	32627	32967	32871	32647	32629	
794	0	1751	5100	4074	7630	365	0	32810	32699	32874	32662	32978	32583	32804	32541	
795	0	1702	5076	4075	7633	366	0	32781	32743	32839	32633	32897	32662	32799	32511	
796	0	1755	5109	4070	7581	367	0	32796	32795	32767	32570	32807	32756	32719	32559	
797	0	1771	5120	4083	7630	368	0	32754	33042	32558	32509	32822	32500	32711	32647	
798	0	1736	5107	4067	7640	369	0	32775	33195	32659	32455	32702	32735	32615	32655	
799	0	1750	5081	4076	7587	370	0	32775	33243	32833	32524	32773	32697	32748	32759	
800	0	1765	5099	4104	7638	371	0	32631	33129	32791	32661	32759	32596	32631	32765	
801	0	1745	5120	4066	7629	372	0	32626	33159	32804	32755	32723	32543	32743	32740	
802	0	1742	5099	4116	7589	373	0	32716	32913	32895	32815	32770	32767	32701	32717	
803	0	1729	5124	4136	7600	374	0	32739	32670	33031	32855	32766	32703	32743	32818	
804	0	1700	5123	4086	7616	375	0	32754	32747	32804	32827	32775	32641	32754	32703	
805	0	1782	5096	4118	7656	376	0	32773	32835	32875	32799	32633	32637	32607	32769	
806	0	1761	5097	4096	7641	377	0	32804	32844	32855	32789	32676	32717	32667	32743	
807	0	1738	5123	4075	7608	378	0	32763	32817	32851	32791	32711	32872	32610	32734	
808	0	1763	5108	4134	7584	379	0	32754	32893	32948	32709	32807	32647	32730	32807	
809	0	1769	5095	4085	7568	380	0	32754	32853	33007	32725	32809	32743	32717	32758	
810	0	1707	5109	4107	7589	381	0	32809	32913	32711	32661	32807	32647	32675	32644	
811	0	1779	5101	4078	7602	382	0	32732	33133	32655	32698	32965	32543	32765	32695	
812	0	1760	5148	4124	7608	383	0	32743	33087	32895	32775	32899	32559	32709	32683	
813	0	1726	5159	4080	7557	384	0	32921	33119	32903	32804	32871	32740	32850	32692	
814	0	1746	5137	4084	7574	385	0	33073	32762	32837	32927	32973	32639	32735	32524	
815	0	1724	5150	4068	7539	386	0	32823	32765	32802	32706	32775	32703	32835	32563	
816	0	1767	5173	4100	7596	387	0	32487	32613	32715	32359	32703	32725	32751	32559	
817	0	1707	5115	4106	7501	388	0	32412	32691	32759	32374	32671	32501	32789	32655	
818	0	1756	5158	4072	7565	389	0	32449	32599	32851	32470	32716	32767	32559	32711	
819	0	1760	5155	4108	7532	390	0	32498	32513	32825	32763	32724	32719	32715	32703	
820	0	1735	5185	4106	7488	391	0	32588	32531	32895	33047	32718	32463	32749	32809	
821	0	1780	5164	4130	7533	392	0	32672	32567	32743	33061	32855	32707	32791	32810	
822	0	1788	5192	4083	7556	393	0	32727	32391	32677	33125	32785	32655	32695	32835	
823	0	1781	5136	4096	7515	394	0	32833	32303	32806	33083	32903	32636	32719	32743	
824	0	1779	5185	4101	7501	395	0	32903	32309	32887	33127	32847	32576	32647	32759	
825	0	1753	5144	4118	7497	396	0	32626	32637	32887	33031	32639	32775	32703	32726	
826	0	1771	5171	4094	7534	397	0	32428	32583	33002	33089	32668	32821	32687	32726	
827	0	1765	5168	4090	7521	398	0	32524	32504	32837	33143	32657	32683	32647	32869	
828	0	1732	5164	4118	7435	399	0	32484	32839	32630	33031	32879	32701	32675	32764	
829	0	1760	5151	4084	7460	400	0	32485	32986	32759	33027	32772	32775	32687	32733	
830	0	1730	5170	4156	7491	401	0	32664	32903	32887	32815	32876	32565	32647	32647	
831	0	1717	5190	4087	7459	402	0	32828	33222	32969	32679	32837	32647	32725	32719	
832	0	1724	5160	4101	7447	403	0	32974	33115	32788	32600	32999	32595	32743	32515	
833	0	1697	5173	4100	7447	404	0	33063	32987	32791	32553	32975	32639	32719	32643	
834	0	1761	5172	4132	7463	405	0	33055	32883	32773	32515	32921	32580	32683	32505	
835	0	1724	5158	4112	7420	406	0	33095	32975	32789	32473	32599	32684	32635	32588	
836	0	1749	5212	4134	7445	407	0	32965	32821	32795	32639	32703	32582	32583	32511	
837	0	1747	5164	4085	7488	408	0	32830	32561	32771	32399	32669	32657	32679	32722	
838	0	1706	5250	4108	7433	409	0	32772	32621	32743	32566	32671	32606	32623	32818	
839	0	1721	5197	4171	7437	410	0	32743	32391	32647	32530	32630	32635	32719	32647	
840	0	1742	5238	4151	7425	411	0	32796	32259	32591	32707	32596	32679	32751	32681	
841	0	1736	5241	4129	7398	412	0	32832	32332	32638	32613	32617	32505	32861	32596	
842	0	1717	5215	4153	7418	413	0	32834	32316	32527	32763	32667	32669	32903	32710	
843	0	1748	5233	4106	7385	414	0	32839	32407	32505	32707	32854	32647	32821	32727	
844	0	1720	5252	4085	7412	415	0	32837	32493	32567	32903	32911	32450	32747	32627	
845	0	1783	5204	4131	7416	416	0	32971	32786	32595	32711	32631	32771	32535	32711	
846	0	1682	5284	4126	7392	417	0	33074	33082	32539	32711	32647	32894	32423	32819	
847	0	1700	5257	4126	7395	418	0	32989	32967	32518	32613	32471	32587	32557	32647	
848	0	1704	5221	4104	7379	419	0	32921	32845	32670	32755	32709	32738	32799	32711	
849	0	1731	5285	4128	7380	420	0	32815	32991	32551	32663	32755	32735	32751	32811	
850	0	1712	5284	4173	7394	421	0	32723	32933	32675	32797	32813	32617	32655	32660	
851	0	1728	5247	4160	7382	422	0	32652	32925	32726	32699	32948	32862	32583	32763	
852	0	1691	5276	4144	7326	423	0	32604	32786	32723	32829	32837	32711	32631	32707	
853	0	1742	5286	4146	7332	424	0	32630	33001	32755	32742	32935	32530	32683	32551	
854	0	1739	5254	4152	7361	425	0	32570	33091	32573	32757	32926	32735	32724	32559	
855	0	1743	5280	4178	7327	426	0	32534	32988	32442	32695	32903	32755	32764	32501	
856	0	1684	5261	4107	7318	427	0	32509	32699	32743	32676	32699	32477	32647	32647	
857	0	1701	5299	4135	7333	428	0	32670	32727	32717	32629	32767	32715	32677	32687	
858	0	1693	5318	4154	7349	429	0	32701	32557	32737	32695	32785	32663	32679	32661	
859	0	1705	5275	4195	7267	430	0	32808	32327	32827	32519	32751	32718	32675	32743	
860	0	1688	5308	4164	7298	431	0	32799	32247	32859	32629	32789	32548	32645	32500	
861	0	1701	5302	4196	7301	432	0	32818	32519	33135	32627	32721	32671	32767	32687	
862	0	1737	5288	4136	7296	433	0	32841	32484	33063	32761	32743	32711	32711	32727	
863	0	1694	5333	4196	7313	434	0	32887	32333	32993	32751	32690	32635	32691	32553	
864	0	1700	5315	4151	7293	435	0	32990	32157	32903	32943	32691	32660	32626	32679	
865	0	1737	5372	4197	7304	436	0	33001	32374	32677	32863	32820	32675	32699	32740	
866	0	1714	5340	4191	7293	437	0	32963	32515	32599	32871	32748	32638	32693	32532	
867	0	1697	5354	4224	7252	438	0	32903	32541	32658	32784	32817	32679	32647	32667	
868	0	1765	5323	4175	7276	439	0	32730	32855	32629	32763	32758	32731	32620	32732	
869	0	1689	5368	4184	7241	440	0	32516	32991	32695	32643	32930	32503	32668	32741	
870	0	1711	5346	4200	7261	441	0	32388	33443	32713	32795	32767	32691	32619	32675	
871	0	1719	5349	4183	7261	442	0	32501	33381	32581	32673	32887	32589	32647	32679	
872	0	1719	5330	4181	7265	443	0	32623	33319	32439	32911	32847	32707	32679	32727	
873	0	1710	5368	4213	7242	444	0	32679	33459	32625	32999	32951	32445	32719	32673	
874	0	1721	5338	4202	7235	445	0	32708	33219	32703	33005	32891	32711	32742	32562	
875	0	1733	5382	4193	7202	446	0	32769	33079	32900	32931	32668	32711	32698	32570	
876	0	1713	5376	4222	7244	447	0	32669	32876	33129	32850	32537	32546	32655	32663	
877	0	1696	5432	4187	7182	448	0	32726	32921	33023	32805	32703	32659	32693	32673	
878	0	1694	5407	4230	7260	449	0	32866	32873	32807	32647	32767	32621	32634	32775	
879	0	1713	5376	4250	7203	450	0	32978	32829	32847	32617	32751	32756	32569	32786	
880	0	1743	5408	4218	7180	451	0	32848	32547	33009	32615	32839	32715	32538	32843	
881	0	1697	5408	4238	7208	452	0	32826	32633	33021	32663	32807	32775	32687	32743	
882	0	1718	5400	4233	7186	453	0	32796	32836	32989	32459	32717	32711	32735	32711	
883	0	1682	5405	4250	7160	454	0	32900	32679	32962	32565	32823	32562	32791	32715	
884	0	1648	5429	4238	7162	455	0	32846	32487	32743	32635	32692	32711	32754	32751	
885	0	1684	5396	4245	7194	456	0	32892	32501	32425	32691	32515	32579	32740	32865	
886	0	1692	5428	4225	7180	457	0	33004	32415	32391	32727	32500	32474	32629	32676	
887	0	1736	5424	4240	7186	458	0	32998	32519	32493	32820	32535	32634	32621	32775	
888	0	1624	5384	4217	7140	459	0	32863	32519	32687	32957	32860	32615	32699	32775	
889	0	1710	5428	4209	7130	460	0	32575	32399	32765	32855	32903	32643	32639	32620	
890	0	1677	5399	4241	7151	461	0	32592	32503	32839	32951	32948	32815	32721	32692	
891	0	1684	5445	4229	7076	462	0	32658	32603	32955	32691	33075	32572	32799	32757	
892	0	1635	5408	4294	7105	463	0	32652	32567	33037	32727	32999	32773	32775	32617	
893	0	1696	5454	4297	7145	464	0	32609	32639	33085	32636	32983	32729	32629	32691	
894	0	1699	5428	4224	7130	465	0	32637	32847	32844	32699	33021	32564	32782	32559	
895	0	1683	5458	4267	7166	466	0	32743	32964	32803	32575	32972	32743	32831	32639	
896	0	1613	5464	4214	7123	467	0	32740	32854	32911	32679	32775	32733	32735	32803	
897	0	1641	5434	4258	7108	468	0	32708	32831	32871	32751	32727	32629	32743	32701	
898	0	1689	5422	4260	7132	469	0	32709	32676	32758	32564	32623	32801	32763	32711	
899	0	1646	5444	4256	7108	470	0	32620	32682	32703	32894	32580	32727	32791	32655	
900	0	1654	5422	4271	7088	471	0	32513	32948	32429	32804	32679	32665	32775	32815	
901	0	1680	5494	4254	7040	472	0	32572	33042	32503	32849	32663	32719	32775	32743	
902	0	1638	5444	4285	7044	473	0	32621	32963	32717	32676	32741	32731	32702	32693	
903	0	1616	5435	4290	7086	474	0	32797	32813	32772	32891	32690	32511	32821	32771	
904	0	1643	5434	4282	7093	475	0	32870	32855	32899	32764	32690	32741	32747	32743	
905	0	1638	5457	4318	7096	476	0	32878	33009	32917	32775	32687	32667	32673	32633	
906	0	1640	5483	4258	7054	477	0	32895	32823	32903	32689	32847	32511	32647	32690	
907	0	1632	5485	4275	7027	478	0	32868	32483	32660	32727	32893	32711	32685	32521	
908	0	1597	5462	4306	7056	479	0	32992	32343	32625	32575	32887	32731	32838	32692	
909	0	1651	5482	4276	7019	480	0	33159	32485	32807	32719	32845	32604	32821	32751	
910	0	1639	5491	4257	7009	481	0	33107	32567	32898	32675	32865	32667	32790	32673	
911	0	1635	5491	4297	7004	482	0	32935	32660	32699	32717	32829	32706	32791	32669	
912	0	1614	5477	4299	7015	483	0	32654	32631	32710	32715	32939	32597	32711	32471	
913	0	1662	5456	4291	7048	484	0	32466	32727	32749	32694	33078	32647	32661	32626	
914	0	1688	5478	4331	7035	485	0	32416	33015	32951	32879	32876	32658	32685	32591	
915	0	1649	5481	4270	7032	486	0	32439	32983	32958	32802	32675	32738	32669	32473	
916	0	1622	5526	4298	7040	487	0	32602	32791	32962	32765	32594	32775	32578	32577	
917	0	1585	5468	4306	7016	488	0	32738	32735	32957	32731	32695	32703	32675	32716	
918	0	1655	5509	4317	6968	489	0	32769	32551	32869	32706	32783	32813	32697	32615	
919	0	1634	5482	4287	6996	490	0	32796	32855	32781	32775	32775	32747	32700	32711	
920	0	1597	5508	4350	7028	491	0	32895	32924	32701	32879	32734	32571	32647	32627	
921	0	1591	5506	4272	6984	492	0	32771	32815	32717	32891	32875	32711	32679	32765	
922	0	1658	5494	4321	6963	493	0	32726	32751	32743	32725	32607	32559	32658	32770	
923	0	1611	5490	4321	6964	494	0	32743	32470	32673	32875	32575	32689	32628	32599	
924	0	1594	5544	4330	6960	495	0	32866	32563	32703	32765	32687	32675	32619	32658	
925	0	1604	5539	4359	6985	496	0	32873	32703	32597	32793	32587	32477	32700	32791	
926	0	1641	5540	4318	7018	497	0	32922	32583	32563	32696	32739	32699	32679	32668	
927	0	1617	5525	4327	6940	498	0	32877	32273	32447	32659	32767	32677	32703	32695	
928	0	1609	5551	4304	7013	499	0	32820	32071	32487	32732	32703	32483	32751	32633	
929	0	1610	5534	4312	6980	500	0	32850	32263	32465	32722	32789	32685	32781	32758	
930	0	1614	5529	4338	6951	501	0	32862	32243	32397	32775	32853	32644	32743	32754	
931	0	1644	5562	4334	6949	502	0	32814	32583	32571	32823	33106	32610	32775	32646	
932	0	1558	5545	4365	6974	503	0	32764	32871	32677	32727	32914	32533	32725	32643	
933	0	1599	5527	4337	6926	504	0	32743	33491	32756	32831	33041	32662	32703	32463	
934	0	1601	5540	4293	6940	505	0	32634	33909	32749	32695	33099	32642	32795	32711	
935	0	1558	5544	4359	6944	506	0	32631	33711	32693	32775	32937	32679	32690	32594	
936	0	1573	5520	4406	6929	507	0	32587	33283	32599	32711	32739	32796	32807	32785	
937	0	1580	5570	4371	6964	508	0	32623	33199	32679	32855	32798	32743	32803	32719	
938	0	1568	5564	4345	6920	509	0	32609	33287	32851	32621	32719	32547	32817	32558	
939	0	1634	5580	4331	6949	510	0	32569	33011	32823	32759	32655	32735	32851	32676	
940	0	1611	5556	4356	6942	511	0	32595	32667	32741	32692	32692	32667	32669	32570	
941	0	1632	5562	4375	6968	512	0	32687	32756	32799	32551	32555	32799	32679	32679	
942	0	1591	5556	4354	6949	513	0	32710	32454	32916	32667	32775	32487	32773	32667	
943	0	1580	5571	4401	6907	514	0	32858	32353	32823	32695	32639	32775	32683	32837	
944	0	1615	5589	4337	6932	515	0	32879	32299	32823	32658	32726	32735	32740	32919	
945	0	1611	5554	4370	6935	516	0	32918	32474	33027	32811	32614	32695	32721	32838	
946	0	1581	5572	4378	6936	517	0	32919	32489	33107	32699	32619	32587	32749	32819	
947	0	1553	5551	4395	6916	518	0	32994	32391	33175	32823	32749	32827	32838	32764	
948	0	1580	5588	4385	6926	519	0	32894	32517	33230	32791	32838	32788	32729	32767	
949	0	1598	5573	4372	6906	520	0	32783	32806	33095	33047	32797	32676	32739	32671	
950	0	1594	5580	4388	6932	521	0	32718	32787	33013	32803	32799	32656	32667	32676	
951	0	1572	5584	4404	6948	522	0	32732	32579	33031	32835	32850	32598	32711	32565	
952	0	1599	5592	4389	6848	523	0	32660	32815	32919	32668	32990	32647	32743	32594	
953	0	1530	5585	4408	6878	524	0	32700	32893	32877	32607	32903	32412	32755	32479	
954	0	1552	5589	4432	6948	525	0	32679	32871	32819	32707	32883	32673	32774	32559	
955	0	1550	5572	4421	6950	526	0	32729	32691	32679	32590	32802	32613	32695	32591	
956	0	1609	5572	4408	6905	527	0	32767	32775	32519	32503	32717	32647	32663	32621	
957	0	1560	5596	4358	6883	528	0	32799	32949	32447	32499	32562	32902	32687	32683	
958	0	1602	5592	4425	6882	529	0	32810	32991	32365	32425	32647	32801	32685	32700	
959	0	1597	5582	4470	6900	530	0	32856	32775	32327	32662	32679	32811	32731	32681	
960	0	1606	5604	4419	6919	531	0	32974	32837	32335	32615	32710	32516	32788	32475	
961	0	1597	5620	4402	6922	532	0	32793	33055	32387	32953	32772	32613	32732	32605	
962	0	1608	5588	4430	6882	533	0	32719	32799	32468	32948	32827	32605	32815	32567	
963	0	1517	5616	4431	6917	534	0	32745	32865	32623	33069	32822	32441	32879	32691	
964	0	1597	5625	4482	6889	535	0	32749	32593	32699	32935	32730	32599	32887	32758	
965	0	1588	5605	4494	6887	536	0	32833	32711	32850	33091	32820	32647	32839	32683	
966	0	1602	5633	4420	6902	537	0	32856	32715	32967	32941	32695	32515	32764	32791	
967	0	1587	5619	4488	6940	538	0	32793	32615	33203	32871	32852	32743	32790	32730	
968	0	1542	5613	4474	6931	539	0	32804	32527	33327	32756	32853	32683	32783	32809	
969	0	1579	5656	4512	6946	540	0	32775	32647	33171	32764	32867	32647	32727	32886	
970	0	1578	5657	4529	6892	541	0	32692	32775	33127	32790	32847	32689	32823	32809	
971	0	1561	5655	4493	6864	542	0	32759	32683	32870	32722	32935	32749	32703	32748	
972	0	1545	5604	4442	6898	543	0	32808	32634	32582	32911	33005	32687	32804	32701	
973	0	1569	5590	4550	6901	544	0	32725	32878	32530	32902	32919	32595	32749	32611	
974	0	1575	5635	4510	6897	545	0	32705	32790	32551	32871	33005	32538	32711	32647	
975	0	1542	5684	4490	6914	546	0	32750	32631	32519	32863	32786	32676	32839	32708	
976	0	1587	5605	4497	6882	547	0	32834	32699	32471	32755	32787	32666	32820	32743	
977	0	1549	5644	4484	6853	548	0	33006	32915	32503	32866	32755	32558	32765	32711	
978	0	1583	5644	4556	6885	549	0	33063	32767	32474	32708	32719	32791	32767	32591	
979	0	1584	5650	4542	6867	550	0	33078	32699	32582	32675	32671	32749	32876	32775	
980	0	1592	5618	4551	6885	551	0	32911	32595	32659	32722	32837	32731	32847	32647	
981	0	1553	5641	4557	6918	552	0	32814	32671	32879	32705	32815	32591	32772	32702	
982	0	1551	5674	4500	6914	553	0	32543	32686	32745	32723	32762	32725	32682	32524	
983	0	1564	5653	4530	6923	554	0	32327	32538	32674	32711	32635	32689	32670	32647	
984	0	1602	5676	4570	6908	555	0	32252	32843	32631	32587	32701	32686	32677	32471	
985	0	1557	5660	4546	6878	556	0	32357	32799	32487	32620	32580	32500	32735	32606	
986	0	1551	5699	4544	6883	557	0	32554	32710	32594	32557	32663	32683	32735	32699	
987	0	1531	5658	4557	6900	558	0	32673	32716	32767	32647	32514	32722	32687	32555	
988	0	1533	5693	4586	6840	559	0	32820	32963	32831	32647	32815	32463	32695	32671	
989	0	1537	5646	4606	6894	560	0	32903	32895	32861	32719	32756	32729	32687	32535	
990	0	1586	5632	4547	6871	561	0	32910	32642	32730	32855	32673	32667	32718	32605	
991	0	1549	5670	4596	6874	562	0	32916	32775	32681	32647	32951	32607	32892	32710	
992	0	1554	5665	4572	6925	563	0	32957	32711	32809	32666	32916	32839	32803	32717	
993	0	1572	5680	4579	6874	564	0	32799	32643	32791	32623	32967	32788	32731	32647	
994	0	1547	5653	4588	6884	565	0	32714	32895	32979	32787	33005	32735	32623	32559	
995	0	1512	5650	4581	6884	566	0	32757	32931	32883	32830	33021	32677	32682	32621	
996	0	1568	5651	4651	6878	567	0	32788	32807	32663	32835	32743	32604	32667	32494	
997	0	1563	5687	4594	6832	568	0	32796	32615	32673	32711	32730	32527	32644	32659	
998	0	1568	5668	4598	6880	569	0	32712	32707	32751	32803	32623	32647	32656	32571	
999	0	1536	5686	4618	6883	570	0	32724	32566	32865	32860	32611	32587	32647	32695	
1000	0	1527	5703	4596	6876	571	0	32709	32557	33078	32726	32575	32677	32687	32750	
1001	0	1559	5692	4592	6912	572	0	32700	32369	33191	32767	32591	32623	32487	32703	
1002	0	1577	5694	4628	6862	573	0	32699	32639	33137	32582	32631	32734	32693	32767	
1003	0	1548	5678	4578	6877	574	0	32797	32566	32942	32671	32655	32709	32793	32605	
1004	0	1560	5684	4634	6865	575	0	32852	32693	32831	32524	32557	32519	32791	32795	
1005	0	1549	5709	4653	6885	576	0	32850	32854	32699	32663	32530	32627	32841	32851	
1006	0	1541	5688	4662	6845	577	0	32775	33063	32701	32603	32671	32663	32711	32694	
1007	0	1518	5726	4677	6852	578	0	32677	33151	32622	32671	32612	32545	32443	32706	
1008	0	1534	5697	4646	6894	579	0	32773	33329	32583	32658	32860	32679	32420	32639	
1009	0	1523	5664	4681	6924	580	0	32770	33139	32472	32719	32810	32683	32475	32692	
1010	0	1565	5740	4668	6845	581	0	32771	33083	32501	32690	33025	32573	32623	32799	
1011	0	1508	5693	4629	6865	582	0	32787	33127	32510	32723	33152	32808	32591	32721	
1012	0	1558	5681	4690	6894	583	0	32879	32801	32571	32695	33083	32839	32551	32723	
1013	0	1525	5690	4640	6885	584	0	32775	32745	32726	32659	33059	32623	32729	32561	
1014	0	1559	5685	4624	6860	585	0	32671	32775	32924	32635	32918	32743	32733	32609	
1015	0	1568	5704	4648	6858	586	0	32647	32695	32965	32767	32934	32599	32791	32687	
1016	0	1537	5729	4636	6886	587	0	32628	32847	32991	32879	32732	32559	32734	32583	
1017	0	1511	5701	4702	6822	588	0	32619	32715	33110	32804	32709	32719	32671	32643	
1018	0	1541	5705	4655	6880	589	0	32628	32599	33065	32903	32687	32772	32799	32559	
1019	0	1557	5705	4635	6849	590	0	32646	32475	32971	32935	32710	32711	32671	32695	
1020	0	1574	5669	4634	6862	591	0	32693	32567	32843	32955	32763	32660	32755	32589	
1021	0	1528	5714	4676	6872	592	0	32743	32647	32843	33073	32647	32547	32636	32481	
1022	0	1524	5735	4692	6871	593	0	32750	32735	32689	32839	32647	32700	32743	32647	
1023	0	1524	5678	4674	6872	594	0	32780	32694	32697	32819	32567	32724	32647	32703	
1024	0	1488	5692	4706	6873	595	0	32801	32671	32657	32725	32625	32711	32687	32635	
1025	0	1538	5704	4688	6828	596	0	32834	32559	32515	32599	32557	32628	32727	32707	
1026	0	1516	5734	4717	6823	597	0	32820	32695	32495	32703	32531	32543	32729	32735	
1027	0	1500	5705	4654	6849	598	0	32926	32751	32509	32679	32692	32718	32695	32727	
1028	0	1498	5672	4657	6843	599	0	32865	32733	32623	32799	32793	32749	32740	32804	
1029	0	1498	5720	4687	6889	600	0	32962	32797	32669	32559	33029	32522	32663	32827	
1030	0	1538	5729	4715	6874	601	0	32903	32717	32679	32503	32870	32771	32549	32615	
1031	0	1523	5738	4700	6862	602	0	32809	32887	32683	32471	32927	32753	32615	32690	
1032	0	1538	5739	4671	6822	603	0	32786	32734	32644	32734	32947	32551	32719	32511	
1033	0	1516	5757	4665	6852	604	0	32775	32733	32636	32677	32903	32737	32593	32665	
1034	0	1529	5730	4737	6832	605	0	32708	32647	32619	32829	32927	32769	32583	32647	
1035	0	1499	5719	4714	6870	606	0	32735	32726	32469	32771	32820	32567	32627	32479	
1036	0	1545	5686	4730	6828	607	0	32798	32854	32420	32711	32855	32596	32795	32647	
1037	0	1502	5696	4758	6850	608	0	32864	32770	32471	32871	32759	32598	32743	32698	
1038	0	1509	5680	4696	6849	609	0	32876	32713	32621	32887	32710	32573	32677	32719	
1039	0	1489	5742	4729	6869	610	0	32888	32525	32812	32887	32731	32780	32591	32747	
1040	0	1505	5693	4754	6846	611	0	32840	32751	33067	32786	32877	32677	32767	32559	
1041	0	1568	5727	4777	6823	612	0	32668	32903	33135	32725	32804	32455	32693	32647	
1042	0	1503	5740	4741	6845	613	0	32551	32818	33143	32469	32813	32700	32775	32598	
1043	0	1533	5706	4741	6842	614	0	32532	32583	33151	32543	32743	32719	32791	32711	
1044	0	1523	5685	4723	6820	615	0	32508	32609	33095	32594	32612	32523	32797	32758	
1045	0	1508	5736	4750	6809	616	0	32582	32659	33009	32703	32519	32667	32788	32791	
1046	0	1487	5746	4804	6804	617	0	32602	32647	32949	32714	32514	32727	32748	32805	
1047	0	1503	5705	4772	6813	618	0	32607	32731	32927	32804	32671	32755	32732	32685	
1048	0	1482	5710	4760	6802	619	0	32644	32453	32995	32839	32681	32583	32858	32807	
1049	0	1483	5714	4775	6828	620	0	32748	32647	32766	33013	32775	32471	32807	32875	
1050	0	1482	5724	4711	6816	621	0	32710	32903	32583	32859	32791	32731	32767	32702	
1051	0	1492	5768	4759	6848	622	0	32710	33080	32587	32951	32911	32635	32647	32703	
1052	0	1514	5756	4723	6837	623	0	32686	33044	32603	33039	32939	32639	32687	32378	
1053	0	1443	5742	4776	6801	624	0	32738	33285	32619	32983	32931	32437	32737	32367	
1054	0	1507	5717	4759	6793	625	0	32858	33123	32662	33067	32895	32594	32747	32251	
1055	0	1497	5723	4693	6862	626	0	32767	33015	32699	32863	32999	32637	32665	32467	
1056	0	1462	5748	4733	6818	627	0	32817	32707	32708	32922	32644	32439	32615	32359	
1057	0	1492	5736	4769	6781	628	0	32844	32883	32563	32571	32689	32743	32605	32501	
1058	0	1479	5762	4798	6840	629	0	32751	32837	32605	32706	32487	32727	32647	32606	
1059	0	1494	5742	4706	6816	630	0	32686	32667	32591	32575	32743	32607	32647	32582	
1060	0	1508	5726	4713	6824	631	0	32653	32583	32615	32452	32711	32663	32383	32710	
1061	0	1459	5768	4742	6820	632	0	32642	32423	32572	32493	32639	32735	32221	32711	
1062	0	1506	5806	4749	6765	633	0	32626	32551	32841	32517	32615	32877	32209	32595	
1063	0	1497	5732	4765	6815	634	0	32659	32679	33044	32559	32495	32863	32277	32767	
1064	0	1446	5754	4809	6832	635	0	32628	32711	33045	32495	32495	32639	32293	32761	
1065	0	1498	5708	4786	6793	636	0	32679	32599	33045	32621	32293	32839	32334	32627	
1066	0	1515	5737	4784	6803	637	0	32609	32631	33191	32535	32391	32759	32371	32765	
1067	0	1496	5742	4771	6816	638	0	32636	32493	33295	32519	32357	32658	32205	32879	
1068	0	1537	5716	4782	6778	639	0	32570	32531	33367	32450	32391	32903	32199	32890	
1069	0	1495	5731	4767	6845	640	0	32615	32687	33559	32298	32442	32983	32135	32895	
1070	0	1470	5742	4761	6784	641	0	32687	32630	33735	32221	32539	32829	32091	32871	
1071	0	1484	5728	4741	6772	642	0	32764	32519	33703	32142	32553	32999	32082	33090	
1072	0	1484	5752	4793	6843	643	0	32838	32349	33436	32023	32630	32866	32111	33129	
1073	0	1470	5712	4741	6832	644	0	32871	32593	33265	31947	32807	33043	32110	32823	
1074	0	1508	5744	4769	6768	645	0	32937	32599	32973	32324	32879	33061	32285	33011	
1075	0	1519	5768	4800	6762	646	0	33044	32493	32727	32301	32982	32850	32437	33191	
1076	0	1473	5813	4798	6790	647	0	33248	32132	32766	32583	32785	33133	32645	33103	
1077	0	1513	5746	4788	6788	648	0	33372	32064	32771	32594	33005	33103	32733	33285	
1078	0	1462	5768	4745	6818	649	0	33502	31861	32765	32701	32916	33035	32861	33251	
1079	0	1496	5763	4746	6794	650	0	33608	31949	32719	32754	33172	32994	33031	33254	
1080	0	1501	5789	4779	6777	651	0	33671	32077	32687	32935	33071	33079	33191	33111	
1081	0	1450	5758	4738	6807	652	0	33581	32475	32687	33031	33047	33025	33235	33069	
1082	0	1471	5772	4803	6776	653	0	33311	32664	32723	33287	32903	32919	33324	32903	
1083	0	1481	5703	4763	6802	654	0	33089	32865	32555	33295	32987	32773	33505	32863	
1084	0	1500	5763	4729	6799	655	0	33004	33141	32477	33562	33119	32509	33639	32710	
1085	0	1510	5772	4752	6800	656	0	32977	33091	32189	33638	33010	32486	33773	32583	
1086	0	1468	5757	4771	6788	657	0	32748	33482	31980	33897	33209	32327	33909	32487	
1087	0	1478	5807	4795	6810	658	0	32607	33917	31911	33750	33283	31955	33975	32307	
1088	0	1451	5771	4760	6794	659	0	32501	33883	31981	33747	33430	32055	33890	32215	
1089	0	1524	5756	4796	6764	660	0	32475	33783	31906	33525	33475	32129	33974	32219	
1090	0	1485	5760	4758	6826	661	0	32522	33437	31687	33539	33383	32019	33919	32095	
1091	0	1485	5760	4774	6817	662	0	32443	33635	31407	33428	33519	32158	33854	32135	
1092	0	1472	5760	4726	6810	663	0	32595	33415	31251	33531	33479	32093	33734	31981	
1093	0	1492	5777	4759	6790	664	0	32610	33287	31499	33335	33343	32169	33587	32087	
1094	0	1478	5802	4800	6761	665	0	32503	33127	32011	33095	33127	32120	33329	31974	
1095	0	1482	5756	4799	6810	666	0	32423	33223	32311	32909	32948	32199	33157	32159	
1096	0	1481	5749	4835	6778	667	0	32330	33037	32511	32751	32625	32318	32903	32113	
1097	0	1416	5796	4789	6825	668	0	32263	32865	33007	32684	32421	32161	32708	32239	
1098	0	1458	5790	4750	6781	669	0	32278	32671	33089	32542	32327	32412	32519	32203	
1099	0	1494	5788	4773	6812	670	0	32295	32863	33030	32551	32412	32439	32415	32391	
1100	0	1485	5785	4736	6747	671	0	32382	32635	33062	32327	32355	32386	32295	32351	
1101	0	1482	5763	4819	6764	672	0	32453	32433	33195	32389	32312	32455	32287	32565	
1102	0	1500	5810	4828	6752	673	0	32548	32607	33263	32340	32199	32625	32100	32575	
1103	0	1466	5766	4779	6768	674	0	32567	32539	33375	32207	32247	32627	32236	32551	
1104	0	1507	5785	4792	6776	675	0	32567	32429	33341	32253	32561	32671	32231	32677	
1105	0	1499	5767	4772	6768	676	0	32540	32660	33203	32410	32551	32572	32091	32619	
1106	0	1488	5775	4828	6775	677	0	32662	32599	32988	32335	32501	32670	32063	32820	
1107	0	1454	5838	4761	6765	678	0	32704	32607	32822	32493	32479	32799	32207	32743	
1108	0	1498	5823	4804	6721	679	0	32694	32607	32919	32543	32713	32803	32247	32859	
1109	0	1515	5824	4808	6778	680	0	32661	32641	32903	32647	32839	32863	32405	32604	
1110	0	1454	5799	4721	6714	681	0	32724	32567	32879	32593	32754	32669	32375	32575	
1111	0	1473	5738	4768	6738	682	0	32783	32751	32805	32675	32807	32821	32468	32743	
1112	0	1471	5829	4771	6754	683	0	32820	32838	32819	32683	32683	32839	32501	32714	
1113	0	1489	5824	4726	6770	684	0	32803	32894	33003	32700	32755	32705	32527	32787	
1114	0	1438	5777	4772	6720	685	0	32896	32925	32903	32685	32827	32811	32503	32807	
1115	0	1488	5769	4805	6739	686	0	32913	32863	32996	32690	32879	32827	32615	32617	
1116	0	1512	5793	4789	6778	687	0	32847	32805	32900	32663	32773	32707	32572	32822	
1117	0	1459	5845	4772	6773	688	0	32925	32775	32751	32775	32742	32847	32542	32767	
1118	0	1468	5816	4781	6761	689	0	32901	32623	32703	32609	32583	32935	32635	32719	
1119	0	1493	5792	4778	6720	690	0	32892	32433	32711	32682	32687	32870	32579	32663	
1120	0	1473	5814	4765	6731	691	0	32857	32519	32621	32634	32621	32631	32773	32717	
1121	0	1460	5833	4740	6707	692	0	32839	32532	32647	32551	32516	32693	32663	32786	
1122	0	1487	5796	4780	6724	693	0	32834	32559	32555	32455	32461	32716	32719	32807	
1123	0	1493	5771	4824	6705	694	0	32810	32431	32509	32455	32599	32746	32731	32849	
1124	0	1489	5780	4776	6732	695	0	32824	32415	32583	32437	32683	32837	32637	32943	
1125	0	1509	5850	4754	6736	696	0	32788	32423	32571	32461	32647	32675	32699	32775	
1126	0	1458	5859	4716	6716	697	0	32788	32347	32632	32574	32681	32803	32627	32743	
1127	0	1463	5815	4735	6696	698	0	32836	32518	32671	32751	32621	32687	32727	32732	
1128	0	1492	5872	4752	6687	699	0	32968	32479	32858	32943	32831	32764	32679	32745	
1129	0	1461	5814	4794	6714	700	0	33052	32710	33167	33029	32851	32583	32717	32643	
1130	0	1492	5848	4756	6714	701	0	33095	33275	33311	33145	32815	32688	32690	32554	
1131	0	1504	5825	4652	6683	702	0	33077	33358	33010	33119	32850	32647	32663	32621	
1132	0	1501	5818	4772	6712	703	0	33016	33271	32851	33063	32947	32775	32810	32720	
1133	0	1442	5846	4737	6702	704	0	32783	33366	32943	32863	33143	32535	32691	32671	
1134	0	1476	5850	4745	6717	705	0	32624	33245	32772	32849	33019	32724	32754	32587	
1135	0	1450	5847	4736	6680	706	0	32373	32943	32806	32625	32903	32623	32695	32646	
1136	0	1444	5827	4729	6705	707	0	32417	32967	32711	32639	32683	32751	32675	32703	
1137	0	1477	5820	4728	6692	708	0	32518	32970	32636	32815	32823	32775	32647	32711	
1138	0	1512	5830	4744	6661	709	0	32576	32959	32391	32951	32687	32503	32847	32727	
1139	0	1490	5859	4714	6706	710	0	32583	32834	32543	33031	32710	32716	32818	32775	
1140	0	1454	5837	4738	6685	711	0	32473	32411	32453	33087	32594	32743	32626	32739	
1141	0	1457	5840	4712	6700	712	0	32402	32359	32559	33031	32631	32786	32799	32805	
1142	0	1465	5784	4693	6692	713	0	32506	32535	32831	32826	32585	32559	32679	32719	
1143	0	1470	5859	4741	6657	714	0	32696	32591	33135	32717	32625	32756	32703	32631	
1144	0	1473	5841	4708	6624	715	0	32777	32605	33391	32639	32604	32691	32681	32727	
1145	0	1508	5808	4673	6710	716	0	32940	32314	33455	32543	32599	32802	32687	32775	
1146	0	1424	5812	4707	6646	717	0	32943	32293	33404	32527	32511	32551	32578	32830	
1147	0	1472	5868	4733	6656	718	0	32841	32607	33395	32487	32506	32767	32662	32825	
1148	0	1478	5799	4708	6685	719	0	32596	32772	33321	32559	32671	32763	32718	32677	
1149	0	1499	5830	4723	6688	720	0	32559	32946	33286	32583	32772	32791	32775	32615	
1150	0	1473	5823	4684	6680	721	0	32707	32799	32963	32705	32903	32519	32815	32543	
1151	0	1456	5835	4675	6669	722	0	32839	32903	32647	32870	32893	32695	32703	32547	
1152	0	1464	5848	4672	6692	723	0	32823	32983	32564	32933	32887	32631	32765	32570	
1153	0	1447	5857	4710	6681	724	0	32847	33037	32461	32883	32959	32698	32722	32601	
1154	0	1492	5853	4711	6653	725	0	32896	32603	32439	32935	33031	32791	32775	32583	
1155	0	1498	5824	4720	6670	726	0	32891	32615	32375	32919	32948	32535	32797	32550	
1156	0	1497	5852	4762	6665	727	0	32958	32582	32155	32935	32754	32743	32775	32700	
1157	0	1465	5863	4700	6654	728	0	32925	32519	32147	32943	32639	32679	32763	32733	
1158	0	1472	5817	4703	6692	729	0	32935	32775	32519	32679	32555	32676	32719	32711	
1159	0	1465	5882	4655	6674	730	0	32980	33023	32611	32823	32641	32637	32719	32759	
1160	0	1478	5860	4661	6651	731	0	32959	32923	32708	32523	32687	32625	32775	32719	
1161	0	1458	5846	4682	6645	732	0	32937	32935	32821	32687	32711	32755	32739	32661	
1162	0	1481	5842	4684	6657	733	0	32732	32722	32978	32563	32796	32789	32751	32612	
1163	0	1440	5820	4740	6657	734	0	32681	32671	32937	32551	32718	32595	32790	32741	
1164	0	1446	5889	4701	6632	735	0	32623	32623	32877	32765	32720	32638	32755	32775	
1165	0	1476	5869	4682	6652	736	0	32526	32647	32967	32623	32694	32511	32644	32694	
1166	0	1476	5840	4681	6692	737	0	32602	32602	32965	32681	32663	32713	32726	32715	
1167	0	1476	5850	4684	6632	738	0	32615	32767	32989	32560	32710	32661	32647	32842	
1168	0	1506	5850	4648	6661	739	0	32726	32989	32831	32615	32772	32546	32679	32677	
1169	0	1443	5869	4687	6664	740	0	32793	32930	32810	32885	32823	32687	32631	32705	
1170	0	1510	5830	4673	6649	741	0	32935	33062	32820	32839	32821	32655	32719	32551	
1171	0	1486	5843	4690	6640	742	0	32964	32919	32633	33003	32759	32643	32615	32685	
1172	0	1503	5860	4678	6625	743	0	32876	32762	32596	32813	32891	32739	32773	32607	
1173	0	1460	5857	4674	6652	744	0	32791	32713	32594	32935	32903	32582	32683	32683	
1174	0	1509	5784	4674	6684	745	0	32694	32679	32533	32795	32956	32627	32750	32517	
1175	0	1501	5840	4617	6654	746	0	32895	32820	32562	32855	33020	32699	32689	32713	
1176	0	1469	5849	4658	6666	747	0	32917	32849	32628	32791	32730	32630	32695	32722	
1177	0	1442	5860	4732	6632	748	0	32881	32703	32615	32584	32819	32695	32621	32791	
1178	0	1479	5855	4665	6678	749	0	32824	32983	32661	32775	32768	32711	32607	32747	
1179	0	1499	5837	4650	6662	750	0	32617	32941	32599	32639	32839	32658	32659	32767	
1180	0	1458	5846	4659	6668	751	0	32553	32858	32575	32631	32559	32543	32668	32668	
1181	0	1477	5841	4705	6651	752	0	32454	32611	32578	32679	32678	32861	32582	32789	
1182	0	1461	5835	4656	6637	753	0	32516	32735	32719	32711	32695	32711	32647	32638	
1183	0	1473	5854	4646	6627	754	0	32547	32669	32725	32743	32874	32541	32671	32708	
1184	0	1473	5862	4664	6624	755	0	32600	32707	32759	32691	32679	32718	32627	32799	
1185	0	1475	5861	4638	6657	756	0	32767	32631	32817	32839	32615	32711	32631	32711	
1186	0	1459	5892	4660	6606	757	0	32796	32687	32807	32735	32675	32524	32668	32839	
1187	0	1466	5896	4621	6654	758	0	32786	32599	32717	32899	32659	32653	32647	32707	
1188	0	1504	5842	4627	6620	759	0	32896	32413	32809	32775	32875	32717	32567	32711	
1189	0	1502	5848	4675	6620	760	0	32860	32615	32875	32871	32839	32559	32538	32655	
1190	0	1479	5885	4673	6612	761	0	32827	32615	32923	32827	32937	32687	32725	32659	
1191	0	1507	5853	4626	6616	762	0	32863	32595	32956	32903	33025	32761	32755	32647	
1192	0	1472	5811	4630	6669	763	0	32885	32471	32871	32762	33022	32595	32658	32708	
1193	0	1462	5858	4643	6634	764	0	32854	32620	32828	32887	32957	32722	32627	32607	
1194	0	1492	5856	4652	6636	765	0	32999	32685	32795	32717	32894	32735	32679	32572	
1195	0	1489	5838	4640	6614	766	0	33042	32794	32850	32717	32835	32499	32766	32719	
1196	0	1467	5852	4674	6608	767	0	33005	32743	32829	32679	32643	32679	32791	32775	
1197	0	1464	5850	4604	6654	768	0	32912	32903	32841	32605	32687	32629	32687	32683	
1198	0	1524	5828	4619	6652	769	0	32894	32767	32943	32661	32565	32579	32717	32581	
1199	0	1485	5818	4674	6627	770	0	32820	32681	32775	32594	32713	32663	32783	32615	
1200	0	1422	5842	4616	6634	771	0	32735	32519	32715	32607	32695	32681	32759	32527	
1201	0	1507	5851	4598	6669	772	0	32730	32765	32668	32516	32745	32716	32647	32685	
1202	0	1508	5825	4623	6648	773	0	32567	32713	32631	32506	32717	32575	32671	32599	
1203	0	1500	5832	4608	6662	774	0	32428	32697	32733	32623	32815	32893	32666	32727	
1204	0	1495	5873	4625	6619	775	0	32224	32935	32663	32694	32797	32775	32695	32639	
1205	0	1451	5823	4682	6638	776	0	32447	33243	32551	32647	32743	32583	32796	32675	
1206	0	1451	5842	4640	6628	777	0	32547	33147	32495	32815	32599	32607	32765	32758	
1207	0	1506	5809	4658	6645	778	0	32551	32941	32527	32690	32415	32583	32805	32594	
1208	0	1488	5863	4566	6638	779	0	32600	32827	32683	32829	32751	32743	32787	32711	
1209	0	1472	5849	4626	6643	780	0	32622	32647	32813	32731	32863	32663	32835	32583	
1210	0	1475	5827	4618	6644	781	0	32719	32943	32815	32795	32943	32717	32791	32756	
1211	0	1523	5792	4657	6625	782	0	32788	32999	32827	32684	33123	32556	32843	32677	
1212	0	1463	5852	4659	6607	783	0	32833	32935	32817	32741	33125	32647	32835	32695	
1213	0	1488	5844	4652	6658	784	0	32941	32676	32823	32738	33148	32719	32841	32763	
1214	0	1481	5882	4640	6644	785	0	32979	32839	32855	32783	33018	32599	32773	32797	
1215	0	1511	5856	4642	6642	786	0	33063	32831	33047	32797	32791	32703	32722	32711	
1216	0	1476	5853	4629	6598	787	0	32988	32636	33159	32755	32859	32693	32726	32743	
1217	0	1441	5852	4632	6574	788	0	32920	32501	33029	32761	32805	32590	32771	32594	
1218	0	1440	5810	4626	6643	789	0	32870	32367	32859	32711	32690	32767	32772	32759	
1219	0	1513	5824	4602	6624	790	0	32746	32531	32950	32647	32775	32669	32788	32540	
1220	0	1498	5870	4640	6616	791	0	32658	32433	32924	32692	32799	32546	32775	32663	
1221	0	1517	5844	4647	6653	792	0	32749	32450	32852	32703	32630	32711	32743	32530	
1222	0	1492	5798	4596	6612	793	0	32758	32319	32767	32663	32659	32683	32589	32740	
1223	0	1476	5878	4606	6611	794	0	32809	32557	32819	32719	32606	32532	32559	32592	
1224	0	1458	5883	4644	6616	795	0	32837	32684	32787	32677	32607	32737	32551	32799	
1225	0	1473	5866	4628	6608	796	0	32861	32775	32719	32681	32507	32733	32563	32663	
1226	0	1469	5842	4628	6632	797	0	32783	32855	32747	32633	32451	32653	32647	32799	
1227	0	1491	5888	4622	6605	798	0	32812	32791	32695	32591	32594	32630	32675	32743	
1228	0	1508	5820	4626	6604	799	0	32788	33175	32663	32771	32655	32655	32823	32787	
1229	0	1493	5865	4664	6654	800	0	32820	33127	32631	32607	32903	32646	32627	32581	
1230	0	1475	5841	4609	6630	801	0	32769	33125	32615	32755	32877	32695	32643	32607	
1231	0	1482	5849	4644	6601	802	0	32744	32989	32633	32775	33044	32711	32734	32421	
1232	0	1505	5879	4635	6624	803	0	32743	33106	32679	32862	32926	32447	32775	32443	
1233	0	1532	5848	4628	6621	804	0	32775	32983	32596	33079	32970	32697	32657	32391	
1234	0	1492	5853	4606	6627	805	0	32790	32903	32671	32914	32878	32615	32623	32476	
1235	0	1452	5890	4620	6600	806	0	32818	32863	32737	33050	32991	32559	32771	32431	
1236	0	1467	5874	4621	6640	807	0	32695	32645	32629	32879	32775	32717	32607	32583	
1237	0	1466	5868	4610	6587	808	0	32637	32726	32639	33051	32643	32677	32519	32647	
1238	0	1473	5837	4628	6626	809	0	32626	32818	32543	32799	32783	32695	32605	32683	
1239	0	1489	5870	4610	6580	810	0	32598	32817	32519	32931	32754	32567	32703	32535	
1240	0	1471	5865	4661	6608	811	0	32641	32595	32559	32807	32635	32742	32775	32692	
1241	0	1468	5874	4672	6624	812	0	32768	32663	32599	32827	32471	32711	32647	32559	
1242	0	1484	5914	4630	6612	813	0	32756	32743	32735	32771	32541	32485	32699	32695	
1243	0	1468	5870	4592	6628	814	0	32843	32683	32799	32807	32459	32756	32759	32594	
1244	0	1501	5897	4632	6610	815	0	32854	32563	32831	32815	32551	32717	32702	32775	
1245	0	1484	5869	4678	6628	816	0	32839	32775	32870	32745	32423	32668	32726	32759	
1246	0	1475	5864	4627	6644	817	0	32845	32683	32844	32775	32663	32541	32757	32870	
1247	0	1472	5892	4646	6605	818	0	32852	32525	32815	32690	32755	32725	32735	32775	
1248	0	1489	5860	4637	6620	819	0	32816	32765	32783	32557	32927	32701	32879	32713	
1249	0	1475	5929	4662	6618	820	0	32885	32775	32887	32663	32877	32671	32655	32723	
1250	0	1532	5896	4616	6593	821	0	32810	32591	32903	32695	32819	32511	32511	32698	
1251	0	1480	5890	4671	6625	822	0	32719	32749	32791	32673	33099	32551	32599	32599	
1252	0	1484	5908	4601	6631	823	0	32586	32795	32829	32829	33183	32735	32669	32677	
1253	0	1509	5884	4673	6642	824	0	32446	32845	32878	32767	33234	32695	32775	32573	
1254	0	1474	5876	4652	6620	825	0	32615	32599	32807	32834	33076	32509	32813	32725	
1255	0	1446	5894	4624	6608	826	0	32726	32807	32799	32675	32775	32811	32719	32631	
1256	0	1478	5899	4663	6586	827	0	32773	32749	32771	32631	32431	32719	32599	32765	
1257	0	1509	5925	4656	6630	828	0	32768	32667	32703	32701	32475	32775	32742	32772	
1258	0	1479	5860	4621	6599	829	0	32771	32567	32646	32583	32573	32605	32789	32823	
1259	0	1460	5912	4669	6630	830	0	32749	32845	32607	32751	32727	32771	32935	32727	
1260	0	1529	5924	4675	6583	831	0	32759	32709	32567	32629	32871	32647	32947	32711	
1261	0	1473	5918	4647	6592	832	0	32683	32559	32549	32685	32775	32847	32775	32706	
1262	0	1476	5874	4684	6613	833	0	32806	32699	32567	32620	32637	32588	32647	32695	
1263	0	1468	5884	4675	6588	834	0	32829	32775	32903	32743	32551	32607	32491	32615	
1264	0	1541	5910	4644	6649	835	0	32822	32769	33011	32583	32985	32789	32423	32733	
1265	0	1494	5938	4656	6592	836	0	32784	32715	33097	32734	33081	32646	32647	32724	
1266	0	1498	5920	4648	6626	837	0	32708	32743	33018	32786	32775	32615	32903	32703	
1267	0	1520	5876	4640	6600	838	0	32782	32755	32863	32753	32623	32647	32734	32671	
1268	0	1480	5913	4682	6628	839	0	32696	32878	32902	32751	32804	32707	32754	32749	
1269	0	1509	5878	4653	6586	840	0	32795	32903	32849	32789	32799	32517	32841	32525	
1270	0	1515	5912	4676	6633	841	0	32705	32707	32854	32790	32903	32748	32799	32550	
1271	0	1492	5923	4625	6589	842	0	32864	32647	32868	32731	32831	32749	32838	32535	
1272	0	1557	5885	4602	6612	843	0	32850	32839	32743	32837	32903	32711	32707	32607	
1273	0	1490	5896	4685	6613	844	0	32873	32855	32709	32749	33053	32669	32725	32621	
1274	0	1501	5862	4645	6602	845	0	32817	32918	32679	32762	33129	32773	32643	32694	
1275	0	1505	5887	4627	6634	846	0	32755	32917	32615	32831	33021	32707	32775	32591	
1276	0	1503	5924	4658	6603	847	0	32734	32735	32571	32775	32660	32715	32727	32687	
1277	0	1484	5929	4686	6623	848	0	32806	32627	32551	32771	32599	32463	32835	32593	
1278	0	1502	5885	4689	6598	849	0	32833	32716	32579	32789	32543	32690	32871	32551	
1279	0	1526	5907	4659	6618	850	0	32845	32767	32765	32738	32869	32575	32759	32617	
1280	0	1518	5957	4676	6647	851	0	32727	32823	32743	32685	32694	32460	32711	32758	
1281	0	1479	5979	4650	6592	852	0	32681	32881	32799	32709	32535	32623	32687	32499	
1282	0	1545	5904	4681	6608	853	0	32771	32610	32894	32751	32623	32757	32687	32599	
1283	0	1496	5942	4668	6625	854	0	32721	32647	32810	32782	32475	32799	32671	32711	
1284	0	1486	5910	4603	6560	855	0	32694	32756	32838	32883	32575	32693	32705	32756	
1285	0	1479	5916	4665	6635	856	0	32771	32839	32757	32868	32571	32725	32757	32771	
1286	0	1460	5942	4677	6589	857	0	32719	32718	32548	32932	32573	32617	32692	32751	
1287	0	1477	5918	4641	6596	858	0	32751	32705	32663	32859	32603	32629	32791	32722	
1288	0	1475	5932	4682	6574	859	0	32714	32615	32734	32775	32699	32470	32667	32724	
1289	0	1469	5909	4658	6610	860	0	32726	32741	32655	32702	32855	32575	32759	32698	
1290	0	1486	5931	4640	6626	861	0	32727	32797	32687	32829	32799	32575	32765	32719	
1291	0	1520	5880	4672	6597	862	0	32783	32887	32687	32817	32887	32695	32714	32703	
1292	0	1486	5934	4644	6624	863	0	32775	32669	32665	32647	32919	32711	32813	32710	
1293	0	1503	5875	4674	6569	864	0	32834	32818	32658	32647	32847	32721	32755	32694	
1294	0	1487	5878	4600	6558	865	0	32825	32916	32647	32743	32877	32655	32826	32711	
1295	0	1558	5920	4670	6582	866	0	32782	32935	32737	32657	32775	32564	32775	32575	
1296	0	1502	5939	4633	6593	867	0	32741	32863	32754	32643	32830	32759	32775	32575	
1297	0	1492	5912	4682	6587	868	0	32767	32581	32845	32620	32793	32685	32922	32626	
1298	0	1498	5945	4681	6582	869	0	32815	32765	32802	32703	32711	32624	32743	32735	
1299	0	1509	5889	4601	6606	870	0	32764	32745	32846	32839	32756	32614	32775	32759	
1300	0	1500	5952	4662	6587	871	0	32786	32873	32930	32825	32727	32717	32775	32743	
1301	0	1514	5969	4650	6582	872	0	32756	32933	32909	32850	32775	32677	32871	32807	
1302	0	1476	5990	4651	6614	873	0	32740	32735	32989	32851	32901	32674	32675	32783	
1303	0	1528	5947	4674	6600	874	0	32740	32590	32963	32797	32751	32421	32607	32775	
1304	0	1494	5923	4641	6612	875	0	32772	32775	33003	32809	32605	32683	32471	32759	
1305	0	1481	5946	4680	6603	876	0	32793	32829	32995	32828	32626	32671	32523	32838	
1306	0	1502	5939	4617	6627	877	0	32732	32884	33101	32883	32690	32694	32557	32694	
1307	0	1511	5919	4666	6580	878	0	32665	32767	32959	32817	32759	32519	32701	32630	
1308	0	1490	5908	4676	6560	879	0	32688	32565	32594	32583	32679	32761	32615	32609	
1309	0	1554	5932	4664	6628	880	0	32728	32742	32519	32439	32806	32666	32803	32508	
1310	0	1517	5944	4674	6600	881	0	32793	32839	32407	32557	32771	32709	32683	32483	
1311	0	1523	5936	4676	6594	882	0	32796	32843	32514	32727	32898	32749	32690	32516	
1312	0	1526	5951	4672	6559	883	0	32772	32927	32581	32667	33041	32737	32758	32523	
1313	0	1497	5928	4656	6628	884	0	32727	32863	32719	32871	33326	32516	32751	32583	
1314	0	1515	5956	4662	6571	885	0	32815	32799	32879	32811	33295	32775	32711	32451	
1315	0	1477	5932	4659	6601	886	0	32913	32578	32986	32891	33007	32789	32623	32557	
1316	0	1507	5909	4689	6596	887	0	32863	32807	32938	32843	32711	32575	32630	32535	
1317	0	1501	5962	4676	6600	888	0	32818	32871	32943	32775	32731	32519	32739	32605	
1318	0	1468	5953	4671	6576	889	0	32770	32787	33033	32903	32583	32526	32743	32655	
1319	0	1540	5953	4669	6616	890	0	32766	32647	32859	32831	32685	32739	32665	32758	
1320	0	1484	5960	4693	6606	891	0	32679	32741	32805	32863	32694	32615	32724	32747	
1321	0	1491	5937	4616	6621	892	0	32589	32903	32756	32751	32761	32743	32783	32751	
1322	0	1546	5978	4698	6594	893	0	32677	32795	32555	32859	32759	32757	32789	32615	
1323	0	1488	5984	4665	6579	894	0	32775	32614	32427	32655	32659	32515	32759	32711	
1324	0	1523	5919	4642	6584	895	0	32844	32679	32471	32799	32717	32647	32745	32519	
1325	0	1549	5997	4629	6645	896	0	32823	32799	32546	32684	32621	32610	32717	32687	
1326	0	1483	5971	4662	6624	897	0	32732	32751	32645	32615	32721	32557	32786	32623	
1327	0	1533	5953	4721	6592	898	0	32790	32721	32732	32443	32589	32663	32807	32743	
1328	0	1525	5902	4635	6609	899	0	32747	32513	32717	32598	32679	32671	32863	32707	
1329	0	1502	5963	4656	6586	900	0	32629	32797	32679	32551	32947	32423	32887	32647	
1330	0	1532	5965	4624	6575	901	0	32588	32791	32711	32774	32756	32647	33007	32713	
1331	0	1514	5974	4686	6584	902	0	32602	32627	32797	32948	32801	32647	32935	32713	
1332	0	1508	5934	4646	6644	903	0	32681	32847	32827	32815	32591	32647	32855	32687	
1333	0	1522	5920	4672	6596	904	0	32712	32931	32807	32791	32884	32570	32767	32692	
1334	0	1504	5958	4646	6572	905	0	32761	32810	32807	32607	32967	32724	32698	32703	
1335	0	1525	5960	4693	6605	906	0	32818	32701	32791	32691	32886	32759	32733	32668	
1336	0	1464	5928	4667	6615	907	0	32737	32805	32883	32630	32919	32615	32801	32709	
1337	0	1504	5947	4650	6618	908	0	32760	32810	32761	32767	32803	32775	32678	32639	
1338	0	1489	5899	4684	6544	909	0	32722	32727	32759	32690	32775	32722	32647	32711	
1339	0	1533	5918	4677	6597	910	0	32729	32639	32751	32791	32623	32471	32647	32612	
1340	0	1526	5938	4608	6562	911	0	32784	32663	32703	32729	32662	32679	32647	32669	
1341	0	1504	5947	4688	6586	912	0	32753	32875	32687	32903	32717	32722	32667	32563	
1342	0	1482	5936	4598	6620	913	0	32701	32813	32673	32825	32627	32550	32623	32719	
1343	0	1506	5925	4613	6605	914	0	32786	32612	32669	32995	32827	32786	32599	32783	
1344	0	1508	5953	4626	6577	915	0	32807	32607	32720	33055	32701	32767	32647	32711	
1345	0	1524	5965	4685	6599	916	0	32788	32775	32692	33111	32643	32591	32724	32775	
1346	0	1507	5918	4651	6648	917	0	32806	32711	32659	33005	32727	32599	32813	32715	
1347	0	1528	5944	4648	6601	918	0	32788	32575	32599	32853	32805	32747	32865	32829	
1348	0	1489	5904	4676	6568	919	0	32771	32815	32660	32995	32734	32775	32967	32795	
1349	0	1513	5948	4669	6566	920	0	32815	32851	32591	32729	32646	32637	32983	32970	
1350	0	1517	5936	4644	6589	921	0	32836	32594	32655	32731	32555	32719	33078	32789	
1351	0	1508	5941	4656	6518	922	0	32801	32679	32739	32495	32711	32615	32861	32635	
1352	0	1516	5980	4675	6582	923	0	32781	32867	32724	32631	32794	32519	32709	32451	
1353	0	1491	5934	4643	6568	924	0	32851	32892	32751	32647	32971	32699	32617	32595	
1354	0	1493	5933	4673	6591	925	0	32844	32822	32811	32751	33159	32675	32519	32419	
1355	0	1516	6005	4635	6609	926	0	32814	32775	32903	32591	32863	32495	32443	32543	
1356	0	1536	5957	4673	6658	927	0	32761	32893	32929	32775	33078	32743	32572	32527	
1357	0	1550	5948	4641	6619	928	0	32690	32825	32828	32655	32935	32634	32722	32629	
1358	0	1532	5969	4652	6592	929	0	32734	32541	32931	32599	32868	32535	32715	32647	
1359	0	1496	5947	4639	6604	930	0	32732	32758	33013	32599	32893	32653	32695	32775	
1360	0	1491	5946	4617	6599	931	0	32694	32821	33119	32591	32601	32727	32607	32671	
1361	0	1509	5900	4683	6621	932	0	32758	32690	33102	32711	32655	32630	32719	32739	
1362	0	1564	5971	4642	6586	933	0	32757	32703	32893	32671	32631	32803	32786	32683	
1363	0	1541	5945	4682	6592	934	0	32783	32598	32851	32783	32686	32679	32875	32735	
1364	0	1497	5953	4705	6585	935	0	32749	32799	32717	32641	32531	32563	32759	32719	
1365	0	1521	5964	4636	6580	936	0	32726	32831	32684	32759	32613	32735	32775	32757	
1366	0	1502	5952	4625	6574	937	0	32615	32743	32567	32692	32607	32663	32775	32589	
1367	0	1508	5937	4623	6581	938	0	32761	32735	32471	32758	32589	32611	32743	32655	
1368	0	1493	5962	4635	6616	939	0	32705	32532	32383	32663	32647	32758	32705	32541	
1369	0	1504	5973	4676	6620	940	0	32679	32668	32443	32825	32815	32709	32731	32703	
1370	0	1520	5979	4702	6587	941	0	32706	32903	32535	32756	32891	32631	32861	32583	
1371	0	1544	5972	4688	6619	942	0	32795	32823	32677	32923	32871	32562	32922	32647	
1372	0	1518	5938	4628	6578	943	0	32791	32834	32753	32679	32898	32609	32775	32551	
1373	0	1476	5948	4664	6588	944	0	32824	32655	32847	32858	32941	32569	32507	32585	
1374	0	1508	5958	4646	6656	945	0	32786	32829	32911	32849	33007	32702	32420	32479	
1375	0	1574	5946	4616	6580	946	0	32773	32820	32877	32771	32887	32675	32682	32603	
1376	0	1519	6011	4656	6616	947	0	32801	32819	32775	32762	32802	32567	32749	32556	
1377	0	1524	5946	4617	6588	948	0	32827	32707	32835	32683	32731	32807	32698	32719	
1378	0	1539	5921	4648	6603	949	0	32813	32821	32835	32717	32461	32711	32739	32634	
1379	0	1511	5948	4677	6581	950	0	32856	32698	32925	32756	32612	32751	32637	32786	
1380	0	1558	5967	4646	6600	951	0	32847	32608	32902	32673	32788	32567	32685	32839	
1381	0	1566	5933	4644	6628	952	0	32804	32799	32845	32818	32759	32746	32743	32902	
1382	0	1524	5949	4635	6628	953	0	32801	32705	32885	32838	32745	32729	32678	32799	
1383	0	1548	5946	4627	6589	954	0	32843	32523	32811	32759	32702	32719	32749	32835	
1384	0	1529	5904	4624	6596	955	0	32813	32668	32743	32723	32669	32491	32659	32801	
1385	0	1519	5930	4645	6618	956	0	32736	32814	32863	32573	32607	32687	32679	32807	
1386	0	1501	5894	4663	6585	957	0	32636	32770	32876	32655	32711	32687	32676	32745	
1387	0	1534	5923	4668	6592	958	0	32647	32775	32893	32593	32668	32466	32621	32831	
1388	0	1453	5922	4607	6570	959	0	32714	32605	32821	32655	32751	32719	32679	32732	
1389	0	1561	5964	4661	6610	960	0	32775	32852	32764	32775	32941	32615	32647	32525	
1390	0	1518	5934	4612	6627	961	0	32774	32759	32683	32633	32891	32658	32711	32583	
1391	0	1549	5948	4627	6612	962	0	32754	32743	32559	32877	32903	32541	32643	32507	
1392	0	1476	5928	4628	6618	963	0	32822	32659	32579	32623	32738	32719	32663	32631	
1393	0	1494	5947	4636	6596	964	0	32831	32831	32685	32631	32919	32775	32639	32593	
1394	0	1508	5899	4617	6638	965	0	32775	32831	32773	32629	33033	32615	32679	32658	
1395	0	1545	5924	4662	6621	966	0	32789	32807	32837	32898	33027	32833	32753	32567	
1396	0	1536	5918	4636	6597	967	0	32711	32772	32901	32711	32743	32603	32762	32682	
1397	0	1508	5907	4664	6584	968	0	32751	32829	32807	32732	32796	32681	32764	32679	
1398	0	1477	5909	4587	6648	969	0	32806	32799	32769	32853	32719	32598	32787	32639	
1399	0	1560	5948	4619	6621	970	0	32709	32679	32846	32703	32861	32703	32759	32789	
1400	0	1536	5915	4658	6612	971	0	32739	32743	32841	32603	32615	32695	32707	32711	
1401	0	1514	5921	4592	6592	972	0	32765	32943	32811	32647	32716	32575	32751	32739	
1402	0	1520	5912	4617	6602	973	0	32786	32898	32733	32751	32583	32751	32791	32615	
1403	0	1551	5984	4633	6621	974	0	32765	32687	32606	32591	32808	32647	32775	32615	
1404	0	1511	5916	4609	6642	975	0	32798	32775	32583	32727	32757	32471	32785	32485	
1405	0	1538	5938	4608	6619	976	0	32719	32821	32591	32623	32751	32711	32796	32691	
1406	0	1483	5942	4630	6635	977	0	32714	32735	32604	32767	32713	32719	32709	32583	
1407	0	1576	5956	4590	6532	978	0	32749	32535	32620	32647	32647	32540	32735	32743	
1408	0	1521	5899	4628	6585	979	0	32767	32663	32695	32671	32660	32685	32763	32599	
1409	0	1484	5916	4634	6600	980	0	32705	32791	32838	32903	32917	32822	32647	32733	
1410	0	1553	5953	4627	6601	981	0	32772	32695	32794	32879	32927	32827	32615	32757	
1411	0	1517	5910	4663	6620	982	0	32774	32559	32655	32927	32891	32586	32645	32827	
1412	0	1533	5896	4653	6614	983	0	32723	32804	32759	32758	32939	32811	32658	32745	
1413	0	1509	5959	4560	6584	984	0	32854	32911	32751	32806	33039	32751	32843	32743	
1414	0	1511	5890	4606	6621	985	0	32821	32863	32631	32809	32995	32641	32743	32613	
1415	0	1497	5892	4600	6612	986	0	32760	32869	32620	32871	32863	32695	32815	32673	
1416	0	1528	5935	4660	6676	987	0	32766	32683	32613	32970	32741	32647	32764	32706	
1417	0	1545	5921	4642	6666	988	0	32743	32867	32629	32739	32627	32569	32659	32791	
1418	0	1546	5920	4583	6582	989	0	32791	32757	32639	32941	32655	32695	32594	32706	
1419	0	1546	5905	4623	6658	990	0	32726	32578	32767	32879	32724	32677	32689	32685	
1420	0	1523	5914	4640	6588	991	0	32788	32902	32714	32677	32593	32642	32767	32575	
1421	0	1517	5921	4620	6648	992	0	32799	32717	32867	32742	32727	32676	32787	32471	
1422	0	1519	5957	4589	6617	993	0	32837	32755	33227	32689	32789	32642	32669	32641	
1423	0	1538	5942	4620	6604	994	0	32800	32702	33093	32597	32722	32775	32799	32691	
1424	0	1548	5909	4571	6636	995	0	32815	32806	33175	32654	32707	32517	32647	32546	
1425	0	1603	5885	4624	6628	996	0	32770	32583	33023	32775	32647	32740	32734	32643	
1426	0	1545	5944	4612	6625	997	0	32738	32519	32775	32751	32615	32695	32655	32708	
1427	0	1506	5907	4635	6616	998	0	32740	32730	32577	32630	32767	32666	32785	32847	
1428	0	1571	5926	4592	6626	999	0	32756	32743	32539	32647	32662	32717	32775	32703	
1429	0	1494	5914	4588	6612	1000	0	32720	32791	32613	32703	32681	32732	32647	32597	
1430	0	1563	5903	4599	6653	1001	0	32687	32767	32691	32787	32812	32711	32717	32671	
1431	0	1547	5933	4590	6598	1002	0	32769	32885	32713	32845	32899	32615	32767	32714	
1432	0	1522	5852	4614	6592	1003	0	32749	32963	32933	32839	32895	32739	32683	32643	
1433	0	1544	5929	4561	6642	1004	0	32772	32789	33009	32977	32903	32727	32739	32606	
1434	0	1548	5923	4624	6648	1005	0	32822	32719	33055	33101	32903	32454	32647	32631	
1435	0	1548	5926	4618	6661	1006	0	32749	32839	33127	33077	32818	32653	32731	32695	
1436	0	1506	5905	4601	6656	1007	0	32764	32871	33189	32967	32671	32614	32647	32717	
1437	0	1563	5916	4608	6628	1008	0	32738	32802	33071	32839	32751	32663	32722	32647	
1438	0	1521	5917	4592	6602	1009	0	32758	32854	32773	32783	32709	32660	32717	32647	
1439	0	1554	5861	4617	6632	1010	0	32711	32887	32759	32839	32719	32647	32669	32724	
1440	0	1524	5881	4598	6648	1011	0	32712	32694	32817	32804	32679	32679	32720	32749	
1441	0	1508	5888	4622	6618	1012	0	32688	32735	32771	32803	32722	32666	32667	32724	
1442	0	1528	5898	4605	6618	1013	0	32661	32685	32679	32783	32591	32588	32788	32703	
1443	0	1593	5910	4517	6598	1014	0	32691	32671	32754	32845	32549	32742	32667	32711	
1444	0	1528	5899	4557	6632	1015	0	32724	32699	32647	32782	32772	32721	32750	32644	
1445	0	1538	5936	4638	6632	1016	0	32783	32552	32551	32701	32623	32555	32583	32735	
1446	0	1514	5910	4576	6683	1017	0	32743	32469	32553	32615	32615	32718	32757	32814	
1447	0	1517	5945	4629	6640	1018	0	32792	32454	32451	32615	32660	32631	32775	32566	
1448	0	1589	5872	4595	6640	1019	0	32714	32677	32579	32602	32773	32757	32655	32559	
1449	0	1544	5909	4567	6612	1020	0	32784	32917	32582	32439	32735	32499	32704	32642	
1450	0	1575	5877	4558	6672	1021	0	32735	33026	32463	32461	32759	32789	32595	32635	
1451	0	1562	5878	4598	6627	1022	0	32782	32959	32549	32575	32805	32823	32733	32535	
1452	0	1560	5859	4588	6668	1023	0	32800	33071	32607	32615	32815	32621	32799	32643	
1453	0	1544	5906	4569	6634	1024	0	32892	32941	32807	32683	32771	32719	32675	32675	
1454	0	1540	5856	4574	6638	1025	0	32837	32715	32772	32685	32890	32771	32799	32681	
1455	0	1530	5896	4564	6651	1026	0	32823	32790	32692	32769	32973	32647	32711	32783	
1456	0	1582	5897	4601	6638	1027	0	32780	32730	32743	32783	32719	32702	32858	32788	
1457	0	1528	5919	4554	6695	1028	0	32775	32884	32808	32789	32469	32565	32707	32633	
1458	0	1542	5920	4558	6677	1029	0	32767	32565	32809	32661	32641	32519	32782	32837	
1459	0	1543	5868	4552	6647	1030	0	32773	32677	32847	32751	32823	32631	32818	32850	
1460	0	1529	5884	4572	6669	1031	0	32772	32775	32850	32836	32719	32663	32710	32791	
1461	0	1528	5952	4609	6655	1032	0	32794	32798	32869	32959	32791	32612	32830	32748	
1462	0	1535	5899	4569	6646	1033	0	32798	32659	32767	32800	32731	32730	32799	32582	
1463	0	1544	5893	4559	6642	1034	0	32764	32749	32739	32767	32679	32671	32791	32599	
1464	0	1517	5876	4555	6597	1035	0	32752	32814	32659	32589	32705	32539	32603	32623	
1465	0	1551	5910	4554	6670	1036	0	32780	32871	32543	32657	32724	32690	32741	32583	
1466	0	1499	5904	4607	6680	1037	0	32759	32666	32516	32727	32647	32643	32637	32640	
1467	0	1557	5889	4583	6656	1038	0	32716	32567	32661	32705	32721	32733	32751	32727	
1468	0	1602	5868	4579	6641	1039	0	32727	32703	32647	32713	32789	32647	32685	32767	
1469	0	1572	5910	4571	6668	1040	0	32791	32629	32707	32813	32855	32693	32622	32738	
1470	0	1535	5922	4586	6660	1041	0	32729	32689	32857	32807	32893	32724	32668	32763	
1471	0	1558	5906	4615	6643	1042	0	32754	32903	32883	32797	32894	32494	32647	32623	
1472	0	1618	5834	4533	6636	1043	0	32759	33057	32881	32719	32933	32699	32743	32725	
1473	0	1559	5866	4566	6680	1044	0	32812	33099	32899	32743	32948	32757	32682	32643	
1474	0	1543	5857	4542	6673	1045	0	32825	33095	32819	32670	32877	32583	32629	32759	
1475	0	1563	5839	4567	6676	1046	0	32758	32899	32847	32813	32821	32762	32758	32506	
1476	0	1532	5868	4588	6624	1047	0	32804	32903	32755	32738	32773	32757	32623	32471	
1477	0	1572	5858	4536	6673	1048	0	32807	32751	32700	32615	32807	32596	32725	32644	
1478	0	1577	5892	4564	6656	1049	0	32752	32755	32738	32661	32621	32612	32631	32711	
1479	0	1592	5838	4565	6668	1050	0	32756	32558	32703	32702	32701	32719	32647	32755	
1480	0	1525	5837	4533	6666	1051	0	32784	32495	32769	32663	32666	32709	32716	32755	
1481	0	1547	5832	4514	6688	1052	0	32736	32591	32787	32773	32735	32463	32662	32743	
1482	0	1510	5872	4548	6689	1053	0	32726	32629	32603	32739	32688	32711	32783	32791	
1483	0	1547	5866	4550	6700	1054	0	32720	32705	32693	32612	32701	32711	32663	32788	
1484	0	1542	5850	4547	6690	1055	0	32740	32807	32689	32667	32739	32690	32810	32701	
1485	0	1541	5869	4578	6682	1056	0	32724	32932	32767	32594	32631	32689	32799	32703	
1486	0	1547	5834	4538	6648	1057	0	32647	32997	32795	32773	32567	32679	32767	32607	
1487	0	1596	5819	4584	6696	1058	0	32653	32689	32742	32637	32631	32485	32698	32731	
1488	0	1573	5898	4536	6707	1059	0	32687	32723	32700	32703	32829	32743	32685	32615	
1489	0	1590	5825	4554	6697	1060	0	32644	32643	32605	32660	32717	32674	32685	32685	
1490	0	1509	5860	4555	6672	1061	0	32720	32679	32705	32687	32775	32647	32711	32532	
1491	0	1540	5802	4553	6657	1062	0	32767	32637	32849	32839	32853	32823	32717	32637	
1492	0	1576	5861	4562	6661	1063	0	32700	32823	32834	32925	32911	32647	32669	32479	
1493	0	1562	5849	4593	6712	1064	0	32775	33067	32823	33005	32991	32665	32631	32615	
1494	0	1553	5817	4538	6682	1065	0	32823	33159	32835	32975	32915	32711	32739	32509	
1495	0	1525	5822	4536	6685	1066	0	32829	33055	32829	32759	32911	32727	32799	32667	
1496	0	1564	5834	4560	6715	1067	0	32826	32786	32877	32867	32759	32663	32749	32635	
1497	0	1570	5878	4562	6745	1068	0	32900	32935	33052	32749	32823	32603	32863	32706	
1498	0	1582	5794	4552	6722	1069	0	32876	32775	33067	32801	32603	32685	32775	32606	
1499	0	1553	5802	4528	6667	1070	0	32801	32775	32943	32731	32677	32665	32731	32775	
1500	0	1568	5872	4556	6737	1071	0	32792	32539	32861	32715	32767	32807	32803	32741	
1501	0	1546	5834	4553	6678	1072	0	32774	32676	32839	32644	32703	32683	32869	32854	
1502	0	1545	5786	4588	6706	1073	0	32783	32599	32762	32611	32667	32775	32683	32845	
1503	0	1564	5785	4501	6750	1074	0	32758	32483	32775	32679	32604	32643	32679	32863	
1504	0	1586	5818	4478	6713	1075	0	32687	32646	32759	32493	32727	32658	32662	32769	
1505	0	1549	5820	4552	6729	1076	0	32703	32633	32687	32583	32615	32723	32647	32871	
1506	0	1511	5828	4530	6743	1077	0	32740	32514	32647	32570	32603	32762	32751	32727	
1507	0	1576	5832	4583	6698	1078	0	32727	32743	32719	32581	32615	32661	32715	32603	
1508	0	1541	5814	4511	6709	1079	0	32769	32725	32747	32559	32775	32738	32677	32694	
1509	0	1536	5816	4526	6693	1080	0	32705	32771	32767	32587	32775	32644	32607	32548	
1510	0	1544	5816	4532	6760	1081	0	32667	32589	32865	32647	32793	32489	32563	32659	
1511	0	1577	5801	4540	6742	1082	0	32676	32841	32933	32839	32941	32647	32615	32647	
1512	0	1605	5846	4543	6740	1083	0	32738	32989	32921	32791	32925	32572	32714	32495	
1513	0	1586	5784	4562	6753	1084	0	32709	32845	32951	32775	32935	32743	32730	32604	
1514	0	1585	5796	4552	6751	1085	0	32827	32846	32882	32883	32987	32719	32734	32631	
1515	0	1554	5802	4535	6712	1086	0	32796	32694	32765	32859	32903	32771	32626	32567	
1516	0	1546	5814	4527	6724	1087	0	32816	32847	32695	32845	32739	32535	32645	32439	
1517	0	1560	5795	4556	6739	1088	0	32810	32815	32839	32827	32676	32646	32721	32556	
1518	0	1564	5793	4521	6705	1089	0	32748	32711	32725	32887	32701	32551	32791	32629	
1519	0	1580	5796	4542	6736	1090	0	32790	32734	32459	32823	32773	32452	32749	32615	
1520	0	1528	5813	4550	6726	1091	0	32748	32591	32389	32911	32661	32535	32739	32563	
1521	0	1570	5813	4539	6716	1092	0	32765	32742	32457	32847	32647	32524	32775	32535	
1522	0	1558	5828	4533	6732	1093	0	32759	32811	32517	32903	32628	32574	32865	32747	
1523	0	1554	5780	4569	6772	1094	0	32817	32799	32601	32899	32788	32615	32815	32578	
1524	0	1536	5758	4558	6752	1095	0	32735	32627	32646	32967	32759	32677	32839	32727	
1525	0	1548	5758	4508	6698	1096	0	32799	32682	32557	32637	32759	32626	32839	32647	
1526	0	1587	5796	4535	6756	1097	0	32847	32787	32658	32678	32743	32756	32881	32811	
1527	0	1573	5849	4559	6702	1098	0	32751	32695	32935	32647	32714	32831	32807	32703	
1528	0	1557	5784	4555	6752	1099	0	32684	32527	33043	32759	32765	32571	32754	32815	
1529	0	1551	5758	4562	6732	1100	0	32793	32615	33213	32733	32783	32669	32771	32692	
1530	0	1525	5797	4523	6746	1101	0	32807	32797	33220	32769	32879	32677	32758	32647	
1531	0	1528	5797	4544	6729	1102	0	32762	32751	33015	32843	32927	32503	32679	32601	
1532	0	1567	5764	4520	6789	1103	0	32802	32589	33003	32835	32997	32799	32786	32686	
1533	0	1588	5774	4552	6770	1104	0	32754	32747	33047	32805	33010	32739	32719	32735	
1534	0	1621	5792	4590	6793	1105	0	32809	32965	32977	32829	32999	32621	32769	32711	
1535	0	1560	5744	4496	6758	1106	0	32839	32815	32711	32811	33116	32786	32695	32643	
1536	0	1519	5774	4558	6770	1107	0	32810	32762	32571	32763	32845	32798	32732	32756	
1537	0	1502	5784	4580	6816	1108	0	32831	32645	32517	32757	32903	32581	32865	32711	
1538	0	1603	5828	4510	6737	1109	0	32800	32885	32463	32765	32658	32639	32903	32636	
1539	0	1599	5786	4527	6792	1110	0	32815	32786	32473	32719	32730	32673	32815	32731	
1540	0	1574	5796	4515	6804	1111	0	32759	32757	32567	32655	32695	32535	32772	32697	
1541	0	1558	5788	4522	6749	1112	0	32757	32711	32597	32737	32722	32775	32839	32623	
1542	0	1570	5823	4521	6797	1113	0	32778	32803	32767	32591	32655	32663	32855	32690	
1543	0	1576	5736	4545	6777	1114	0	32763	32743	32771	32635	32553	32701	32783	32557	
1544	0	1550	5740	4557	6785	1115	0	32756	32621	32759	32596	32575	32607	32647	32677	
1545	0	1590	5792	4533	6765	1116	0	32684	32711	32919	32802	32679	32605	32685	32701	
1546	0	1533	5755	4485	6730	1117	0	32676	32822	32919	32694	32647	32615	32735	32679	
1547	0	1597	5749	4514	6726	1118	0	32685	32681	32773	32836	32707	32751	32735	32759	
1548	0	1563	5770	4520	6752	1119	0	32728	32679	32676	32822	32889	32615	32842	32690	
1549	0	1552	5780	4571	6746	1120	0	32775	32565	32597	32797	32795	32466	32743	32787	
1550	0	1562	5761	4580	6804	1121	0	32748	32855	32654	32807	32726	32799	32551	32757	
1551	0	1567	5710	4562	6760	1122	0	32761	32885	32647	32863	32846	32759	32623	32774	
1552	0	1592	5790	4555	6758	1123	0	32766	32815	32739	32805	32871	32615	32703	32726	
1553	0	1548	5779	4513	6808	1124	0	32807	32703	32722	32845	32748	32647	32748	32711	
1554	0	1602	5785	4592	6757	1125	0	32896	32893	32613	32647	32814	32631	32733	32623	
1555	0	1563	5788	4564	6790	1126	0	32813	32831	32687	32799	32978	32603	32791	32700	
1556	0	1560	5730	4537	6788	1127	0	32748	32831	32799	32657	32955	32732	32786	32635	
1557	0	1547	5735	4522	6833	1128	0	32733	32661	32859	32558	32759	32647	32817	32735	
1558	0	1575	5770	4508	6796	1129	0	32736	32635	32754	32535	32767	32615	32647	32751	
1559	0	1574	5733	4540	6794	1130	0	32692	32839	32701	32527	32623	32876	32602	32894	
1560	0	1533	5791	4514	6786	1131	0	32679	32787	32707	32771	32469	32795	32591	32726	
1561	0	1591	5766	4581	6792	1132	0	32698	32814	32725	32671	32743	32621	32647	32793	
1562	0	1577	5714	4568	6804	1133	0	32698	32594	32868	32814	32799	32739	32668	32701	
1563	0	1535	5768	4518	6800	1134	0	32717	32859	32876	32743	32623	32685	32723	32859	
1564	0	1513	5732	4535	6801	1135	0	32737	32775	33063	32943	32445	32479	32628	32655	
1565	0	1541	5760	4554	6813	1136	0	32797	32738	32847	32773	32557	32749	32615	32699	
1566	0	1554	5732	4527	6821	1137	0	32846	32582	32663	32845	32405	32679	32647	32634	
1567	0	1556	5752	4561	6830	1138	0	32745	32679	32587	32682	32503	32566	32682	32631	
1568	0	1563	5776	4559	6805	1139	0	32763	32837	32583	32815	32583	32834	32513	32551	
1569	0	1536	5741	4551	6792	1140	0	32754	32767	32717	32735	32699	32759	32607	32611	
1570	0	1595	5746	4496	6835	1141	0	32759	32813	32759	32902	32903	32567	32740	32541	
1571	0	1562	5730	4511	6799	1142	0	32781	32662	32807	32839	32903	32759	32749	32547	
1572	0	1563	5726	4545	6786	1143	0	32756	32923	32858	32807	33071	32706	32747	32451	
1573	0	1588	5721	4564	6788	1144	0	32775	32887	32831	32829	33122	32479	32679	32551	
1574	0	1577	5698	4542	6809	1145	0	32782	32815	32903	32647	33083	32687	32726	32482	
1575	0	1572	5753	4572	6804	1146	0	32809	32839	32927	32827	33093	32735	32762	32519	
1576	0	1545	5749	4578	6831	1147	0	32885	32679	32838	32660	32895	32543	32759	32492	
1577	0	1571	5734	4509	6821	1148	0	32829	32843	32851	32825	32896	32695	32764	32532	
1578	0	1576	5720	4526	6825	1149	0	32862	32739	32862	32723	32775	32723	32743	32519	
1579	0	1578	5723	4540	6828	1150	0	32828	32685	32823	32789	32735	32631	32771	32631	
1580	0	1556	5731	4523	6816	1151	0	32775	32487	32657	32635	32685	32734	32757	32546	
1581	0	1541	5756	4577	6806	1152	0	32725	32671	32460	32759	32665	32739	32799	32625	
1582	0	1556	5742	4580	6853	1153	0	32715	32738	32423	32663	32494	32671	32758	32519	
1583	0	1564	5755	4516	6852	1154	0	32623	32665	32293	32662	32485	32527	32719	32685	
1584	0	1523	5753	4556	6816	1155	0	32620	32574	32357	32775	32692	32667	32841	32647	
1585	0	1566	5712	4533	6780	1156	0	32644	32764	32431	32735	32557	32545	32757	32763	
1586	0	1577	5758	4590	6800	1157	0	32711	32893	32500	32639	32517	32647	32675	32847	
1587	0	1552	5752	4550	6838	1158	0	32804	32734	32695	32743	32645	32623	32730	32731	
1588	0	1566	5734	4559	6801	1159	0	32801	32823	32862	32727	32699	32527	32858	32853	
1589	0	1572	5733	4528	6802	1160	0	32852	32655	32909	32871	32871	32625	32834	32775	
1590	0	1584	5721	4579	6798	1161	0	32790	32755	33114	32883	32862	32586	32587	32740	
1591	0	1584	5746	4579	6804	1162	0	32780	32967	33171	32903	32823	32671	32431	32647	
1592	0	1546	5732	4586	6844	1163	0	32733	32895	33207	32899	33015	32847	32695	32572	
1593	0	1595	5696	4570	6814	1164	0	32731	32903	33057	32969	33115	32747	32735	32379	
1594	0	1580	5764	4562	6845	1165	0	32743	32957	32967	32874	33125	32571	32661	32532	
1595	0	1588	5675	4576	6884	1166	0	32788	32756	32823	32815	33269	32694	32607	32515	
1596	0	1520	5704	4584	6849	1167	0	32836	32876	32743	32743	33050	32747	32495	32639	
1597	0	1545	5684	4622	6826	1168	0	32811	32795	32679	32573	32857	32662	32511	32647	
1598	0	1529	5691	4550	6829	1169	0	32786	32791	32715	32699	32903	32839	32535	32798	
1599	0	1557	5730	4617	6823	1170	0	32812	32733	32827	32653	32918	32716	32799	32799	
1600	0	1561	5682	4572	6821	1171	0	32782	32531	32798	32751	32759	32717	32788	32707	
1601	0	1572	5716	4571	6850	1172	0	32783	32575	32805	32775	32583	32677	32735	32647	
1602	0	1558	5707	4575	6848	1173	0	32775	32561	32621	32572	32676	32551	32759	32663	
1603	0	1568	5763	4610	6843	1174	0	32743	32751	32611	32709	32607	32583	32790	32766	
1604	0	1568	5747	4572	6840	1175	0	32787	32821	32685	32571	32577	32516	32810	32713	
1605	0	1564	5734	4568	6850	1176	0	32740	32749	32876	32603	32575	32642	32735	32609	
1606	0	1530	5745	4588	6856	1177	0	32743	32731	32839	32599	32527	32671	32679	32721	
1607	0	1559	5712	4562	6876	1178	0	32698	32727	32613	32427	32643	32419	32703	32748	
1608	0	1588	5697	4594	6850	1179	0	32691	32626	32543	32447	32687	32583	32784	32823	
1609	0	1553	5698	4577	6817	1180	0	32739	32807	32506	32391	32679	32599	32823	32703	
1610	0	1568	5689	4575	6872	1181	0	32804	33039	32570	32391	32839	32535	32866	32604	
1611	0	1547	5674	4618	6847	1182	0	32753	33055	32540	32684	32791	32508	32847	32397	
1612	0	1530	5707	4619	6841	1183	0	32720	32965	32607	32812	32847	32453	32775	32479	
1613	0	1579	5719	4546	6852	1184	0	32600	32935	32747	32831	33063	32535	32855	32569	
1614	0	1559	5719	4626	6907	1185	0	32631	32707	32845	33090	32956	32567	32797	32543	
1615	0	1554	5701	4585	6844	1186	0	32673	32658	32903	33121	32846	32735	32647	32564	
1616	0	1542	5706	4570	6870	1187	0	32667	32787	32885	32835	32789	32677	32603	32623	
1617	0	1600	5693	4573	6849	1188	0	32687	32767	32879	32751	32647	32711	32583	32795	
1618	0	1580	5693	4580	6818	1189	0	32671	32679	32941	32647	32583	32863	32540	32812	
1619	0	1533	5680	4563	6820	1190	0	32678	32708	32996	32683	32571	32761	32423	32819	
1620	0	1563	5744	4595	6843	1191	0	32669	32550	32979	32621	32439	32679	32355	32630	
1621	0	1597	5682	4580	6903	1192	0	32613	32821	33047	32844	32471	32835	32207	32695	
1622	0	1559	5697	4552	6892	1193	0	32596	32727	33055	32714	32322	32765	32228	32631	
1623	0	1565	5709	4592	6833	1194	0	32568	32715	33151	32755	32415	32702	32215	32735	
1624	0	1546	5683	4563	6871	1195	0	32545	32619	33125	32525	32350	32663	32161	32709	
1625	0	1565	5706	4580	6870	1196	0	32566	32763	33205	32531	32391	32943	32083	32647	
1626	0	1571	5729	4577	6891	1197	0	32517	32617	33309	32437	32373	32943	31997	32927	
1627	0	1544	5695	4590	6866	1198	0	32513	32319	33362	32621	32305	32791	32159	32887	
1628	0	1584	5726	4584	6861	1199	0	32641	32302	33415	32502	32391	33087	32101	33041	
1629	0	1602	5723	4577	6880	1200	0	32764	32356	33510	32644	32453	33063	32181	33014	
1630	0	1550	5705	4611	6852	1201	0	32856	32311	33380	32693	32535	33007	32126	33151	
1631	0	1551	5705	4590	6856	1202	0	32899	32437	33428	32665	32477	33069	32180	32917	
1632	0	1560	5670	4608	6896	1203	0	32915	32407	33275	32632	32671	32963	32326	32990	
1633	0	1558	5712	4598	6862	1204	0	32940	32702	33177	32691	32807	32943	32479	32805	
1634	0	1537	5697	4624	6883	1205	0	33113	32631	33183	32415	33027	32847	32601	32967	
1635	0	1595	5719	4605	6862	1206	0	33356	32406	33069	32551	32947	33095	32738	33000	
1636	0	1539	5697	4594	6882	1207	0	33539	32135	32812	32551	33099	33181	32903	33220	
1637	0	1529	5734	4661	6867	1208	0	33549	32331	32700	32609	33183	32943	33043	33115	
1638	0	1538	5692	4581	6895	1209	0	33564	32427	32535	32978	33125	33053	33135	33155	
1639	0	1576	5715	4597	6925	1210	0	33511	32471	32421	32911	33115	32861	33203	32943	
1640	0	1557	5705	4629	6900	1211	0	33372	32613	32348	33127	33121	32755	33303	32983	
1641	0	1558	5657	4558	6904	1212	0	33195	32825	32178	33247	33138	32647	33475	32813	
1642	0	1575	5714	4596	6833	1213	0	33118	32949	32031	33301	33108	32595	33538	32558	
1643	0	1546	5705	4616	6889	1214	0	32996	33207	31819	33277	33247	32389	33677	32503	
1644	0	1598	5677	4588	6894	1215	0	32782	33145	31867	33573	33252	32087	33799	32279	
1645	0	1540	5678	4552	6892	1216	0	32781	33157	31890	33538	33335	32179	33822	32359	
1646	0	1514	5718	4554	6925	1217	0	32695	33415	31901	33375	33180	32155	33883	32327	
1647	0	1556	5682	4590	6916	1218	0	32644	33407	31791	33562	33239	32142	33893	32247	
1648	0	1584	5704	4619	6925	1219	0	32712	33267	31559	33333	33405	32085	33906	32313	
1649	0	1545	5662	4573	6924	1220	0	32599	33287	31367	33302	33455	32119	33879	32319	
1650	0	1582	5668	4585	6884	1221	0	32613	33248	31301	33069	33483	32081	33815	32195	
1651	0	1542	5700	4617	6888	1222	0	32548	33425	31583	33055	33186	32255	33567	32233	
1652	0	1568	5704	4659	6898	1223	0	32438	33383	32007	32919	33133	32243	33303	32170	
1653	0	1634	5680	4548	6926	1224	0	32322	33319	32447	32855	32957	32359	32911	32295	
1654	0	1600	5662	4599	6898	1225	0	32300	33193	32678	32997	32761	32375	32759	32231	
1655	0	1549	5661	4536	6857	1226	0	32282	32935	32770	32715	32693	32228	32719	32117	
1656	0	1570	5641	4598	6860	1227	0	32294	32850	32883	32690	32623	32463	32597	32293	
1657	0	1522	5635	4586	6873	1228	0	32298	32957	32969	32511	32532	32515	32383	32263	
1658	0	1570	5666	4573	6985	1229	0	32378	32884	32975	32519	32475	32383	32278	32327	
1659	0	1544	5671	4584	6886	1230	0	32402	32707	33195	32299	32377	32581	32205	32355	
1660	0	1576	5668	4572	6948	1231	0	32475	32517	33355	32551	32516	32690	32173	32541	
1661	0	1542	5675	4554	6916	1232	0	32475	32594	33393	32353	32439	32551	32054	32500	
1662	0	1549	5634	4608	6896	1233	0	32474	32671	33359	32385	32501	32743	32076	32671	
1663	0	1556	5660	4566	6886	1234	0	32539	32647	33335	32258	32439	32751	32095	32519	
1664	0	1589	5668	4555	6893	1235	0	32582	32679	33321	32327	32367	32459	32159	32623	
1665	0	1559	5680	4580	6913	1236	0	32618	32643	33255	32386	32359	32683	32132	32686	
1666	0	1498	5659	4551	6894	1237	0	32679	32431	33147	32313	32427	32677	32231	32669	
1667	0	1538	5630	4613	6926	1238	0	32662	32503	33199	32595	32511	32883	32399	32711	
1668	0	1609	5600	4576	6931	1239	0	32775	32681	33004	32539	32582	32703	32549	32819	
1669	0	1584	5730	4551	6894	1240	0	32770	32605	32875	32711	32535	32669	32534	32815	
1670	0	1544	5709	4561	6925	1241	0	32815	32705	32785	32773	32710	32819	32669	32707	
1671	0	1539	5653	4582	6942	1242	0	32858	32599	32859	32771	32635	32647	32711	32834	
1672	0	1514	5664	4621	6945	1243	0	32861	32815	32842	32628	32868	32807	32667	32787	
1673	0	1528	5643	4564	6908	1244	0	32831	32786	32823	32725	32583	32601	32701	32695	
1674	0	1537	5634	4560	6912	1245	0	32855	32767	32687	32625	32775	32819	32683	32575	
1675	0	1529	5618	4585	6932	1246	0	32869	32668	32569	32759	32879	32871	32671	32671	
1676	0	1510	5688	4573	6900	1247	0	32924	32787	32543	32588	32839	32647	32535	32671	
1677	0	1548	5649	4532	6938	1248	0	32852	32739	32631	32796	32855	32823	32483	32758	
1678	0	1574	5666	4531	6947	1249	0	32844	32729	32597	32639	32804	32761	32461	32690	
1679	0	1539	5632	4576	6922	1250	0	32826	32614	32655	32743	32821	32695	32357	32739	
1680	0	1571	5665	4539	6910	1251	0	32834	32509	32815	32757	32894	32837	32485	32775	
1681	0	1544	5657	4568	6931	1252	0	32844	32487	32939	32730	32735	32805	32644	32919	
1682	0	1530	5609	4563	6942	1253	0	32828	32551	32863	32743	32636	32847	32647	32903	
1683	0	1508	5629	4534	6905	1254	0	32797	32813	32867	32655	32686	32775	32719	32749	
1684	0	1551	5684	4538	6936	1255	0	32841	32815	32957	32871	32599	32602	32693	32753	
1685	0	1496	5636	4567	6925	1256	0	32820	32759	32775	32771	32741	32795	32841	32717	
1686	0	1556	5654	4555	6930	1257	0	32828	32575	32727	32783	32583	32693	32933	32871	
1687	0	1563	5701	4564	6934	1258	0	32829	32575	32871	32679	32579	32463	33042	32737	
1688	0	1577	5625	4532	6938	1259	0	32882	32698	32783	32755	32519	32638	33018	32835	
1689	0	1547	5633	4524	6934	1260	0	32844	32855	32732	32717	32565	32751	32775	32783	
1690	0	1591	5641	4544	6956	1261	0	32792	32791	32759	32582	32813	32583	32476	32599	
1691	0	1548	5595	4525	6912	1262	0	32837	32775	32671	32623	32867	32690	32494	32687	
1692	0	1571	5618	4528	6944	1263	0	32843	32663	32743	32739	33086	32799	32658	32588	
1693	0	1598	5583	4510	6924	1264	0	32816	32871	32855	32735	33171	32598	32852	32711	
1694	0	1624	5612	4603	6955	1265	0	32807	32827	33047	32879	33023	32749	32677	32506	
1695	0	1554	5611	4592	6938	1266	0	32775	32818	33073	32839	33047	32731	32655	32571	
1696	0	1534	5649	4533	6905	1267	0	32743	32621	33029	32900	32869	32607	32575	32559	
1697	0	1575	5622	4551	6978	1268	0	32731	32847	32943	32739	32935	32847	32607	32647	
1698	0	1519	5605	4596	6962	1269	0	32784	32759	32903	32884	32759	32747	32711	32529	
1699	0	1569	5665	4572	6906	1270	0	32743	32721	32947	32807	32615	32516	32607	32605	
1700	0	1539	5604	4565	6938	1271	0	32695	32575	32847	32835	32619	32718	32645	32765	
1701	0	1534	5612	4540	6908	1272	0	32688	32843	32751	32647	32677	32655	32673	32677	
1702	0	1540	5643	4562	6938	1273	0	32735	32891	32663	32775	32683	32615	32658	32669	
1703	0	1536	5604	4556	6912	1274	0	32759	32849	32527	32658	32583	32518	32567	32583	
1704	0	1563	5675	4530	6934	1275	0	32803	32707	32383	32694	32677	32684	32556	32725	
1705	0	1540	5634	4543	6955	1276	0	32841	32847	32457	32586	32695	32803	32547	32715	
1706	0	1530	5621	4505	6951	1277	0	32802	32713	32602	32615	32820	32575	32789	32749	
1707	0	1535	5630	4530	6936	1278	0	32719	32749	32807	32668	32533	32831	32770	32701	
1708	0	1517	5614	4569	6914	1279	0	32743	32543	32793	32641	32807	32671	32623	32735	
1709	0	1562	5615	4502	6962	1280	0	32773	32708	32767	32803	32931	32583	32647	32679	
1710	0	1546	5608	4563	6934	1281	0	32694	32837	32823	32786	33063	32755	32581	32762	
1711	0	1588	5642	4539	6972	1282	0	32723	32775	32727	32959	32935	32707	32621	32641	
1712	0	1550	5582	4546	6982	1283	0	32750	32858	32734	32877	32885	32607	32767	32729	
1713	0	1553	5607	4509	6972	1284	0	32770	32807	32903	32943	32863	32685	32775	32692	
1714	0	1575	5630	4527	6956	1285	0	32742	32717	32982	32859	32825	32670	32667	32693	
1715	0	1515	5627	4505	6962	1286	0	32748	32949	32980	32945	32827	32707	32723	32573	
1716	0	1531	5575	4502	6934	1287	0	32788	32864	32903	32827	32601	32519	32742	32775	
1717	0	1538	5586	4564	6948	1288	0	32750	32757	32819	32869	32566	32743	32843	32859	
1718	0	1578	5628	4576	6984	1289	0	32773	32556	32751	32751	32661	32668	33071	32823	
1719	0	1572	5593	4531	7012	1290	0	32761	32795	32743	32761	32967	32786	32751	32695	
1720	0	1554	5648	4548	6960	1291	0	32751	32709	32790	32799	32855	32575	32583	32629	
1721	0	1584	5601	4580	6986	1292	0	32743	32569	32685	32733	32819	32823	32535	32557	
1722	0	1549	5572	4530	7004	1293	0	32756	32645	32611	32871	32679	32759	32591	32599	
1723	0	1538	5588	4530	6982	1294	0	32831	32821	32661	32807	32775	32677	32689	32567	
1724	0	1603	5584	4542	6970	1295	0	32742	32737	32769	32657	32807	32643	32745	32599	
1725	0	1540	5590	4526	6968	1296	0	32799	32517	32759	32735	32631	32623	32695	32660	
1726	0	1537	5584	4538	6954	1297	0	32813	32671	32745	32551	32550	32759	32692	32757	
1727	0	1543	5577	4549	6944	1298	0	32773	32807	32731	32671	32719	32734	32819	32629	
1728	0	1551	5600	4498	6948	1299	0	32716	32818	32767	32455	32823	32599	32807	32640	
1729	0	1556	5626	4572	6976	1300	0	32749	32817	32713	32543	32783	32631	32845	32596	
1730	0	1541	5584	4565	6932	1301	0	32763	32606	32811	32551	32855	32647	32810	32711	
1731	0	1584	5634	4566	7021	1302	0	32740	32869	32829	32647	32797	32484	32719	32575	
1732	0	1541	5621	4578	7000	1303	0	32767	32925	32699	32759	32892	32836	32749	32691	
1733	0	1536	5604	4549	6978	1304	0	32812	32869	32506	32695	32756	32671	32798	32511	
1734	0	1523	5618	4546	6978	1305	0	32797	32863	32470	32903	32815	32609	32725	32659	
1735	0	1553	5603	4546	6984	1306	0	32815	32854	32590	32764	32867	32675	32765	32710	
1736	0	1570	5552	4555	6992	1307	0	32774	32590	32647	32739	32758	32503	32747	32561	
1737	0	1531	5578	4585	6992	1308	0	32820	32783	32663	32717	32749	32673	32663	32585	
1738	0	1557	5608	4528	7004	1309	0	32727	32775	32655	32591	32765	32710	32767	32735	
1739	0	1503	5589	4526	7002	1310	0	32745	32703	32761	32567	32733	32578	32765	32711	
1740	0	1592	5612	4508	7001	1311	0	32739	32773	32847	32663	32782	32727	32695	32789	
1741	0	1579	5608	4538	7024	1312	0	32766	32711	32901	32898	32745	32695	32691	32764	
1742	0	1548	5550	4578	7010	1313	0	32772	32623	32863	32903	32669	32773	32579	32739	
1743	0	1557	5609	4546	7019	1314	0	32737	32743	32745	32775	32741	32555	32692	32759	
1744	0	1552	5572	4521	6971	1315	0	32716	32767	32599	32751	32822	32647	32566	32581	
1745	0	1582	5597	4571	6982	1316	0	32726	32737	32533	32797	32668	32708	32687	32493	
1746	0	1548	5576	4496	7019	1317	0	32746	32791	32391	32857	32711	32731	32615	32540	
1747	0	1585	5587	4523	6992	1318	0	32715	32671	32382	32731	32671	32591	32703	32599	
1748	0	1598	5600	4517	6953	1319	0	32749	32557	32419	32695	32637	32556	32629	32556	
1749	0	1601	5559	4541	7028	1320	0	32741	32771	32587	32807	32722	32767	32723	32511	
1750	0	1589	5600	4560	7042	1321	0	32763	32617	32747	33126	32815	32748	32742	32741	
1751	0	1573	5586	4562	7005	1322	0	32766	32871	32931	32929	32667	32707	32647	32631	
1752	0	1535	5558	4532	6980	1323	0	32759	32951	32931	33117	32919	32699	32703	32639	
1753	0	1549	5610	4540	6996	1324	0	32883	32918	32930	33115	32967	32549	32715	32615	
1754	0	1553	5600	4507	6993	1325	0	32859	32863	32892	32957	33070	32679	32694	32749	
1755	0	1534	5609	4521	7033	1326	0	32831	32863	32775	33005	32951	32749	32659	32671	
1756	0	1543	5577	4543	7030	1327	0	32732	32805	32911	32805	32767	32604	32699	32497	
1757	0	1572	5597	4532	7021	1328	0	32793	32931	32938	32671	32694	32591	32739	32678	
1758	0	1515	5569	4571	7046	1329	0	32829	32833	33193	32647	32687	32643	32837	32583	
1759	0	1588	5547	4516	7046	1330	0	32723	32717	33311	32635	32769	32477	32763	32615	
1760	0	1595	5572	4508	7027	1331	0	32804	32791	33207	32569	32579	32538	32815	32639	
1761	0	1543	5566	4495	7006	1332	0	32739	32575	33204	32482	32686	32771	32767	32655	
1762	0	1497	5568	4488	7005	1333	0	32733	32775	33167	32634	32599	32622	32683	32719	
1763	0	1580	5551	4517	7033	1334	0	32761	32775	33221	32644	32749	32647	32657	32879	
1764	0	1566	5599	4527	7016	1335	0	32729	32703	33323	32659	32695	32565	32679	32786	
1765	0	1549	5542	4509	7002	1336	0	32769	32609	33335	32516	32791	32629	32669	32783	
1766	0	1556	5527	4551	7027	1337	0	32698	32812	33125	32677	32735	32647	32647	32751	
1767	0	1511	5544	4507	7003	1338	0	32748	32694	32847	32503	32750	32541	32615	32876	
1768	0	1510	5557	4527	7032	1339	0	32751	32575	32711	32495	32812	32743	32659	32711	
1769	0	1532	5572	4561	7016	1340	0	32726	32855	32692	32567	32838	32735	32575	32679	
1770	0	1572	5542	4508	6991	1341	0	32729	32807	32735	32587	32781	32811	32595	32780	
1771	0	1515	5574	4518	7048	1342	0	32661	32623	32660	32782	32935	32551	32647	32739	
1772	0	1589	5577	4514	7013	1343	0	32724	32855	32631	32732	32839	32718	32727	32739	
1773	0	1545	5651	4548	6994	1344	0	32757	32787	32599	32922	33047	32599	32687	32594	
1774	0	1535	5538	4562	7000	1345	0	32797	32834	32433	32801	33063	32556	32734	32475	
1775	0	1572	5537	4486	7060	1346	0	32783	32749	32391	32927	32954	32631	32775	32535	
1776	0	1558	5533	4507	7008	1347	0	32775	32851	32454	32877	32631	32702	32869	32451	
1777	0	1572	5568	4513	7006	1348	0	32753	32775	32454	32855	32822	32622	32821	32641	
1778	0	1550	5526	4507	7044	1349	0	32843	32596	32375	33039	32711	32495	32687	32559	
1779	0	1539	5578	4486	7024	1350	0	32770	32775	32435	32937	32739	32823	32695	32625	
1780	0	1530	5573	4515	7022	1351	0	32756	32675	32533	33031	32599	32807	32673	32683	
1781	0	1544	5574	4536	7032	1352	0	32809	32559	32413	32711	32690	32785	32789	32809	
1782	0	1534	5540	4548	7032	1353	0	32775	32803	32242	32751	32831	32624	32769	32686	
1783	0	1567	5555	4519	7038	1354	0	32754	32703	32375	32691	32763	32591	32691	32832	
1784	0	1547	5544	4503	7012	1355	0	32799	32615	32619	32647	32775	32775	32604	32835	
1785	0	1556	5553	4470	7026	1356	0	32728	32677	32743	32623	32749	32722	32587	32859	
1786	0	1538	5567	4514	7046	1357	0	32679	32805	32839	32647	32519	32570	32647	32799	
1787	0	1558	5552	4484	7054	1358	0	32709	32773	33007	32623	32519	32686	32661	32667	
1788	0	1554	5546	4530	7016	1359	0	32711	32687	33047	32519	32806	32689	32647	32655	
1789	0	1560	5525	4487	7068	1360	0	32657	32843	33047	32709	32768	32717	32773	32631	
1790	0	1582	5585	4501	7016	1361	0	32703	32745	33115	32715	32859	32535	32741	32789	
1791	0	1523	5541	4482	7095	1362	0	32709	32887	33111	32671	32783	32551	32775	32706	
1792	0	1561	5584	4489	6991	1363	0	32697	32831	32988	32887	32951	32705	32783	32607	
1793	0	1556	5550	4519	7040	1364	0	32765	32679	32893	32717	32933	32603	32835	32647	
1794	0	1543	5540	4478	7044	1365	0	32758	33017	32815	32635	33004	32719	32711	32434	
1795	0	1540	5550	4506	7060	1366	0	32804	32839	32629	32772	32807	32530	32685	32671	
1796	0	1563	5531	4473	7000	1367	0	32773	32759	32572	32655	32772	32689	32702	32571	
1797	0	1566	5562	4466	7030	1368	0	32780	32609	32647	32803	32647	32695	32635	32644	
1798	0	1542	5508	4506	7082	1369	0	32834	32911	32735	32615	32716	32495	32677	32564	
1799	0	1533	5516	4504	7048	1370	0	32772	32775	32743	32738	32727	32735	32631	32679	
1800	0	1518	5555	4466	7033	1371	0	32749	32549	32829	32723	32659	32639	32638	32559	
1801	0	1525	5529	4456	7041	1372	0	32779	32775	32895	32669	32638	32663	32637	32741	
1802	0	1541	5568	4515	7076	1373	0	32727	32741	32913	32903	32635	32590	32643	32661	
1803	0	1592	5510	4499	7064	1374	0	32764	32583	32883	32602	32598	32745	32738	32789	
1804	0	1544	5548	4485	7004	1375	0	32759	32763	32831	32615	32709	32807	32740	32685	
1805	0	1574	5510	4486	7042	1376	0	32799	32775	32719	32566	32597	32583	32671	32810	
1806	0	1570	5543	4472	7072	1377	0	32700	32770	32623	32667	32610	32751	32789	32751	
1807	0	1576	5536	4475	7047	1378	0	32748	32555	32673	32687	32695	32759	32691	32855	
1808	0	1584	5560	4497	7050	1379	0	32782	32724	32661	32765	32742	32471	32796	32832	
1809	0	1565	5515	4488	7071	1380	0	32749	32895	32739	32735	32870	32741	32799	32833	
1810	0	1540	5527	4455	7090	1381	0	32789	32892	32747	32767	32891	32699	32743	32575	
1811	0	1532	5540	4495	7052	1382	0	32824	32698	32845	32723	32959	32679	32687	32626	
1812	0	1549	5527	4498	7065	1383	0	32898	32807	32783	32707	32860	32575	32718	32726	
1813	0	1514	5538	4462	7044	1384	0	32877	32989	32783	32867	32887	32735	32711	32594	
1814	0	1570	5487	4502	7093	1385	0	32843	32915	32783	32869	32785	32825	32711	32447	
1815	0	1566	5534	4482	7040	1386	0	32796	32675	32605	32975	32847	32551	32819	32547	
1816	0	1576	5513	4444	7098	1387	0	32725	32775	32418	32991	32743	32750	32758	32415	
1817	0	1572	5514	4489	7065	1388	0	32805	32766	32387	32903	32764	32695	32807	32615	
1818	0	1559	5536	4562	7084	1389	0	32813	32695	32491	32903	32775	32655	32795	32511	
1819	0	1517	5519	4504	7044	1390	0	32679	32516	32647	32700	32770	32718	32827	32593	
1820	0	1558	5528	4502	7062	1391	0	32742	32636	32711	32671	32847	32639	32675	32587	
1821	0	1545	5473	4451	7074	1392	0	32788	32775	32727	32783	32687	32491	32685	32729	
1822	0	1531	5521	4470	7062	1393	0	32804	32829	32837	32711	32691	32753	32796	32741	
1823	0	1573	5508	4462	7109	1394	0	32807	32751	32903	32727	32795	32683	32847	32551	
1824	0	1556	5494	4460	7076	1395	0	32804	32762	32941	32535	32633	32631	32791	32677	
1825	0	1578	5505	4536	7052	1396	0	32861	32615	32887	32715	32671	32725	32710	32605	
1826	0	1528	5528	4457	7075	1397	0	32766	32847	32844	32626	32501	32831	32700	32815	
1827	0	1568	5478	4478	7092	1398	0	32805	32715	32863	32799	32692	32519	32736	32599	
1828	0	1577	5522	4472	7082	1399	0	32682	32647	32948	32859	32607	32698	32740	32658	
1829	0	1591	5533	4470	7035	1400	0	32679	32501	32947	32919	32709	32709	32755	32547	
1830	0	1607	5525	4496	7026	1401	0	32786	32817	32895	32885	32959	32687	32795	32687	
1831	0	1586	5524	4512	7058	1402	0	32724	32773	32957	32710	32865	32573	32717	32727	
1832	0	1573	5530	4470	7036	1403	0	32748	32839	32995	32871	33063	32769	32767	32727	
1833	0	1580	5535	4477	7066	1404	0	32743	32695	32999	32751	32687	32765	32823	32667	
1834	0	1564	5546	4507	7075	1405	0	32791	33007	32903	32826	32955	32669	32711	32713	
1835	0	1530	5558	4472	7074	1406	0	32795	32863	32859	32671	32921	32815	32731	32623	
1836	0	1573	5542	4496	7048	1407	0	32768	32661	32887	32727	32795	32639	32671	32699	
1837	0	1581	5514	4480	7090	1408	0	32721	32713	32797	32758	32717	32703	32626	32621	
1838	0	1598	5524	4471	7093	1409	0	32720	32890	32735	32635	32709	32477	32743	32593	
1839	0	1603	5517	4458	7061	1410	0	32732	32806	32663	32743	32711	32615	32751	32661	
1840	0	1602	5549	4481	7110	1411	0	32724	32735	32567	32685	32739	32612	32692	32606	
1841	0	1577	5555	4491	7086	1412	0	32775	32695	32538	32850	32679	32487	32575	32717	
1842	0	1563	5534	4475	7106	1413	0	32758	32763	32551	32727	32647	32685	32690	32583	
1843	0	1576	5508	4470	7100	1414	0	32816	32743	32621	32855	32519	32621	32751	32729	
1844	0	1566	5512	4522	7034	1415	0	32828	32727	32695	32794	32735	32545	32757	32774	
1845	0	1578	5574	4440	7124	1416	0	32770	32675	32668	33011	32691	32605	32781	32715	
1846	0	1537	5540	4436	7037	1417	0	32786	32575	32687	32789	32555	32658	32747	32757	
1847	0	1560	5512	4501	7084	1418	0	32766	32551	32640	32803	32663	32556	32687	32693	
1848	0	1591	5533	4472	7059	1419	0	32702	32726	32617	32598	32591	32730	32751	32795	
1849	0	1569	5525	4469	7043	1420	0	32760	32855	32693	32687	32929	32751	32639	32631	
1850	0	1604	5534	4464	7073	1421	0	32742	32861	32746	32516	32999	32550	32791	32767	
1851	0	1598	5548	4488	7073	1422	0	32769	32646	32847	32635	33111	32727	32713	32734	
1852	0	1558	5541	4455	7128	1423	0	32732	32829	32827	32535	33075	32749	32679	32819	
1853	0	1570	5470	4473	7083	1424	0	32809	32935	32751	32717	32983	32647	32575	32726	
1854	0	1611	5497	4442	7091	1425	0	32793	32951	32647	32829	32953	32526	32527	32639	
1855	0	1581	5538	4492	7077	1426	0	32800	32893	32738	32759	32822	32679	32485	32575	
1856	0	1591	5500	4470	7081	1427	0	32769	32717	32517	32604	32763	32692	32489	32660	
1857	0	1607	5492	4495	7108	1428	0	32789	32763	32391	32711	32615	32543	32542	32687	
1858	0	1537	5563	4478	7101	1429	0	32802	32775	32471	32541	32765	32711	32515	32719	
1859	0	1546	5570	4486	7102	1430	0	32715	32805	32606	32595	32732	32775	32531	32751	
1860	0	1566	5536	4462	7041	1431	0	32722	32578	32615	32531	32915	32511	32589	32775	
1861	0	1622	5538	4494	7092	1432	0	32720	32719	32726	32791	32804	32799	32567	32711	
1862	0	1596	5554	4507	7105	1433	0	32728	32845	32755	32734	32903	32711	32575	32623	
1863	0	1604	5560	4521	7048	1434	0	32726	32743	32807	32903	32803	32743	32707	32642	
1864	0	1558	5517	4463	7086	1435	0	32822	32587	32899	32816	32893	32797	32628	32581	
1865	0	1547	5556	4479	7114	1436	0	32775	32695	32930	32885	32775	32679	32745	32596	
1866	0	1577	5510	4429	7082	1437	0	32753	32791	32847	32809	32807	32735	32743	32495	
1867	0	1636	5517	4491	7044	1438	0	32726	32721	32867	32865	32647	32514	32751	32635	
1868	0	1629	5537	4509	7072	1439	0	32733	32591	32989	32877	32501	32703	32678	32635	
1869	0	1636	5499	4447	7140	1440	0	32716	32731	33079	32867	32583	32813	32605	32595	
1870	0	1568	5550	4489	7072	1441	0	32732	32900	33087	32791	32543	32517	32638	32487	
1871	0	1577	5572	4416	7104	1442	0	32769	32835	32882	32877	32714	32789	32764	32621	
1872	0	1591	5555	4491	7072	1443	0	32796	32847	33087	33031	32939	32691	32735	32583	
1873	0	1603	5547	4509	7107	1444	0	32834	32695	33047	32983	33007	32549	32884	32676	
1874	0	1587	5486	4450	7104	1445	0	32807	32831	32940	32899	32903	32683	32791	32725	
1875	0	1613	5548	4481	7110	1446	0	32845	32914	32855	32839	32871	32591	32851	32639	
1876	0	1584	5562	4450	7108	1447	0	32797	32903	32662	32802	32711	32635	32836	32567	
1877	0	1562	5551	4445	7121	1448	0	32775	32619	32669	32719	32743	32604	32772	32715	
1878	0	1567	5574	4464	7080	1449	0	32796	32845	32749	32825	32647	32679	32799	32761	
