# OpenSignals Text File Format
# {"00:07:80:64:6D:DA": {"sensor": ["CUSTOM/0.5/1.0/V", "CUSTOM/0.5/1.0/V", "CUSTOM/0.5/1.0/V", "CUSTOM/0.5/1.0/V"], "device name": "Platform", "column": ["nSeq", "DI", "CH1", "CH2", "CH3", "CH4"], "sync interval": 2, "time": "14:59:56.210", "comments": "", "device connection": "BTH00:07:80:64:6D:DA", "channels": [1, 2, 3, 4], "date": "2017-6-29", "mode": 0, "digital IO": [0, 1], "firmware version": 772, "device": "biosignalsplux", "position": 0, "sampling rate": 1000, "label": ["CH1", "CH2", "CH3", "CH4"], "resolution": [16, 16, 16, 16], "special": [{}, {}, {}, {}]}, "00:07:80:3B:46:38": {"sensor": ["EMG", "EMG", "EMG", "EMG", "EMG", "EMG", "EMG", "EMG"], "device name": "EMGs", "column": ["nSeq", "DI", "X", "CH2", "CH3", "CH4", "CH5", "CH6", "CH7", "CH8"], "sync interval": 2, "time": "14:59:56.210", "comments": "", "device connection": "BTH00:07:80:3B:46:38", "channels": [1, 2, 3, 4, 5, 6, 7, 8], "date": "2017-6-29", "mode": 0, "digital IO": [0, 1], "firmware version": 772, "device": "biosignalsplux", "position": 1, "sampling rate": 1000, "label": ["X", "CH2", "CH3", "CH4", "CH5", "CH6", "CH7", "CH8"], "resolution": [16, 16, 16, 16, 16, 16, 16, 16], "special": [{}, {}, {}, {}, {}, {}, {}, {}]}}
# EndOfHeader
0	0	1939	5491	3691	7507	3969	0	32680	32771	32897	32806	32701	32694	32640	32623	
1	0	1991	5509	3727	7510	3970	0	32765	32870	32935	32857	32708	32767	32637	32748	
2	0	1971	5508	3727	7476	3971	0	32775	32795	32903	32885	32855	32527	32699	32647	
3	0	1950	5506	3704	7494	3972	0	32804	32623	32759	32837	32775	32485	32758	32547	
4	0	1934	5505	3694	7503	3973	0	32946	32815	32708	32877	32834	32659	32833	32547	
5	0	1974	5465	3724	7497	3974	0	32980	32723	32647	32993	32855	32619	32761	32578	
6	0	1967	5493	3744	7500	3975	0	32961	32847	32659	32962	32887	32759	32783	32504	
7	0	1994	5475	3697	7498	3976	0	32960	32530	32703	32863	32833	32626	32811	32463	
8	0	1941	5486	3701	7506	3977	0	32935	32662	32761	32897	32859	32519	32751	32727	
9	0	1965	5532	3756	7501	3978	0	32991	32633	32813	32751	32827	32685	32659	32637	
10	0	1956	5459	3716	7512	3979	0	32999	32477	32863	32647	32843	32644	32738	32711	
11	0	1967	5474	3721	7500	3980	0	32946	32667	32883	32719	32773	32637	32704	32555	
12	0	1941	5523	3714	7520	3981	0	32750	32567	32871	32797	32786	32673	32724	32775	
13	0	1960	5495	3728	7504	3982	0	32738	32819	32711	32751	32703	32709	32788	32751	
14	0	1995	5508	3735	7525	3983	0	32740	32839	32717	32527	32809	32707	32739	32671	
15	0	1932	5464	3689	7504	3984	0	32672	32956	32683	32542	32891	32725	32727	32703	
16	0	1989	5466	3705	7482	3985	0	32605	32811	32589	32663	32799	32426	32711	32645	
17	0	1962	5520	3735	7524	3986	0	32501	32830	32487	32862	32807	32660	32692	32637	
18	0	1946	5483	3698	7496	3987	0	32566	32551	32511	32709	32866	32673	32747	32775	
19	0	1952	5509	3758	7506	3988	0	32615	32710	32258	32775	32805	32614	32732	32804	
20	0	1956	5497	3708	7493	3989	0	32698	32647	32220	32903	32794	32695	32703	32663	
21	0	1988	5483	3733	7492	3990	0	32818	32740	32327	32775	32751	32751	32713	32609	
22	0	1924	5500	3756	7506	3991	0	32903	32762	32497	32797	32743	32557	32687	32637	
23	0	1967	5504	3736	7485	3992	0	32940	32699	32667	32883	32639	32559	32742	32620	
24	0	1949	5465	3708	7446	3993	0	32968	32911	32855	32775	32731	32685	32709	32450	
25	0	1969	5518	3725	7480	3994	0	32847	32877	32999	32803	32775	32715	32743	32583	
26	0	1969	5486	3712	7490	3995	0	32782	32834	32900	32862	32807	32687	32811	32534	
27	0	1939	5476	3722	7505	3996	0	32615	32863	32847	32727	32857	32723	32793	32605	
28	0	2005	5528	3716	7456	3997	0	32603	32607	32841	32673	32871	32531	32805	32439	
29	0	1956	5476	3737	7510	3998	0	32437	32725	32957	32709	32802	32613	32823	32717	
30	0	1960	5533	3753	7482	3999	0	32404	32485	32758	32711	32839	32751	32692	32695	
31	0	1989	5477	3740	7536	4000	0	32504	32731	32631	32398	32797	32663	32703	32709	
32	0	2013	5500	3708	7524	4001	0	32718	32733	32679	32415	32763	32719	32639	32596	
33	0	2005	5509	3714	7452	4002	0	32710	32637	32561	32647	32691	32783	32668	32797	
34	0	1969	5465	3704	7530	4003	0	32839	32771	32663	32669	32671	32599	32683	32747	
35	0	1974	5478	3720	7489	4004	0	32951	32619	32666	32655	32710	32471	32751	32815	
36	0	1961	5493	3724	7510	4005	0	32874	32899	32609	32835	32683	32635	32699	32590	
37	0	1988	5516	3741	7440	4006	0	32886	32807	32703	32879	32751	32613	32767	32689	
38	0	1953	5479	3684	7509	4007	0	32935	32749	32922	32755	32795	32655	32805	32807	
39	0	1984	5476	3717	7485	4008	0	32836	32807	33007	32873	32849	32751	32711	32783	
40	0	2006	5516	3744	7510	4009	0	32781	32615	33007	32919	32790	32483	32771	32786	
41	0	1980	5495	3769	7518	4010	0	32715	32819	33025	32827	32831	32599	32799	32615	
42	0	1975	5456	3790	7540	4011	0	32660	32789	33191	32866	32861	32687	32791	32763	
43	0	1968	5510	3671	7494	4012	0	32687	32823	33122	32924	32721	32647	32843	32573	
44	0	1988	5492	3752	7532	4013	0	32733	32903	32943	32771	32711	32695	32751	32663	
45	0	1980	5520	3721	7520	4014	0	32767	32769	32951	32763	32726	32615	32769	32487	
46	0	2016	5466	3733	7521	4015	0	32667	33005	32834	32855	32804	32575	32716	32447	
47	0	1978	5464	3754	7499	4016	0	32525	32743	32855	32891	32863	32775	32635	32623	
48	0	1977	5507	3732	7494	4017	0	32619	32839	32832	32775	32793	32679	32623	32611	
49	0	1991	5505	3708	7472	4018	0	32805	32803	32735	32859	32755	32694	32575	32509	
50	0	1979	5521	3734	7501	4019	0	32889	32763	32763	32667	32775	32763	32615	32818	
51	0	1973	5460	3733	7520	4020	0	32991	32673	32775	32678	32807	32725	32621	32701	
52	0	1960	5507	3738	7520	4021	0	32858	32717	32747	32747	32810	32531	32585	32671	
53	0	1937	5453	3749	7523	4022	0	32780	32731	32877	32663	32823	32567	32621	32638	
54	0	1964	5500	3717	7516	4023	0	32833	33031	32806	32807	32775	32511	32676	32759	
55	0	1968	5486	3737	7524	4024	0	32748	33031	32769	32833	32743	32717	32611	32726	
56	0	1956	5462	3722	7536	4025	0	32818	33107	32695	32690	32803	32663	32703	32669	
57	0	2015	5481	3742	7492	4026	0	32772	33047	32659	32695	32781	32701	32749	32623	
58	0	1960	5508	3733	7531	4027	0	32726	32827	32611	32767	32847	32711	32737	32819	
59	0	1968	5440	3690	7538	4028	0	32647	32799	32655	32622	32877	32653	32809	32813	
60	0	1970	5503	3733	7478	4029	0	32644	32535	32596	32621	32771	32567	32694	32797	
61	0	1940	5482	3718	7476	4030	0	32681	32567	32677	32675	32511	32727	32597	32635	
62	0	1941	5472	3766	7490	4031	0	32783	32470	32569	32633	32679	32709	32727	32676	
63	0	1942	5492	3764	7512	4032	0	32929	32725	32583	32659	32903	32775	32711	32647	
64	0	1988	5489	3772	7509	4033	0	32972	32532	32735	32677	32914	32627	32683	32694	
65	0	2011	5513	3740	7518	4034	0	33083	32807	32815	32823	32855	32523	32703	32447	
66	0	1958	5496	3729	7475	4035	0	33049	32895	32930	32775	32798	32685	32725	32595	
67	0	2009	5522	3750	7534	4036	0	32966	32903	32877	32749	32789	32699	32639	32571	
68	0	1981	5477	3768	7512	4037	0	32682	32751	32885	32741	32715	32727	32703	32675	
69	0	1927	5508	3719	7501	4038	0	32677	32773	32551	32735	32751	32583	32755	32595	
70	0	1983	5522	3713	7516	4039	0	32605	32789	32439	32858	32775	32788	32747	32643	
71	0	1956	5493	3748	7468	4040	0	32445	32635	32513	32814	32746	32679	32639	32667	
72	0	2009	5503	3696	7541	4041	0	32411	32827	32605	32623	32868	32719	32721	32765	
73	0	1908	5521	3785	7518	4042	0	32378	32773	32615	32695	32836	32815	32711	32727	
74	0	1962	5460	3740	7496	4043	0	32451	32842	32597	32727	32767	32548	32711	32811	
75	0	1933	5493	3737	7539	4044	0	32878	32669	32667	32749	32767	32679	32803	32605	
76	0	1978	5486	3750	7496	4045	0	32962	32597	32693	32608	32759	32679	32735	32684	
77	0	1956	5504	3760	7532	4046	0	33042	32499	32734	32705	32693	32694	32591	32796	
78	0	1976	5501	3745	7516	4047	0	33102	32335	32815	32747	32643	32799	32583	32722	
79	0	1970	5514	3758	7452	4048	0	33091	32847	32822	32595	32665	32577	32583	32743	
80	0	1967	5502	3705	7513	4049	0	32940	32847	33106	32671	32679	32535	32683	32609	
81	0	2018	5502	3785	7488	4050	0	32894	32855	33106	32751	32775	32763	32769	32815	
82	0	1984	5467	3760	7530	4051	0	32665	32767	32986	32741	32836	32775	32767	32677	
83	0	1978	5503	3766	7490	4052	0	32382	32627	32749	32743	32850	32721	32747	32715	
84	0	1950	5472	3773	7522	4053	0	32289	32765	32795	32763	32786	32591	32767	32559	
85	0	1950	5529	3732	7540	4054	0	32391	32607	32719	32821	32836	32711	32663	32501	
86	0	1990	5511	3771	7476	4055	0	32444	32677	32551	32913	32759	32723	32713	32549	
87	0	1956	5486	3768	7459	4056	0	32612	32475	32596	32937	32727	32733	32708	32507	
88	0	1955	5500	3688	7477	4057	0	32807	32590	32759	32742	32830	32540	32766	32659	
89	0	1967	5469	3670	7516	4058	0	32964	32403	32748	32751	32767	32749	32813	32763	
90	0	1949	5468	3770	7508	4059	0	32951	32621	32757	32734	32774	32647	32787	32570	
91	0	2000	5472	3758	7454	4060	0	33042	32503	32775	32775	32687	32709	32647	32705	
92	0	1999	5430	3779	7492	4061	0	32903	32925	32855	32807	32683	32527	32610	32695	
93	0	1933	5520	3722	7513	4062	0	32820	33031	33011	32513	32729	32603	32603	32758	
94	0	1969	5483	3753	7501	4063	0	32693	33037	33063	32503	32786	32767	32587	32635	
95	0	1989	5477	3761	7491	4064	0	32561	33145	32889	32559	32850	32699	32742	32569	
96	0	1943	5486	3737	7486	4065	0	32503	33028	32847	32628	32789	32573	32751	32767	
97	0	1959	5496	3735	7520	4066	0	32573	33065	32847	32700	32807	32647	32679	32775	
98	0	1936	5497	3743	7556	4067	0	32647	32729	32891	32787	32699	32615	32604	32809	
99	0	1977	5444	3770	7478	4068	0	32832	32755	32863	32753	32787	32739	32695	32787	
100	0	1922	5487	3810	7509	4069	0	32927	32576	32836	32783	32743	32569	32667	32812	
101	0	1955	5472	3723	7476	4070	0	33031	32813	32819	32863	32823	32715	32719	32638	
102	0	1982	5530	3741	7491	4071	0	32999	32593	32818	32839	32870	32727	32726	32662	
103	0	1963	5479	3725	7457	4072	0	32879	32813	32695	32887	32789	32771	32751	32745	
104	0	1937	5509	3752	7516	4073	0	32834	32607	32599	32935	32750	32516	32687	32632	
105	0	1978	5490	3744	7489	4074	0	32890	32799	32599	32742	32739	32687	32711	32587	
106	0	1980	5540	3780	7536	4075	0	33078	32647	32639	32674	32822	32647	32679	32461	
107	0	1987	5483	3748	7492	4076	0	33013	32583	32663	32783	32831	32783	32762	32715	
108	0	2006	5501	3766	7483	4077	0	32937	32525	32647	32799	32775	32559	32799	32687	
109	0	1976	5479	3747	7506	4078	0	32724	32637	32625	32807	32751	32790	32759	32623	
110	0	1970	5485	3778	7476	4079	0	32509	32647	32629	32612	32727	32647	32749	32575	
111	0	1924	5517	3780	7484	4080	0	32226	32614	32647	32717	32749	32789	32806	32615	
112	0	1948	5478	3780	7490	4081	0	32074	32791	32647	32818	32715	32745	32766	32740	
113	0	1969	5516	3752	7476	4082	0	32263	32883	32750	32583	32771	32503	32731	32723	
114	0	1948	5489	3756	7509	4083	0	32489	33073	32791	32700	32914	32666	32763	32589	
115	0	1961	5540	3718	7556	4084	0	32663	32927	32771	32829	32751	32748	32635	32815	
116	0	1938	5501	3781	7487	4085	0	32692	32853	32796	32701	32717	32762	32565	32679	
117	0	1981	5508	3735	7485	4086	0	32828	32877	32854	32679	32726	32575	32609	32788	
118	0	1924	5496	3741	7492	4087	0	32943	32647	32983	32715	32733	32583	32683	32679	
119	0	2003	5536	3736	7546	4088	0	32999	32739	32923	32733	32727	32635	32703	32699	
120	0	1951	5502	3724	7506	4089	0	33001	32617	32885	32773	32775	32735	32763	32821	
121	0	1985	5486	3700	7498	4090	0	32945	32743	32871	32735	32775	32533	32727	32657	
122	0	1956	5526	3765	7453	4091	0	32871	32549	32765	32743	32795	32607	32771	32639	
123	0	1925	5499	3752	7523	4092	0	32919	32865	32789	32799	32709	32723	32819	32551	
124	0	1951	5508	3768	7458	4093	0	32943	32799	32731	32843	32798	32639	32839	32533	
125	0	1914	5512	3701	7456	4094	0	32848	32869	32742	32805	32879	32745	32669	32609	
126	0	2006	5516	3736	7516	4095	0	32883	32868	32687	32855	32850	32631	32671	32492	
127	0	1988	5528	3809	7451	4096	0	32897	32659	32695	32857	32804	32635	32735	32695	
128	0	2030	5524	3765	7512	4097	0	32900	32791	32739	32871	32740	32749	32771	32675	
129	0	1953	5494	3684	7490	4098	0	32820	32559	32733	32771	32687	32789	32759	32682	
130	0	1960	5515	3754	7488	4099	0	32794	32801	32676	32860	32771	32679	32748	32662	
131	0	1964	5453	3751	7459	4100	0	32842	32687	32556	32839	32843	32563	32745	32715	
132	0	1941	5489	3716	7458	4101	0	32795	32743	32471	32839	32807	32629	32807	32699	
133	0	1961	5473	3767	7496	4102	0	32812	32705	32451	32733	32819	32733	32655	32578	
134	0	1990	5480	3748	7473	4103	0	32871	32791	32518	32604	32717	32511	32615	32687	
135	0	1953	5508	3748	7458	4104	0	32856	32802	32508	32645	32690	32655	32665	32799	
136	0	1942	5485	3761	7509	4105	0	32824	32581	32420	32805	32797	32647	32646	32735	
137	0	1969	5492	3707	7490	4106	0	32740	32748	32455	32679	32775	32678	32767	32855	
138	0	1974	5534	3735	7492	4107	0	32754	32587	32634	32605	32819	32625	32804	32826	
139	0	1921	5462	3708	7518	4108	0	32696	32722	32803	32645	32775	32669	32756	32719	
140	0	1987	5501	3765	7489	4109	0	32583	32734	32879	32749	32775	32788	32716	32754	
141	0	1981	5503	3754	7448	4110	0	32657	32853	33005	32703	32690	32676	32644	32743	
142	0	1945	5507	3751	7489	4111	0	32701	32743	33068	32655	32717	32703	32805	32490	
143	0	1924	5458	3767	7465	4112	0	32758	32675	33106	32749	32837	32519	32679	32606	
144	0	1973	5498	3745	7461	4113	0	32775	32699	33075	32735	32748	32811	32741	32543	
145	0	1952	5489	3732	7476	4114	0	32797	32887	33045	32765	32814	32691	32763	32631	
146	0	1980	5475	3766	7472	4115	0	32773	32799	32964	32914	32829	32610	32674	32525	
147	0	1947	5510	3716	7495	4116	0	32742	32775	32841	32773	32725	32619	32742	32551	
148	0	1924	5433	3776	7440	4117	0	32755	32796	32799	32901	32775	32684	32765	32567	
149	0	1974	5508	3730	7509	4118	0	32735	32763	32871	32711	32788	32687	32620	32687	
150	0	1938	5481	3731	7520	4119	0	32791	32789	32721	32877	32785	32635	32731	32699	
151	0	1897	5478	3756	7478	4120	0	32754	32804	32715	32727	32751	32564	32738	32775	
152	0	1951	5482	3745	7485	4121	0	32768	32878	32591	32849	32698	32679	32711	32661	
153	0	1925	5497	3730	7499	4122	0	32800	32875	32785	32683	32812	32671	32751	32679	
154	0	1947	5523	3689	7466	4123	0	32780	32797	32735	32727	32756	32566	32720	32647	
155	0	1960	5528	3768	7448	4124	0	32821	32635	32733	32761	32773	32743	32647	32673	
156	0	1975	5445	3695	7518	4125	0	32785	32587	32717	32663	32773	32623	32751	32719	
157	0	1972	5508	3712	7498	4126	0	32775	32647	32759	32647	32626	32591	32707	32847	
158	0	1939	5524	3684	7456	4127	0	32823	32884	32615	32463	32620	32653	32663	32783	
159	0	1945	5491	3781	7470	4128	0	32784	32805	32498	32557	32775	32567	32749	32756	
160	0	1956	5492	3760	7486	4129	0	32937	32759	32487	32487	32815	32655	32719	32765	
161	0	1928	5534	3704	7481	4130	0	32896	32715	32557	32703	32725	32695	32661	32757	
162	0	1954	5502	3772	7488	4131	0	32978	32709	32679	32615	32797	32647	32759	32583	
163	0	1935	5525	3747	7460	4132	0	32903	32706	32982	32800	32867	32519	32755	32671	
164	0	1926	5505	3738	7433	4133	0	32741	32615	33052	32647	32843	32749	32694	32599	
165	0	1918	5501	3760	7499	4134	0	32826	32791	33207	32822	32767	32751	32759	32647	
166	0	1973	5456	3760	7468	4135	0	32721	32813	33242	32871	32855	32583	32746	32471	
167	0	1954	5469	3744	7490	4136	0	32666	32819	33351	32799	32809	32627	32699	32567	
168	0	1919	5504	3785	7481	4137	0	32615	32736	33197	32903	32702	32739	32775	32707	
169	0	1952	5506	3722	7493	4138	0	32646	32733	33236	32947	32724	32759	32766	32523	
170	0	1930	5476	3710	7468	4139	0	32580	32685	33131	32836	32741	32639	32597	32738	
171	0	1959	5483	3751	7422	4140	0	32508	32723	33006	32903	32797	32687	32725	32711	
172	0	1910	5561	3752	7456	4141	0	32348	32735	32677	32791	32753	32678	32703	32647	
173	0	1956	5470	3741	7463	4142	0	32364	32951	32733	32799	32784	32677	32793	32855	
174	0	1948	5512	3737	7478	4143	0	32487	32647	32667	32847	32677	32694	32775	32773	
175	0	1976	5515	3763	7465	4144	0	32526	32789	32570	32903	32669	32605	32727	32724	
176	0	1946	5488	3750	7498	4145	0	32591	32566	32615	32837	32756	32677	32623	32751	
177	0	1974	5464	3724	7480	4146	0	32643	32719	32559	32743	32796	32733	32639	32765	
178	0	1938	5508	3755	7516	4147	0	32775	32517	32494	32690	32799	32535	32638	32647	
179	0	1936	5510	3726	7481	4148	0	32826	32711	32404	32615	32859	32758	32807	32708	
180	0	1982	5484	3727	7473	4149	0	32824	32763	32466	32539	32845	32703	32749	32795	
181	0	1954	5490	3771	7496	4150	0	32926	32703	32483	32591	32863	32673	32775	32731	
182	0	1941	5489	3750	7476	4151	0	32903	32847	32503	32673	32833	32719	32763	32570	
183	0	1937	5509	3714	7440	4152	0	32866	32717	32463	32729	32868	32647	32807	32597	
184	0	1959	5476	3718	7501	4153	0	32881	32933	32491	32738	32775	32658	32707	32694	
185	0	1975	5517	3786	7480	4154	0	32903	32892	32499	32715	32805	32674	32682	32599	
186	0	1974	5512	3740	7480	4155	0	32916	33025	32623	32727	32867	32690	32700	32571	
187	0	1964	5487	3772	7508	4156	0	32889	32931	32693	32775	32791	32503	32759	32573	
188	0	1936	5496	3747	7472	4157	0	32910	33005	32759	32754	32805	32756	32858	32595	
189	0	1917	5488	3753	7489	4158	0	32945	32703	32754	32726	32759	32719	32711	32518	
190	0	1955	5504	3732	7492	4159	0	32831	32898	32687	32733	32753	32659	32739	32595	
191	0	1958	5498	3759	7524	4160	0	32784	32635	32741	32795	32683	32647	32615	32775	
192	0	1961	5481	3757	7453	4161	0	32869	32850	32903	32817	32763	32799	32621	32719	
193	0	1961	5454	3770	7453	4162	0	32876	32675	32965	32677	32839	32711	32671	32613	
194	0	1905	5486	3680	7496	4163	0	32826	32640	33095	32583	32812	32739	32679	32738	
195	0	1943	5520	3717	7504	4164	0	32834	32586	32935	32677	32791	32495	32731	32734	
196	0	1959	5472	3738	7490	4165	0	32854	32563	32883	32613	32735	32676	32695	32645	
197	0	1931	5499	3785	7477	4166	0	32789	32519	32603	32559	32685	32660	32730	32659	
198	0	1911	5525	3725	7452	4167	0	32654	32487	32415	32458	32645	32763	32717	32775	
199	0	1901	5481	3788	7500	4168	0	32587	32769	32514	32609	32706	32555	32669	32750	
200	0	1950	5526	3763	7490	4169	0	32549	32836	32679	32723	32850	32709	32647	32759	
201	0	1966	5496	3750	7518	4170	0	32615	32813	32819	32903	32797	32639	32699	32709	
202	0	1917	5517	3742	7464	4171	0	32584	32711	32811	32879	32790	32709	32743	32575	
203	0	1939	5498	3764	7501	4172	0	32678	32775	32701	32899	32775	32775	32629	32693	
204	0	1922	5496	3714	7490	4173	0	32744	32829	32809	32823	32761	32663	32647	32575	
205	0	1920	5456	3812	7468	4174	0	32702	32607	32972	32890	32871	32771	32626	32711	
206	0	1963	5528	3747	7457	4175	0	32800	32835	32972	32927	32889	32519	32735	32567	
207	0	1910	5518	3764	7466	4176	0	32887	32819	32919	32903	32877	32565	32749	32583	
208	0	1936	5469	3741	7464	4177	0	32854	32935	32791	32811	32839	32676	32668	32663	
209	0	1917	5484	3785	7466	4178	0	32842	32731	32786	32839	32748	32740	32731	32663	
210	0	1904	5457	3678	7460	4179	0	32763	32847	32948	32959	32647	32818	32686	32647	
211	0	1902	5540	3772	7484	4180	0	32816	32751	32948	32871	32647	32583	32822	32773	
212	0	1931	5516	3747	7484	4181	0	32855	32549	32983	32707	32606	32540	32695	32643	
213	0	1931	5515	3705	7506	4182	0	32866	32711	33069	32698	32647	32587	32715	32743	
214	0	1929	5486	3705	7493	4183	0	32879	32583	32943	32607	32687	32727	32626	32579	
215	0	1949	5489	3758	7443	4184	0	32815	32807	32749	32583	32839	32615	32697	32751	
216	0	1951	5537	3765	7493	4185	0	32700	32663	32647	32671	32775	32647	32762	32635	
217	0	1941	5508	3776	7445	4186	0	32663	32916	32611	32723	32710	32613	32756	32674	
218	0	1944	5533	3752	7456	4187	0	32655	32839	32587	32661	32735	32487	32647	32605	
219	0	1948	5490	3777	7493	4188	0	32759	32903	32647	32613	32740	32718	32663	32549	
220	0	1944	5512	3787	7467	4189	0	32731	32831	32694	32759	32775	32679	32662	32722	
221	0	1954	5533	3758	7430	4190	0	32778	32735	32711	32771	32713	32707	32578	32610	
222	0	1876	5485	3777	7514	4191	0	32781	32803	32767	32679	32755	32754	32663	32751	
223	0	1962	5514	3808	7481	4192	0	32790	32669	32771	32827	32817	32711	32675	32561	
224	0	1959	5511	3744	7494	4193	0	32757	32879	32771	32807	32815	32555	32671	32533	
225	0	1916	5529	3787	7468	4194	0	32691	32799	32775	32724	32887	32751	32775	32663	
226	0	1958	5506	3732	7456	4195	0	32707	32893	32756	32836	32732	32717	32785	32535	
227	0	1956	5482	3753	7480	4196	0	32732	32893	32666	32671	32679	32583	32767	32583	
228	0	1966	5493	3744	7512	4197	0	32760	32791	32684	32635	32769	32719	32775	32519	
229	0	1925	5508	3740	7468	4198	0	32773	32891	32743	32751	32797	32675	32813	32607	
230	0	1972	5482	3796	7440	4199	0	32762	32687	32858	32814	32739	32511	32759	32711	
231	0	1925	5529	3805	7468	4200	0	32756	32775	32812	32727	32829	32755	32695	32765	
232	0	1958	5478	3781	7509	4201	0	32732	32541	32785	32733	32802	32699	32735	32743	
233	0	1905	5530	3772	7448	4202	0	32784	32679	32831	32753	32818	32743	32797	32861	
234	0	1952	5527	3750	7492	4203	0	32737	32516	32820	32775	32727	32559	32677	32813	
235	0	1954	5512	3765	7496	4204	0	32745	32819	32839	32672	32775	32717	32637	32668	
236	0	1896	5510	3740	7475	4205	0	32775	32647	32827	32655	32775	32805	32615	32953	
237	0	1924	5537	3764	7448	4206	0	32839	32575	32796	32655	32695	32805	32623	32866	
238	0	1936	5509	3723	7435	4207	0	32864	32687	32757	32595	32696	32799	32687	32863	
239	0	1946	5513	3797	7469	4208	0	32853	32692	32630	32647	32683	32775	32691	32715	
240	0	1890	5508	3740	7462	4209	0	32797	32662	32615	32719	32658	32607	32607	32868	
241	0	1988	5518	3752	7520	4210	0	32778	32743	32621	32570	32751	32519	32633	32717	
242	0	1944	5532	3765	7480	4211	0	32574	32583	32751	32679	32695	32751	32637	32733	
243	0	1942	5498	3769	7477	4212	0	32559	32899	32743	32754	32862	32724	32711	32524	
244	0	1921	5504	3755	7494	4213	0	32684	32787	32775	32835	32855	32629	32739	32556	
245	0	1941	5472	3780	7476	4214	0	32775	32827	32849	32764	32826	32646	32703	32497	
246	0	1903	5473	3755	7467	4215	0	32827	32879	32773	32730	32801	32525	32735	32431	
247	0	1902	5507	3788	7479	4216	0	32876	32703	32759	32790	32763	32739	32703	32540	
248	0	1941	5512	3727	7467	4217	0	32823	32823	32749	32807	32742	32647	32716	32407	
249	0	1939	5497	3735	7455	4218	0	32798	32730	32797	32751	32767	32647	32647	32511	
250	0	1955	5462	3736	7469	4219	0	32764	32807	32727	32767	32679	32477	32543	32580	
251	0	1944	5512	3727	7524	4220	0	32734	32590	32687	32828	32694	32587	32643	32553	
252	0	1955	5469	3794	7492	4221	0	32708	32877	32671	32796	32703	32622	32756	32655	
253	0	1942	5486	3772	7504	4222	0	32726	32903	32679	32708	32858	32679	32748	32556	
254	0	1944	5488	3753	7489	4223	0	32748	33083	32679	32773	32826	32463	32731	32534	
255	0	1956	5540	3793	7484	4224	0	32828	32926	32789	32822	32767	32663	32815	32775	
256	0	1986	5517	3730	7488	4225	0	32819	32756	32868	32702	32791	32668	32735	32801	
257	0	1990	5510	3747	7488	4226	0	32844	32767	32900	32605	32869	32725	32695	32733	
258	0	1957	5509	3730	7475	4227	0	32795	32579	32885	32709	32739	32508	32710	32877	
259	0	1947	5552	3774	7499	4228	0	32822	32719	32943	32767	32727	32765	32822	32903	
260	0	1877	5497	3760	7488	4229	0	32684	32495	32855	32807	32766	32647	32839	32683	
261	0	1962	5508	3713	7483	4230	0	32676	32775	32790	32756	32805	32742	32745	32783	
262	0	1969	5502	3755	7469	4231	0	32728	32726	32799	32887	32855	32747	32797	32684	
263	0	1923	5517	3775	7494	4232	0	32762	32727	32869	32918	32763	32679	32759	32683	
264	0	1940	5512	3775	7493	4233	0	32846	33018	32835	32854	32803	32619	32798	32493	
265	0	1964	5493	3762	7493	4234	0	32863	32927	32718	32799	32815	32729	32767	32495	
266	0	1923	5456	3745	7464	4235	0	32720	32935	32663	32867	32791	32773	32748	32447	
267	0	1931	5458	3748	7446	4236	0	32748	32765	32564	32839	32751	32641	32813	32603	
268	0	1974	5556	3786	7505	4237	0	32756	32815	32501	32847	32770	32541	32791	32734	
269	0	1949	5480	3721	7491	4238	0	32800	32587	32407	32747	32871	32727	32827	32647	
270	0	1938	5507	3797	7525	4239	0	32863	32739	32477	32775	32875	32711	32812	32738	
271	0	1931	5490	3742	7486	4240	0	32869	32465	32564	32833	32769	32679	32811	32599	
272	0	1897	5434	3740	7525	4241	0	32818	32831	32804	32782	32735	32725	32834	32836	
273	0	1902	5500	3744	7500	4242	0	32788	32767	32898	32655	32767	32511	32767	32733	
274	0	1917	5525	3804	7453	4243	0	32772	32731	32915	32788	32813	32582	32595	32725	
275	0	1936	5486	3742	7513	4244	0	32806	32751	32751	32859	32716	32735	32647	32775	
276	0	1940	5509	3765	7442	4245	0	32839	32551	32775	32579	32690	32623	32687	32529	
277	0	1940	5490	3719	7452	4246	0	32799	32811	32775	32695	32775	32711	32751	32836	
278	0	1932	5505	3707	7496	4247	0	32772	32711	32647	32725	32695	32727	32659	32786	
279	0	1940	5500	3793	7502	4248	0	32769	32591	32758	32543	32666	32753	32607	32842	
280	0	1929	5536	3784	7497	4249	0	32845	32723	32790	32677	32713	32567	32671	32647	
281	0	1950	5472	3766	7523	4250	0	32871	32619	32702	32783	32765	32726	32796	32719	
282	0	1942	5523	3732	7506	4251	0	32903	32869	32647	32809	32775	32673	32804	32763	
283	0	1893	5510	3746	7490	4252	0	32743	32727	32573	32740	32799	32717	32738	32635	
284	0	1922	5480	3731	7470	4253	0	32609	33042	32563	32701	32767	32530	32684	32595	
285	0	1901	5473	3730	7502	4254	0	32477	32773	32641	32804	32751	32725	32671	32620	
286	0	1911	5478	3696	7547	4255	0	32468	32839	32762	32673	32815	32674	32748	32609	
287	0	1934	5489	3720	7480	4256	0	32601	32607	32903	32735	32794	32751	32741	32535	
288	0	1949	5480	3762	7458	4257	0	32530	32743	32973	32698	32838	32591	32694	32468	
289	0	1944	5539	3769	7475	4258	0	32510	32647	33012	32706	32829	32711	32725	32733	
290	0	1891	5548	3784	7483	4259	0	32579	32791	33027	32727	32694	32723	32647	32663	
291	0	1926	5527	3779	7492	4260	0	32669	32775	33007	32871	32637	32605	32635	32574	
292	0	1962	5518	3765	7456	4261	0	32773	32839	33019	32945	32775	32647	32756	32643	
293	0	1869	5484	3753	7520	4262	0	32810	32871	32962	32842	32775	32614	32677	32671	
294	0	1976	5480	3779	7467	4263	0	32847	32775	32967	32639	32731	32727	32694	32727	
295	0	1936	5508	3755	7487	4264	0	32836	32903	32939	32717	32787	32595	32627	32731	
296	0	1944	5506	3798	7469	4265	0	32767	32839	32879	32734	32667	32701	32647	32630	
297	0	1977	5490	3778	7500	4266	0	32653	32927	32879	32809	32834	32819	32700	32703	
298	0	1948	5473	3726	7487	4267	0	32727	32771	32676	32855	32845	32625	32751	32839	
299	0	1913	5504	3732	7494	4268	0	32738	32748	32671	32775	32743	32692	32749	32731	
300	0	1963	5481	3808	7542	4269	0	32700	32797	32657	32639	32767	32692	32775	32747	
301	0	1941	5520	3803	7474	4270	0	32732	32667	32797	32668	32745	32635	32751	32577	
302	0	1908	5541	3759	7488	4271	0	32769	32805	32850	32767	32703	32719	32738	32713	
303	0	1923	5478	3778	7458	4272	0	32802	32855	32799	32594	32747	32559	32723	32691	
304	0	1931	5471	3757	7458	4273	0	32854	32863	32711	32667	32711	32491	32687	32541	
305	0	1920	5485	3750	7480	4274	0	32903	32966	32612	32799	32639	32639	32702	32389	
306	0	1996	5530	3765	7486	4275	0	32925	32799	32529	32833	32747	32647	32671	32613	
307	0	1906	5558	3760	7480	4276	0	32922	32787	32542	32791	32767	32730	32709	32636	
308	0	1950	5510	3761	7440	4277	0	32935	32547	32578	32711	32853	32687	32677	32563	
309	0	1906	5511	3786	7477	4278	0	32884	32725	32643	32775	32855	32519	32738	32715	
310	0	1945	5512	3774	7458	4279	0	32871	32647	32726	32687	32876	32507	32687	32607	
311	0	1955	5507	3746	7488	4280	0	32855	32495	32759	32695	32823	32679	32679	32751	
312	0	1929	5513	3762	7478	4281	0	32816	32687	32849	32735	32803	32751	32753	32755	
313	0	1984	5486	3794	7474	4282	0	32824	32469	32834	32685	32757	32767	32729	32791	
314	0	1944	5544	3770	7492	4283	0	32756	32729	32791	32679	32803	32775	32707	32796	
315	0	1930	5534	3753	7516	4284	0	32742	32713	32743	32621	32786	32549	32748	32655	
316	0	1919	5487	3765	7494	4285	0	32699	32791	32671	32733	32819	32748	32775	32641	
317	0	1912	5489	3754	7534	4286	0	32629	32692	32687	32759	32763	32631	32667	32811	
318	0	1949	5481	3717	7441	4287	0	32661	32821	32785	32702	32725	32715	32599	32821	
319	0	1942	5509	3791	7483	4288	0	32615	32799	32647	32599	32787	32557	32673	32759	
320	0	1954	5486	3780	7450	4289	0	32668	32871	32727	32691	32854	32663	32731	32637	
321	0	1952	5525	3747	7460	4290	0	32775	32858	32658	32861	32756	32687	32735	32617	
322	0	1944	5509	3731	7458	4291	0	32784	32751	32739	32747	32710	32714	32811	32733	
323	0	1931	5493	3735	7528	4292	0	32846	32751	32663	32851	32739	32723	32775	32640	
324	0	1942	5532	3738	7452	4293	0	32887	32705	32775	32925	32715	32499	32788	32614	
325	0	1970	5488	3748	7479	4294	0	32841	32740	32749	32829	32759	32687	32751	32562	
326	0	1912	5552	3750	7485	4295	0	32829	32623	32770	32791	32789	32751	32767	32373	
327	0	1913	5536	3736	7462	4296	0	32788	32829	32734	32814	32790	32764	32791	32613	
328	0	1920	5539	3711	7446	4297	0	32723	32867	32722	32692	32815	32647	32687	32571	
329	0	1911	5469	3712	7492	4298	0	32841	32916	32487	32846	32857	32605	32751	32647	
330	0	1947	5508	3724	7512	4299	0	32937	32761	32453	32759	32765	32797	32669	32566	
331	0	1968	5513	3758	7482	4300	0	32981	32529	32468	32726	32775	32638	32751	32663	
332	0	1956	5504	3784	7451	4301	0	33084	32639	32525	32863	32642	32525	32687	32747	
333	0	1910	5481	3690	7490	4302	0	33004	32660	32562	32701	32775	32683	32756	32669	
334	0	1932	5454	3767	7482	4303	0	32943	32701	32556	32667	32839	32714	32647	32583	
335	0	1942	5473	3740	7512	4304	0	32832	32747	32403	32835	32707	32609	32711	32757	
336	0	1942	5490	3744	7460	4305	0	32674	32899	32401	32775	32775	32695	32756	32731	
337	0	1937	5504	3691	7442	4306	0	32564	32799	32583	32623	32725	32747	32610	32716	
338	0	1918	5506	3735	7440	4307	0	32423	32599	32743	32783	32800	32569	32677	32847	
339	0	1969	5512	3774	7474	4308	0	32376	32791	33014	32695	32831	32695	32581	32635	
340	0	1939	5526	3740	7452	4309	0	32455	32727	33170	32695	32687	32607	32743	32679	
341	0	1935	5465	3783	7453	4310	0	32456	32927	33261	32820	32807	32699	32767	32615	
342	0	1907	5471	3752	7470	4311	0	32494	32911	33220	32705	32749	32639	32885	32639	
343	0	1925	5506	3748	7507	4312	0	32617	32667	33247	32756	32883	32591	32879	32679	
344	0	1935	5483	3781	7463	4313	0	32722	32511	33063	32897	32922	32579	32791	32461	
345	0	1956	5493	3759	7488	4314	0	32720	32767	32957	32783	32770	32583	32847	32474	
346	0	1948	5536	3720	7470	4315	0	32732	32706	33023	32967	32820	32559	32711	32500	
347	0	1932	5528	3737	7488	4316	0	32751	32898	32979	32935	32801	32571	32759	32371	
348	0	1915	5514	3751	7432	4317	0	32734	32747	32887	32791	32775	32646	32773	32471	
349	0	1937	5475	3748	7494	4318	0	32699	32759	32757	32960	32803	32423	32631	32535	
350	0	1970	5509	3748	7486	4319	0	32638	32845	32819	32697	32697	32687	32747	32559	
351	0	1913	5525	3732	7476	4320	0	32652	32823	32831	32647	32759	32606	32719	32647	
352	0	1924	5507	3723	7459	4321	0	32711	32935	32859	32599	32671	32642	32551	32635	
353	0	1926	5498	3716	7485	4322	0	32705	33019	32855	32486	32686	32589	32591	32748	
354	0	1934	5472	3730	7488	4323	0	32680	33143	32871	32609	32735	32740	32402	32659	
355	0	1949	5478	3749	7464	4324	0	32655	33110	32943	32570	32680	32769	32431	32818	
356	0	1952	5468	3734	7456	4325	0	32535	32941	32829	32530	32646	32663	32455	32786	
357	0	1952	5522	3738	7443	4326	0	32540	32738	32775	32563	32633	32727	32282	32797	
358	0	1936	5544	3760	7470	4327	0	32658	32655	32891	32477	32591	32711	32311	32633	
359	0	1930	5534	3719	7471	4328	0	32739	32691	32933	32589	32487	32715	32178	32770	
360	0	1955	5541	3749	7457	4329	0	32593	32881	33125	32559	32319	32791	32135	32818	
361	0	1953	5474	3734	7489	4330	0	32655	32897	33131	32356	32351	32727	32060	32786	
362	0	1933	5524	3740	7475	4331	0	32647	32723	33139	32343	32407	32996	32165	32895	
363	0	1933	5508	3738	7457	4332	0	32692	32355	33142	32359	32470	33069	32086	32967	
364	0	1966	5508	3712	7460	4333	0	32873	32189	33223	32199	32519	32971	32167	32807	
365	0	1938	5502	3759	7449	4334	0	33005	32217	33179	32359	32421	33174	32151	32959	
366	0	1985	5522	3706	7488	4335	0	33068	32391	33221	32221	32531	33012	32095	32757	
367	0	1938	5502	3751	7456	4336	0	33012	32423	33103	32382	32532	32967	32221	32839	
368	0	1972	5534	3732	7513	4337	0	33031	32439	33127	32429	32489	33090	32422	32677	
369	0	1921	5550	3716	7534	4338	0	33083	32431	32939	32487	32655	33063	32583	32959	
370	0	1944	5467	3768	7476	4339	0	33270	32125	32959	32707	32799	32955	32711	33051	
371	0	1969	5540	3730	7485	4340	0	33302	31874	32927	32643	32791	33155	32717	33254	
372	0	1919	5539	3728	7478	4341	0	33227	31871	32876	32638	32923	33081	32871	33158	
373	0	1923	5506	3716	7484	4342	0	33222	32109	32879	32790	32988	32950	32927	33189	
374	0	1955	5494	3688	7481	4343	0	33263	32249	32767	32971	33095	33045	33146	33212	
375	0	1976	5467	3696	7474	4344	0	33299	32487	32773	33071	33027	32943	33129	33127	
376	0	1937	5496	3739	7454	4345	0	33279	32567	32577	33074	33142	32701	33267	33063	
377	0	1968	5547	3765	7475	4346	0	33165	32519	32535	33191	33119	32647	33187	32963	
378	0	1963	5497	3759	7484	4347	0	33142	32759	32423	33483	33182	32537	33444	32859	
379	0	1924	5512	3784	7497	4348	0	33096	32903	32333	33415	33219	32372	33599	32852	
380	0	1940	5501	3755	7445	4349	0	32980	33125	32077	33687	33279	32332	33687	32713	
381	0	1966	5495	3782	7493	4350	0	32822	33375	32015	33687	33353	32365	33835	32589	
382	0	1957	5519	3716	7508	4351	0	32698	33335	31698	33623	33319	32335	33837	32247	
383	0	1948	5538	3691	7472	4352	0	32598	33335	31459	33633	33375	32177	33951	32287	
384	0	1953	5481	3728	7452	4353	0	32545	33380	31463	33767	33466	32159	33915	32135	
385	0	1925	5526	3748	7456	4354	0	32568	33655	31355	33593	33532	32039	34108	32066	
386	0	1952	5504	3717	7510	4355	0	32662	33607	31570	33730	33602	32167	33981	31815	
387	0	1930	5489	3741	7478	4356	0	32533	33475	31772	33410	33409	32279	33654	32046	
388	0	1939	5560	3742	7476	4357	0	32468	33426	32078	33023	33067	32191	33429	32225	
389	0	1952	5543	3726	7500	4358	0	32391	33327	32287	32965	32983	32305	32943	32355	
390	0	1905	5512	3756	7490	4359	0	32505	33126	32535	32588	32831	32323	32895	32220	
391	0	1957	5512	3769	7464	4360	0	32471	33047	32551	32423	32621	32318	32597	32324	
392	0	1946	5535	3779	7486	4361	0	32359	32983	32627	32279	32631	32332	32635	32351	
393	0	1933	5498	3720	7455	4362	0	32412	32965	32638	32303	32550	32525	32453	32455	
394	0	1925	5494	3745	7480	4363	0	32338	32677	32772	32315	32549	32495	32411	32481	
395	0	1955	5506	3706	7497	4364	0	32391	32527	32955	32245	32511	32313	32271	32561	
396	0	1921	5506	3722	7458	4365	0	32455	32420	33045	32347	32403	32558	32263	32445	
397	0	1960	5529	3745	7454	4366	0	32580	32575	33157	32366	32517	32607	32169	32719	
398	0	1924	5513	3748	7498	4367	0	32593	32647	33159	32389	32359	32681	32183	32767	
399	0	1944	5515	3736	7461	4368	0	32511	32793	33195	32295	32511	32591	32060	32895	
400	0	1965	5530	3747	7459	4369	0	32497	32749	33101	32473	32511	32716	32183	32623	
401	0	1982	5492	3774	7453	4370	0	32615	32540	33215	32471	32455	32642	32235	32631	
402	0	1968	5520	3769	7468	4371	0	32748	32495	33127	32413	32591	32803	32263	32543	
403	0	1920	5520	3766	7500	4372	0	32750	32551	33173	32629	32663	32823	32428	32602	
404	0	1918	5509	3790	7461	4373	0	32607	32534	33099	32647	32533	32647	32357	32390	
405	0	1942	5514	3748	7468	4374	0	32541	32454	33121	32711	32734	32815	32551	32315	
406	0	1946	5556	3727	7480	4375	0	32685	32515	32953	32747	32807	32815	32541	32403	
407	0	1934	5485	3731	7464	4376	0	32835	32719	32823	32625	32658	32619	32631	32503	
408	0	1946	5528	3765	7480	4377	0	32933	32597	32759	32711	32723	32839	32605	32683	
409	0	1953	5509	3742	7474	4378	0	32994	32655	32879	32685	32714	32765	32503	32775	
410	0	1940	5500	3765	7504	4379	0	33051	33051	32986	32619	32743	32707	32561	32639	
411	0	1921	5493	3774	7479	4380	0	33066	33081	32903	32703	32787	32811	32561	32903	
412	0	1958	5514	3748	7514	4381	0	32983	33133	32918	32635	32773	32846	32660	32835	
413	0	1937	5509	3748	7515	4382	0	32863	33135	32839	32561	32763	32623	32607	32759	
414	0	1948	5508	3738	7498	4383	0	32540	33135	32919	32655	32807	32807	32615	32773	
415	0	1976	5526	3733	7465	4384	0	32510	33009	32834	32641	32775	32790	32735	32903	
416	0	1956	5508	3732	7475	4385	0	32525	32775	32871	32831	32662	32831	32759	32859	
417	0	1956	5520	3743	7498	4386	0	32646	32497	32935	32823	32735	32597	32571	32957	
418	0	1953	5604	3723	7479	4387	0	32679	32247	32839	32941	32772	32751	32677	32903	
419	0	1922	5522	3730	7468	4388	0	32731	32231	32710	32758	32638	32729	32583	33001	
420	0	1957	5524	3739	7461	4389	0	32784	32549	32623	32807	32738	32543	32706	32937	
421	0	1941	5516	3752	7520	4390	0	33019	32647	32644	32841	32647	32763	32674	32951	
422	0	1963	5496	3770	7478	4391	0	33027	32870	32702	32691	32759	32798	32758	32585	
423	0	1953	5484	3717	7457	4392	0	32963	32943	32819	32863	32837	32739	32767	32647	
424	0	1956	5532	3774	7452	4393	0	32937	33044	32839	32867	32839	32771	32681	32586	
425	0	1974	5457	3749	7468	4394	0	32877	33055	32839	32816	32839	32623	32679	32487	
426	0	1958	5508	3760	7499	4395	0	32861	33095	32889	32726	32887	32851	32791	32419	
427	0	1968	5517	3723	7435	4396	0	32677	32847	32839	32710	32811	32738	32706	32447	
428	0	1942	5507	3746	7462	4397	0	32508	32775	32874	32771	32745	32749	32727	32559	
429	0	1992	5498	3747	7486	4398	0	32525	32890	32895	32613	32775	32791	32715	32695	
430	0	1923	5503	3748	7503	4399	0	32615	32679	32923	32715	32767	32677	32740	32583	
431	0	1959	5476	3742	7512	4400	0	32730	32775	32901	32813	32770	32594	32729	32643	
432	0	1909	5521	3752	7469	4401	0	32735	32699	32836	32762	32735	32579	32701	32877	
433	0	1960	5485	3727	7494	4402	0	32764	32577	32858	32679	32695	32759	32709	32799	
434	0	1887	5533	3729	7532	4403	0	32808	32743	32813	32751	32655	32719	32705	32755	
435	0	1915	5522	3698	7453	4404	0	32870	32627	32719	32763	32747	32749	32612	32758	
436	0	1955	5500	3774	7474	4405	0	32903	32615	32755	32647	32765	32583	32613	32841	
437	0	1950	5486	3776	7476	4406	0	32849	32611	32647	32702	32762	32674	32619	32919	
438	0	1953	5497	3780	7419	4407	0	32884	32524	32659	32751	32735	32679	32738	32967	
439	0	1966	5516	3725	7528	4408	0	32903	32663	32634	32830	32818	32711	32775	32850	
440	0	1986	5520	3713	7482	4409	0	32947	32615	32583	32831	32739	32487	32773	32798	
441	0	1924	5520	3762	7468	4410	0	32935	32751	32642	32723	32903	32749	32751	32871	
442	0	1975	5493	3722	7478	4411	0	32892	32637	32685	32667	32827	32679	32670	32639	
443	0	1957	5532	3727	7472	4412	0	32756	33039	32579	32756	32822	32739	32694	32575	
444	0	1928	5497	3736	7464	4413	0	32638	32899	32601	32828	32823	32631	32719	32511	
445	0	1974	5491	3731	7466	4414	0	32652	32825	32551	32743	32847	32593	32687	32321	
446	0	1900	5518	3775	7458	4415	0	32599	32679	32613	32873	32819	32731	32799	32247	
447	0	1970	5508	3792	7498	4416	0	32722	32455	32609	32873	32771	32671	32695	32455	
448	0	1960	5527	3779	7517	4417	0	32644	32551	32645	32826	32671	32711	32841	32583	
449	0	1917	5528	3736	7462	4418	0	32647	32251	32736	32615	32692	32747	32703	32575	
450	0	1937	5510	3777	7509	4419	0	32645	32391	32765	32717	32818	32549	32751	32703	
451	0	1972	5540	3719	7448	4420	0	32838	32343	32739	32692	32711	32719	32791	32663	
452	0	1929	5504	3718	7450	4421	0	32878	32757	32835	32807	32754	32745	32683	32807	
453	0	1962	5488	3739	7474	4422	0	32806	32711	33005	32775	32738	32659	32621	32749	
454	0	1940	5494	3714	7469	4423	0	32667	32981	33198	32679	32656	32551	32670	32671	
455	0	1957	5500	3726	7473	4424	0	32645	33049	33155	32855	32709	32556	32749	32870	
456	0	1970	5520	3747	7488	4425	0	32531	33065	33051	32799	32723	32703	32738	32799	
457	0	1976	5498	3760	7456	4426	0	32572	33073	33077	32607	32763	32711	32647	32845	
458	0	1936	5519	3762	7505	4427	0	32565	32967	33063	32735	32803	32723	32695	33005	
459	0	1971	5496	3752	7507	4428	0	32615	33061	32951	32749	32789	32555	32717	33023	
460	0	1982	5540	3796	7514	4429	0	32765	32807	33007	32757	32805	32734	32791	32919	
461	0	1970	5520	3720	7484	4430	0	32858	32899	32802	32697	32821	32681	32705	32624	
462	0	1952	5514	3727	7510	4431	0	32848	32748	32615	32743	32775	32751	32628	32583	
463	0	1976	5499	3742	7477	4432	0	32958	32911	32582	32722	32754	32498	32825	32663	
464	0	1987	5484	3753	7480	4433	0	32955	32919	32500	32839	32842	32759	32805	32485	
465	0	1906	5509	3785	7464	4434	0	32933	32943	32239	32751	32895	32722	32727	32335	
466	0	1929	5561	3751	7488	4435	0	33043	32847	32135	32593	32850	32790	32732	32385	
467	0	1925	5533	3740	7500	4436	0	33024	32571	32199	32647	32834	32598	32733	32423	
468	0	1905	5494	3722	7486	4437	0	33039	32573	32455	32674	32749	32679	32799	32481	
469	0	1964	5507	3770	7493	4438	0	33031	32467	32704	32670	32783	32687	32887	32775	
470	0	1943	5540	3769	7486	4439	0	32964	32581	32871	32837	32756	32613	32724	32737	
471	0	1933	5446	3758	7484	4440	0	32869	32487	32835	32807	32658	32708	32628	32694	
472	0	1943	5495	3752	7481	4441	0	32799	32437	32946	32762	32607	32787	32525	32735	
473	0	1958	5494	3737	7491	4442	0	32617	32543	33139	32746	32750	32687	32695	32775	
474	0	1965	5437	3738	7498	4443	0	32538	32767	33174	32799	32807	32703	32731	32711	
475	0	2031	5512	3699	7496	4444	0	32563	32850	33191	32675	32775	32767	32739	32697	
476	0	1955	5499	3713	7484	4445	0	32601	33020	32983	32695	32788	32791	32718	32675	
477	0	1955	5514	3733	7448	4446	0	32644	33083	33106	32711	32830	32514	32711	32895	
478	0	1976	5496	3804	7493	4447	0	32692	32751	32987	32629	32757	32629	32738	32871	
479	0	1981	5492	3716	7485	4448	0	32642	32963	32946	32711	32749	32647	32671	32903	
480	0	1994	5485	3752	7517	4449	0	32635	32812	32826	32725	32669	32615	32724	32687	
481	0	1958	5501	3716	7528	4450	0	32663	32738	32635	32647	32751	32665	32799	32735	
482	0	1981	5485	3760	7479	4451	0	32660	33013	32476	32767	32700	32519	32727	32663	
483	0	1954	5510	3694	7493	4452	0	32708	32703	32523	32815	32773	32827	32677	32543	
484	0	1984	5535	3790	7491	4453	0	32690	32990	32458	32791	32865	32685	32701	32445	
485	0	1978	5506	3729	7501	4454	0	32814	32918	32471	32673	32935	32799	32745	32359	
486	0	1984	5507	3716	7545	4455	0	32874	32915	32615	32796	32842	32573	32775	32211	
487	0	2001	5494	3711	7506	4456	0	33036	32845	32771	32863	32769	32610	32813	32461	
488	0	1937	5478	3776	7462	4457	0	32956	32647	32764	32749	32741	32741	32812	32604	
489	0	1986	5528	3709	7460	4458	0	32997	32775	32773	32699	32698	32687	32847	32614	
490	0	1987	5494	3727	7461	4459	0	32956	32415	32838	32765	32751	32709	32767	32724	
491	0	1999	5472	3692	7460	4460	0	32948	32567	32823	32842	32787	32562	32743	32681	
492	0	1946	5465	3765	7460	4461	0	32959	32489	32884	32855	32839	32663	32751	32658	
493	0	1932	5519	3734	7500	4462	0	32911	32434	32903	32839	32806	32703	32683	32662	
494	0	1995	5513	3706	7518	4463	0	32684	32543	32881	32879	32860	32636	32687	32833	
495	0	1961	5520	3744	7510	4464	0	32423	32439	32742	32831	32694	32723	32636	32775	
496	0	1966	5521	3725	7522	4465	0	32459	32745	32719	32687	32726	32556	32583	32740	
497	0	1923	5558	3784	7508	4466	0	32421	32757	32615	32669	32806	32735	32671	32871	
498	0	1958	5544	3715	7490	4467	0	32578	33065	32722	32739	32786	32723	32699	32807	
499	0	1970	5464	3732	7490	4468	0	32682	33117	32706	32557	32803	32655	32655	33069	
500	0	1956	5475	3731	7476	4469	0	32727	32943	32671	32591	32844	32751	32711	32955	
501	0	1953	5458	3756	7488	4470	0	32699	33076	32663	32647	32759	32606	32754	32769	
502	0	1949	5520	3758	7484	4471	0	32696	32903	32775	32647	32802	32715	32727	32615	
503	0	1985	5475	3686	7484	4472	0	32751	32839	32939	32759	32807	32655	32622	32567	
504	0	1936	5478	3760	7456	4473	0	32751	32863	32934	32769	32882	32771	32711	32447	
505	0	1951	5508	3738	7496	4474	0	32767	32772	32875	32885	32713	32757	32741	32364	
506	0	1960	5507	3717	7457	4475	0	32760	32803	32755	32819	32829	32749	32868	32319	
507	0	1956	5496	3688	7482	4476	0	32780	32538	32811	32699	32775	32495	32756	32317	
508	0	1962	5533	3749	7468	4477	0	32833	32499	32723	32727	32799	32729	32708	32551	
509	0	1931	5501	3714	7456	4478	0	32841	32249	32675	32775	32690	32717	32695	32689	
510	0	1972	5457	3720	7535	4479	0	32903	32485	32743	32754	32643	32538	32733	32781	
511	0	1967	5528	3690	7500	4480	0	32951	32415	32854	32662	32695	32575	32695	32691	
512	0	1955	5482	3739	7504	4481	0	32848	32711	32772	32671	32722	32663	32771	32749	
513	0	1988	5498	3731	7472	4482	0	32855	32554	32775	32735	32732	32702	32775	32843	
514	0	1973	5528	3776	7459	4483	0	32738	32663	32667	32863	32799	32775	32721	32811	
515	0	1987	5502	3747	7488	4484	0	32680	32681	32543	32679	32718	32570	32701	32759	
516	0	1955	5531	3688	7476	4485	0	32628	32935	32538	32551	32819	32711	32677	32636	
517	0	1955	5512	3723	7466	4486	0	32684	33004	32619	32629	32659	32711	32699	32863	
518	0	1944	5495	3715	7474	4487	0	32748	32965	32646	32669	32660	32655	32677	33063	
519	0	1938	5507	3723	7513	4488	0	32767	33115	32711	32711	32810	32735	32607	33029	
520	0	1968	5482	3689	7458	4489	0	32663	33006	32921	32647	32931	32503	32646	32879	
521	0	1931	5540	3678	7457	4490	0	32620	33069	32991	32836	32869	32585	32695	32769	
522	0	1931	5502	3755	7488	4491	0	32678	32747	33054	32903	32761	32667	32676	32567	
523	0	1940	5542	3712	7500	4492	0	32804	32763	32959	33001	32721	32711	32679	32421	
524	0	1961	5536	3678	7472	4493	0	32975	32551	32951	32879	32753	32604	32764	32353	
525	0	1938	5491	3704	7468	4494	0	33092	32615	32879	32821	32866	32797	32764	32239	
526	0	2011	5502	3701	7440	4495	0	33056	32507	32753	32925	32901	32727	32767	32391	
527	0	1893	5493	3740	7456	4496	0	32959	32589	32647	32955	32862	32734	32693	32479	
528	0	1956	5518	3720	7468	4497	0	32700	32647	32479	33031	32798	32596	32685	32637	
529	0	1905	5488	3722	7469	4498	0	32749	32631	32505	32903	32701	32643	32669	32691	
530	0	1915	5497	3723	7477	4499	0	32716	32747	32579	32619	32805	32617	32751	32685	
531	0	1985	5555	3693	7446	4500	0	32631	32799	32607	32499	32727	32705	32735	32743	
532	0	1928	5522	3721	7448	4501	0	32573	33188	32647	32582	32749	32577	32679	32720	
533	0	1923	5506	3720	7444	4502	0	32375	33177	32795	32679	32775	32647	32711	32663	
534	0	2007	5509	3736	7504	4503	0	32411	33096	32887	32701	32703	32679	32735	32569	
535	0	1978	5492	3726	7462	4504	0	32647	32830	32940	32655	32643	32811	32617	32703	
536	0	1946	5502	3692	7454	4505	0	32710	32855	32959	32647	32797	32670	32631	32866	
537	0	1917	5519	3694	7473	4506	0	32759	32647	32927	32829	32745	32532	32541	32877	
538	0	1991	5573	3686	7478	4507	0	32769	32559	32759	32731	32679	32719	32659	32975	
539	0	1970	5488	3746	7455	4508	0	32812	32531	32711	32607	32775	32684	32687	32903	
540	0	1931	5505	3724	7452	4509	0	32806	32714	32910	32646	32687	32525	32724	32817	
541	0	1925	5538	3707	7468	4510	0	32756	32855	32929	32711	32695	32501	32759	32806	
542	0	1934	5488	3702	7446	4511	0	32838	32771	32953	32676	32765	32719	32707	32534	
543	0	1974	5467	3716	7470	4512	0	32795	32845	32955	32676	32795	32689	32756	32391	
544	0	1937	5538	3736	7491	4513	0	32868	32913	32935	32865	32811	32738	32743	32479	
545	0	1949	5509	3707	7500	4514	0	32914	32803	32949	32756	32825	32703	32767	32423	
546	0	1936	5503	3746	7459	4515	0	32940	32949	32871	32898	32903	32813	32799	32391	
547	0	1990	5502	3732	7499	4516	0	32962	32827	32631	32788	32855	32530	32879	32523	
548	0	1931	5499	3685	7466	4517	0	32908	32655	32827	32723	32839	32695	32850	32582	
549	0	1934	5521	3699	7489	4518	0	32918	32567	32959	32696	32695	32731	32713	32695	
550	0	1949	5470	3717	7486	4519	0	32980	32647	32797	32834	32737	32500	32719	32591	
551	0	1966	5534	3714	7487	4520	0	32828	32635	32508	32671	32835	32735	32719	32725	
552	0	1927	5518	3712	7466	4521	0	32617	32681	32510	32743	32724	32743	32751	32809	
553	0	1956	5520	3725	7457	4522	0	32548	32811	32631	32926	32846	32518	32707	32679	
554	0	1941	5521	3699	7459	4523	0	32453	32823	32573	32765	32791	32695	32722	32821	
555	0	1930	5506	3711	7446	4524	0	32483	32738	32557	32638	32828	32759	32699	32775	
556	0	1934	5512	3720	7498	4525	0	32552	32658	32493	32749	32719	32549	32663	32725	
557	0	1898	5496	3692	7484	4526	0	32681	32684	32711	32713	32627	32742	32717	32775	
558	0	1988	5486	3717	7481	4527	0	32765	32588	32733	32647	32750	32743	32572	32815	
559	0	1928	5506	3707	7485	4528	0	32796	32437	32943	32887	32799	32535	32742	32951	
560	0	1989	5480	3727	7456	4529	0	32802	32359	32802	32759	32679	32748	32733	32855	
561	0	1956	5549	3719	7493	4530	0	32965	32519	32855	32833	32834	32762	32739	32743	
562	0	1974	5487	3736	7490	4531	0	32987	32402	32860	32871	32878	32543	32799	32687	
563	0	1940	5498	3693	7470	4532	0	33015	32390	32743	32755	32775	32703	32732	32354	
564	0	1965	5524	3722	7490	4533	0	32935	32731	32716	32789	32797	32748	32813	32471	
565	0	1963	5496	3729	7480	4534	0	32826	32871	32673	32747	32931	32611	32838	32501	
566	0	1968	5538	3712	7485	4535	0	32794	33055	32731	32593	32839	32751	32791	32331	
567	0	1973	5499	3748	7423	4536	0	32732	33069	32755	32706	32782	32721	32735	32469	
568	0	1949	5495	3715	7496	4537	0	32692	33143	32707	32591	32748	32718	32591	32599	
569	0	1981	5502	3701	7480	4538	0	32704	33267	32667	32705	32703	32709	32756	32638	
570	0	1956	5476	3712	7452	4539	0	32825	33183	32775	32685	32759	32621	32691	32687	
571	0	1952	5463	3754	7465	4540	0	32839	33185	32685	32642	32799	32505	32723	32837	
572	0	1957	5536	3730	7468	4541	0	32878	32935	32756	32735	32735	32731	32658	32595	
573	0	1978	5508	3703	7460	4542	0	32888	32695	32676	32929	32813	32701	32751	32863	
574	0	1956	5498	3700	7441	4543	0	32853	32695	32731	32823	32695	32635	32627	32719	
575	0	1938	5504	3718	7456	4544	0	32748	32639	32745	32679	32795	32663	32716	32811	
576	0	1980	5454	3705	7459	4545	0	32695	32687	32759	32850	32783	32635	32687	32682	
577	0	1963	5508	3715	7469	4546	0	32647	32539	32799	32751	32775	32590	32790	32867	
578	0	1970	5524	3756	7484	4547	0	32504	32402	32623	32711	32828	32621	32759	32991	
579	0	1984	5494	3714	7440	4548	0	32551	32627	32733	32855	32671	32453	32647	32818	
580	0	1964	5502	3702	7491	4549	0	32631	32794	32733	32829	32749	32647	32701	32956	
581	0	2007	5519	3748	7424	4550	0	32647	32995	32855	32767	32767	32738	32643	32669	
582	0	1933	5513	3718	7480	4551	0	32641	33054	33013	32831	32773	32557	32791	32687	
583	0	1973	5504	3720	7469	4552	0	32642	32893	32959	32755	32869	32733	32695	32447	
584	0	1930	5500	3729	7481	4553	0	32764	32871	32646	32615	32772	32725	32775	32504	
585	0	1974	5539	3692	7457	4554	0	32983	32991	32721	32711	32863	32773	32726	32391	
586	0	1926	5517	3770	7437	4555	0	33137	32927	32927	32879	32901	32730	32847	32390	
587	0	1938	5500	3703	7451	4556	0	33296	32775	32815	32711	32719	32566	32773	32391	
588	0	1954	5485	3708	7470	4557	0	33281	32871	32877	32835	32799	32685	32775	32507	
589	0	1945	5493	3747	7462	4558	0	33083	32758	32769	32844	32795	32766	32767	32647	
590	0	1984	5496	3728	7446	4559	0	32903	32679	32751	32647	32711	32591	32701	32615	
591	0	1941	5517	3759	7448	4560	0	32619	32457	32636	32719	32743	32663	32751	32699	
592	0	1984	5535	3667	7509	4561	0	32292	32365	32780	32679	32801	32691	32743	32811	
593	0	1936	5487	3747	7492	4562	0	32167	32559	32870	32827	32709	32565	32867	32663	
594	0	1956	5497	3696	7502	4563	0	32232	32543	32976	32683	32763	32703	32727	32719	
595	0	2014	5484	3680	7483	4564	0	32446	32502	32847	32741	32844	32723	32637	32821	
596	0	1968	5493	3726	7430	4565	0	32759	32516	32811	32749	32767	32437	32775	32723	
597	0	1956	5514	3690	7474	4566	0	32820	32415	32647	32667	32781	32628	32711	32775	
598	0	1967	5514	3729	7479	4567	0	32718	32311	32646	32899	32829	32674	32738	32958	
599	0	1944	5498	3744	7481	4568	0	32553	32407	32647	32715	32719	32575	32729	32858	
600	0	1945	5502	3698	7439	4569	0	32526	32631	32594	32740	32754	32693	32663	32910	
601	0	1952	5494	3703	7482	4570	0	32514	32723	32385	32935	32835	32590	32709	32747	
602	0	1915	5508	3699	7512	4571	0	32632	32970	32427	32743	32719	32791	32663	32493	
603	0	1941	5497	3740	7484	4572	0	32833	33220	32543	32764	32823	32700	32829	32543	
604	0	1990	5516	3752	7508	4573	0	32999	33174	32667	32862	32811	32605	32683	32487	
605	0	1988	5493	3719	7460	4574	0	33065	33495	32999	32865	32862	32687	32802	32407	
606	0	1986	5531	3721	7482	4575	0	32886	33485	32997	32807	32866	32756	32791	32279	
607	0	1967	5484	3704	7509	4576	0	32767	33227	32991	32850	32694	32615	32860	32411	
608	0	1961	5510	3713	7494	4577	0	32695	33071	32902	32707	32831	32631	32756	32546	
609	0	1973	5512	3732	7480	4578	0	32730	32987	32871	32634	32851	32566	32807	32647	
610	0	2000	5545	3715	7497	4579	0	32758	32623	32766	32679	32775	32695	32662	32743	
611	0	1953	5498	3751	7485	4580	0	32852	32558	32711	32725	32839	32687	32751	32530	
612	0	1916	5492	3703	7491	4581	0	32975	32605	32863	32597	32775	32585	32827	32669	
613	0	1956	5567	3721	7474	4582	0	32978	32611	32836	32737	32683	32594	32667	32669	
614	0	1986	5534	3686	7476	4583	0	32863	32711	32875	32791	32794	32678	32695	32775	
615	0	1962	5532	3714	7510	4584	0	32870	32775	32719	32831	32847	32659	32703	32727	
616	0	1985	5524	3702	7501	4585	0	32767	32950	32759	32831	32708	32412	32727	32697	
617	0	1968	5528	3767	7500	4586	0	32692	32767	32715	32647	32759	32613	32647	32765	
618	0	1988	5501	3706	7480	4587	0	32519	32745	32655	32893	32831	32589	32605	32844	
619	0	1956	5537	3738	7464	4588	0	32481	32601	32690	32703	32762	32716	32877	32903	
620	0	1969	5513	3744	7439	4589	0	32444	32557	32692	32847	32834	32602	32789	32858	
621	0	1965	5492	3780	7452	4590	0	32607	32599	32791	32763	32871	32667	32723	32743	
622	0	1965	5542	3736	7484	4591	0	32619	32433	32748	32739	32757	32775	32763	32551	
623	0	1987	5523	3755	7477	4592	0	32756	32484	32739	32927	32813	32813	32745	32599	
624	0	1959	5524	3712	7481	4593	0	32751	32391	32863	32894	32775	32707	32798	32427	
625	0	1981	5472	3735	7513	4594	0	32853	32471	32828	32819	32879	32530	32708	32447	
626	0	1914	5518	3689	7451	4595	0	32925	32917	32786	32799	32755	32757	32899	32412	
627	0	1967	5554	3752	7474	4596	0	32982	33023	32675	32695	32773	32701	32812	32484	
628	0	1988	5523	3732	7460	4597	0	32973	33043	32718	32819	32739	32668	32655	32466	
629	0	1939	5558	3754	7496	4598	0	32867	32885	32642	32699	32814	32579	32743	32687	
630	0	1984	5529	3736	7476	4599	0	32804	32847	32639	32655	32819	32700	32603	32733	
631	0	1969	5557	3714	7482	4600	0	32836	32711	32587	32677	32647	32663	32695	32698	
632	0	1969	5464	3756	7466	4601	0	32836	32579	32690	32612	32751	32797	32621	32817	
633	0	1956	5513	3714	7476	4602	0	32872	32647	32727	32831	32845	32682	32841	32894	
634	0	1979	5540	3723	7510	4603	0	32802	32867	32815	32786	32743	32503	32676	32717	
635	0	1916	5509	3734	7542	4604	0	32759	32719	32715	32711	32797	32711	32749	32711	
636	0	1951	5481	3746	7490	4605	0	32812	32739	32721	32859	32701	32705	32722	32775	
637	0	1961	5550	3678	7526	4606	0	32807	32659	32743	32639	32767	32535	32607	32978	
638	0	1985	5480	3715	7481	4607	0	32812	32559	32814	32446	32775	32642	32679	32869	
639	0	1955	5539	3734	7472	4608	0	32738	32635	32723	32411	32739	32613	32647	32935	
640	0	1974	5499	3751	7479	4609	0	32630	32837	32647	32400	32733	32759	32715	32911	
641	0	1955	5506	3671	7474	4610	0	32686	32791	32810	32461	32831	32722	32661	32607	
642	0	1948	5507	3735	7453	4611	0	32775	32887	32761	32692	32767	32637	32742	32626	
643	0	2009	5548	3786	7495	4612	0	32807	33023	32658	32775	32813	32678	32655	32503	
644	0	2009	5493	3746	7496	4613	0	32710	33031	32635	32867	32738	32691	32853	32438	
645	0	1980	5507	3752	7470	4614	0	32662	32823	32589	33069	32839	32607	32763	32454	
646	0	1995	5523	3720	7490	4615	0	32709	32589	32607	32923	32895	32743	32871	32443	
647	0	2000	5552	3700	7480	4616	0	32676	32705	32739	32966	32722	32743	32775	32348	
648	0	1929	5498	3719	7501	4617	0	32562	32585	32847	32903	32775	32583	32610	32573	
649	0	1928	5480	3729	7480	4618	0	32717	32557	32959	32836	32718	32735	32679	32723	
650	0	1956	5516	3725	7488	4619	0	32820	32719	32903	32957	32814	32732	32709	32678	
651	0	1919	5512	3778	7448	4620	0	32859	32939	32844	32748	32698	32580	32663	32835	
652	0	1937	5484	3713	7497	4621	0	32761	32861	32879	32883	32775	32687	32661	32847	
653	0	1915	5544	3728	7454	4622	0	32703	32611	32931	32764	32756	32731	32603	32699	
654	0	1964	5496	3708	7478	4623	0	32631	32519	32823	32765	32741	32540	32722	32717	
655	0	1941	5508	3748	7460	4624	0	32572	32527	32685	32714	32709	32763	32674	32717	
656	0	1972	5498	3743	7420	4625	0	32586	32459	32783	32681	32775	32614	32647	32829	
657	0	1998	5522	3720	7512	4626	0	32741	32391	32935	32647	32727	32509	32695	32867	
658	0	1974	5535	3692	7493	4627	0	32837	32551	32901	32571	32756	32719	32662	32815	
659	0	1949	5502	3722	7480	4628	0	32926	32747	32903	32535	32669	32687	32607	32974	
660	0	1982	5507	3665	7506	4629	0	33056	33175	32702	32500	32743	32751	32738	32883	
661	0	1956	5478	3785	7474	4630	0	32994	33089	32743	32617	32751	32579	32687	32647	
662	0	1965	5503	3713	7460	4631	0	32849	32957	32743	32583	32767	32805	32679	32605	
663	0	1989	5553	3756	7471	4632	0	32716	32882	32708	32722	32678	32655	32743	32615	
664	0	1987	5524	3678	7414	4633	0	32720	33031	32647	32722	32811	32635	32629	32333	
665	0	1970	5520	3756	7491	4634	0	32732	32847	32615	32716	32822	32815	32799	32342	
666	0	1979	5500	3752	7504	4635	0	32814	32749	32685	32870	32829	32717	32839	32229	
667	0	1928	5503	3757	7455	4636	0	32689	32671	32775	32703	32833	32679	32695	32451	
668	0	1973	5558	3752	7480	4637	0	32551	32607	32802	32823	32775	32631	32743	32549	
669	0	1984	5526	3712	7488	4638	0	32629	32755	32855	32786	32775	32739	32711	32642	
670	0	1910	5540	3705	7437	4639	0	32847	32743	32775	32965	32717	32690	32727	32775	
671	0	1966	5544	3775	7473	4640	0	32826	32765	32679	32783	32775	32515	32710	32719	
672	0	1968	5546	3734	7478	4641	0	32847	32775	32677	32756	32763	32743	32583	32803	
673	0	1916	5547	3760	7458	4642	0	32913	32695	32695	32877	32791	32610	32729	32860	
674	0	1983	5519	3749	7492	4643	0	32935	32535	32722	32855	32813	32691	32713	32627	
675	0	1960	5505	3730	7464	4644	0	32875	32527	32675	32699	32687	32617	32793	32662	
676	0	1997	5544	3740	7471	4645	0	32837	32743	32549	32775	32807	32513	32684	32811	
677	0	1959	5518	3748	7505	4646	0	32844	32771	32623	32607	32825	32759	32655	32739	
678	0	2004	5500	3750	7475	4647	0	32775	32694	32713	32588	32683	32647	32727	32962	
679	0	1987	5533	3694	7478	4648	0	32676	32658	32748	32655	32690	32603	32639	32995	
680	0	1976	5490	3714	7477	4649	0	32464	32607	32793	32675	32647	32759	32679	32759	
681	0	1950	5495	3712	7472	4650	0	32519	32607	32787	32839	32763	32655	32743	32759	
682	0	1981	5545	3770	7491	4651	0	32647	32502	32839	32743	32767	32547	32669	32575	
683	0	1975	5485	3755	7488	4652	0	32815	32515	32804	32643	32837	32759	32842	32570	
684	0	1959	5547	3726	7497	4653	0	32740	32847	32827	32743	32863	32717	32703	32391	
685	0	1986	5518	3677	7450	4654	0	32788	32859	32813	32711	32796	32551	32765	32425	
686	0	1952	5528	3748	7492	4655	0	32876	32881	33079	32819	32851	32754	32711	32338	
687	0	2007	5492	3689	7474	4656	0	32989	32993	33207	32847	32751	32725	32773	32468	
688	0	1929	5513	3721	7502	4657	0	32919	33047	33159	32802	32711	32518	32711	32513	
689	0	1934	5516	3710	7466	4658	0	32851	32827	32831	32933	32765	32718	32661	32717	
690	0	1969	5511	3703	7464	4659	0	32716	32806	32683	32851	32775	32639	32757	32711	
691	0	1969	5516	3732	7508	4660	0	32642	32767	32763	32773	32730	32767	32605	32812	
692	0	1946	5528	3725	7491	4661	0	32505	32710	32662	32815	32719	32635	32735	32647	
693	0	1922	5492	3741	7469	4662	0	32490	32710	32739	32671	32679	32615	32597	32789	
694	0	1913	5466	3742	7470	4663	0	32391	32733	32815	32703	32759	32599	32719	32807	
695	0	1945	5521	3757	7462	4664	0	32357	32814	32694	32759	32793	32679	32735	32613	
696	0	1958	5518	3735	7499	4665	0	32418	32767	32635	32579	32721	32707	32668	32775	
697	0	1947	5559	3691	7473	4666	0	32580	32742	32619	32647	32673	32471	32751	32934	
698	0	1983	5556	3693	7442	4667	0	32748	32617	32647	32575	32793	32707	32775	32855	
699	0	1938	5523	3706	7496	4668	0	32749	32803	32615	32610	32738	32716	32751	32911	
700	0	1966	5498	3715	7466	4669	0	32976	32775	32679	32503	32749	32541	32748	32923	
701	0	1979	5549	3725	7484	4670	0	33008	32807	32807	32530	32823	32687	32679	32828	
702	0	1957	5506	3739	7464	4671	0	33007	32647	32911	32658	32732	32685	32775	32575	
703	0	1926	5530	3687	7437	4672	0	33031	32517	32991	32775	32802	32575	32694	32637	
704	0	1938	5517	3714	7448	4673	0	33022	32675	32977	32839	32773	32727	32759	32437	
705	0	1919	5501	3745	7490	4674	0	32947	32646	32971	32743	32879	32759	32775	32343	
706	0	1995	5496	3704	7476	4675	0	32903	32775	32948	32758	32785	32732	32745	32222	
707	0	1950	5523	3732	7509	4676	0	32825	32667	32759	32787	32815	32606	32767	32339	
708	0	1952	5532	3722	7504	4677	0	32758	33055	32708	32887	32757	32638	32690	32672	
709	0	1946	5528	3728	7438	4678	0	32754	32988	32758	32835	32785	32714	32658	32594	
710	0	1984	5544	3714	7469	4679	0	32736	33030	32538	32775	32839	32634	32570	32691	
711	0	1963	5490	3687	7490	4680	0	32778	32591	32455	32818	32804	32763	32711	32732	
712	0	1955	5511	3725	7451	4681	0	32767	32562	32477	32982	32773	32483	32787	32703	
713	0	1971	5515	3754	7492	4682	0	32950	32130	32641	33087	32811	32754	32775	32569	
714	0	1970	5504	3715	7468	4683	0	33110	32341	32570	32931	32691	32630	32793	32839	
715	0	1978	5485	3711	7476	4684	0	33062	32237	32564	32788	32660	32738	32731	32745	
716	0	1976	5495	3738	7462	4685	0	33050	32658	32566	32835	32790	32561	32677	32701	
717	0	1964	5523	3772	7460	4686	0	32896	32711	32807	32757	32822	32551	32655	32863	
718	0	1999	5545	3681	7478	4687	0	32756	32951	32773	32700	32695	32694	32703	32922	
719	0	1944	5512	3720	7487	4688	0	32447	32986	32763	32493	32724	32719	32679	32775	
720	0	1952	5500	3706	7428	4689	0	32292	33202	32692	32495	32663	32690	32693	32725	
721	0	2003	5470	3660	7524	4690	0	32220	33226	32855	32563	32803	32551	32749	32607	
722	0	1962	5501	3648	7466	4691	0	32284	33140	32923	32717	32787	32722	32762	32606	
723	0	1988	5521	3684	7472	4692	0	32477	33031	32918	32743	32810	32723	32695	32621	
724	0	2025	5491	3703	7436	4693	0	32742	32903	32973	32767	32790	32806	32681	32463	
725	0	1988	5528	3716	7506	4694	0	32815	33020	33005	32949	32827	32769	32687	32391	
726	0	1942	5449	3737	7493	4695	0	32897	32741	32903	32838	32787	32657	32735	32279	
727	0	1933	5510	3698	7466	4696	0	32871	32935	32903	32855	32695	32579	32631	32527	
728	0	1998	5516	3706	7473	4697	0	32845	32847	32870	32847	32743	32583	32663	32611	
729	0	1957	5504	3714	7466	4698	0	32860	32711	32759	32813	32855	32686	32683	32706	
730	0	1968	5486	3724	7467	4699	0	32866	32679	32756	32726	32839	32679	32735	32554	
731	0	2004	5497	3717	7504	4700	0	32861	32638	32869	32612	32752	32602	32719	32631	
732	0	1962	5543	3720	7500	4701	0	32782	32771	32655	32663	32647	32676	32637	32925	
733	0	1979	5528	3720	7483	4702	0	32751	32719	32510	32735	32707	32775	32735	32863	
734	0	1975	5496	3700	7476	4703	0	32745	32886	32713	32718	32827	32743	32691	32820	
735	0	1958	5472	3706	7466	4704	0	32643	32839	32694	32676	32847	32703	32679	32771	
736	0	1960	5532	3704	7475	4705	0	32730	32917	32819	32599	32846	32454	32668	32775	
737	0	1951	5497	3753	7506	4706	0	32850	32717	32775	32595	32805	32623	32593	32813	
738	0	1971	5547	3707	7525	4707	0	32831	32831	32810	32660	32621	32689	32773	32835	
739	0	1984	5508	3701	7472	4708	0	32839	32509	32855	32822	32709	32711	32716	32871	
740	0	1948	5520	3729	7549	4709	0	32780	32709	32926	32751	32788	32631	32787	32975	
741	0	1949	5543	3682	7484	4710	0	32775	32487	32822	32615	32731	32515	32677	32790	
742	0	1955	5500	3728	7478	4711	0	32728	32671	32787	32679	32742	32706	32713	32613	
743	0	1989	5477	3707	7481	4712	0	32740	32635	32754	32852	32791	32699	32692	32561	
744	0	1950	5498	3747	7500	4713	0	32837	32710	32647	32850	32771	32767	32711	32459	
745	0	1962	5488	3738	7528	4714	0	32903	32747	32689	32812	32851	32743	32759	32307	
746	0	1970	5534	3822	7506	4715	0	32959	32743	32775	32859	32791	32668	32714	32218	
747	0	1959	5477	3707	7490	4716	0	32902	32859	32735	32885	32771	32741	32755	32452	
748	0	1979	5520	3706	7476	4717	0	32844	32615	32567	32839	32781	32701	32719	32558	
749	0	1986	5540	3721	7480	4718	0	32863	32697	32613	32627	32790	32655	32677	32599	
750	0	1927	5509	3695	7468	4719	0	32898	32578	32590	32679	32861	32532	32759	32735	
751	0	1991	5508	3734	7464	4720	0	32740	32731	32742	32755	32861	32702	32720	32750	
752	0	1990	5502	3745	7491	4721	0	32696	32561	32806	32756	32770	32745	32671	32647	
753	0	1988	5509	3725	7466	4722	0	32740	32659	32731	32747	32696	32623	32723	32607	
754	0	1976	5506	3716	7486	4723	0	32623	32495	32743	32751	32759	32543	32742	32715	
755	0	1984	5485	3730	7461	4724	0	32491	32551	32623	32630	32823	32726	32724	32818	
756	0	1952	5531	3766	7472	4725	0	32607	32467	32732	32663	32775	32726	32763	32773	
757	0	1972	5467	3705	7472	4726	0	32672	32563	32842	32566	32740	32473	32677	32739	
758	0	1970	5546	3746	7477	4727	0	32730	32533	32711	32647	32679	32564	32647	32891	
759	0	1981	5497	3736	7541	4728	0	32762	32775	32685	32691	32754	32623	32628	32997	
760	0	1952	5549	3739	7490	4729	0	32793	32631	32599	32621	32853	32711	32732	32873	
761	0	1995	5520	3724	7506	4730	0	32971	32819	32647	32711	32847	32739	32765	32623	
762	0	1926	5502	3703	7479	4731	0	33124	32703	32707	32867	32839	32589	32743	32775	
763	0	1963	5502	3776	7472	4732	0	33190	32863	32737	32893	32791	32750	32730	32636	
764	0	1990	5509	3762	7478	4733	0	33106	32789	32839	32723	32834	32775	32751	32402	
765	0	1992	5527	3688	7491	4734	0	32867	32946	32829	32885	32743	32742	32807	32409	
766	0	1980	5522	3729	7509	4735	0	32455	33026	32687	33021	32739	32823	32759	32174	
767	0	1956	5516	3718	7457	4736	0	32215	32941	32666	32855	32695	32582	32599	32514	
768	0	1958	5492	3743	7484	4737	0	32262	32803	32810	32775	32821	32787	32695	32717	
769	0	1937	5560	3723	7458	4738	0	32482	32786	32765	32771	32860	32663	32773	32683	
770	0	1993	5498	3747	7449	4739	0	32633	32795	32671	32795	32811	32703	32759	32700	
771	0	1974	5501	3739	7460	4740	0	32692	32675	32695	32711	32743	32615	32615	32749	
772	0	1999	5498	3751	7505	4741	0	32703	32839	32869	32711	32881	32647	32727	32742	
773	0	1909	5504	3712	7468	4742	0	32825	32700	32916	32629	32758	32633	32742	32630	
774	0	1967	5507	3735	7506	4743	0	32679	32903	32791	32655	32727	32743	32662	32663	
775	0	2015	5502	3723	7510	4744	0	32601	32839	32833	32719	32894	32533	32647	32903	
776	0	2002	5494	3744	7455	4745	0	32580	32959	32837	32790	32763	32662	32791	32813	
777	0	1997	5538	3721	7504	4746	0	32604	32599	32747	32679	32766	32612	32748	32903	
778	0	1915	5501	3741	7484	4747	0	32687	32761	32764	32617	32711	32738	32702	32919	
779	0	1947	5462	3724	7489	4748	0	32922	32621	32979	32659	32749	32738	32727	32803	
780	0	1972	5522	3728	7469	4749	0	32973	32548	32924	32853	32713	32533	32707	32914	
781	0	1956	5493	3712	7492	4750	0	33004	32695	32787	32823	32711	32762	32707	32731	
782	0	2017	5506	3693	7489	4751	0	32989	32575	32733	32796	32843	32749	32658	32595	
783	0	1990	5490	3694	7509	4752	0	32790	32623	32775	32811	32813	32699	32685	32450	
784	0	1977	5505	3722	7475	4753	0	32749	32438	32743	32933	32855	32619	32796	32431	
785	0	1948	5507	3710	7443	4754	0	32721	32541	32658	32983	32791	32735	32873	32389	
786	0	1995	5471	3690	7453	4755	0	32681	32439	32567	32897	32782	32679	32751	32189	
787	0	1944	5529	3737	7528	4756	0	32823	32645	32719	32772	32732	32753	32828	32478	
788	0	1978	5500	3760	7474	4757	0	32784	32519	32853	32740	32799	32599	32709	32699	
789	0	1963	5489	3744	7481	4758	0	32833	32847	32891	32724	32775	32735	32624	32703	
790	0	1993	5487	3748	7470	4759	0	32855	32698	32863	32695	32745	32647	32663	32642	
791	0	1983	5497	3747	7504	4760	0	32819	32917	32715	32751	32775	32647	32743	32823	
792	0	1989	5488	3795	7496	4761	0	32766	32871	32655	32578	32671	32566	32711	32788	
793	0	1952	5506	3728	7456	4762	0	32644	33231	32713	32535	32722	32683	32739	32754	
794	0	2000	5506	3677	7456	4763	0	32653	33125	32717	32724	32639	32691	32747	32775	
795	0	1971	5498	3703	7442	4764	0	32658	32738	32659	32635	32823	32719	32703	32707	
796	0	1981	5534	3731	7488	4765	0	32687	32771	32667	32563	32820	32735	32715	32799	
797	0	1944	5512	3745	7448	4766	0	32677	32571	32759	32597	32775	32621	32703	32754	
798	0	1953	5527	3731	7469	4767	0	32716	32855	32643	32731	32757	32487	32687	32959	
799	0	1945	5533	3716	7498	4768	0	32720	32903	32574	32562	32703	32679	32699	32935	
800	0	1971	5502	3702	7484	4769	0	32780	33067	32633	32511	32747	32515	32577	32859	
801	0	1983	5526	3752	7448	4770	0	32941	33051	32586	32581	32661	32789	32653	32687	
802	0	1993	5526	3686	7464	4771	0	32956	32938	32716	32711	32738	32644	32775	32581	
803	0	1965	5518	3750	7500	4772	0	32903	32663	32854	32927	32851	32819	32713	32570	
804	0	1939	5489	3724	7492	4773	0	32864	32445	32843	32951	32897	32691	32738	32390	
805	0	1959	5550	3736	7466	4774	0	32943	32515	32809	32959	32845	32747	32738	32391	
806	0	1987	5543	3701	7478	4775	0	32892	32459	32839	33030	32823	32767	32791	32262	
807	0	1989	5496	3690	7464	4776	0	32854	32724	32911	32974	32827	32558	32801	32443	
808	0	1934	5534	3701	7492	4777	0	32727	32799	32887	32859	32743	32636	32711	32679	
809	0	1966	5500	3723	7486	4778	0	32749	32994	33015	32849	32682	32751	32704	32679	
810	0	1960	5496	3688	7460	4779	0	32804	32959	33127	32954	32755	32719	32631	32671	
811	0	1989	5511	3748	7494	4780	0	32743	33065	32938	32959	32758	32579	32702	32759	
812	0	1972	5500	3763	7461	4781	0	32773	33012	32578	32727	32748	32487	32759	32647	
813	0	1944	5548	3713	7440	4782	0	32696	32895	32703	32714	32687	32663	32748	32620	
814	0	1986	5500	3696	7459	4783	0	32759	32757	32767	32645	32799	32681	32687	32698	
815	0	1981	5487	3747	7472	4784	0	32801	32681	32647	32663	32829	32599	32642	32767	
816	0	1956	5504	3691	7462	4785	0	32690	32580	32622	32694	32676	32711	32742	32721	
817	0	1948	5496	3747	7435	4786	0	32638	32533	32695	32551	32759	32543	32739	32822	
818	0	1987	5478	3747	7458	4787	0	32620	32571	32611	32711	32799	32562	32599	32829	
819	0	1977	5512	3762	7464	4788	0	32594	32757	32719	32518	32703	32718	32683	32997	
820	0	1957	5480	3708	7470	4789	0	32685	32644	32751	32534	32749	32673	32632	32790	
821	0	1939	5497	3743	7460	4790	0	32692	32799	32759	32877	32727	32487	32721	32751	
822	0	1988	5516	3761	7462	4791	0	32711	32943	32719	32763	32749	32733	32791	32685	
823	0	1950	5524	3700	7436	4792	0	32775	33011	32962	32903	32823	32710	32683	32481	
824	0	1962	5500	3748	7431	4793	0	32724	32919	32973	32863	32862	32803	32775	32495	
825	0	1944	5528	3707	7491	4794	0	32850	32807	32911	32807	32775	32735	32807	32325	
826	0	1982	5533	3708	7465	4795	0	32805	32839	32839	32826	32811	32631	32855	32367	
827	0	1918	5479	3690	7456	4796	0	32822	32901	32965	32591	32729	32655	32795	32386	
828	0	1935	5526	3729	7460	4797	0	32788	32775	33019	32743	32727	32647	32676	32639	
829	0	1977	5452	3761	7467	4798	0	32850	32645	32947	32667	32789	32819	32710	32818	
830	0	1930	5490	3698	7461	4799	0	32797	32562	32805	32821	32811	32727	32775	32682	
831	0	1970	5493	3763	7476	4800	0	32743	32647	32711	32697	32712	32677	32703	32839	
832	0	1985	5532	3685	7476	4801	0	32732	32516	32637	32594	32771	32723	32775	32795	
833	0	1964	5508	3759	7495	4802	0	32763	32487	32710	32694	32711	32662	32621	32910	
834	0	1937	5488	3674	7470	4803	0	32732	32684	32695	32679	32805	32762	32759	32950	
835	0	1941	5465	3717	7444	4804	0	32711	32695	32690	32615	32735	32765	32613	32795	
836	0	1957	5498	3700	7458	4805	0	32764	32711	32583	32807	32743	32535	32775	32803	
837	0	2032	5549	3737	7479	4806	0	32748	32853	32702	32670	32751	32655	32631	32989	
838	0	1933	5524	3716	7525	4807	0	32643	32903	32667	32775	32666	32660	32615	32807	
839	0	1949	5512	3665	7469	4808	0	32623	32799	32739	32579	32687	32604	32630	32927	
840	0	1953	5538	3722	7488	4809	0	32634	32707	32655	32515	32738	32677	32676	32966	
841	0	1981	5488	3741	7455	4810	0	32718	32775	32637	32588	32717	32747	32647	32567	
842	0	1986	5554	3747	7468	4811	0	32686	32804	32635	32549	32719	32798	32683	32659	
843	0	1993	5496	3704	7453	4812	0	32799	32962	32685	32676	32791	32691	32591	32487	
844	0	1949	5545	3686	7429	4813	0	32817	32927	32639	32851	32723	32593	32707	32447	
845	0	1989	5501	3716	7491	4814	0	32911	32931	32693	32743	32911	32647	32669	32199	
846	0	1956	5464	3727	7500	4815	0	32802	32767	32641	32871	32863	32549	32743	32231	
847	0	1989	5505	3704	7510	4816	0	32775	32685	32629	32838	32815	32687	32775	32283	
848	0	1984	5520	3709	7478	4817	0	32695	32503	32556	32978	32783	32694	32687	32564	
849	0	1972	5507	3728	7496	4818	0	32706	32391	32631	32835	32759	32719	32731	32687	
850	0	1978	5478	3737	7458	4819	0	32724	32725	32685	32775	32748	32633	32631	32535	
851	0	1946	5449	3751	7477	4820	0	32742	32815	32619	32918	32811	32615	32735	32738	
852	0	1984	5507	3701	7482	4821	0	32822	32822	32623	32769	32825	32549	32766	32753	
853	0	1949	5509	3714	7546	4822	0	32957	32935	32679	32967	32751	32679	32754	32804	
854	0	1993	5486	3733	7519	4823	0	32890	32992	32647	32875	32874	32663	32855	32747	
855	0	1953	5519	3712	7500	4824	0	32943	32839	32739	32876	32749	32511	32791	32715	
856	0	1988	5496	3669	7462	4825	0	32903	32571	32863	32903	32829	32759	32715	32775	
857	0	1941	5530	3739	7460	4826	0	32942	32317	32799	32763	32815	32719	32757	32999	
858	0	2000	5500	3698	7450	4827	0	32903	32385	32929	32903	32671	32727	32607	32853	
859	0	1973	5476	3697	7478	4828	0	32719	32533	32871	32711	32790	32515	32653	32975	
860	0	1942	5499	3724	7492	4829	0	32664	32670	32823	32725	32692	32743	32647	32854	
861	0	1939	5500	3744	7478	4830	0	32613	32692	32784	32815	32757	32690	32729	32687	
862	0	1906	5496	3714	7496	4831	0	32596	33069	32775	32839	32903	32596	32823	32687	
863	0	1952	5544	3742	7458	4832	0	32724	33018	32935	32807	32815	32670	32749	32519	
864	0	1950	5470	3750	7492	4833	0	32770	33107	32820	32775	32851	32687	32855	32431	
865	0	1983	5447	3755	7460	4834	0	32964	33043	32829	32807	32879	32655	32811	32349	
866	0	1966	5484	3746	7478	4835	0	32912	33055	32998	32745	32899	32703	32807	32455	
867	0	2001	5505	3709	7462	4836	0	32734	33047	32932	32799	32877	32687	32804	32439	
868	0	1932	5486	3729	7452	4837	0	32783	32679	32887	32637	32850	32709	32799	32558	
869	0	1960	5520	3723	7468	4838	0	32678	32739	32921	32697	32831	32515	32775	32782	
870	0	1960	5524	3732	7492	4839	0	32701	32570	33042	32634	32713	32692	32685	32751	
871	0	1991	5507	3695	7489	4840	0	32711	32623	33046	32611	32742	32663	32615	32771	
872	0	1952	5522	3695	7508	4841	0	32703	32421	32825	32788	32775	32615	32599	32722	
873	0	1955	5485	3724	7502	4842	0	32786	32585	32729	32903	32773	32527	32703	32755	
874	0	1932	5491	3737	7464	4843	0	32909	32631	32793	32783	32807	32620	32861	32839	
875	0	1956	5531	3785	7516	4844	0	32914	32771	32853	32628	32724	32731	32789	32839	
876	0	1935	5452	3716	7466	4845	0	32999	32631	32806	32563	32711	32513	32691	32714	
877	0	1981	5489	3728	7494	4846	0	32943	32687	32706	32645	32713	32603	32707	32983	
878	0	1963	5524	3741	7438	4847	0	32810	32513	32617	32647	32771	32743	32727	32949	
879	0	1956	5476	3733	7487	4848	0	32654	32754	32519	32518	32771	32647	32711	32930	
880	0	1932	5533	3737	7446	4849	0	32628	32717	32481	32690	32751	32688	32719	32738	
881	0	1935	5486	3758	7477	4850	0	32516	32839	32493	32815	32819	32639	32743	32579	
882	0	1933	5525	3721	7483	4851	0	32575	33031	32643	32769	32849	32559	32687	32615	
883	0	1954	5519	3728	7454	4852	0	32639	32939	32751	32822	32751	32715	32711	32484	
884	0	1954	5486	3690	7473	4853	0	32679	32891	32788	32981	32757	32681	32706	32420	
885	0	1938	5532	3714	7514	4854	0	32825	32837	32796	32963	32804	32771	32725	32293	
886	0	1968	5557	3720	7483	4855	0	32869	32711	32681	32815	32847	32700	32751	32254	
887	0	1950	5495	3732	7480	4856	0	32815	32702	32679	32799	32732	32604	32681	32551	
888	0	1974	5492	3705	7471	4857	0	32638	32733	32548	32807	32791	32687	32719	32583	
889	0	1934	5545	3716	7484	4858	0	32607	32511	32751	32805	32726	32660	32707	32685	
890	0	1985	5522	3768	7491	4859	0	32666	32639	32891	32819	32679	32599	32751	32751	
891	0	1969	5490	3734	7486	4860	0	32729	32715	32903	32684	32773	32562	32663	32733	
892	0	1931	5531	3743	7468	4861	0	32731	32862	32733	32603	32785	32754	32578	32615	
893	0	1964	5478	3769	7516	4862	0	32759	33044	32877	32738	32835	32775	32700	32826	
894	0	1968	5497	3728	7490	4863	0	32775	33005	32902	32767	32691	32660	32707	32735	
895	0	1962	5548	3723	7480	4864	0	32753	32807	32855	32647	32647	32487	32679	32799	
896	0	1973	5546	3730	7486	4865	0	32748	32892	32791	32811	32687	32686	32735	32676	
897	0	2009	5484	3741	7494	4866	0	32725	32607	32667	32879	32735	32647	32692	32743	
898	0	2008	5508	3702	7452	4867	0	32827	32703	32685	32764	32774	32687	32631	33012	
899	0	1964	5509	3684	7459	4868	0	32852	32423	32663	32599	32767	32501	32670	32993	
900	0	1986	5477	3726	7474	4869	0	32820	32675	32658	32601	32775	32548	32711	32835	
901	0	1983	5476	3754	7476	4870	0	32833	32623	32719	32660	32799	32719	32735	32666	
902	0	1970	5504	3732	7512	4871	0	32949	32626	32717	32554	32813	32727	32827	32722	
903	0	1967	5465	3741	7486	4872	0	32932	32918	32775	32507	32764	32703	32708	32607	
904	0	1984	5540	3700	7513	4873	0	32788	32837	32887	32695	32802	32610	32703	32466	
905	0	1960	5486	3761	7476	4874	0	32742	32991	32863	32707	32843	32775	32838	32320	
906	0	1994	5469	3731	7519	4875	0	32734	32711	32775	32775	32819	32731	32826	32293	
907	0	2004	5503	3756	7497	4876	0	32849	32765	32757	32902	32811	32771	32791	32498	
908	0	1992	5497	3661	7475	4877	0	32693	32468	32799	32699	32726	32518	32775	32516	
909	0	1956	5465	3714	7490	4878	0	32516	32748	32802	32810	32700	32745	32663	32610	
910	0	1982	5504	3722	7466	4879	0	32423	32727	32983	32819	32747	32717	32588	32711	
911	0	1938	5525	3724	7470	4880	0	32573	32975	32786	32875	32775	32572	32617	32841	
912	0	1940	5506	3790	7469	4881	0	32730	32959	32839	32817	32826	32559	32644	32727	
913	0	1971	5520	3758	7495	4882	0	32826	32829	32823	32695	32739	32701	32705	32703	
914	0	1957	5509	3773	7458	4883	0	32889	32877	32751	32823	32743	32647	32786	32817	
915	0	1988	5540	3739	7502	4884	0	32831	32903	32647	32741	32807	32639	32737	32775	
916	0	1985	5476	3741	7491	4885	0	32702	32869	32663	32770	32844	32583	32719	32623	
917	0	1962	5541	3726	7462	4886	0	32647	32823	32775	32751	32751	32775	32615	32771	
918	0	1978	5473	3720	7429	4887	0	32707	32751	32727	32669	32732	32687	32628	33003	
919	0	1946	5498	3734	7493	4888	0	32742	32639	32685	32631	32735	32723	32615	32999	
920	0	1973	5492	3712	7490	4889	0	32785	32637	32676	32591	32789	32563	32723	32901	
921	0	1981	5520	3732	7520	4890	0	32800	32727	32703	32631	32875	32709	32723	32732	
922	0	1956	5510	3709	7492	4891	0	32820	32583	32583	32754	32842	32620	32747	32617	
923	0	1948	5507	3756	7513	4892	0	32846	32871	32534	32673	32833	32710	32797	32581	
924	0	1983	5434	3712	7522	4893	0	32928	32775	32559	32705	32739	32491	32677	32463	
925	0	1920	5540	3752	7511	4894	0	32929	32999	32711	32783	32817	32705	32835	32342	
926	0	1982	5519	3733	7463	4895	0	32900	32838	32671	32679	32819	32810	32817	32286	
927	0	1944	5472	3749	7494	4896	0	32849	33087	32623	32850	32775	32545	32735	32383	
928	0	1940	5502	3725	7491	4897	0	32797	32793	32622	32987	32758	32690	32755	32686	
929	0	1976	5504	3674	7466	4898	0	32849	33065	32705	32829	32807	32721	32709	32607	
930	0	1959	5489	3741	7494	4899	0	32936	32878	32789	32775	32751	32717	32631	32739	
931	0	1955	5472	3703	7474	4900	0	32950	32951	32769	32902	32727	32619	32639	32721	
932	0	1940	5520	3694	7501	4901	0	32841	32637	32934	33002	32769	32702	32723	32715	
933	0	1960	5509	3750	7471	4902	0	32759	32591	33010	33012	32775	32687	32823	32714	
934	0	1928	5475	3726	7515	4903	0	32775	32487	32935	32831	32783	32677	32737	32865	
935	0	1947	5501	3691	7504	4904	0	32711	32711	32911	32679	32807	32697	32700	32831	
936	0	1937	5479	3724	7478	4905	0	32603	32535	32894	32542	32759	32627	32687	32754	
937	0	1949	5508	3748	7440	4906	0	32596	32881	32955	32567	32655	32615	32639	32775	
938	0	1941	5526	3740	7485	4907	0	32560	32794	32915	32703	32725	32698	32693	32915	
939	0	1958	5468	3710	7510	4908	0	32591	32861	32751	32711	32717	32706	32703	32806	
940	0	1956	5491	3713	7475	4909	0	32567	32647	32576	32733	32799	32495	32761	32669	
941	0	1973	5532	3733	7456	4910	0	32562	32858	32615	32903	32861	32571	32767	32679	
942	0	1986	5507	3690	7517	4911	0	32633	32634	32695	32943	32791	32571	32759	32399	
943	0	1939	5505	3726	7454	4912	0	32702	32791	32763	32891	32843	32597	32799	32271	
944	0	1958	5496	3774	7528	4913	0	32863	32597	32791	32713	32795	32525	32793	32263	
945	0	1990	5487	3742	7518	4914	0	32838	32918	32837	32745	32727	32485	32751	32121	
946	0	1941	5492	3760	7499	4915	0	32770	32817	32810	32807	32843	32679	32679	32163	
947	0	1950	5548	3740	7468	4916	0	32629	32933	32818	32751	32821	32637	32659	32429	
948	0	1996	5477	3775	7497	4917	0	32636	32647	32739	32661	32794	32547	32721	32562	
949	0	2008	5467	3746	7504	4918	0	32698	32731	32510	32487	32700	32637	32671	32607	
950	0	1952	5479	3718	7490	4919	0	32615	32742	32499	32574	32609	32723	32567	32770	
951	0	1949	5505	3776	7522	4920	0	32583	32575	32609	32557	32637	32647	32391	32799	
952	0	1986	5525	3716	7470	4921	0	32559	32612	32687	32506	32613	32751	32459	32783	
953	0	1968	5471	3773	7532	4922	0	32615	32479	32742	32459	32579	32699	32402	32839	
954	0	1982	5541	3723	7530	4923	0	32625	32623	32959	32459	32605	32695	32423	32790	
955	0	2003	5477	3748	7521	4924	0	32545	32767	33167	32408	32535	32669	32191	32695	
956	0	1973	5524	3678	7486	4925	0	32582	32577	33159	32389	32542	32813	32229	32743	
957	0	1951	5503	3739	7486	4926	0	32518	32439	33301	32274	32478	32729	32206	32844	
958	0	1932	5492	3726	7501	4927	0	32632	32261	33446	32259	32350	32918	32167	32947	
959	0	1952	5496	3695	7512	4928	0	32720	32215	33586	32317	32343	32863	32061	33188	
960	0	1991	5472	3744	7520	4929	0	32758	32114	33777	32327	32420	33091	32029	33189	
961	0	1988	5493	3714	7494	4930	0	32847	32295	33781	32351	32372	33051	32031	32903	
962	0	2008	5507	3723	7539	4931	0	32909	32303	33679	32335	32447	33205	32039	32987	
963	0	1960	5475	3727	7530	4932	0	32845	32639	33383	32399	32467	32885	32127	32927	
964	0	1931	5436	3696	7506	4933	0	32686	32658	33222	32487	32521	33095	32310	32809	
965	0	1983	5475	3737	7518	4934	0	32775	33025	33086	32710	32628	33039	32455	32843	
966	0	1933	5494	3717	7485	4935	0	32970	32835	32903	32743	32785	33055	32636	32599	
967	0	1950	5463	3736	7482	4936	0	33110	32599	33159	32621	32773	32983	32626	32823	
968	0	1952	5464	3727	7486	4937	0	33359	32311	33079	32628	32835	33035	32774	33127	
969	0	1905	5480	3702	7484	4938	0	33415	32463	32923	32839	32802	33063	32843	33159	
970	0	1917	5508	3780	7492	4939	0	33496	32493	32679	32893	32891	33129	33067	33167	
971	0	1973	5470	3708	7486	4940	0	33404	32658	32391	32951	33057	32819	33211	33044	
972	0	1989	5505	3736	7472	4941	0	33342	32647	32357	32951	33191	32917	33313	33047	
973	0	1985	5568	3754	7504	4942	0	33360	32821	32243	32931	33177	32738	33243	32887	
974	0	1942	5434	3751	7516	4943	0	33299	32825	32111	33107	33107	32739	33239	32815	
975	0	2001	5485	3688	7492	4944	0	33102	33187	32086	33281	33220	32419	33542	32841	
976	0	1990	5488	3720	7484	4945	0	32903	33085	32007	33567	33322	32379	33666	32655	
977	0	1982	5532	3755	7502	4946	0	32698	33431	31922	33699	33380	32313	33840	32571	
978	0	1929	5454	3686	7514	4947	0	32585	33467	31967	33695	33267	32059	33715	32543	
979	0	1956	5492	3736	7484	4948	0	32581	33507	31831	33701	33359	32210	33831	32491	
980	0	2024	5476	3701	7481	4949	0	32557	33563	31903	33754	33487	32207	33857	32481	
981	0	1955	5456	3701	7510	4950	0	32543	33405	31806	33837	33565	32031	34011	32327	
982	0	1944	5473	3764	7504	4951	0	32647	33415	31663	33707	33559	32182	33955	32359	
983	0	1958	5498	3708	7496	4952	0	32608	33315	31750	33543	33318	32187	33735	32303	
984	0	2029	5432	3731	7508	4953	0	32663	33415	31917	33249	33311	32231	33581	32247	
985	0	1979	5485	3746	7520	4954	0	32626	33260	32195	33012	33069	32135	33287	32135	
986	0	1980	5478	3734	7496	4955	0	32630	33319	32438	32799	32933	32327	33084	32206	
987	0	1929	5479	3714	7488	4956	0	32614	33141	32573	32717	32799	32327	32847	32255	
988	0	1953	5480	3673	7506	4957	0	32538	33123	32701	32583	32775	32323	32711	32283	
989	0	1960	5474	3689	7467	4958	0	32542	33065	32893	32550	32609	32391	32578	32344	
990	0	1994	5466	3696	7505	4959	0	32540	32833	33066	32319	32591	32483	32413	32239	
991	0	1936	5546	3725	7504	4960	0	32444	32847	32993	32275	32621	32463	32423	32324	
992	0	1967	5464	3677	7478	4961	0	32447	32724	33067	32239	32459	32351	32295	32461	
993	0	1989	5459	3723	7504	4962	0	32375	32735	33065	32198	32539	32621	32239	32486	
994	0	1976	5488	3700	7462	4963	0	32435	32475	32915	32147	32495	32628	32095	32463	
995	0	1973	5476	3716	7509	4964	0	32582	32743	32927	32119	32431	32747	32039	32501	
996	0	1957	5438	3710	7480	4965	0	32652	32445	32897	32301	32383	32549	32215	32639	
997	0	1993	5493	3738	7486	4966	0	32634	32621	32967	32339	32451	32646	32251	32587	
998	0	1943	5490	3719	7488	4967	0	32524	32429	32927	32447	32506	32733	32291	32631	
999	0	1991	5484	3770	7501	4968	0	32536	32525	32810	32479	32535	32603	32199	32564	
1000	0	1971	5512	3733	7554	4969	0	32500	32585	32685	32558	32547	32663	32327	32605	
1001	0	1937	5467	3688	7526	4970	0	32599	32647	32659	32583	32635	32809	32495	32590	
1002	0	2004	5512	3734	7452	4971	0	32741	32603	32986	32739	32671	32623	32583	32817	
1003	0	1978	5516	3727	7522	4972	0	32823	32571	33081	32807	32638	32815	32549	32743	
1004	0	1970	5494	3697	7497	4973	0	32886	32667	33067	32854	32692	32858	32527	32742	
1005	0	1944	5521	3696	7479	4974	0	32893	32454	33052	32922	32727	32605	32513	32637	
1006	0	1977	5443	3689	7522	4975	0	32843	32537	33031	32954	32775	32775	32612	32583	
1007	0	1973	5516	3742	7520	4976	0	32836	32516	32790	32919	32791	32855	32690	32694	
1008	0	1977	5521	3709	7474	4977	0	32807	32589	32839	32879	32691	32631	32563	32802	
1009	0	1973	5532	3733	7497	4978	0	32837	32787	33078	32775	32677	32817	32617	32801	
1010	0	1928	5525	3687	7491	4979	0	32879	32583	33071	32706	32839	32739	32791	32795	
1011	0	1972	5477	3722	7516	4980	0	32863	32873	33011	32623	32799	32681	32663	32797	
1012	0	1963	5508	3686	7488	4981	0	32948	32569	32930	32550	32710	32774	32743	32698	
1013	0	1989	5517	3712	7515	4982	0	32839	32688	32991	32557	32874	32751	32591	32690	
1014	0	2003	5464	3716	7452	4983	0	32839	32546	32933	32543	32750	32579	32698	32799	
1015	0	2005	5498	3781	7524	4984	0	32808	32707	32875	32595	32751	32739	32684	32887	
1016	0	1973	5468	3698	7480	4985	0	32837	32605	32827	32647	32665	32767	32722	32827	
1017	0	1957	5474	3683	7486	4986	0	32799	32775	32775	32711	32775	32666	32615	32845	
1018	0	1978	5451	3728	7510	4987	0	32663	32844	32825	32751	32791	32575	32631	32855	
1019	0	1979	5522	3757	7479	4988	0	32592	32975	32903	32713	32802	32827	32631	32837	
1020	0	1957	5518	3698	7496	4989	0	32558	32767	32927	32607	32818	32715	32713	32711	
1021	0	1980	5471	3761	7504	4990	0	32550	32703	32814	32667	32754	32809	32786	32669	
1022	0	1938	5486	3712	7484	4991	0	32751	32583	32711	32716	32693	32594	32691	32783	
1023	0	1984	5504	3713	7470	4992	0	32888	32799	32806	32747	32775	32637	32727	32674	
1024	0	1968	5493	3734	7524	4993	0	32936	32850	32681	32739	32817	32759	32590	32540	
1025	0	1987	5444	3719	7487	4994	0	32966	32869	32679	32865	32877	32684	32607	32596	
1026	0	1959	5432	3710	7500	4995	0	32973	32692	32543	32715	32833	32583	32587	32453	
1027	0	1994	5443	3661	7498	4996	0	32865	32989	32413	32767	32775	32625	32631	32740	
1028	0	1959	5506	3723	7495	4997	0	32662	32845	32487	32884	32759	32797	32647	32647	
1029	0	1968	5531	3709	7476	4998	0	32596	32618	32647	32786	32647	32731	32709	32662	
1030	0	1985	5500	3715	7507	4999	0	32612	32703	32757	32798	32658	32755	32687	32755	
1031	0	2012	5485	3735	7493	5000	0	32641	32633	32825	32799	32826	32599	32871	32735	
1032	0	1951	5499	3658	7469	5001	0	32739	32730	32815	32815	32851	32646	32735	32658	
1033	0	1941	5440	3699	7477	5002	0	32756	32742	32795	32785	32837	32799	32578	32611	
1034	0	1983	5502	3700	7493	5003	0	32659	32851	32806	32707	32834	32735	32626	32843	
1035	0	1978	5427	3693	7484	5004	0	32734	32767	32836	32687	32797	32797	32727	32819	
1036	0	1976	5491	3732	7529	5005	0	32869	32829	32805	32628	32635	32486	32761	32679	
1037	0	1971	5501	3687	7475	5006	0	32830	32511	32820	32729	32711	32586	32683	32767	
1038	0	2001	5520	3760	7494	5007	0	32798	32685	32829	32757	32783	32756	32701	32761	
1039	0	2007	5444	3704	7483	5008	0	32902	32431	32719	32699	32773	32759	32750	32743	
1040	0	1977	5481	3696	7492	5009	0	33004	32828	32915	32743	32775	32790	32711	32775	
1041	0	1967	5525	3682	7508	5010	0	33127	32891	32951	32817	32775	32574	32711	32713	
1042	0	1979	5475	3720	7468	5011	0	33031	32695	33011	32677	32775	32547	32685	32567	
1043	0	2013	5494	3693	7456	5012	0	32996	32985	32988	32675	32757	32732	32679	32655	
1044	0	1930	5466	3730	7508	5013	0	32963	32903	33037	32822	32764	32708	32668	32607	
1045	0	2016	5478	3721	7498	5014	0	32806	32839	33010	32673	32795	32687	32657	32466	
1046	0	1993	5486	3719	7496	5015	0	32567	32825	32817	32711	32830	32775	32685	32631	
1047	0	1972	5481	3716	7520	5016	0	32491	32613	32739	32804	32758	32621	32671	32564	
1048	0	1967	5543	3656	7464	5017	0	32518	32615	32734	32773	32761	32567	32751	32647	
1049	0	2022	5503	3698	7499	5018	0	32626	32340	32509	32647	32692	32620	32799	32634	
1050	0	1948	5476	3715	7491	5019	0	32775	32615	32485	32871	32735	32695	32769	32871	
1051	0	1984	5527	3716	7492	5020	0	32689	32493	32679	32811	32845	32723	32789	32748	
1052	0	1956	5471	3733	7492	5021	0	32620	32959	32643	32743	32775	32670	32773	32742	
1053	0	2001	5481	3718	7472	5022	0	32599	32766	32647	32663	32799	32607	32727	32763	
1054	0	1949	5496	3709	7514	5023	0	32597	33187	32749	32655	32798	32743	32643	32571	
1055	0	1941	5486	3702	7513	5024	0	32604	33079	32750	32677	32663	32707	32698	32743	
1056	0	1970	5476	3724	7506	5025	0	32576	33021	32715	32643	32631	32685	32645	32737	
1057	0	1948	5502	3697	7501	5026	0	32596	32855	32640	32662	32683	32799	32669	32722	
1058	0	2004	5473	3731	7507	5027	0	32628	33023	32583	32647	32765	32511	32774	32751	
1059	0	1992	5475	3761	7468	5028	0	32684	32805	32847	32699	32775	32685	32699	32765	
1060	0	1948	5498	3712	7523	5029	0	32742	32719	32963	32587	32839	32751	32692	32625	
1061	0	1955	5452	3676	7516	5030	0	32989	32660	32925	32727	32823	32727	32633	32839	
1062	0	1968	5476	3719	7508	5031	0	33063	32514	32838	32765	32786	32775	32733	32658	
1063	0	1961	5480	3748	7501	5032	0	33060	32566	32670	32759	32805	32644	32756	32646	
1064	0	1991	5464	3715	7532	5033	0	32999	32516	32815	32749	32823	32647	32735	32562	
1065	0	1992	5496	3742	7508	5034	0	32979	32763	32967	32763	32727	32669	32725	32471	
1066	0	1998	5505	3706	7517	5035	0	32917	32977	32900	32775	32685	32655	32679	32519	
1067	0	1962	5469	3699	7513	5036	0	32687	33037	33039	32759	32865	32579	32807	32622	
1068	0	1958	5469	3723	7498	5037	0	32454	32951	32987	32695	32967	32505	32845	32647	
1069	0	1977	5514	3697	7494	5038	0	32433	32854	32663	32759	32855	32733	32685	32673	
1070	0	2003	5454	3739	7521	5039	0	32642	32677	32572	32839	32783	32682	32724	32567	
1071	0	1992	5508	3740	7512	5040	0	32674	32583	32605	32828	32858	32607	32803	32563	
1072	0	2007	5475	3699	7529	5041	0	32718	32639	32519	32735	32740	32575	32717	32679	
1073	0	2033	5551	3716	7548	5042	0	32814	32646	32459	32694	32759	32758	32626	32717	
1074	0	1976	5485	3747	7520	5043	0	32886	32601	32460	32717	32861	32669	32735	32751	
1075	0	1998	5522	3758	7512	5044	0	32909	32603	32578	32795	32831	32747	32703	32747	
1076	0	1980	5526	3707	7523	5045	0	32847	32681	32733	32711	32825	32519	32743	32623	
1077	0	1981	5478	3696	7528	5046	0	32762	32639	32916	32714	32751	32679	32717	32679	
1078	0	2003	5518	3704	7474	5047	0	32701	32762	33011	32695	32701	32591	32759	32807	
1079	0	2025	5461	3740	7507	5048	0	32679	32495	33021	32767	32628	32699	32598	32733	
1080	0	1969	5450	3742	7509	5049	0	32713	32815	33047	32851	32696	32561	32629	32807	
1081	0	2016	5476	3709	7476	5050	0	32727	32671	32971	32839	32761	32772	32727	32813	
1082	0	1986	5505	3739	7526	5051	0	32583	32939	32839	32719	32767	32700	32751	32607	
1083	0	1997	5514	3736	7523	5052	0	32716	32725	32853	32734	32739	32759	32864	32775	
1084	0	1969	5486	3748	7513	5053	0	32881	33022	32775	32799	32756	32595	32775	32666	
1085	0	1984	5482	3711	7515	5054	0	33001	32886	32702	32845	32884	32722	32733	32525	
1086	0	2023	5464	3723	7498	5055	0	33060	33223	32743	32819	32756	32775	32743	32591	
1087	0	2005	5476	3729	7524	5056	0	32874	33113	32804	32854	32741	32599	32719	32601	
1088	0	2007	5523	3710	7484	5057	0	32804	32983	32743	32814	32667	32775	32739	32660	
1089	0	1977	5503	3724	7494	5058	0	32765	32850	32645	32741	32796	32729	32631	32659	
1090	0	2047	5463	3730	7548	5059	0	32845	32515	32662	32733	32757	32611	32808	32731	
1091	0	1975	5484	3714	7513	5060	0	32802	32646	32615	32694	32767	32457	32737	32559	
1092	0	1983	5479	3715	7492	5061	0	32828	32327	32743	32803	32841	32681	32679	32830	
1093	0	2031	5434	3709	7516	5062	0	32736	32567	32756	32757	32743	32647	32725	32711	
1094	0	1973	5464	3697	7520	5063	0	32639	32623	32627	32726	32775	32643	32621	32678	
1095	0	2012	5489	3721	7547	5064	0	32530	32726	32455	32743	32759	32705	32716	32632	
1096	0	1978	5486	3701	7524	5065	0	32506	32938	32551	32665	32766	32723	32775	32753	
1097	0	1958	5505	3712	7489	5066	0	32612	32636	32629	32671	32755	32659	32759	32749	
1098	0	2014	5476	3701	7523	5067	0	32679	32965	32706	32775	32699	32551	32663	32663	
1099	0	2008	5464	3752	7524	5068	0	32834	32771	32812	32841	32793	32669	32589	32887	
1100	0	1995	5497	3698	7512	5069	0	32781	32919	32783	32655	32863	32687	32743	32742	
1101	0	1989	5511	3740	7505	5070	0	32759	32686	32871	32679	32731	32775	32662	32738	
1102	0	1992	5454	3710	7472	5071	0	32945	32415	32911	32669	32701	32601	32743	32659	
1103	0	1976	5492	3753	7491	5072	0	32879	32435	32902	32743	32762	32647	32646	32606	
1104	0	1983	5509	3729	7490	5073	0	32884	32300	32825	32747	32877	32709	32759	32567	
1105	0	1986	5482	3759	7496	5074	0	32988	32723	32891	32823	32875	32601	32767	32533	
1106	0	1986	5482	3715	7509	5075	0	32903	32681	32925	32749	32861	32731	32756	32447	
1107	0	1997	5479	3684	7528	5076	0	32935	33037	32852	32751	32783	32759	32757	32519	
1108	0	1996	5460	3684	7506	5077	0	32803	32935	32796	32655	32721	32731	32617	32516	
1109	0	1959	5500	3678	7528	5078	0	32723	33071	32613	32583	32695	32461	32550	32775	
1110	0	2005	5477	3712	7524	5079	0	32554	32962	32573	32602	32735	32695	32722	32711	
1111	0	1976	5486	3748	7522	5080	0	32322	33029	32703	32676	32815	32671	32807	32734	
1112	0	1989	5508	3679	7496	5081	0	32431	32892	32663	32710	32797	32725	32799	32702	
1113	0	1977	5474	3713	7497	5082	0	32487	32775	32621	32711	32833	32535	32739	32612	
1114	0	2018	5475	3705	7511	5083	0	32646	32681	32845	32763	32813	32677	32739	32748	
1115	0	1988	5443	3695	7510	5084	0	32798	32639	32855	32839	32675	32615	32655	32738	
1116	0	1955	5469	3674	7482	5085	0	32823	32828	32747	32863	32783	32755	32669	32716	
1117	0	1966	5482	3719	7502	5086	0	32775	32679	32767	32787	32748	32619	32662	32789	
1118	0	2015	5470	3688	7508	5087	0	32807	32771	32773	32797	32775	32743	32735	32813	
1119	0	1976	5434	3690	7496	5088	0	32655	32867	32858	32837	32735	32757	32659	32755	
1120	0	1991	5466	3694	7485	5089	0	32690	32871	32813	32829	32758	32527	32725	32585	
1121	0	1947	5458	3688	7465	5090	0	32637	32922	32943	32628	32755	32775	32780	32587	
1122	0	1957	5496	3695	7491	5091	0	32687	32599	33004	32487	32795	32703	32709	32719	
1123	0	1951	5504	3686	7488	5092	0	32769	32627	33007	32521	32791	32519	32791	32685	
1124	0	1977	5481	3710	7490	5093	0	32860	32543	32979	32684	32673	32749	32647	32633	
1125	0	1922	5470	3705	7515	5094	0	32847	32647	33159	32727	32822	32717	32663	32661	
1126	0	1970	5480	3718	7478	5095	0	32955	32450	33237	32903	32811	32787	32793	32611	
1127	0	1972	5464	3737	7482	5096	0	33020	32615	33059	32887	32765	32497	32743	32703	
1128	0	1951	5497	3760	7499	5097	0	33131	32551	32935	32923	32699	32762	32739	32702	
1129	0	1946	5462	3751	7500	5098	0	33242	32455	32879	32899	32751	32786	32663	32647	
1130	0	1969	5493	3651	7475	5099	0	33107	32351	32879	32857	32796	32626	32703	32611	
1131	0	1948	5490	3727	7472	5100	0	32956	32173	32775	32772	32823	32703	32707	32578	
1132	0	1954	5477	3721	7496	5101	0	32807	32335	32590	32737	32695	32703	32735	32598	
1133	0	1966	5499	3705	7468	5102	0	32719	32383	32500	32687	32887	32607	32573	32595	
1134	0	1997	5504	3706	7492	5103	0	32683	32738	32383	32635	32739	32711	32691	32793	
1135	0	1998	5512	3691	7440	5104	0	32623	32871	32458	32643	32743	32710	32746	32775	
1136	0	1988	5471	3674	7543	5105	0	32471	33223	32535	32549	32755	32683	32759	32796	
1137	0	1977	5418	3712	7504	5106	0	32475	33407	32623	32514	32819	32775	32735	32852	
1138	0	1992	5443	3697	7458	5107	0	32567	33343	32689	32407	32694	32756	32823	32771	
1139	0	1940	5501	3718	7441	5108	0	32646	33359	32748	32499	32775	32469	32741	32690	
1140	0	1952	5482	3685	7510	5109	0	32585	32911	32753	32673	32775	32642	32643	32626	
1141	0	2026	5487	3674	7491	5110	0	32545	32986	32663	32671	32762	32719	32671	32661	
1142	0	1972	5485	3701	7466	5111	0	32627	32711	32551	32852	32787	32739	32642	32511	
1143	0	1972	5471	3756	7469	5112	0	32668	32549	32662	32870	32754	32591	32743	32550	
1144	0	1974	5473	3695	7497	5113	0	32805	32300	32663	32823	32743	32743	32815	32583	
1145	0	1957	5492	3681	7509	5114	0	32929	32391	32677	32815	32743	32662	32749	32535	
1146	0	1961	5460	3663	7434	5115	0	33136	32447	32503	32769	32805	32727	32755	32563	
1147	0	1946	5476	3689	7511	5116	0	33154	32427	32447	32831	32812	32495	32679	32495	
1148	0	2007	5486	3724	7524	5117	0	33133	33030	32767	32674	32787	32654	32716	32575	
1149	0	1974	5472	3680	7476	5118	0	32982	33247	32675	32531	32766	32695	32647	32743	
1150	0	1974	5490	3720	7477	5119	0	32839	33626	32631	32565	32730	32799	32743	32743	
1151	0	2041	5512	3699	7476	5120	0	32681	33287	32658	32597	32674	32558	32757	32703	
1152	0	1979	5468	3731	7476	5121	0	32391	33447	32807	32736	32829	32739	32759	32839	
1153	0	1995	5478	3730	7478	5122	0	32301	33141	32967	32874	32839	32685	32675	32786	
1154	0	1987	5458	3720	7496	5123	0	32388	32933	33052	32885	32767	32580	32647	32701	
1155	0	1972	5475	3680	7496	5124	0	32612	32517	33117	32903	32761	32635	32700	32823	
1156	0	1988	5472	3684	7486	5125	0	32807	32559	33055	32935	32727	32671	32743	32769	
1157	0	1978	5464	3736	7488	5126	0	33060	32535	32873	32887	32863	32713	32705	32739	
1158	0	1944	5487	3706	7544	5127	0	32971	32723	32734	32950	32802	32503	32727	32807	
1159	0	1986	5484	3679	7468	5128	0	32922	32367	32757	32923	32719	32627	32623	32838	
1160	0	1951	5520	3730	7501	5129	0	32805	32500	32799	32967	32827	32753	32759	32683	
1161	0	1969	5475	3715	7492	5130	0	32818	32319	32707	32791	32862	32517	32743	32587	
1162	0	1991	5480	3744	7500	5131	0	32838	32741	32621	32723	32775	32687	32711	32719	
1163	0	1997	5448	3719	7546	5132	0	32780	32775	32527	32775	32799	32647	32774	32703	
1164	0	1984	5465	3723	7538	5133	0	32767	33063	32541	32754	32727	32743	32811	32615	
1165	0	1963	5485	3712	7527	5134	0	32710	32947	32527	32763	32729	32535	32655	32647	
1166	0	1988	5489	3717	7454	5135	0	32550	32879	32647	32711	32775	32647	32739	32405	
1167	0	1962	5461	3694	7492	5136	0	32510	32903	32709	32791	32814	32687	32655	32658	
1168	0	1918	5484	3695	7498	5137	0	32423	32683	32797	32855	32807	32727	32674	32645	
1169	0	1986	5468	3715	7476	5138	0	32540	32737	32807	32822	32775	32537	32740	32707	
1170	0	1951	5468	3702	7515	5139	0	32683	32793	32877	32628	32802	32738	32711	32551	
1171	0	1967	5444	3698	7502	5140	0	32730	32853	32885	32541	32722	32684	32805	32565	
1172	0	2008	5465	3706	7505	5141	0	32731	32821	32771	32589	32807	32775	32701	32831	
1173	0	1953	5484	3698	7505	5142	0	32943	32759	32791	32711	32749	32516	32657	32742	
1174	0	1976	5488	3712	7490	5143	0	32914	32531	32754	32562	32771	32571	32666	32730	
1175	0	1966	5476	3675	7484	5144	0	32948	32677	32710	32487	32769	32735	32662	32647	
1176	0	1983	5508	3711	7526	5145	0	32845	32453	32607	32687	32725	32695	32647	32794	
1177	0	1978	5502	3725	7511	5146	0	32614	32371	32575	32675	32775	32679	32669	32757	
1178	0	1977	5512	3728	7488	5147	0	32639	32466	32698	32567	32822	32741	32635	32751	
1179	0	2020	5478	3698	7485	5148	0	32533	32301	32741	32723	32843	32559	32643	32877	
1180	0	1946	5509	3697	7492	5149	0	32539	32593	32887	32681	32775	32594	32703	32787	
1181	0	1979	5520	3702	7494	5150	0	32711	32617	32817	32747	32757	32717	32791	32799	
1182	0	1978	5504	3762	7489	5151	0	32877	32786	32647	32869	32759	32647	32875	32541	
1183	0	2003	5470	3684	7537	5152	0	32992	33059	32668	32925	32795	32789	32775	32583	
1184	0	1958	5472	3682	7496	5153	0	32943	32964	32646	32863	32799	32564	32823	32549	
1185	0	1939	5507	3685	7499	5154	0	32918	33151	32654	33015	32898	32621	32827	32487	
1186	0	1971	5496	3714	7512	5155	0	32922	32919	32741	32914	32887	32748	32775	32501	
1187	0	2005	5496	3679	7486	5156	0	32951	32665	32867	32770	32797	32751	32775	32466	
1188	0	1996	5450	3701	7472	5157	0	32887	32887	32815	32835	32747	32807	32702	32695	
1189	0	1988	5470	3700	7492	5158	0	32742	32873	32957	32871	32729	32655	32699	32655	
1190	0	1992	5508	3726	7495	5159	0	32691	32931	33049	32700	32775	32491	32687	32639	
1191	0	1961	5487	3688	7496	5160	0	32567	32941	33063	32743	32775	32711	32683	32575	
1192	0	2030	5511	3711	7502	5161	0	32605	32671	32911	32798	32767	32619	32775	32564	
1193	0	2019	5488	3747	7491	5162	0	32796	32767	32775	32663	32735	32708	32762	32775	
1194	0	1991	5506	3731	7509	5163	0	32829	32391	32677	32655	32785	32604	32710	32722	
1195	0	1973	5481	3760	7493	5164	0	32820	32609	32671	32795	32765	32657	32711	32740	
1196	0	1970	5470	3671	7508	5165	0	32887	32533	32719	32743	32867	32727	32756	32643	
1197	0	1961	5484	3707	7521	5166	0	32929	32447	32738	32647	32850	32668	32820	32647	
1198	0	1948	5472	3723	7522	5167	0	32887	32727	32787	32851	32847	32705	32724	32797	
1199	0	1970	5534	3728	7504	5168	0	32773	32735	32783	32797	32807	32701	32719	32669	
1200	0	1988	5495	3668	7490	5169	0	32734	32727	32743	32742	32749	32647	32743	32671	
1201	0	1932	5514	3710	7485	5170	0	32738	32783	32679	32879	32821	32427	32915	32765	
1202	0	1968	5482	3753	7518	5171	0	32773	32594	32627	32811	32863	32591	32876	32749	
1203	0	1996	5472	3736	7524	5172	0	32752	32854	32583	32725	32805	32631	32702	32686	
1204	0	1974	5502	3695	7510	5173	0	32748	32919	32689	32848	32809	32583	32738	32587	
1205	0	1976	5489	3677	7513	5174	0	32685	32837	32597	32703	32821	32723	32754	32578	
1206	0	1990	5488	3741	7490	5175	0	32692	32879	32598	32623	32763	32670	32685	32539	
1207	0	1960	5504	3714	7513	5176	0	32781	33013	32543	32647	32775	32731	32673	32431	
1208	0	1972	5506	3710	7496	5177	0	32775	32729	32607	32775	32795	32551	32615	32684	
1209	0	1960	5458	3708	7484	5178	0	32738	32856	32707	32820	32811	32615	32775	32663	
1210	0	1981	5480	3712	7490	5179	0	32646	32866	32775	32703	32743	32663	32799	32628	
1211	0	1969	5500	3718	7499	5180	0	32697	33038	32853	32707	32787	32631	32834	32751	
1212	0	1998	5479	3736	7514	5181	0	32845	32786	32823	32847	32812	32743	32804	32694	
1213	0	1986	5491	3740	7549	5182	0	32864	33053	32791	32729	32701	32548	32799	32669	
1214	0	1989	5530	3749	7557	5183	0	32783	32903	32646	32641	32767	32680	32835	32819	
1215	0	1976	5473	3730	7520	5184	0	32761	32763	32721	32741	32761	32643	32716	32767	
1216	0	1978	5458	3738	7458	5185	0	32758	32847	32811	32775	32811	32658	32731	32707	
1217	0	1930	5478	3737	7490	5186	0	32756	32541	32847	32727	32759	32647	32647	32767	
1218	0	2010	5462	3707	7557	5187	0	32643	32719	32903	32735	32789	32519	32559	32605	
1219	0	1980	5488	3693	7500	5188	0	32549	32583	32919	32871	32767	32519	32621	32828	
1220	0	2022	5464	3714	7507	5189	0	32642	32647	32783	32790	32715	32635	32769	32755	
1221	0	1997	5518	3705	7506	5190	0	32824	32647	32735	32647	32702	32714	32813	32641	
1222	0	2023	5475	3699	7516	5191	0	32864	32553	32698	32668	32731	32810	32762	32663	
1223	0	1944	5469	3683	7524	5192	0	32903	32739	32713	32646	32807	32591	32627	32679	
1224	0	1999	5512	3781	7494	5193	0	32940	32683	32579	32679	32868	32759	32731	32487	
1225	0	2007	5513	3723	7544	5194	0	32911	32831	32644	32821	32825	32639	32771	32461	
1226	0	2014	5462	3673	7523	5195	0	32863	32687	32791	32915	32783	32687	32751	32468	
1227	0	2023	5530	3706	7492	5196	0	32862	32785	32813	32871	32805	32554	32759	32607	
1228	0	2015	5471	3721	7471	5197	0	32783	32621	32743	32801	32839	32679	32738	32646	
1229	0	2006	5519	3700	7488	5198	0	32726	32724	32763	32765	32771	32703	32769	32775	
1230	0	1949	5516	3717	7468	5199	0	32614	32627	32735	32734	32767	32767	32659	32707	
1231	0	1952	5524	3769	7494	5200	0	32784	32639	32846	32795	32718	32637	32562	32687	
1232	0	1971	5468	3722	7494	5201	0	32725	32636	32927	32823	32823	32735	32756	32679	
1233	0	1958	5502	3758	7472	5202	0	32596	32647	32767	32769	32794	32735	32719	32691	
1234	0	1991	5529	3668	7555	5203	0	32687	32863	32679	32711	32743	32527	32719	32630	
1235	0	1963	5485	3716	7485	5204	0	32701	32662	32903	32773	32643	32763	32642	32717	
1236	0	1970	5524	3730	7508	5205	0	32685	32931	32875	32695	32811	32694	32702	32726	
1237	0	2012	5474	3759	7500	5206	0	32708	32791	32917	32683	32799	32765	32738	32801	
1238	0	2005	5468	3739	7492	5207	0	32861	32959	32786	32631	32783	32575	32662	32797	
1239	0	1984	5515	3712	7546	5208	0	32912	32852	32667	32631	32775	32655	32647	32722	
1240	0	1935	5501	3756	7492	5209	0	32969	32956	32571	32671	32858	32645	32684	32623	
1241	0	2005	5520	3734	7520	5210	0	32956	32761	32558	32820	32739	32775	32635	32543	
1242	0	2041	5519	3757	7528	5211	0	32894	32881	32607	32871	32751	32586	32695	32773	
1243	0	1984	5512	3728	7482	5212	0	32766	32635	32629	32871	32764	32506	32711	32615	
1244	0	1974	5492	3770	7462	5213	0	32655	32553	32711	33007	32703	32612	32713	32673	
1245	0	1964	5503	3735	7520	5214	0	32487	32535	32639	33155	32687	32731	32730	32675	
1246	0	1984	5500	3706	7496	5215	0	32375	32333	32586	32918	32785	32723	32743	32468	
1247	0	2020	5526	3659	7485	5216	0	32382	32647	32663	32693	32822	32775	32762	32519	
1248	0	2011	5476	3756	7485	5217	0	32604	32615	32661	32481	32775	32642	32722	32494	
1249	0	2020	5477	3763	7468	5218	0	32786	33074	32711	32548	32775	32707	32607	32647	
1250	0	2010	5474	3744	7485	5219	0	32790	32967	32775	32621	32691	32700	32583	32706	
1251	0	1973	5485	3716	7486	5220	0	32815	33137	32903	32543	32751	32765	32757	32687	
1252	0	2013	5466	3714	7501	5221	0	32942	32867	33079	32559	32875	32527	32825	32749	
1253	0	1989	5489	3774	7481	5222	0	32925	32999	33157	32577	32869	32571	32854	32705	
1254	0	1978	5482	3690	7485	5223	0	32949	32855	33239	32687	32807	32671	32727	32647	
1255	0	1951	5485	3713	7474	5224	0	32903	32669	33323	32591	32723	32647	32718	32753	
1256	0	2008	5476	3783	7502	5225	0	32803	32737	33199	32615	32783	32751	32723	32722	
1257	0	1959	5534	3695	7510	5226	0	32855	32405	32989	32749	32783	32715	32687	32599	
1258	0	1976	5507	3717	7498	5227	0	32710	32543	32939	32806	32722	32548	32729	32715	
1259	0	2013	5507	3726	7477	5228	0	32685	32415	32903	32754	32671	32658	32623	32804	
1260	0	1993	5479	3732	7484	5229	0	32594	32499	32721	32783	32727	32691	32599	32779	
1261	0	2008	5459	3734	7489	5230	0	32653	32629	32676	32773	32767	32775	32717	32703	
1262	0	1937	5500	3742	7438	5231	0	32718	32951	32561	32727	32839	32491	32808	32727	
1263	0	2008	5488	3711	7492	5232	0	32784	32967	32519	32791	32807	32687	32806	32647	
1264	0	1987	5543	3762	7482	5233	0	32775	33005	32551	32770	32822	32733	32747	32535	
1265	0	1976	5541	3705	7467	5234	0	32727	33151	32759	32631	32711	32675	32775	32471	
1266	0	2009	5465	3728	7539	5235	0	32734	32843	32757	32734	32689	32815	32788	32599	
1267	0	1968	5517	3714	7508	5236	0	32715	32949	32804	32743	32693	32615	32663	32609	
1268	0	1973	5500	3685	7430	5237	0	32711	32749	32943	32755	32773	32647	32679	32491	
1269	0	1960	5525	3730	7465	5238	0	32727	32646	32827	32695	32786	32716	32631	32741	
1270	0	1991	5484	3776	7480	5239	0	32791	32479	32831	32717	32839	32647	32631	32788	
1271	0	1965	5495	3701	7490	5240	0	32927	32479	32861	32821	32767	32739	32735	32683	
1272	0	1993	5520	3666	7490	5241	0	32925	32647	32700	32844	32757	32579	32775	32735	
1273	0	2001	5499	3722	7470	5242	0	32829	32599	32627	32743	32719	32523	32711	32546	
1274	0	1955	5494	3723	7506	5243	0	32807	32807	32599	32627	32765	32647	32725	32775	
1275	0	2014	5479	3717	7472	5244	0	32903	32811	32431	32839	32783	32735	32686	32695	
1276	0	1968	5455	3736	7474	5245	0	32916	32737	32451	32871	32775	32721	32643	32683	
1277	0	2036	5517	3667	7474	5246	0	32886	32965	32609	32822	32785	32821	32635	32790	
1278	0	1981	5500	3779	7471	5247	0	32800	33007	32510	32721	32767	32626	32558	32705	
1279	0	1996	5535	3700	7489	5248	0	32701	32967	32519	32775	32707	32583	32655	32831	
1280	0	1954	5490	3699	7521	5249	0	32607	32847	32723	32807	32791	32775	32743	32743	
1281	0	2022	5481	3715	7485	5250	0	32473	32871	32791	32803	32775	32715	32699	32705	
1282	0	1982	5474	3709	7473	5251	0	32448	32863	32899	32719	32823	32735	32743	32718	
1283	0	1979	5511	3683	7465	5252	0	32349	32831	32923	32735	32775	32550	32638	32639	
1284	0	1953	5481	3704	7486	5253	0	32537	32627	32986	32684	32695	32679	32681	32557	
1285	0	1930	5512	3728	7414	5254	0	32724	32495	32919	32771	32719	32630	32711	32529	
1286	0	1955	5504	3689	7467	5255	0	32811	32421	32814	32866	32805	32767	32731	32663	
1287	0	1990	5475	3735	7486	5256	0	32932	32285	32791	32797	32821	32482	32756	32643	
1288	0	1965	5481	3764	7444	5257	0	32937	32391	32775	32674	32767	32742	32701	32671	
1289	0	1957	5497	3758	7478	5258	0	32976	32699	32713	32565	32647	32695	32660	32679	
1290	0	1969	5492	3705	7494	5259	0	32898	32871	32671	32589	32751	32756	32735	32647	
1291	0	1957	5488	3734	7458	5260	0	32788	33015	32697	32612	32799	32587	32662	32775	
1292	0	1988	5553	3666	7483	5261	0	32676	32975	32711	32663	32797	32773	32763	32660	
1293	0	1987	5480	3715	7473	5262	0	32709	33267	32711	32647	32711	32677	32795	32631	
1294	0	1969	5495	3708	7474	5263	0	32660	33043	32687	32538	32733	32743	32647	32715	
1295	0	1956	5515	3740	7470	5264	0	32579	32942	32679	32599	32750	32631	32646	32659	
1296	0	2011	5449	3767	7450	5265	0	32627	32699	32583	32679	32841	32615	32584	32719	
1297	0	1976	5458	3717	7460	5266	0	32775	32647	32621	32807	32753	32775	32721	32757	
1298	0	1980	5515	3716	7475	5267	0	32874	32199	32673	32791	32847	32718	32723	32742	
1299	0	1970	5511	3769	7469	5268	0	32927	32438	32831	32789	32819	32727	32731	32685	
1300	0	1972	5512	3712	7478	5269	0	33002	32519	32959	32837	32775	32417	32677	32823	
1301	0	1967	5486	3691	7507	5270	0	32988	32811	32921	32967	32789	32691	32635	32759	
1302	0	2004	5508	3715	7491	5271	0	32948	33005	32851	33031	32756	32599	32749	32657	
1303	0	1980	5504	3698	7475	5272	0	32959	33316	32799	32914	32871	32775	32725	32660	
1304	0	2020	5522	3746	7483	5273	0	32755	32991	32854	32775	32775	32626	32761	32607	
1305	0	1989	5491	3761	7490	5274	0	32625	33084	32899	32686	32807	32762	32690	32564	
1306	0	1957	5483	3762	7485	5275	0	32535	32775	32966	32647	32684	32829	32749	32535	
1307	0	1951	5524	3739	7504	5276	0	32534	33034	32967	32674	32799	32617	32820	32579	
1308	0	1974	5505	3735	7496	5277	0	32583	32695	32933	32735	32868	32687	32703	32521	
1309	0	1977	5502	3702	7483	5278	0	32587	32855	32871	32805	32826	32685	32759	32759	
1310	0	1977	5517	3720	7490	5279	0	32599	32662	32799	32839	32739	32729	32605	32695	
1311	0	1960	5508	3692	7470	5280	0	32586	32871	32802	32807	32738	32534	32751	32674	
1312	0	1946	5508	3721	7486	5281	0	32644	32791	32876	32855	32745	32617	32771	32647	
1313	0	1947	5516	3708	7463	5282	0	32830	32900	32791	32867	32771	32607	32775	32743	
1314	0	2008	5493	3714	7478	5283	0	32890	32703	32715	32863	32759	32715	32749	32663	
1315	0	1984	5517	3711	7438	5284	0	32879	32863	32737	32681	32759	32690	32724	32758	
1316	0	1975	5488	3696	7441	5285	0	32804	32773	32826	32606	32755	32517	32725	32734	
1317	0	1943	5524	3777	7458	5286	0	32807	32727	32833	32708	32687	32769	32621	32783	
1318	0	2000	5476	3752	7479	5287	0	32830	32597	32803	32775	32791	32655	32788	32671	
1319	0	2008	5510	3724	7451	5288	0	32832	32675	32722	32647	32834	32775	32703	32655	
1320	0	1932	5473	3704	7490	5289	0	32937	32607	32585	32662	32709	32645	32715	32731	
1321	0	1989	5493	3780	7476	5290	0	32831	32574	32647	32789	32809	32567	32709	32710	
1322	0	1976	5527	3696	7509	5291	0	32818	32743	32747	32786	32807	32766	32663	32717	
1323	0	1978	5510	3704	7474	5292	0	32814	32479	32775	32647	32799	32698	32699	32512	
1324	0	1966	5496	3739	7481	5293	0	32822	32773	32868	32733	32739	32789	32645	32427	
1325	0	1960	5474	3749	7460	5294	0	32814	32527	32916	32679	32782	32567	32755	32547	
1326	0	1955	5498	3693	7458	5295	0	32855	32829	32869	32732	32797	32756	32694	32602	
1327	0	1998	5492	3728	7452	5296	0	32844	32745	32807	32781	32820	32699	32671	32591	
1328	0	1961	5491	3696	7478	5297	0	32847	32775	32847	32826	32827	32767	32695	32607	
1329	0	2010	5520	3696	7479	5298	0	32820	32751	32599	32722	32847	32615	32782	32707	
1330	0	1962	5508	3741	7495	5299	0	32764	32601	32525	32628	32724	32435	32623	32699	
1331	0	1960	5538	3721	7436	5300	0	32729	32579	32407	32803	32807	32737	32727	32692	
1332	0	1948	5484	3749	7483	5301	0	32690	32783	32764	32679	32787	32747	32746	32748	
1333	0	1940	5518	3724	7509	5302	0	32665	32751	32673	32807	32851	32553	32703	32771	
1334	0	1991	5500	3704	7489	5303	0	32679	32741	32695	32711	32810	32717	32751	32642	
1335	0	1991	5515	3703	7505	5304	0	32787	32845	32612	32694	32746	32695	32687	32633	
1336	0	2008	5500	3716	7514	5305	0	32831	32585	32718	32743	32839	32803	32679	32730	
1337	0	1985	5473	3728	7496	5306	0	32844	32749	32771	32793	32739	32698	32595	32799	
1338	0	1955	5478	3717	7432	5307	0	32786	32705	32739	32753	32775	32596	32723	32831	
1339	0	1940	5513	3734	7480	5308	0	32769	32823	32815	32662	32807	32677	32611	32775	
1340	0	1971	5519	3749	7470	5309	0	32799	32818	32811	32793	32798	32628	32828	32767	
1341	0	1985	5515	3741	7470	5310	0	32791	32623	32883	32803	32795	32771	32725	32551	
1342	0	1944	5447	3735	7448	5311	0	32863	32749	32886	32691	32541	32749	32775	32586	
1343	0	1998	5478	3758	7502	5312	0	32852	32799	32847	32753	32711	32559	32709	32603	
1344	0	1989	5518	3727	7482	5313	0	32719	32823	32771	32647	32875	32743	32646	32581	
1345	0	1982	5526	3755	7499	5314	0	32601	32813	32741	32725	32755	32717	32735	32671	
1346	0	1962	5499	3721	7490	5315	0	32518	32667	32614	32809	32783	32787	32699	32519	
1347	0	1942	5504	3738	7499	5316	0	32564	32799	32613	32783	32703	32679	32763	32511	
1348	0	1968	5516	3763	7476	5317	0	32690	32775	32828	32697	32739	32493	32714	32687	
1349	0	1948	5449	3738	7457	5318	0	32748	32854	32775	32820	32783	32655	32754	32609	
1350	0	1971	5514	3748	7463	5319	0	32804	32719	32949	32764	32751	32668	32685	32709	
1351	0	1957	5516	3714	7469	5320	0	32723	32631	32979	32707	32835	32787	32745	32775	
1352	0	1970	5511	3722	7470	5321	0	32771	32759	32931	32690	32724	32769	32638	32577	
1353	0	1956	5486	3747	7467	5322	0	32809	32754	32885	32839	32774	32669	32679	32583	
1354	0	1949	5476	3751	7485	5323	0	32812	32743	32868	32775	32735	32613	32615	32690	
1355	0	1968	5518	3717	7470	5324	0	32861	32647	32918	32685	32775	32580	32647	32707	
1356	0	1988	5525	3699	7460	5325	0	32784	32719	32722	32796	32709	32802	32679	32791	
1357	0	1939	5510	3724	7442	5326	0	32730	32730	32691	32621	32690	32731	32623	32863	
1358	0	1959	5508	3732	7441	5327	0	32708	32788	32614	32663	32772	32509	32729	32643	
1359	0	1958	5497	3784	7475	5328	0	32719	32927	32709	32795	32723	32693	32719	32756	
1360	0	1974	5487	3734	7482	5329	0	32690	32823	32666	32623	32807	32683	32731	32836	
1361	0	1958	5468	3702	7480	5330	0	32751	32735	32723	32722	32849	32743	32723	32765	
1362	0	1998	5507	3758	7466	5331	0	32776	32903	32717	32863	32867	32647	32819	32797	
1363	0	1988	5512	3787	7484	5332	0	32775	32855	32807	32775	32833	32758	32703	32583	
1364	0	1966	5474	3680	7469	5333	0	32833	33023	32869	32724	32773	32666	32755	32477	
1365	0	2020	5539	3741	7491	5334	0	32786	32823	32807	32775	32863	32539	32843	32605	
1366	0	1938	5468	3752	7490	5335	0	32823	32625	32850	32911	32726	32579	32807	32623	
1367	0	1967	5529	3709	7457	5336	0	32830	32797	32775	32751	32796	32496	32775	32615	
1368	0	1957	5443	3708	7459	5337	0	32770	32732	32839	32687	32687	32775	32647	32679	
1369	0	1949	5504	3726	7508	5338	0	32775	32758	32684	32767	32819	32771	32679	32615	
1370	0	1956	5504	3778	7437	5339	0	32797	32772	32630	32759	32803	32631	32590	32615	
1371	0	1982	5501	3760	7468	5340	0	32822	32691	32612	32642	32675	32679	32727	32734	
1372	0	1947	5497	3766	7502	5341	0	32842	32687	32702	32847	32753	32694	32751	32725	
1373	0	1949	5463	3740	7472	5342	0	32765	32775	32761	32717	32821	32447	32647	32815	
1374	0	1949	5516	3773	7495	5343	0	32753	32839	32806	32903	32711	32738	32743	32607	
1375	0	1949	5533	3706	7488	5344	0	32759	32874	32807	32855	32887	32535	32669	32483	
1376	0	1956	5491	3698	7496	5345	0	32756	32695	32803	32775	32839	32690	32707	32625	
1377	0	1960	5542	3751	7463	5346	0	32708	32719	32802	32679	32759	32695	32741	32761	
1378	0	1965	5485	3780	7416	5347	0	32644	32703	32835	32739	32751	32743	32742	32795	
1379	0	2007	5521	3722	7483	5348	0	32583	32621	32775	32803	32715	32588	32763	32868	
1380	0	1966	5528	3717	7460	5349	0	32628	32773	32775	32769	32725	32555	32676	32623	
1381	0	1995	5482	3728	7486	5350	0	32736	32699	32759	32724	32820	32751	32605	32814	
1382	0	1964	5504	3740	7500	5351	0	32799	32791	32748	32727	32843	32757	32793	32714	
1383	0	1955	5504	3743	7481	5352	0	32799	32692	32807	32747	32838	32658	32743	32613	
1384	0	1960	5496	3701	7456	5353	0	32792	32858	32759	32716	32775	32695	32789	32613	
1385	0	1970	5529	3723	7485	5354	0	32827	32727	32717	32763	32719	32795	32775	32475	
1386	0	1957	5499	3697	7461	5355	0	32769	32804	32754	32773	32775	32663	32811	32659	
1387	0	1963	5560	3720	7476	5356	0	32736	32727	32695	32759	32764	32647	32647	32603	
1388	0	1955	5500	3746	7485	5357	0	32702	32647	32660	32727	32711	32766	32647	32642	
1389	0	1935	5487	3786	7475	5358	0	32695	32923	32691	32682	32772	32614	32643	32570	
1390	0	1933	5474	3739	7442	5359	0	32726	32775	32679	32709	32743	32615	32717	32716	
1391	0	1965	5508	3742	7478	5360	0	32754	32775	32711	32797	32807	32663	32743	32635	
1392	0	1978	5518	3747	7479	5361	0	32732	32741	32751	32858	32845	32706	32775	32757	
1393	0	1954	5488	3721	7500	5362	0	32743	32749	32797	32784	32694	32675	32818	32703	
1394	0	1963	5554	3740	7468	5363	0	32802	32749	32733	32684	32751	32503	32677	32605	
1395	0	1971	5448	3788	7444	5364	0	32836	32583	32799	32709	32839	32758	32631	32775	
1396	0	1987	5496	3756	7501	5365	0	32846	32698	32863	32791	32775	32669	32683	32789	
1397	0	1980	5572	3708	7484	5366	0	32808	32637	32743	32759	32783	32687	32685	32789	
1398	0	1950	5508	3731	7457	5367	0	32790	32763	32807	32647	32700	32610	32719	32713	
1399	0	1916	5498	3747	7466	5368	0	32748	32820	32839	32623	32775	32631	32677	32729	
1400	0	1954	5514	3788	7464	5369	0	32715	32807	32886	32715	32799	32628	32797	32751	
1401	0	1948	5500	3760	7420	5370	0	32793	32807	32919	32821	32823	32690	32679	32531	
1402	0	1940	5468	3725	7505	5371	0	32737	32631	32985	32911	32695	32771	32692	32749	
1403	0	1968	5484	3768	7432	5372	0	32786	32863	32980	32861	32706	32581	32799	32674	
1404	0	1979	5504	3739	7484	5373	0	32813	32717	32999	32701	32791	32786	32783	32615	
1405	0	1970	5526	3706	7450	5374	0	32782	32895	33043	32762	32815	32713	32708	32577	
1406	0	1992	5519	3754	7459	5375	0	32838	32687	32946	32773	32759	32719	32594	32595	
1407	0	1982	5533	3711	7473	5376	0	32771	32884	32815	32761	32717	32695	32722	32595	
1408	0	1956	5456	3767	7448	5377	0	32762	32863	32873	32823	32675	32555	32731	32601	
1409	0	1964	5469	3746	7490	5378	0	32817	32811	32817	32629	32773	32695	32743	32647	
1410	0	1989	5508	3717	7482	5379	0	32790	32737	32763	32786	32899	32631	32756	32639	
1411	0	1991	5549	3781	7485	5380	0	32818	32802	32666	32722	32669	32679	32659	32775	
1412	0	1992	5510	3736	7452	5381	0	32862	32823	32543	32781	32762	32623	32635	32663	
1413	0	1969	5475	3758	7449	5382	0	32787	32759	32557	32639	32775	32707	32647	32679	
1414	0	1967	5551	3720	7459	5383	0	32745	32725	32450	32815	32741	32697	32694	32799	
1415	0	1996	5503	3730	7444	5384	0	32836	32671	32491	32679	32687	32567	32638	32599	
1416	0	1992	5490	3753	7443	5385	0	32743	32489	32463	32775	32745	32754	32711	32743	
1417	0	1944	5508	3738	7495	5386	0	32692	32485	32639	32785	32775	32647	32695	32767	
1418	0	1955	5511	3707	7444	5387	0	32602	32789	32658	32613	32743	32683	32811	32735	
1419	0	1984	5490	3726	7479	5388	0	32594	32887	32739	32710	32845	32619	32751	32701	
1420	0	1959	5472	3721	7474	5389	0	32549	32850	32719	32607	32799	32725	32607	32799	
1421	0	1953	5530	3745	7474	5390	0	32604	32870	32895	32711	32668	32690	32685	32711	
1422	0	1939	5514	3727	7491	5391	0	32725	32967	32982	32751	32759	32534	32751	32545	
1423	0	1930	5506	3753	7460	5392	0	32818	32967	33003	32802	32825	32760	32683	32578	
1424	0	1968	5539	3694	7460	5393	0	32900	32974	33069	32951	32829	32699	32756	32495	
1425	0	1999	5474	3738	7458	5394	0	32891	32681	32927	32942	32826	32639	32749	32589	
1426	0	1965	5545	3754	7472	5395	0	32968	32564	32895	32917	32847	32717	32797	32499	
1427	0	1962	5558	3729	7448	5396	0	33040	32543	32786	32828	32750	32633	32775	32671	
1428	0	1972	5511	3720	7424	5397	0	33116	32662	32751	32854	32767	32511	32731	32671	
1429	0	1977	5470	3704	7482	5398	0	33050	32863	32646	32871	32787	32732	32735	32709	
1430	0	1909	5505	3718	7492	5399	0	32870	33030	32644	32639	32705	32631	32708	32579	
1431	0	1959	5474	3752	7471	5400	0	32756	33031	32541	32703	32671	32746	32679	32745	
1432	0	1975	5504	3762	7528	5401	0	32600	33127	32618	32531	32789	32517	32785	32695	
1433	0	1964	5486	3725	7492	5402	0	32398	32831	32615	32637	32799	32719	32694	32850	
1434	0	1966	5495	3713	7492	5403	0	32233	32615	32625	32620	32698	32762	32755	32615	
1435	0	1959	5476	3756	7444	5404	0	32172	32535	32692	32739	32791	32589	32732	32748	
1436	0	1976	5507	3740	7458	5405	0	32356	32495	32647	32619	32811	32588	32695	32762	
1437	0	1976	5554	3728	7482	5406	0	32587	32457	32765	32731	32827	32657	32646	32660	
1438	0	1949	5462	3733	7491	5407	0	32647	32617	32879	32655	32665	32690	32683	32645	
1439	0	1985	5473	3669	7448	5408	0	32847	32847	32947	32831	32710	32575	32647	32677	
1440	0	1930	5532	3716	7469	5409	0	32918	32879	32947	32662	32799	32623	32629	32815	
1441	0	1957	5520	3698	7446	5410	0	33002	32903	32871	32882	32766	32775	32797	32517	
1442	0	1993	5476	3721	7496	5411	0	33039	33005	32861	32695	32742	32769	32783	32727	
