# OpenSignals Text File Format
# {"00:07:80:64:6D:DA": {"sensor": ["CUSTOM/0.5/1.0/V", "CUSTOM/0.5/1.0/V", "CUSTOM/0.5/1.0/V", "CUSTOM/0.5/1.0/V"], "device name": "Platform", "column": ["nSeq", "DI", "CH1", "CH2", "CH3", "CH4"], "sync interval": 2, "time": "14:58:40.289", "comments": "", "device connection": "BTH00:07:80:64:6D:DA", "channels": [1, 2, 3, 4], "date": "2017-6-29", "mode": 0, "digital IO": [0, 1], "firmware version": 772, "device": "biosignalsplux", "position": 0, "sampling rate": 1000, "label": ["CH1", "CH2", "CH3", "CH4"], "resolution": [16, 16, 16, 16], "special": [{}, {}, {}, {}]}, "00:07:80:3B:46:38": {"sensor": ["EMG", "EMG", "EMG", "EMG", "EMG", "EMG", "EMG", "EMG"], "device name": "EMGs", "column": ["nSeq", "DI", "X", "CH2", "CH3", "CH4", "CH5", "CH6", "CH7", "CH8"], "sync interval": 2, "time": "14:58:40.289", "comments": "", "device connection": "BTH00:07:80:3B:46:38", "channels": [1, 2, 3, 4, 5, 6, 7, 8], "date": "2017-6-29", "mode": 0, "digital IO": [0, 1], "firmware version": 772, "device": "biosignalsplux", "position": 1, "sampling rate": 1000, "label": ["X", "CH2", "CH3", "CH4", "CH5", "CH6", "CH7", "CH8"], "resolution": [16, 16, 16, 16, 16, 16, 16, 16], "special": [{}, {}, {}, {}, {}, {}, {}, {}]}}
# EndOfHeader
4104	0	138	1253	29	1959	0	0	32832	32695	32903	32807	32839	32515	32775	32509	
4105	0	117	1258	30	1964	1	0	32828	32742	32958	33085	32765	32503	32799	32676	
4106	0	129	1247	29	1963	2	0	32833	32685	32839	32991	32803	32485	32821	32607	
4107	0	111	1272	30	1958	3	0	32786	32773	32743	32887	32775	32507	32692	32582	
4108	0	99	1264	29	2012	4	0	32824	32647	32647	32789	32719	32615	32707	32815	
4109	0	142	1279	29	1988	5	0	32850	32677	32601	32647	32677	32743	32615	32775	
4110	0	101	1223	27	1981	6	0	32803	32549	32541	32730	32871	32807	32620	32681	
4111	0	75	1259	28	2004	7	0	32751	32823	32300	32495	32877	32735	32751	32677	
4112	0	72	1252	30	1965	8	0	32720	32775	32135	32399	32911	32709	32748	32685	
4113	0	137	1234	29	1934	9	0	32743	32831	32215	32670	33031	32671	32655	32711	
4114	0	148	1202	29	1943	10	0	32671	32743	32380	32796	33047	32635	32681	32795	
4115	0	100	1263	29	1927	11	0	32719	32708	32631	32530	32839	32763	32550	32671	
4116	0	107	1282	28	1974	12	0	32742	32894	32871	32357	32763	32806	32667	32647	
4117	0	111	1237	30	1943	13	0	32812	32787	33054	32116	32703	32681	32708	32583	
4118	0	138	1243	29	1997	14	0	32802	32687	33159	31703	32639	32668	32765	32549	
4119	0	117	1234	28	1930	15	0	32756	32879	33095	31783	32617	32695	32697	32647	
4120	0	110	1257	29	1919	16	0	32790	32916	32935	32189	32762	32623	32733	32615	
4121	0	132	1243	29	1963	17	0	32812	32850	32769	32406	32687	32704	32751	32569	
4122	0	98	1209	29	1966	18	0	32766	32783	32739	32443	32771	32702	32703	32631	
4123	0	95	1232	28	1976	19	0	32807	32614	32601	32338	32639	32623	32678	32695	
4124	0	77	1240	30	1956	20	0	32826	32799	32551	32678	32751	32667	32799	32855	
4125	0	116	1290	29	1976	21	0	32791	32893	32409	32859	32759	32559	32785	32738	
4126	0	82	1208	28	1980	22	0	32775	32883	32404	33323	32709	32485	32725	32773	
4127	0	120	1276	28	1950	23	0	32782	32807	32417	33735	32799	32535	32692	32690	
4128	0	102	1261	29	1947	24	0	32700	32793	32479	33655	32671	32631	32705	32691	
4129	0	145	1263	29	1949	25	0	32695	32594	32626	33386	32735	32621	32626	32663	
4130	0	115	1244	29	1988	26	0	32656	32759	32647	33311	32818	32647	32575	32695	
4131	0	94	1236	30	1976	27	0	32694	32887	32628	33335	32715	32557	32637	32603	
4132	0	102	1246	29	1940	28	0	32788	32819	32629	33369	32751	32479	32637	32555	
4133	0	108	1202	29	1948	29	0	32771	32628	32685	33509	32789	32609	32707	32491	
4134	0	142	1247	28	1956	30	0	32749	32751	32903	33455	32817	32607	32701	32602	
4135	0	108	1259	30	1973	31	0	32754	32903	32934	33155	32666	32628	32738	32511	
4136	0	123	1226	30	1912	32	0	32775	32807	32980	32812	32775	32687	32675	32551	
4137	0	70	1241	29	1943	33	0	32743	32807	32935	32831	32891	32685	32789	32606	
4138	0	61	1283	29	1995	34	0	32719	32711	32891	32819	32877	32679	32821	32871	
4139	0	102	1275	28	1975	35	0	32742	32918	33095	32683	32851	32647	32773	32757	
4140	0	103	1275	29	2000	36	0	32814	32900	33071	32562	32741	32679	32742	32679	
4141	0	128	1248	29	1984	37	0	32769	32767	32985	32484	32807	32655	32785	32706	
4142	0	70	1213	28	1989	38	0	32754	32754	32926	32214	32903	32647	32733	32559	
4143	0	98	1251	29	1997	39	0	32796	32703	33068	31962	32903	32692	32631	32571	
4144	0	114	1236	29	1953	40	0	32839	32543	33050	32007	32847	32699	32647	32703	
4145	0	139	1245	30	2009	41	0	32810	32580	33030	32035	32807	32799	32617	32743	
4146	0	119	1202	30	1979	42	0	32847	32727	33063	32127	32735	32807	32607	32804	
4147	0	118	1218	30	1996	43	0	32847	32763	32983	32191	32743	32742	32611	32684	
4148	0	122	1279	28	1973	44	0	32861	32764	32855	32483	32831	32755	32583	32583	
4149	0	111	1229	28	1996	45	0	32859	32630	32738	32754	32823	32833	32566	32658	
4150	0	128	1222	29	1948	46	0	32881	32671	32643	32935	32867	32773	32647	32755	
4151	0	86	1272	30	1956	47	0	32815	32685	32607	33139	32839	32685	32735	32647	
4152	0	119	1228	29	1989	48	0	32735	32791	32629	33167	32756	32583	32691	32607	
4153	0	139	1226	29	1954	49	0	32701	32655	32713	33274	32761	32623	32583	32569	
4154	0	96	1241	29	1931	50	0	32615	32743	32623	33061	32815	32551	32583	32551	
4155	0	132	1240	29	1977	51	0	32615	32937	32619	32959	32706	32639	32561	32497	
4156	0	113	1229	28	2002	52	0	32647	32799	32659	33175	32623	32630	32747	32511	
4157	0	103	1251	28	1968	53	0	32678	32621	32671	32653	32807	32598	32852	32583	
4158	0	134	1300	29	1964	54	0	32655	32839	32767	32334	32687	32587	32851	32541	
4159	0	91	1287	28	1943	55	0	32667	32861	32739	32514	32691	32603	32807	32615	
4160	0	86	1261	29	1958	56	0	32762	32858	32818	32457	32775	32647	32783	32679	
4161	0	122	1280	29	1970	57	0	32837	32717	32753	32542	32755	32724	32796	32751	
4162	0	122	1244	28	1948	58	0	32873	32903	32571	32687	32751	32739	32766	32662	
4163	0	118	1257	30	1952	59	0	32935	33047	32475	32771	32847	32691	32811	32645	
4164	0	84	1223	30	1961	60	0	32911	32867	32354	32739	32679	32751	32866	32606	
4165	0	103	1254	28	1979	61	0	32877	32803	32428	32899	32703	32591	32791	32601	
4166	0	99	1290	30	2004	62	0	32914	32587	32510	33095	32631	32717	32695	32775	
4167	0	120	1279	29	1936	63	0	32876	32763	32495	33095	32734	32739	32655	32671	
4168	0	102	1242	29	1956	64	0	32826	32823	32519	33151	32615	32773	32663	32615	
4169	0	126	1246	29	1968	65	0	32831	32775	32671	33215	32706	32717	32639	32655	
4170	0	71	1199	29	1937	66	0	32712	32639	32647	33131	32775	32757	32673	32675	
4171	0	83	1252	29	1953	67	0	32606	32463	32717	32901	32919	32743	32701	32639	
4172	0	104	1246	29	1993	68	0	32597	32526	32929	32295	32862	32705	32629	32749	
4173	0	122	1297	29	1973	69	0	32639	32647	32990	32189	32871	32708	32863	32821	
4174	0	100	1242	29	1977	70	0	32708	32639	33229	32055	32809	32743	32735	32642	
4175	0	92	1240	29	1975	71	0	32726	32479	33307	31985	32871	32683	32677	32615	
4176	0	153	1243	29	1998	72	0	32736	32335	33299	32221	32819	32656	32741	32575	
4177	0	170	1259	28	1966	73	0	32711	32611	33295	32531	32822	32749	32887	32855	
4178	0	133	1248	29	1967	74	0	32612	32638	33063	32274	32963	32767	32903	32762	
4179	0	121	1215	30	1962	75	0	32554	32567	32687	32191	32919	32708	32871	32679	
4180	0	106	1249	29	1944	76	0	32615	32407	32467	32506	32903	32693	32877	32593	
4181	0	133	1288	29	1958	77	0	32764	32381	32534	33213	32771	32663	32841	32564	
4182	0	102	1250	29	1996	78	0	32825	32717	32495	33327	32868	32692	32887	32622	
4183	0	132	1264	28	1969	79	0	32732	32940	32443	33147	32805	32734	32847	32759	
4184	0	115	1245	29	1946	80	0	32839	33205	32471	33303	32709	32716	32711	32627	
4185	0	90	1232	30	1979	81	0	32936	33271	32574	33399	32727	32767	32767	32538	
4186	0	118	1263	29	1999	82	0	32927	33735	32806	33145	32739	32781	32679	32519	
4187	0	123	1235	29	1920	83	0	32911	33903	33105	33059	32767	32751	32613	32567	
4188	0	106	1257	28	1932	84	0	32769	33630	33060	33185	32695	32695	32604	32627	
4189	0	150	1269	29	1949	85	0	32660	33239	32973	33215	32647	32671	32660	32895	
4190	0	72	1202	28	2017	86	0	32441	32655	32814	33351	32615	32691	32683	32694	
4191	0	151	1241	29	1943	87	0	32352	32516	32733	33137	32693	32733	32607	32743	
4192	0	136	1284	29	1953	88	0	32404	32647	32822	32975	32647	32773	32655	32647	
4193	0	90	1247	29	1908	89	0	32514	32381	32973	32799	32663	32746	32511	32563	
4194	0	104	1253	29	1961	90	0	32719	32147	33009	32685	32613	32786	32534	32667	
4195	0	54	1249	29	1960	91	0	32923	32605	33059	32647	32571	32885	32603	32956	
4196	0	134	1285	29	1918	92	0	32890	33069	33061	32671	32555	32882	32567	33035	
4197	0	121	1249	30	1962	93	0	32999	33092	33007	32551	32759	32764	32611	32859	
4198	0	115	1245	29	1933	94	0	32796	33071	32821	32615	32814	32703	32591	32758	
4199	0	118	1253	29	1962	95	0	32896	33159	32834	32626	32903	32612	32693	32679	
4200	0	160	1269	29	1934	96	0	32831	32775	32844	32447	32831	32717	32791	32747	
4201	0	112	1320	30	1954	97	0	32793	32867	32751	32503	32851	32644	32711	32695	
4202	0	109	1210	30	1988	98	0	32700	32661	32615	32343	32863	32713	32767	32636	
4203	0	96	1249	30	1967	99	0	32722	32663	32695	32247	32799	32629	32775	32587	
4204	0	126	1228	28	1985	100	0	32780	32791	32647	32327	32833	32673	32743	32583	
4205	0	90	1285	29	1948	101	0	32831	32831	32685	32506	32775	32647	32642	32463	
4206	0	107	1245	28	1944	102	0	32787	32925	32543	32611	32765	32647	32683	32391	
4207	0	120	1225	30	1934	103	0	32703	32911	32516	32615	32850	32707	32717	32470	
4208	0	91	1250	29	1962	104	0	32713	32749	32503	32631	32847	32699	32877	32700	
4209	0	133	1286	29	1934	105	0	32784	32647	32376	32679	32703	32679	32834	32727	
4210	0	119	1262	29	1999	106	0	32721	32419	32357	32601	32835	32647	32763	32567	
4211	0	128	1212	29	1984	107	0	32729	32647	32477	32799	32671	32629	32637	32647	
4212	0	148	1269	28	1980	108	0	32687	32558	32695	32751	32598	32679	32859	32699	
4213	0	109	1223	30	1994	109	0	32698	32406	32903	32834	32679	32689	32933	32668	
4214	0	122	1226	30	1957	110	0	32735	32519	32922	32903	32710	32801	32815	32647	
4215	0	98	1236	29	1978	111	0	32810	32692	32927	32893	32659	32799	32901	32751	
4216	0	89	1255	30	1974	112	0	32885	32647	32837	32967	32695	32783	32876	32759	
4217	0	165	1231	29	1963	113	0	32927	32515	32923	32967	32903	32797	32923	32911	
4218	0	100	1204	29	1942	114	0	32911	32754	32858	32855	32903	32729	32807	32832	
4219	0	104	1207	29	1970	115	0	32929	32715	32820	32823	32727	32740	32790	32899	
4220	0	97	1255	30	1941	116	0	32764	32739	32799	32787	32738	32722	32774	32623	
4221	0	106	1253	29	2000	117	0	32774	32563	32799	32742	32803	32719	32686	32551	
4222	0	163	1214	31	1942	118	0	32722	32773	32647	32575	32711	32775	32799	32597	
4223	0	77	1248	27	1961	119	0	32767	32687	32559	32695	32663	32578	32694	32541	
4224	0	110	1224	29	2017	120	0	32767	32735	32517	32711	32580	32727	32597	32479	
4225	0	132	1247	29	1972	121	0	32830	32533	32478	32639	32705	32711	32598	32321	
4226	0	135	1243	28	2013	122	0	32850	32767	32593	32621	32719	32686	32595	32297	
4227	0	123	1296	30	1951	123	0	32743	32747	32859	32775	32634	32699	32663	32325	
4228	0	112	1256	30	1960	124	0	32692	32751	32798	32765	32604	32727	32723	32356	
4229	0	109	1226	30	1976	125	0	32751	32695	32827	32647	32640	32751	32694	32391	
4230	0	101	1181	29	1983	126	0	32688	32647	32813	32671	32698	32727	32503	32455	
4231	0	113	1270	27	1936	127	0	32704	32818	32775	32875	32621	32846	32567	32660	
4232	0	95	1294	29	1978	128	0	32738	32839	32876	32827	32691	32831	32633	32839	
4233	0	107	1234	29	1971	129	0	32787	32588	32879	32767	32757	32765	32571	32903	
4234	0	155	1264	28	1971	130	0	32839	32815	32818	32811	32894	32661	32549	32965	
4235	0	125	1237	29	1997	131	0	32839	32751	32775	32786	32879	32629	32599	32964	
4236	0	72	1233	28	1939	132	0	32815	32734	32813	32694	32767	32580	32687	32887	
4237	0	70	1212	31	1978	133	0	32773	32663	33039	32914	32669	32557	32707	32855	
4238	0	137	1251	29	1988	134	0	32775	32847	33143	32836	32820	32519	32686	32703	
4239	0	104	1229	28	1921	135	0	32709	32759	32919	32804	32895	32535	32738	32613	
4240	0	141	1315	29	2019	136	0	32711	32597	32698	32741	32890	32553	32687	32515	
4241	0	106	1301	28	1974	137	0	32708	32797	32571	32698	32775	32611	32590	32181	
4242	0	149	1273	28	1950	138	0	32769	32845	32495	32679	32727	32497	32375	31901	
4243	0	98	1256	28	1967	139	0	32815	32695	32535	32875	32743	32716	32244	32175	
4244	0	148	1270	29	1958	140	0	32825	32993	32475	32917	32893	32599	32669	32291	
4245	0	114	1242	28	1981	141	0	32762	32903	32585	33084	32839	32631	33202	32479	
4246	0	87	1253	29	1989	142	0	32708	32717	32615	32998	32723	32530	33183	32570	
4247	0	123	1256	30	1988	143	0	32685	32915	32566	32811	32887	32519	32971	32591	
4248	0	108	1279	29	1982	144	0	32658	32839	32574	32975	32861	32499	32756	32577	
4249	0	104	1229	30	2000	145	0	32612	32693	32643	32903	32647	32542	32511	32703	
4250	0	76	1275	29	1936	146	0	32653	32943	32647	32844	32751	32599	32030	32669	
4251	0	100	1261	29	1934	147	0	32629	32838	32639	32757	32599	32391	32621	32647	
4252	0	96	1270	29	1985	148	0	32680	32575	32612	32402	32548	32427	32519	32437	
4253	0	104	1266	29	1979	149	0	32708	32811	32679	32455	32685	32515	32643	32339	
4254	0	127	1268	27	1968	150	0	32727	32729	32887	32263	32711	32633	32676	32381	
4255	0	99	1251	29	1925	151	0	32748	32527	33030	32135	32708	32591	32732	32599	
4256	0	97	1205	29	1963	152	0	32727	32679	33183	32214	32591	32407	32601	32748	
4257	0	101	1216	29	1968	153	0	32711	32674	33243	32231	32530	32647	32463	33062	
4258	0	137	1240	28	1971	154	0	32681	32561	33245	32518	32485	32807	32359	33135	
4259	0	130	1251	28	1954	155	0	32647	32775	33363	32571	32538	32700	32643	32807	
4260	0	91	1260	28	1997	156	0	32599	32791	33373	32735	32751	32827	32723	32541	
4261	0	97	1221	29	1969	157	0	32647	32799	33299	32809	32635	32717	32668	32263	
4262	0	132	1286	28	2000	158	0	32687	32711	33231	32839	32389	32607	32583	31751	
4263	0	65	1256	30	1952	159	0	32730	32789	33287	32937	32519	32660	32711	32252	
4264	0	107	1256	28	1991	160	0	32771	32564	33453	32853	32505	32667	32732	32803	
4265	0	86	1299	29	1960	161	0	32724	32502	33378	32670	32322	32646	32485	33031	
4266	0	85	1257	30	1943	162	0	32795	32311	33356	32563	32391	32789	32219	32967	
4267	0	124	1253	28	1943	163	0	32915	32501	33243	32377	32409	32947	31843	32839	
4268	0	138	1260	29	1953	164	0	32940	32431	33219	32063	32407	33079	31556	32925	
4269	0	114	1237	28	1966	165	0	32935	32540	33041	31950	32489	33091	31511	32829	
4270	0	154	1265	28	1963	166	0	32931	32372	32879	32063	32455	32977	31675	32535	
4271	0	104	1239	30	1966	167	0	32958	32599	32823	32359	32619	32924	32157	32551	
4272	0	88	1246	30	1965	168	0	33094	32301	32903	32349	32700	33095	32733	32926	
4273	0	101	1229	29	2001	169	0	33164	32127	32865	32348	32859	33172	32981	33095	
4274	0	132	1271	29	1945	170	0	33315	32041	32639	32487	32975	33099	33270	33285	
4275	0	105	1238	30	1949	171	0	33302	32271	32595	32549	32995	33234	33504	33271	
4276	0	131	1264	29	1984	172	0	33319	32342	32519	32765	33095	32999	33527	33259	
4277	0	105	1245	28	1980	173	0	33199	32383	32607	32975	33069	32863	33485	33299	
4278	0	135	1233	28	1947	174	0	33091	32543	32535	33030	33095	32922	33310	33181	
4279	0	113	1254	28	1943	175	0	33071	32915	32237	33116	33021	32911	33357	33053	
4280	0	106	1263	29	1938	176	0	33050	33186	32207	33307	33149	32807	33607	32898	
4281	0	105	1232	29	1956	177	0	32876	33271	32335	33611	33293	32495	33792	32739	
4282	0	91	1301	28	1976	178	0	32799	33215	32135	33943	33458	32111	33967	32735	
4283	0	137	1226	29	1970	179	0	32772	33247	32109	34068	33527	32123	33891	32826	
4284	0	132	1251	28	1961	180	0	32727	33479	31999	33871	33442	32179	33826	32773	
4285	0	54	1233	31	1960	181	0	32742	33447	31788	33839	33554	32181	33922	32621	
4286	0	100	1299	30	1992	182	0	32754	33329	31479	33999	33444	32103	33779	32484	
4287	0	137	1290	28	1950	183	0	32799	33382	31375	33871	33565	32026	33413	32423	
4288	0	153	1256	29	1982	184	0	32799	33542	31559	33728	33257	32180	33090	32378	
4289	0	106	1224	30	1966	185	0	32544	33375	31991	33506	32821	32116	32960	32303	
4290	0	99	1228	29	1942	186	0	32455	33283	32317	33110	32788	32203	32647	32117	
4291	0	132	1205	30	1923	187	0	32305	33037	32452	32595	32757	31994	32807	32211	
4292	0	113	1253	28	1966	188	0	32293	33127	32611	32514	32739	32046	32564	32271	
4293	0	74	1238	28	1992	189	0	32391	32869	32735	32331	32763	32302	32235	32293	
4294	0	87	1274	27	1962	190	0	32313	32821	32903	32431	32897	32643	32164	32298	
4295	0	104	1208	28	1951	191	0	32391	32688	32987	32455	32943	32819	32172	32343	
4296	0	117	1268	28	1966	192	0	32440	32887	33159	32591	32754	32839	32314	32455	
4297	0	97	1277	30	1930	193	0	32425	32775	33234	32731	32567	32804	32519	32330	
4298	0	165	1259	28	1997	194	0	32440	32759	33045	32871	32509	32927	32879	32437	
4299	0	122	1232	29	1967	195	0	32545	32583	33067	32809	32638	32723	33175	32519	
4300	0	97	1243	28	1962	196	0	32594	32714	33122	32799	32514	32669	33053	32495	
4301	0	103	1262	28	1970	197	0	32605	32848	33131	32647	32421	32775	32739	32311	
4302	0	94	1230	29	1998	198	0	32642	32659	33103	32452	32609	32812	32481	32219	
4303	0	115	1221	29	1979	199	0	32638	32489	32934	32285	32679	32811	32311	32303	
4304	0	86	1224	28	1965	200	0	32671	32671	32745	32239	32615	32764	32295	32471	
4305	0	145	1216	30	1956	201	0	32692	32623	32693	32372	32639	32705	32401	32671	
4306	0	100	1237	30	1943	202	0	32647	32687	32811	32463	32495	32636	32231	32597	
4307	0	103	1228	28	1970	203	0	32679	32582	32981	32535	32543	32755	32309	32531	
4308	0	155	1254	30	1941	204	0	32764	32749	33014	32382	32725	32698	32535	32517	
4309	0	108	1249	29	1970	205	0	32751	32477	33063	32351	32841	32783	32647	32591	
4310	0	118	1276	29	1972	206	0	32821	32743	32927	32470	32903	32775	32501	32679	
4311	0	121	1248	29	1981	207	0	32788	32623	32899	32546	32693	32459	32576	32757	
4312	0	67	1228	29	1967	208	0	32799	32483	32991	32663	32823	32439	32387	32695	
4313	0	90	1251	29	1972	209	0	32760	32807	32967	32863	32759	32503	32330	32667	
4314	0	145	1247	29	1980	210	0	32815	32751	32867	32733	32655	32612	32421	32598	
4315	0	119	1263	29	1966	211	0	32797	32575	32721	32444	32739	32711	32582	32660	
4316	0	92	1246	29	2010	212	0	32788	32775	32743	32324	32843	32788	32607	32735	
4317	0	64	1242	29	1981	213	0	32759	32621	32775	32295	32782	32853	32662	32763	
4318	0	126	1259	27	1978	214	0	32791	32575	32715	32725	32845	32860	32573	32703	
4319	0	130	1237	29	1970	215	0	32751	32813	32663	32831	32823	32888	32627	32775	
4320	0	134	1275	28	1946	216	0	32779	32757	32682	32894	32773	32687	32751	32903	
4321	0	121	1245	28	1954	217	0	32827	32748	32639	32757	32902	32551	32723	32939	
4322	0	122	1239	30	1911	218	0	32843	32647	32670	32627	32805	32535	32681	32823	
4323	0	127	1269	28	1970	219	0	32772	32851	32715	32826	32751	32563	32643	32875	
4324	0	96	1256	29	1977	220	0	32766	32731	32747	32865	32919	32667	32975	32867	
4325	0	113	1253	28	1952	221	0	32793	32581	32689	32827	32811	32722	33025	32675	
4326	0	111	1253	29	1978	222	0	32713	32673	32675	32791	32687	32711	32743	32647	
4327	0	147	1256	29	1965	223	0	32823	32786	32787	32921	32619	32585	32831	32590	
4328	0	79	1227	28	1974	224	0	32876	32717	32815	32690	33028	32745	32865	32647	
4329	0	126	1216	30	1937	225	0	32897	32733	32775	32647	32975	32726	32609	32867	
4330	0	129	1266	28	1936	226	0	32835	32647	32871	32914	32860	32818	32263	32895	
4331	0	115	1246	29	1954	227	0	32802	32823	32823	32867	32860	32860	32055	32873	
4332	0	119	1227	28	1968	228	0	32813	32773	32879	33044	33063	32887	32003	32702	
4333	0	90	1252	30	1960	229	0	32727	32711	32817	32717	32903	32799	32199	32667	
4334	0	110	1242	29	1958	230	0	32752	32863	32758	32535	32767	32745	32209	32702	
4335	0	117	1249	29	1981	231	0	32815	32789	32775	32733	33018	32766	32122	32967	
4336	0	138	1248	28	1927	232	0	32802	32567	32813	32790	33067	32706	32307	32933	
4337	0	121	1239	30	1988	233	0	32823	32711	32855	32791	32969	32677	32466	32775	
4338	0	134	1253	29	1936	234	0	32880	32885	32717	32751	32775	32549	32557	32751	
4339	0	98	1237	29	1967	235	0	32870	32737	32727	32879	32863	32560	32609	32903	
4340	0	90	1217	29	2006	236	0	32844	32647	32807	32755	32637	32543	32935	32775	
4341	0	125	1302	30	1974	237	0	32826	32743	32767	32583	32306	32481	33396	32527	
4342	0	77	1233	29	1960	238	0	32830	32847	32610	32535	32189	32517	33976	32642	
4343	0	121	1270	29	1998	239	0	32810	32723	32675	32727	32391	32582	33879	32631	
4344	0	145	1221	28	1961	240	0	32762	32526	32828	32685	32578	32647	33317	32546	
4345	0	90	1254	30	1987	241	0	32673	32679	32933	32583	32535	32635	33022	32751	
4346	0	80	1256	28	1978	242	0	32709	32722	32957	32627	32415	32647	33108	32850	
4347	0	137	1234	28	1988	243	0	32723	32775	32845	32391	32471	32674	33402	32925	
4348	0	138	1226	29	1985	244	0	32824	32727	32782	32009	32593	32747	33468	32838	
4349	0	125	1239	28	1994	245	0	32764	32759	32745	32391	32627	32766	33575	32775	
4350	0	137	1260	30	1972	246	0	32695	32751	32785	32635	32551	32415	33480	32847	
4351	0	164	1240	28	1933	247	0	32612	32821	32837	33121	32317	32359	33199	32863	
4352	0	141	1229	29	1944	248	0	32630	32853	32855	32935	32358	32513	32826	32729	
4353	0	136	1268	29	1940	249	0	32696	32717	32839	32423	32623	32486	32482	32775	
4354	0	124	1268	30	1938	250	0	32830	32507	32671	32404	33005	32626	32178	32663	
4355	0	101	1282	28	1963	251	0	32815	32767	32716	32603	32935	32789	32100	32612	
4356	0	141	1276	29	1924	252	0	32740	32759	32739	32869	32918	32826	32156	32503	
4357	0	109	1211	29	1941	253	0	32738	32809	32781	33387	33047	32823	32291	32439	
4358	0	92	1261	29	1979	254	0	32764	32615	32759	33031	33023	32703	32327	32587	
4359	0	75	1235	29	1963	255	0	32839	32861	32635	32675	32975	32745	32165	32631	
4360	0	153	1256	28	2004	256	0	32846	32789	32662	32629	32979	32751	32151	32639	
4361	0	83	1214	29	1934	257	0	32844	32637	32725	32643	32927	32844	32059	32415	
4362	0	93	1254	29	1944	258	0	32773	32663	32724	33007	32633	32583	32228	31943	
4363	0	115	1234	28	1969	259	0	32743	32869	32589	33047	32703	32527	32518	31911	
4364	0	80	1247	30	1990	260	0	32743	32763	32461	32967	32890	32477	32805	31995	
4365	0	111	1228	29	1950	261	0	32685	32871	32499	32967	32915	32383	32783	32143	
4366	0	128	1272	30	1979	262	0	32681	32709	32639	32932	32869	32260	32925	32526	
4367	0	111	1223	30	1952	263	0	32751	32884	32759	33037	32806	32325	33407	32746	
4368	0	119	1255	31	1950	264	0	32753	32775	32821	33003	32900	32645	33778	32866	
4369	0	125	1240	29	1986	265	0	32791	32756	33047	32342	32805	32807	33399	32903	
4370	0	135	1250	28	1973	266	0	32746	32687	33131	32357	32845	32796	32975	32835	
4371	0	94	1251	29	1995	267	0	32791	32695	33086	32671	32775	32847	32647	32999	
4372	0	128	1263	28	1994	268	0	32774	32847	33025	32977	32737	32773	32525	32898	
4373	0	130	1267	30	2008	269	0	32726	32759	32879	32903	32607	32700	32662	32871	
4374	0	58	1265	29	1989	270	0	32722	32725	32671	32935	32548	32770	32501	32834	
4375	0	80	1212	29	1963	271	0	32786	32775	32591	33023	32791	32799	32423	32865	
4376	0	109	1223	29	1953	272	0	32720	32614	32738	32980	33255	32892	32322	32837	
4377	0	103	1251	28	1918	273	0	32706	32887	32853	32931	33025	32874	32431	32707	
4378	0	110	1240	29	1958	274	0	32807	32927	32879	33075	32823	32819	32525	32671	
4379	0	102	1259	30	1972	275	0	32801	32890	32775	33175	32775	32795	32668	32877	
4380	0	107	1242	28	1951	276	0	32780	32855	32775	32868	32775	32799	32567	32691	
4381	0	76	1234	29	1933	277	0	32862	32827	32759	32694	32790	32733	32631	32647	
4382	0	138	1264	30	1976	278	0	32807	32641	32775	32439	32855	32803	32700	32647	
4383	0	107	1281	28	1949	279	0	32739	32865	32583	32333	32846	32863	32749	32631	
4384	0	140	1232	28	1942	280	0	32803	32703	32578	32239	32717	32766	32903	32613	
4385	0	104	1249	29	1974	281	0	32847	32557	32615	32401	32738	32694	32978	32630	
4386	0	128	1197	29	1953	282	0	32792	32839	32671	32311	32631	32647	33031	32557	
4387	0	132	1238	30	1994	283	0	32759	32715	32709	32398	32766	32549	33023	32627	
4388	0	132	1236	28	1937	284	0	32789	32555	32663	32237	32708	32471	33023	32631	
4389	0	131	1238	30	1971	285	0	32783	32693	32687	32379	32711	32487	32872	32676	
4390	0	175	1234	29	1985	286	0	32743	32849	32767	32676	32756	32587	32767	32677	
4391	0	130	1248	29	1958	287	0	32674	32797	32795	32710	32850	32663	32628	32703	
4392	0	149	1220	29	1944	288	0	32643	32756	32821	32694	32801	32647	32547	32758	
4393	0	129	1243	30	1969	289	0	32681	32591	32759	32791	32815	32454	32517	32775	
4394	0	140	1264	28	2020	290	0	32606	32759	32887	32799	32628	32371	32526	32684	
4395	0	74	1248	29	1987	291	0	32583	32890	33055	32647	32579	32455	32585	32583	
4396	0	111	1248	30	1936	292	0	32697	32743	33163	32761	32615	32575	32515	32613	
4397	0	129	1244	30	1931	293	0	32789	32543	32980	32971	32663	32735	32538	32903	
4398	0	144	1250	28	1955	294	0	32847	32702	32883	32923	32593	32686	32583	32867	
4399	0	117	1279	29	1952	295	0	32743	32883	32933	32865	32605	32631	32663	32723	
4400	0	66	1227	28	1996	296	0	32690	32775	33003	32903	32647	32615	32687	32790	
4401	0	106	1257	28	1946	297	0	32666	32823	32843	32999	32551	32571	32621	32831	
4402	0	119	1242	29	1982	298	0	32684	32583	32567	33261	32647	32642	32571	32793	
4403	0	108	1219	30	1962	299	0	32647	32735	32644	33159	32646	32682	32507	32663	
4404	0	128	1268	29	1959	300	0	32619	32901	32633	32941	32715	32791	32545	32709	
4405	0	126	1273	28	1968	301	0	32731	32799	32611	32943	32694	32846	32666	32803	
4406	0	45	1249	29	1981	302	0	32813	32751	32587	32813	32855	32735	32739	32618	
4407	0	107	1201	28	1985	303	0	32846	32745	32757	32676	32740	32802	32759	32601	
4408	0	100	1217	30	1976	304	0	32871	32903	32791	32455	32965	32751	32769	32607	
4409	0	92	1270	29	1955	305	0	32810	32925	32883	32413	32831	32767	32660	32666	
4410	0	130	1254	28	1946	306	0	32845	32887	32799	32244	32883	32734	32675	32563	
4411	0	125	1232	29	1948	307	0	32759	32751	32803	32116	32879	32647	32715	32487	
4412	0	107	1197	29	1994	308	0	32736	32630	32586	32091	32814	32589	32754	32661	
4413	0	127	1288	29	2010	309	0	32709	32483	32535	32200	32737	32686	32845	32723	
4414	0	82	1247	30	1937	310	0	32804	32682	32495	32196	32647	32821	32999	32668	
4415	0	117	1253	29	2015	311	0	32791	32687	32501	32061	32669	32775	32897	32662	
4416	0	119	1254	29	1944	312	0	32924	32708	32545	32518	32706	32786	32839	32647	
4417	0	81	1235	29	1979	313	0	32903	32817	32743	32575	32911	32775	32691	32559	
4418	0	121	1240	28	1966	314	0	32875	32998	32799	33087	32881	32843	32719	32543	
4419	0	97	1261	30	1988	315	0	32846	32967	32815	33495	32857	32847	32666	32612	
4420	0	117	1243	29	1981	316	0	32759	32719	32855	33670	32805	32797	32684	32671	
4421	0	115	1195	29	1962	317	0	32705	32831	32807	33759	32903	32830	32701	32647	
4422	0	131	1266	28	1960	318	0	32804	32799	32706	33524	32980	32533	32623	32679	
4423	0	96	1236	27	1989	319	0	32791	32686	32775	33159	32903	32455	32559	32575	
4424	0	114	1219	29	1970	320	0	32846	32834	32839	33351	32835	32577	32713	32671	
4425	0	113	1236	29	1949	321	0	32836	32837	33039	33458	32797	32661	32743	32700	
4426	0	95	1255	29	1997	322	0	32766	32701	33095	33527	32711	32666	32750	32677	
4427	0	108	1224	29	1942	323	0	32712	32695	32999	32829	32683	32691	32628	32631	
4428	0	87	1201	29	2004	324	0	32631	32407	32903	32460	32694	32727	32647	32662	
4429	0	125	1276	30	1997	325	0	32591	32271	32902	32667	32755	32790	32662	32715	
4430	0	121	1283	29	1956	326	0	32710	32567	32733	32741	32850	32807	32759	32513	
4431	0	156	1240	29	1951	327	0	32706	32551	32661	32662	32805	32836	32775	32555	
4432	0	122	1243	28	1955	328	0	32575	32555	32631	33023	32899	32811	32814	32581	
4433	0	112	1271	30	1991	329	0	32642	32677	32563	33115	32799	32743	32775	32815	
4434	0	77	1267	30	2000	330	0	32644	33060	32663	32900	32821	32751	32805	32813	
4435	0	106	1270	29	1976	331	0	32741	33070	32527	32991	32758	32591	32771	32763	
4436	0	105	1277	29	1991	332	0	32772	32983	32591	33175	32911	32422	32727	32667	
4437	0	105	1211	29	1953	333	0	32767	33186	32751	32879	32781	32473	32811	32733	
4438	0	111	1206	28	1977	334	0	32832	32943	32687	32571	32711	32563	32755	32730	
4439	0	136	1237	29	1989	335	0	32929	32743	32634	32436	32823	32604	32695	32689	
4440	0	153	1253	30	1955	336	0	32917	32519	32820	32452	32807	32575	32708	32697	
4441	0	130	1251	29	1972	337	0	32959	32612	32983	32455	32641	32533	32679	32678	
4442	0	126	1242	28	1937	338	0	32937	32355	33043	32546	32628	32676	32547	32647	
4443	0	134	1211	29	1969	339	0	32918	32148	33059	32287	32599	32647	32429	32567	
4444	0	97	1234	29	1942	340	0	32839	32605	33047	32211	32743	32570	32615	32451	
4445	0	124	1260	28	1967	341	0	32708	33155	33177	32230	32671	32491	32700	32647	
4446	0	119	1225	28	1961	342	0	32711	33267	33018	32237	32763	32595	32831	32661	
4447	0	113	1255	28	1955	343	0	32687	33052	32871	32295	32789	32719	32825	32775	
4448	0	128	1265	29	1947	344	0	32623	33302	32692	32605	32726	32741	32751	32771	
4449	0	104	1248	30	1988	345	0	32677	33173	32527	32671	32713	32715	32809	32799	
4450	0	127	1258	29	1959	346	0	32748	32895	32503	32775	32795	32715	32727	32773	
4451	0	131	1270	28	1988	347	0	32836	32734	32644	32775	32807	32771	32692	32766	
4452	0	112	1234	29	1941	348	0	32986	32763	32635	32445	32791	32807	32703	32707	
4453	0	132	1221	29	1946	349	0	32974	32668	32516	32421	32647	32855	32706	32635	
4454	0	116	1238	28	1995	350	0	32772	32730	32437	32590	32543	32807	32763	32723	
4455	0	78	1213	28	1953	351	0	32518	32655	32463	32797	32595	32733	32667	32525	
4456	0	107	1228	30	1957	352	0	32383	32962	32639	32691	32711	32729	32683	32535	
4457	0	131	1234	29	1972	353	0	32463	32903	32743	32549	32644	32647	32749	32671	
4458	0	136	1236	28	1979	354	0	32580	32831	32761	32607	32679	32671	32765	32627	
4459	0	71	1283	28	1954	355	0	32775	32775	32789	32515	32693	32671	32742	32583	
4460	0	120	1262	28	1976	356	0	32814	32647	32872	32775	32870	32621	32769	32653	
4461	0	83	1237	29	1975	357	0	32934	32831	32879	32911	33062	32515	32761	32631	
4462	0	70	1236	29	1955	358	0	32928	32737	32762	32757	33191	32551	32797	32627	
4463	0	145	1236	28	1930	359	0	32943	32615	32757	32982	32947	32759	32775	32622	
4464	0	161	1253	29	1964	360	0	32878	32519	32855	33059	32821	32743	32694	32757	
4465	0	116	1269	30	1965	361	0	32742	32775	33015	32871	32759	32743	32771	32964	
4466	0	112	1238	28	1976	362	0	32799	32806	32915	32810	32891	32719	32699	32835	
4467	0	121	1232	29	1981	363	0	32804	32700	32738	32635	33045	32733	32703	32871	
4468	0	116	1260	29	2006	364	0	32762	32675	32539	32411	32951	32823	32639	32670	
4469	0	86	1271	30	1941	365	0	32799	32567	32287	32549	32895	32847	32695	32455	
4470	0	135	1263	30	1955	366	0	32772	32411	32414	32819	32867	32679	32731	32551	
4471	0	110	1213	30	1961	367	0	32679	32199	32525	32797	32914	32602	32775	32503	
4472	0	135	1284	29	1973	368	0	32653	32455	32583	32807	32766	32466	32769	32479	
4473	0	144	1217	30	1966	369	0	32640	32495	32581	32882	32663	32532	32771	32449	
4474	0	130	1257	30	1944	370	0	32640	32567	32647	32738	32490	32683	32695	32538	
4475	0	103	1257	30	1913	371	0	32689	32775	32935	32603	32519	32761	32579	32646	
4476	0	96	1225	29	1933	372	0	32789	32987	33119	32807	32551	32769	32627	32647	
4477	0	166	1233	28	1964	373	0	32740	33059	33175	33023	32647	32679	32691	32515	
4478	0	109	1205	30	2002	374	0	32683	33159	33283	33159	32708	32655	32691	32525	
4479	0	135	1223	30	2015	375	0	32672	32971	33447	33031	32660	32590	32620	32625	
4480	0	126	1240	31	1964	376	0	32796	33071	33493	32919	32775	32467	32591	32765	
4481	0	94	1246	29	1957	377	0	32813	32927	33333	32837	32823	32511	32641	32747	
4482	0	121	1232	29	1964	378	0	32829	32925	33057	32775	32731	32638	32684	32724	
4483	0	66	1265	29	1950	379	0	32861	32687	32941	32986	32741	32621	32661	32789	
4484	0	73	1219	30	2011	380	0	32850	32821	32775	33183	32609	32629	32736	32898	
4485	0	91	1288	30	1948	381	0	32869	32900	32646	33255	32679	32548	32709	32599	
4486	0	73	1232	31	1972	382	0	32720	32825	32423	33031	32763	32527	32655	32803	
4487	0	90	1248	28	1947	383	0	32678	32729	32402	32671	32806	32519	32727	32705	
4488	0	117	1245	29	1997	384	0	32771	32557	32263	32447	32820	32599	32739	32757	
4489	0	118	1196	29	1992	385	0	32758	32821	32282	32695	32887	32511	32719	32871	
4490	0	126	1255	29	1933	386	0	32707	32711	32474	32709	32787	32535	32785	32863	
4491	0	133	1239	29	1977	387	0	32762	32691	32383	32677	32727	32581	32730	32727	
4492	0	95	1252	29	1953	388	0	32805	32687	32495	32837	32873	32647	32605	32615	
4493	0	143	1220	28	1946	389	0	32717	32765	32614	32847	32837	32598	32639	32631	
4494	0	137	1257	29	1954	390	0	32743	32659	32710	32597	32861	32607	32687	32653	
4495	0	150	1229	28	1946	391	0	32785	32493	32698	32468	32862	32669	32711	32567	
4496	0	115	1212	29	1948	392	0	32839	32733	32670	32535	32854	32705	32658	32523	
4497	0	98	1273	28	1969	393	0	32772	32683	32519	32342	32719	32706	32775	32513	
4498	0	65	1276	28	1914	394	0	32871	32621	32567	32431	32677	32603	32766	32459	
4499	0	98	1249	28	1978	395	0	32933	32731	32581	32498	32586	32595	32733	32557	
4500	0	133	1254	30	1972	396	0	32930	32829	32530	32319	32809	32638	32855	32700	
4501	0	128	1253	28	1985	397	0	33004	32599	32631	32479	32877	32607	32881	32601	
4502	0	129	1237	29	1970	398	0	32949	32347	32721	32631	32788	32711	32806	32571	
4503	0	125	1247	28	1994	399	0	32957	32471	32815	32631	32743	32725	32711	32527	
4504	0	151	1273	28	1932	400	0	33004	32596	32775	32668	32738	32695	32665	32519	
4505	0	125	1262	29	1986	401	0	32957	32604	32819	32846	32743	32743	32631	32435	
4506	0	79	1290	29	1953	402	0	32860	32451	32722	32942	32791	32717	32559	32615	
4507	0	112	1229	29	1956	403	0	32809	32511	32703	32941	32903	32595	32655	32559	
4508	0	132	1213	29	2029	404	0	32738	32479	32743	32835	32765	32591	32599	32647	
4509	0	106	1215	29	1962	405	0	32665	32479	32813	32627	32729	32598	32591	32837	
4510	0	133	1224	30	1972	406	0	32539	32423	32871	32577	32727	32679	32707	32923	
4511	0	84	1257	30	1970	407	0	32684	32758	32773	32548	32731	32589	32655	32860	
4512	0	72	1249	29	1961	408	0	32868	33031	32559	32603	32903	32555	32804	32751	
4513	0	108	1313	29	1977	409	0	32903	33223	32683	32519	32815	32558	32767	32759	
4514	0	84	1246	29	1962	410	0	32860	33735	32811	32233	32671	32629	32681	32748	
4515	0	100	1268	29	2016	411	0	32750	33835	33127	32231	32581	32605	32581	32647	
4516	0	146	1247	28	1943	412	0	32609	33539	33176	32503	32671	32515	32629	32503	
4517	0	88	1218	28	1940	413	0	32559	33372	33047	32811	32852	32437	32601	32555	
4518	0	88	1203	29	1946	414	0	32633	33078	32966	32911	32807	32521	32863	32663	
4519	0	115	1249	29	1939	415	0	32834	32631	32954	33301	32830	32621	32783	32546	
4520	0	157	1234	29	1941	416	0	32759	32053	32971	33687	32923	32502	32738	32587	
4521	0	101	1250	29	1924	417	0	32690	31788	32899	33331	32919	32558	32823	32535	
4522	0	121	1244	29	1977	418	0	32735	31934	32765	33365	32903	32599	32763	32495	
4523	0	64	1279	29	1938	419	0	32628	32305	32671	33639	32900	32612	32756	32804	
4524	0	113	1262	29	2005	420	0	32569	32603	32564	33819	32802	32595	32767	32749	
4525	0	84	1217	29	2002	421	0	32584	33259	32533	33519	32742	32582	32709	32591	
4526	0	92	1248	28	1970	422	0	32643	33258	32459	33415	32731	32641	32583	32582	
4527	0	155	1280	28	1952	423	0	32708	33579	32333	33227	32685	32707	32611	32551	
4528	0	126	1245	28	1946	424	0	32813	33569	32343	32921	32753	32739	32594	32747	
4529	0	113	1254	29	1955	425	0	32818	33370	32495	32477	32508	32795	32551	32940	
4530	0	65	1203	29	1924	426	0	32788	33181	32723	32295	32571	32830	32615	32819	
4531	0	83	1259	28	1982	427	0	32692	33138	32796	32237	32626	32870	32647	32709	
4532	0	119	1252	28	1957	428	0	32621	32882	32818	32263	32743	32731	32647	32698	
4533	0	150	1244	30	1935	429	0	32626	32647	32869	32389	32647	32738	32713	32660	
4534	0	66	1270	28	2022	430	0	32783	32703	33078	32523	32773	32667	32722	32686	
4535	0	121	1232	29	1956	431	0	32806	32493	33178	32751	32894	32623	32666	32572	
4536	0	131	1227	28	1990	432	0	32821	32484	33119	32879	33014	32558	32811	32567	
4537	0	121	1272	29	1987	433	0	32809	32518	33095	32807	32951	32519	32876	32545	
4538	0	135	1228	28	2013	434	0	32806	32371	33047	33065	32914	32676	32847	32619	
4539	0	145	1252	29	1966	435	0	32863	32245	32955	32757	32823	32750	32839	32578	
4540	0	106	1238	29	1962	436	0	32846	32314	32831	32427	32679	32743	32791	32675	
4541	0	117	1203	28	1965	437	0	32679	32477	32775	32668	32775	32679	32722	32709	
4542	0	172	1249	30	1987	438	0	32660	32587	32615	32609	32791	32669	32750	32786	
4543	0	110	1258	29	1958	439	0	32621	32769	32475	32599	32697	32711	32657	32807	
4544	0	157	1283	28	1944	440	0	32610	33123	32491	32493	32493	32679	32629	32691	
4545	0	130	1296	30	1938	441	0	32667	33119	32530	32545	32623	32671	32529	32597	
4546	0	95	1249	28	1999	442	0	32775	32975	32483	32519	32855	32695	32831	32581	
4547	0	140	1251	29	2018	443	0	32781	32871	32647	32695	32839	32749	32767	32532	
4548	0	138	1242	28	1971	444	0	32868	33036	32685	32727	32775	32706	32784	32727	
4549	0	120	1244	29	1952	445	0	32903	32825	32755	32639	32934	32743	32687	32658	
4550	0	107	1252	28	1966	446	0	32764	32772	32829	32573	32758	32631	32739	32586	
4551	0	59	1251	29	2020	447	0	32710	32577	32775	32429	32878	32703	32719	32535	
4552	0	121	1251	28	1902	448	0	32706	32799	32839	32377	32841	32591	32774	32647	
4553	0	110	1265	30	1954	449	0	32718	32684	32927	32435	32804	32655	32647	32758	
4554	0	135	1253	28	1986	450	0	32742	32431	32899	32375	32743	32723	32623	32769	
4555	0	105	1284	29	1927	451	0	32826	32643	32641	32338	32725	32791	32565	32647	
4556	0	100	1252	28	1982	452	0	32822	32647	32575	32558	32733	32738	32601	32785	
4557	0	130	1252	29	1965	453	0	32784	32664	32607	32701	32676	32694	32687	32951	
4558	0	84	1251	28	1970	454	0	32818	32566	32519	32641	32829	32686	32657	32835	
4559	0	64	1269	29	1946	455	0	32786	32826	32620	32647	32807	32718	32579	32801	
4560	0	138	1249	28	1995	456	0	32853	32667	32821	32726	32797	32721	32726	32734	
4561	0	69	1229	28	1994	457	0	32839	32503	32836	32719	33046	32715	32717	32735	
4562	0	117	1255	28	1972	458	0	32841	32695	32811	32775	33166	32604	32822	32755	
4563	0	127	1240	29	1974	459	0	32707	32823	32849	32876	32969	32639	32865	32659	
4564	0	102	1235	30	1944	460	0	32718	32773	32841	32963	32899	32692	32699	32481	
4565	0	87	1249	28	1980	461	0	32711	32647	32826	32836	32843	32633	32661	32578	
4566	0	103	1243	28	1951	462	0	32815	32767	32847	32702	32994	32695	32654	32599	
4567	0	70	1252	29	1987	463	0	32774	32657	33068	32775	32703	32805	32605	32797	
4568	0	119	1288	28	2008	464	0	32802	32767	33231	32775	32791	32836	32609	32895	
4569	0	110	1241	29	1970	465	0	32743	32621	33127	32805	32812	32791	32724	33041	
4570	0	135	1233	28	1996	466	0	32760	32615	33071	32850	32708	32643	32594	32991	
4571	0	100	1272	29	1949	467	0	32755	32695	32998	32797	32756	32647	32421	32711	
4572	0	102	1252	28	1934	468	0	32847	33003	32639	32998	32710	32519	32748	32719	
4573	0	148	1242	30	1973	469	0	32924	32859	32595	32802	32743	32547	32753	32593	
4574	0	116	1239	30	1985	470	0	32858	32582	32607	32663	32695	32711	32844	32838	
4575	0	86	1246	28	1985	471	0	32837	32719	32727	32757	32617	32757	32711	32762	
4576	0	115	1186	29	2012	472	0	32860	32815	32852	32827	32703	32647	32708	32533	
4577	0	112	1215	29	1936	473	0	32919	32606	32756	32743	32708	32749	32643	32501	
4578	0	102	1231	29	1923	474	0	32979	32719	32762	32583	32765	32503	32671	32415	
4579	0	125	1212	28	1972	475	0	33006	32617	32711	32693	32679	32647	32559	32223	
4580	0	103	1229	30	1973	476	0	33030	32658	32661	32619	32799	32610	32716	32375	
4581	0	77	1232	28	1939	477	0	32903	32783	32718	32679	32731	32839	32812	32762	
4582	0	80	1242	30	1954	478	0	32737	32647	32877	32679	32599	32815	32825	32615	
4583	0	139	1260	29	1993	479	0	32692	32887	32791	32679	32679	32663	32711	32765	
4584	0	100	1215	30	1940	480	0	32694	32682	32711	32694	32655	32858	32813	32599	
4585	0	147	1264	30	1977	481	0	32548	32789	32677	32630	32644	32817	32687	32433	
4586	0	75	1260	31	1949	482	0	32543	32831	32573	32673	32838	32719	32679	32543	
4587	0	162	1253	29	1956	483	0	32647	32599	32635	32895	32802	32679	32685	32365	
4588	0	122	1300	28	1970	484	0	32665	32801	32583	33015	32947	32559	32703	32346	
4589	0	134	1282	28	1933	485	0	32617	32869	32448	33116	32815	32615	32698	32513	
4590	0	102	1248	28	1964	486	0	32623	32718	32370	33025	32861	32483	32707	32701	
4591	0	104	1275	29	1953	487	0	32686	32951	32391	32973	32919	32642	32839	32742	
4592	0	127	1245	31	1972	488	0	32695	33007	32555	33111	32839	32570	32667	32767	
4593	0	126	1232	28	1978	489	0	32758	32884	32711	33109	32815	32469	32815	32799	
4594	0	117	1276	29	1962	490	0	32797	32887	32761	33022	32903	32498	32743	32589	
4595	0	106	1246	30	1987	491	0	32821	32679	32804	32965	32914	32367	32829	32597	
4596	0	113	1240	29	1982	492	0	32843	32803	33005	32983	32847	32551	32671	32821	
4597	0	115	1250	28	1967	493	0	32804	32866	33110	32854	32718	32420	32687	32813	
4598	0	133	1226	31	1996	494	0	32795	32601	33082	32725	32747	32561	32609	32771	
4599	0	103	1226	29	1978	495	0	32807	32756	32890	32549	32773	32510	32805	32633	
4600	0	92	1279	29	1977	496	0	32848	32839	32918	32391	32760	32687	32767	32637	
4601	0	146	1216	29	1947	497	0	32924	32738	32903	32296	32759	32549	32293	32275	
4602	0	123	1258	28	1928	498	0	32896	32687	32835	32349	32783	32658	32715	32403	
4603	0	111	1273	29	1980	499	0	32820	32807	32935	32415	32962	32755	32711	32647	
4604	0	83	1300	30	1988	500	0	32724	32791	32903	32509	32935	32735	32787	32747	
4605	0	116	1274	29	1992	501	0	32681	32502	32749	32719	32903	32794	32558	32833	
4606	0	103	1272	28	1948	502	0	32732	32677	32655	32661	32895	32748	32719	33021	
4607	0	69	1250	29	1989	503	0	32707	32799	32677	32799	32983	32621	32787	32855	
4608	0	97	1228	29	1981	504	0	32795	32623	32683	32805	33023	32535	32679	32847	
4609	0	78	1262	29	1982	505	0	32749	32673	32826	32734	33023	32539	32715	32943	
4610	0	146	1237	31	1958	506	0	32751	32727	32790	32591	32847	32466	32575	32640	
4611	0	105	1287	30	1973	507	0	32771	32591	32725	32859	32853	32647	32855	32709	
4612	0	80	1262	28	1963	508	0	32711	32723	32724	32775	32850	32663	32739	32668	
4613	0	107	1254	29	1961	509	0	32685	32573	32711	32683	32749	32584	32850	32525	
4614	0	128	1246	28	1976	510	0	32663	32715	32639	32623	32775	32751	32757	32431	
4615	0	114	1255	29	1953	511	0	32692	32807	32786	32615	32839	33044	32833	32561	
4616	0	137	1230	30	1946	512	0	32754	32735	32716	32647	32859	33187	32941	32694	
4617	0	93	1251	29	1985	513	0	32824	32787	32797	32575	32819	33255	32903	32734	
4618	0	126	1236	29	2000	514	0	32821	32733	32737	32611	32833	33231	32950	32807	
4619	0	81	1256	28	1961	515	0	32852	32709	32703	32595	32833	33241	32717	32799	
4620	0	172	1182	28	2007	516	0	32753	32606	32767	32631	32831	32967	32795	32603	
4621	0	144	1271	29	1961	517	0	32711	32771	32932	32730	32775	32620	32607	32519	
4622	0	136	1236	29	1949	518	0	32767	32734	32923	32717	32701	32439	32514	32549	
4623	0	122	1235	28	1966	519	0	32732	32733	32893	32775	32565	32515	32519	32721	
4624	0	108	1264	28	2008	520	0	32692	32770	32991	32891	32690	32518	32643	32711	
4625	0	82	1222	28	1967	521	0	32718	32590	33010	32885	32764	32578	32734	32567	
4626	0	108	1274	30	1956	522	0	32733	32869	32871	32775	32657	32555	32676	32583	
4627	0	89	1228	29	1941	523	0	32758	32863	32726	32815	32655	32589	32591	32578	
4628	0	88	1228	28	2019	524	0	32769	32719	32576	32885	32827	32534	32717	32486	
4629	0	157	1237	29	1971	525	0	32762	32733	32580	32801	33121	32575	32879	32369	
4630	0	141	1204	29	1970	526	0	32739	32585	32681	32530	33121	32607	32869	32444	
4631	0	127	1273	31	2004	527	0	32716	32759	32679	32483	32795	32567	32813	32731	
4632	0	124	1257	29	2003	528	0	32732	32943	32620	32623	32630	32683	32807	32757	
4633	0	142	1243	30	2005	529	0	32677	32903	32415	32487	32770	32743	32834	33015	
4634	0	152	1243	29	1993	530	0	32684	32685	32540	32459	32739	32775	32739	32829	
4635	0	98	1253	28	1993	531	0	32757	32740	32495	32471	32739	32815	32531	32874	
4636	0	98	1222	29	1929	532	0	32771	32808	32436	32607	32657	32679	32476	32791	
4637	0	119	1239	29	1942	533	0	32738	32691	32647	32685	32742	32563	32587	32647	
4638	0	131	1268	28	1949	534	0	32688	32567	32839	32884	32775	32495	32742	32723	
4639	0	104	1270	29	1999	535	0	32719	32647	33019	33050	32756	32495	32521	32719	
4640	0	76	1245	29	1923	536	0	32692	32839	33195	33086	32579	32519	32277	32647	
4641	0	69	1298	29	1968	537	0	32679	32877	33133	33138	32592	32552	32387	32695	
4642	0	80	1258	29	1920	538	0	32706	32759	32901	33239	32567	32446	32463	32508	
4643	0	97	1243	29	1956	539	0	32738	32775	32795	33123	32855	32439	32741	32551	
4644	0	99	1230	29	1945	540	0	32708	32933	32717	33093	32757	32445	32699	32423	
4645	0	109	1234	29	1994	541	0	32716	32802	32750	33363	32802	32587	32862	32510	
4646	0	111	1223	28	1936	542	0	32719	32599	32663	33179	32798	32591	33115	32674	
4647	0	81	1247	29	1998	543	0	32706	32832	32701	33141	32843	32723	33043	32745	
4648	0	108	1206	30	1976	544	0	32769	32759	32775	33052	32897	32885	33077	32713	
4649	0	108	1254	30	1971	545	0	32741	32595	32919	32913	32973	32679	32991	32767	
4650	0	125	1272	29	1946	546	0	32775	32750	32863	32964	32935	32719	32762	32839	
4651	0	65	1238	28	1981	547	0	32775	32775	32933	32743	32871	32655	32825	32787	
4652	0	115	1222	29	1931	548	0	32710	32794	32761	32507	32789	32604	32742	32687	
4653	0	106	1277	30	1954	549	0	32725	32647	32610	32527	32775	32623	32759	32647	
4654	0	94	1232	28	1950	550	0	32732	32863	32571	32583	32813	32599	32690	32647	
4655	0	67	1218	29	1972	551	0	32754	32827	32468	32375	32767	32626	32619	32603	
4656	0	132	1225	29	1983	552	0	32868	32775	32551	32383	32663	32627	32635	32733	
4657	0	87	1259	29	1956	553	0	32831	32623	32533	32484	32692	32743	32705	32988	
4658	0	108	1261	28	1921	554	0	32799	32743	32692	32444	32705	32807	32591	32967	
4659	0	74	1207	28	1995	555	0	32818	32879	32699	32530	32735	32827	32695	32809	
4660	0	116	1220	28	1920	556	0	32961	32775	32837	32671	32812	32895	32773	32757	
4661	0	119	1276	29	1928	557	0	32932	32700	32860	32967	32756	32719	32918	32681	
4662	0	105	1237	28	1966	558	0	32868	32573	33129	32877	32895	32759	32823	32539	
4663	0	112	1265	28	1932	559	0	32769	32713	33242	32659	32809	32775	32750	32585	
4664	0	144	1270	30	1974	560	0	32728	32727	32977	32683	32719	32687	32591	32551	
4665	0	68	1243	28	1955	561	0	32692	32749	32852	32517	32795	32743	32343	32807	
4666	0	112	1246	28	1972	562	0	32650	32519	32815	32442	32787	32702	32287	32573	
4667	0	151	1212	29	1963	563	0	32638	32860	32843	32507	32837	32701	32261	32359	
4668	0	116	1234	28	1975	564	0	32613	32857	32796	32527	32801	32690	32422	32399	
4669	0	94	1242	29	1993	565	0	32748	32679	32847	32454	33015	32589	32583	32459	
4670	0	143	1237	29	1936	566	0	32901	32839	32861	32515	33031	32621	32487	32519	
4671	0	113	1247	30	1965	567	0	32945	32873	32827	32573	33009	32823	32476	32603	
4672	0	97	1252	28	1945	568	0	32979	32861	32895	32647	32887	32693	32355	32647	
4673	0	87	1246	30	1965	569	0	32924	32711	32903	32903	32844	32524	32100	32519	
4674	0	112	1219	30	1945	570	0	32879	32951	32855	32935	32820	32423	32263	32407	
4675	0	72	1255	29	1990	571	0	32783	32791	32679	32870	32802	32605	32775	32383	
4676	0	106	1256	29	2012	572	0	32732	32769	32597	32790	32772	32575	33181	32630	
4677	0	102	1248	29	1933	573	0	32735	32637	32471	32845	32527	32503	33656	32839	
4678	0	100	1258	28	1988	574	0	32806	32858	32399	32735	32483	32534	33863	32970	
4679	0	111	1279	28	1993	575	0	32754	32735	32357	32966	32415	32566	33503	32917	
4680	0	119	1234	29	1967	576	0	32769	32582	32417	32897	32415	32623	33037	32935	
4681	0	102	1232	28	1988	577	0	32821	32723	32646	32767	32635	32829	33047	32910	
4682	0	123	1237	28	1928	578	0	32808	32724	32706	32838	32855	32938	33223	32690	
4683	0	90	1231	29	2007	579	0	32802	32711	32686	32879	32949	32884	33199	32511	
4684	0	131	1265	28	1950	580	0	32833	32621	32695	32738	32773	32783	33083	32611	
4685	0	106	1255	27	1937	581	0	32686	32899	32783	32871	32903	32681	32790	32631	
4686	0	139	1176	29	1986	582	0	32685	32813	32978	32975	32931	32631	32703	32559	
4687	0	134	1241	28	1948	583	0	32666	32789	33095	32895	32876	32647	32571	32602	
4688	0	146	1216	29	1981	584	0	32615	32687	33127	32870	32621	32628	32591	32577	
4689	0	119	1249	29	1992	585	0	32736	32935	32967	32947	32589	32803	32529	32727	
4690	0	121	1254	29	1979	586	0	32768	32790	32925	32875	32621	32916	32354	32877	
4691	0	100	1261	29	1980	587	0	32775	32834	32727	32742	32823	32847	31872	32763	
4692	0	88	1232	29	1962	588	0	32717	32695	32623	32684	32839	32711	32063	32567	
4693	0	148	1286	29	1986	589	0	32694	32933	32727	32735	32797	32671	32490	32789	
4694	0	100	1256	29	1936	590	0	32751	32829	32813	32631	32839	32799	32294	32775	
4695	0	104	1292	29	1923	591	0	32796	32647	32858	32551	32773	32767	32351	32791	
4696	0	91	1220	28	1978	592	0	32773	32743	32795	32599	32591	32635	32519	32663	
4697	0	140	1218	29	1942	593	0	32751	32865	32582	32573	32705	32612	32639	32647	
4698	0	118	1299	30	1983	594	0	32734	32807	32647	32531	32655	32551	32753	32535	
4699	0	120	1201	29	2010	595	0	32660	32819	32755	32669	32703	32634	32738	32579	
4700	0	116	1246	30	1957	596	0	32701	32647	32695	32871	32809	32835	32607	32571	
4701	0	87	1205	28	1956	597	0	32724	32947	32645	32855	32839	32669	32359	32457	
4702	0	76	1241	29	1981	598	0	32738	32836	32597	32773	32711	32669	33083	32742	
4703	0	70	1262	28	1998	599	0	32655	32804	32668	32943	32687	32703	34153	32902	
4704	0	92	1237	30	1940	600	0	32710	32639	32745	32863	32539	32898	33989	32883	
4705	0	123	1282	29	1977	601	0	32735	32679	32858	32748	32455	32743	33721	32619	
4706	0	100	1238	28	1976	602	0	32767	32711	32775	32815	32829	32639	32903	32641	
4707	0	98	1260	30	1982	603	0	32784	32725	32739	32988	33119	32719	32305	32725	
4708	0	107	1232	30	2007	604	0	32799	32711	32749	32751	32964	32767	32571	32867	
4709	0	91	1257	29	1959	605	0	32777	32775	32679	32788	32775	32710	32487	32655	
4710	0	126	1280	29	1940	606	0	32751	32767	32687	32815	32831	32559	32556	32567	
4711	0	87	1256	28	1956	607	0	32694	32647	32769	32773	32815	32554	32571	32583	
4712	0	117	1257	29	2001	608	0	32710	32799	32734	32775	32703	32447	32466	32335	
4713	0	125	1252	29	1954	609	0	32711	32731	32607	32679	32903	32359	32530	32263	
4714	0	115	1246	29	1928	610	0	32805	32583	32487	32575	32895	32621	32425	32310	
4715	0	109	1257	29	1983	611	0	32858	32755	32567	32630	32873	32619	32263	32515	
4716	0	131	1238	28	2000	612	0	32895	32745	32607	32662	32983	32614	32215	32485	
4717	0	112	1238	29	1930	613	0	32884	32539	32636	32803	32953	32293	32620	32431	
4718	0	70	1256	29	1981	614	0	32839	32791	32799	32959	32869	32375	32727	32402	
4719	0	107	1257	28	1993	615	0	32736	32895	32959	32847	32943	32703	32535	32508	
4720	0	105	1279	29	1957	616	0	32831	32743	32839	32701	33047	32799	32570	32599	
4721	0	116	1270	30	1972	617	0	32815	32631	32901	32719	32957	32662	32535	32633	
4722	0	146	1239	27	1949	618	0	32821	32823	32982	32738	32751	32571	32655	32692	
4723	0	148	1250	28	1968	619	0	32756	32719	33113	32545	32301	32510	32667	32997	
4724	0	101	1288	28	1993	620	0	32736	32749	32996	32587	32263	32443	32835	33235	
4725	0	113	1225	30	1906	621	0	32788	32564	32975	32607	32534	32557	33104	33331	
4726	0	69	1243	28	1946	622	0	32838	32756	32916	32610	32627	32815	33313	33095	
4727	0	128	1252	29	1943	623	0	32783	32715	32850	32717	32676	32891	33075	32917	
4728	0	133	1243	29	2008	624	0	32797	32733	32895	32643	32695	33124	32883	32684	
4729	0	72	1235	29	1965	625	0	32684	32783	32773	32706	32861	33399	32899	32603	
4730	0	143	1271	29	1970	626	0	32644	32705	32623	32807	32815	33339	32884	32815	
4731	0	157	1215	29	1976	627	0	32630	32815	32605	32659	32688	33183	32919	32814	
4732	0	94	1229	28	1935	628	0	32671	32915	32583	32647	32726	32861	32771	32503	
4733	0	133	1246	28	1922	629	0	32706	32901	32487	32974	32775	32850	32767	32247	
4734	0	95	1252	30	1993	630	0	32690	32703	32503	32967	32775	32971	32740	32043	
4735	0	147	1285	29	1972	631	0	32720	32639	32727	32846	32663	32711	32791	32045	
4736	0	114	1239	29	1968	632	0	32773	32829	32693	32660	32731	32378	32997	32510	
4737	0	66	1223	28	1981	633	0	32920	32877	32607	32564	32943	32297	32927	32775	
4738	0	96	1265	30	1944	634	0	32827	32751	32737	32628	32951	32439	32583	32679	
4739	0	87	1248	29	1993	635	0	32788	32734	32853	32828	32810	32331	32389	32562	
4740	0	144	1248	27	1958	636	0	32844	32647	32918	32806	32795	32275	31975	32590	
4741	0	120	1219	29	1976	637	0	32827	32717	32793	32736	32818	32318	32133	32514	
4742	0	94	1250	30	1995	638	0	32756	32743	32753	32756	32802	32511	32182	32743	
4743	0	113	1279	30	1910	639	0	32760	32823	32699	32694	32653	32749	32447	32702	
4744	0	102	1205	28	1981	640	0	32729	32773	32487	32527	32591	32807	32903	32807	
4745	0	122	1209	29	1978	641	0	32639	32885	32764	32539	32775	32901	33115	32863	
4746	0	147	1253	30	1932	642	0	32647	32821	32836	32423	32719	32981	33254	32887	
4747	0	142	1245	29	1944	643	0	32732	32795	32833	32119	32727	32931	33103	32495	
4748	0	101	1256	28	1965	644	0	32844	32575	32932	32278	32773	32969	32939	32721	
4749	0	123	1253	28	1993	645	0	32711	32683	32941	32539	32812	32842	32718	32701	
4750	0	128	1191	29	1961	646	0	32775	32919	32775	32775	32903	32794	32617	32660	
4751	0	87	1253	29	1969	647	0	32738	32743	32843	32903	32978	32831	32749	32685	
4752	0	74	1253	29	1977	648	0	32772	32686	32787	32851	32890	32698	32767	32507	
4753	0	149	1200	30	1925	649	0	32874	32543	32759	33058	32898	32694	32775	32535	
4754	0	56	1230	30	1932	650	0	32852	32811	32891	33142	32788	32677	32788	32678	
4755	0	127	1224	29	1970	651	0	32709	32726	32831	33165	32855	32671	32670	32807	
4756	0	82	1189	28	1989	652	0	32782	32703	32805	33183	32767	32613	32759	33043	
4757	0	110	1237	30	1972	653	0	32844	32775	32801	33346	32804	32621	32775	33014	
4758	0	103	1218	30	1967	654	0	32808	33043	32735	33361	32773	32701	32825	33010	
4759	0	71	1221	30	1984	655	0	32772	33031	32791	33061	32758	32717	32725	32791	
4760	0	120	1240	29	2000	656	0	32726	33143	32751	32852	32743	32639	32646	32668	
4761	0	118	1233	28	1980	657	0	32743	33003	32703	32893	32805	32541	32691	32607	
4762	0	100	1236	30	1965	658	0	32722	32903	32698	33127	32743	32439	32645	32591	
4763	0	134	1281	29	1956	659	0	32809	33087	32511	33087	32765	32473	32682	32547	
4764	0	95	1253	30	1946	660	0	32836	32986	32308	33044	32695	32562	32611	32584	
4765	0	68	1240	30	1977	661	0	32703	33031	32391	32980	32621	32566	32551	32439	
4766	0	126	1210	29	1991	662	0	32687	32743	32429	32835	32583	32409	32751	32391	
4767	0	125	1238	30	1957	663	0	32687	32659	32487	32807	32563	32355	32711	32526	
4768	0	123	1247	29	1958	664	0	32640	32853	32767	32765	32446	32339	32532	32543	
4769	0	127	1247	29	1999	665	0	32658	32831	33013	32724	32423	32413	32611	32658	
4770	0	120	1271	29	1955	666	0	32682	32642	32951	32663	32511	32511	32579	32754	
4771	0	139	1249	28	1950	667	0	32712	32371	32886	32663	32503	32715	32687	32895	
4772	0	121	1261	28	1952	668	0	32708	32595	32983	32665	32630	32883	32675	32885	
4773	0	110	1250	30	2009	669	0	32655	32630	33155	32388	32711	32829	32495	32839	
4774	0	116	1270	28	1995	670	0	32668	32607	33153	32027	32735	32925	32471	32791	
4775	0	143	1233	28	1977	671	0	32719	32735	33035	32015	33031	32807	32548	32759	
4776	0	135	1263	28	1935	672	0	32661	32519	33127	31937	32860	32795	32502	32751	
4777	0	104	1270	28	1952	673	0	32558	32827	33179	31938	32708	32775	32365	32671	
4778	0	165	1223	29	1961	674	0	32471	32775	33359	31957	32709	32787	32194	32660	
4779	0	123	1252	29	1969	675	0	32494	32709	33415	31941	32669	32852	32058	32715	
4780	0	63	1244	28	1979	676	0	32544	32428	33431	31975	32631	32927	31911	32711	
4781	0	104	1230	30	1959	677	0	32514	32466	33391	31830	32469	33007	31951	32893	
4782	0	100	1217	29	1926	678	0	32620	32578	33396	31682	32565	33035	31927	32947	
4783	0	97	1288	29	1999	679	0	32783	32585	33178	31967	32731	33097	31967	32903	
4784	0	78	1257	30	1933	680	0	32863	32623	33175	32421	32720	33076	31943	32711	
4785	0	132	1251	29	1975	681	0	32793	32457	33226	32506	32667	32994	32071	32629	
4786	0	132	1232	29	1973	682	0	33035	32375	33107	32615	32711	33045	32391	32759	
4787	0	130	1222	28	1957	683	0	33287	32303	32877	32845	32895	33054	32593	32987	
4788	0	79	1236	30	1957	684	0	33429	32167	32963	32723	32877	32887	32711	33234	
4789	0	109	1262	29	1951	685	0	33471	32079	33095	32882	32879	32843	32854	33317	
4790	0	96	1216	29	1934	686	0	33412	32063	32903	32983	32956	32811	33043	33341	
4791	0	112	1273	28	2000	687	0	33338	32199	32628	32950	33030	32931	32893	33227	
4792	0	90	1264	30	1994	688	0	33242	32364	32617	33031	32997	32811	32836	32999	
4793	0	103	1224	29	1949	689	0	33221	32495	32442	33063	33026	32627	33026	32903	
4794	0	129	1237	29	1953	690	0	33089	32612	32247	33183	33052	32617	33231	32537	
4795	0	78	1191	29	1963	691	0	32968	32822	32070	33254	33119	32421	33398	32647	
4796	0	116	1253	29	1984	692	0	32938	32999	31890	33571	33285	32473	33671	32825	
4797	0	73	1266	29	1991	693	0	32903	33147	32095	33829	33364	32343	33741	32599	
4798	0	133	1239	30	1946	694	0	32830	33447	32223	34049	33239	32461	33892	32695	
4799	0	80	1211	30	2019	695	0	32743	33639	32211	33862	33154	32295	33725	32415	
4800	0	136	1258	29	1987	696	0	32701	33549	32271	33812	33159	32293	33737	32461	
4801	0	111	1220	29	1961	697	0	32745	33323	32065	33873	33319	32114	33887	32353	
4802	0	135	1183	30	1960	698	0	32834	33528	31849	33941	33407	32263	33823	32321	
4803	0	86	1260	29	1963	699	0	32935	33541	31571	33830	33459	32031	33903	32258	
4804	0	101	1220	29	1919	700	0	32751	33251	31395	33547	33159	32143	33908	32348	
4805	0	113	1268	29	1972	701	0	32631	33306	31527	33063	33207	32026	33671	32150	
4806	0	96	1210	27	1977	702	0	32623	33215	31695	32827	33062	32279	33247	32203	
4807	0	119	1288	28	1929	703	0	32420	32839	32021	32516	32871	32199	32951	32206	
4808	0	94	1270	29	1944	704	0	32367	33019	32343	32365	32566	32263	32761	32198	
4809	0	115	1216	29	1991	705	0	32295	33019	32575	32221	32578	32399	32557	32183	
4810	0	123	1248	29	2016	706	0	32303	32811	32895	31940	32598	32324	32586	32263	
4811	0	109	1275	27	1951	707	0	32323	32967	33079	31751	32553	32428	32493	32374	
4812	0	107	1210	28	1965	708	0	32349	32839	33126	31860	32475	32495	32439	32423	
4813	0	107	1214	30	1971	709	0	32349	32687	33137	31991	32567	32637	32331	32435	
4814	0	115	1234	30	1936	710	0	32372	32791	33126	32149	32406	32761	32247	32587	
4815	0	125	1258	31	1979	711	0	32453	32806	33086	32383	32326	32621	32189	32557	
4816	0	72	1267	29	1973	712	0	32505	32759	33071	32580	32487	32615	32223	32611	
4817	0	79	1264	29	1924	713	0	32557	32647	33095	32595	32621	32725	32243	32670	
4818	0	113	1222	30	1957	714	0	32613	32615	33143	32900	32646	32667	32263	32477	
4819	0	111	1279	30	1992	715	0	32615	32767	33334	33359	32519	32726	32355	32487	
4820	0	104	1239	30	1970	716	0	32619	32682	33298	33558	32587	32815	32315	32548	
4821	0	136	1259	28	1985	717	0	32681	32757	33013	33327	32691	32717	32402	32534	
4822	0	143	1273	29	1983	718	0	32775	32583	32861	32821	32733	32739	32404	32708	
4823	0	105	1262	29	1950	719	0	32758	32704	32891	32634	32715	32756	32443	32755	
4824	0	114	1289	30	1981	720	0	32815	32775	32975	32671	32697	32671	32507	32811	
4825	0	98	1253	29	1965	721	0	32892	32687	33078	32617	32669	32749	32479	32823	
4826	0	53	1219	29	1950	722	0	32897	32623	33047	32537	32690	32803	32447	32863	
4827	0	146	1208	30	2032	723	0	32935	32411	32903	32367	32845	32771	32571	32831	
4828	0	141	1256	28	1968	724	0	32999	32695	32785	32319	32799	32829	32628	32821	
4829	0	111	1242	29	1980	725	0	32951	32621	32803	32237	32662	32895	32695	32854	
4830	0	108	1251	28	1948	726	0	32903	32543	32775	32273	32597	32871	32616	32743	
4831	0	100	1246	29	1949	727	0	32835	32373	32639	32331	32724	32813	32548	32663	
4832	0	120	1270	30	1974	728	0	32841	32604	32733	32671	32807	32820	32689	32647	
4833	0	111	1279	30	2003	729	0	32804	32798	32988	32691	32754	32745	32727	32407	
4834	0	102	1267	29	1932	730	0	32852	32903	32982	32804	32719	32759	32603	32391	
4835	0	85	1226	29	1990	731	0	32899	32861	32902	32710	32670	32727	32645	32591	
4836	0	122	1282	29	1963	732	0	32852	32959	32790	32596	32803	32647	32685	32683	
4837	0	138	1276	30	1960	733	0	32806	32727	32687	32811	32773	32579	32708	32837	
4838	0	104	1232	29	1945	734	0	32827	32615	32585	32999	32785	32548	32693	32965	
4839	0	70	1300	29	1986	735	0	32902	32407	32591	33183	32797	32508	32703	32963	
4840	0	119	1252	28	1974	736	0	32829	32493	32758	33023	32775	32641	32751	32847	
4841	0	148	1252	29	1951	737	0	32874	32679	32741	32809	32914	32631	32919	32951	
4842	0	107	1243	29	1983	738	0	32871	32671	32638	32461	32999	32555	32850	33167	
4843	0	138	1250	28	2020	739	0	32767	32711	32687	32539	32875	32555	32822	33029	
4844	0	134	1275	30	1993	740	0	32734	32637	32817	32695	32717	32791	32855	33174	
4845	0	106	1277	30	2004	741	0	32792	32914	32775	32747	32685	32734	32911	33108	
4846	0	117	1252	29	1964	742	0	32902	33039	32799	32735	32706	32775	32831	33035	
4847	0	104	1200	30	1992	743	0	32866	32989	32791	32819	32815	32802	32709	32903	
4848	0	128	1260	29	1979	744	0	32866	33135	32739	32725	32807	32863	32578	32775	
4849	0	164	1252	29	1992	745	0	32727	33005	32854	32679	32681	32919	32578	32655	
4850	0	117	1268	28	1995	746	0	32557	33023	32999	32679	32662	32927	32551	32420	
4851	0	99	1265	28	1950	747	0	32623	32823	32858	32903	32636	32918	32643	32491	
4852	0	132	1270	29	1913	748	0	32573	32743	32766	32919	32686	32861	32675	32375	
4853	0	86	1248	29	1960	749	0	32660	32655	32702	32931	32633	32804	32619	32227	
4854	0	98	1243	28	1964	750	0	32640	32873	32743	33063	32455	32833	32615	32596	
4855	0	93	1283	29	1963	751	0	32635	32807	32775	32969	32583	32982	32678	32831	
4856	0	103	1233	27	1956	752	0	32734	32789	32715	32827	32775	32959	32689	32579	
4857	0	115	1246	29	1934	753	0	32837	32567	32683	32884	33023	32799	32790	32423	
4858	0	97	1216	30	1906	754	0	32882	32755	32707	32997	33215	32571	32679	32263	
4859	0	132	1246	29	1926	755	0	32822	32762	32711	33031	33085	32611	32727	32573	
4860	0	133	1263	30	1983	756	0	32792	32775	32563	32903	33047	32619	32665	32599	
4861	0	86	1256	29	1976	757	0	32769	32509	32551	32914	32942	32647	32607	32599	
4862	0	96	1266	29	1968	758	0	32769	32747	32679	32749	32898	32642	32831	32773	
4863	0	132	1278	31	1957	759	0	32772	32647	32677	32479	32833	32663	32933	32751	
4864	0	153	1255	29	1972	760	0	32711	32799	32797	32391	32731	32757	32767	32735	
4865	0	123	1212	28	1950	761	0	32718	32687	32802	32383	32647	32751	32801	32782	
4866	0	132	1266	30	1910	762	0	32703	32903	32879	32365	32571	32711	32786	32867	
4867	0	91	1260	29	1963	763	0	32770	32837	32748	32247	32837	32559	32799	32847	
4868	0	122	1264	28	1958	764	0	32756	32679	32671	32422	32748	32615	32679	32797	
4869	0	80	1270	29	1936	765	0	32839	32567	32759	32431	32790	32690	32543	32833	
4870	0	118	1249	29	2002	766	0	32769	32727	32668	32464	32813	32641	32687	32811	
4871	0	136	1265	30	1976	767	0	32795	32625	32676	32676	32811	32704	32850	32861	
4872	0	66	1258	30	1925	768	0	32770	32495	32647	32595	32973	32631	32839	33010	
4873	0	138	1238	29	1957	769	0	32727	32719	32755	32727	33036	32693	32902	32935	
4874	0	105	1257	29	1961	770	0	32727	32739	32727	32822	33037	32658	32859	32842	
4875	0	123	1305	28	1971	771	0	32676	32845	32839	32943	32791	32613	32831	32765	
4876	0	125	1280	30	1965	772	0	32721	32807	33023	33123	32899	32591	32663	32720	
4877	0	95	1244	29	1945	773	0	32684	32927	33031	32983	32711	32801	32716	32754	
4878	0	126	1278	30	1925	774	0	32798	32711	33011	32939	32741	32719	32818	32731	
4879	0	88	1233	31	1957	775	0	32838	32927	32998	32955	32791	32697	32851	32491	
4880	0	101	1265	28	1966	776	0	32808	32811	33076	32817	32769	32725	32763	32525	
4881	0	110	1251	29	1931	777	0	32817	32835	33157	32997	32647	32723	32545	32530	
4882	0	104	1253	30	1952	778	0	32789	32718	32999	32850	32791	32751	32543	32407	
4883	0	105	1222	30	1948	779	0	32820	32803	32852	32762	32734	32636	32662	32367	
4884	0	102	1261	30	1993	780	0	32876	32767	32797	32743	32662	32727	32674	32415	
4885	0	93	1270	29	1976	781	0	32879	32599	32763	32407	32639	32615	32655	32369	
4886	0	109	1230	29	1962	782	0	32826	32715	32687	32429	32711	32557	32765	32476	
4887	0	92	1197	29	1982	783	0	32726	32852	32597	32582	32583	32559	32727	32471	
4888	0	77	1265	30	1944	784	0	32565	32753	32526	32585	32623	32506	32717	32495	
4889	0	98	1240	29	1984	785	0	32623	32732	32741	32478	32770	32567	32671	32574	
4890	0	123	1238	29	1956	786	0	32599	32571	32805	32531	32675	32482	32647	32623	
4891	0	123	1245	29	1986	787	0	32581	32745	32761	32564	32887	32514	32439	32653	
4892	0	108	1221	28	1943	788	0	32592	32647	32941	32599	33003	32503	32495	32647	
4893	0	123	1189	29	1993	789	0	32719	32759	32966	32952	32799	32479	32509	32609	
4894	0	113	1252	29	1973	790	0	32759	32742	32737	33271	32751	32471	32903	32795	
4895	0	106	1261	28	1952	791	0	32775	32647	32647	33204	32719	32489	33027	32759	
4896	0	137	1256	28	1973	792	0	32840	32903	32642	32963	32602	32471	32911	32612	
4897	0	109	1262	29	1979	793	0	32834	32813	32555	32867	32759	32443	32879	32717	
4898	0	130	1242	30	1983	794	0	32797	32619	32639	33031	32743	32519	32727	32647	
4899	0	121	1249	28	1976	795	0	32772	32719	32602	32989	32655	32544	32679	32525	
4900	0	88	1241	28	1951	796	0	32791	32869	32639	32831	32739	32477	32647	32543	
4901	0	76	1264	30	1961	797	0	32718	32775	32706	32753	32748	32557	32516	32524	
4902	0	98	1252	29	1923	798	0	32734	32647	32831	32583	32709	32532	32454	32499	
4903	0	99	1247	30	1978	799	0	32727	32802	32827	32356	32709	32607	32491	32439	
4904	0	111	1248	28	1944	800	0	32719	32727	32811	32423	32647	32661	32551	32757	
4905	0	122	1237	29	1955	801	0	32717	32607	32751	32382	32623	32676	32838	32919	
4906	0	102	1201	28	1972	802	0	32727	32803	32837	32515	32775	32868	32671	32871	
4907	0	96	1241	29	1915	803	0	32754	32731	32751	32765	32890	32775	32643	32775	
4908	0	100	1235	28	1996	804	0	32765	32687	32860	32793	32911	32687	32614	32730	
4909	0	130	1232	31	1969	805	0	32791	32526	32842	32735	32951	32685	32693	32695	
4910	0	65	1290	29	1958	806	0	32870	32821	32695	32823	33049	32751	32637	32743	
4911	0	134	1255	29	1950	807	0	32839	32721	32692	32791	32943	32807	32691	32757	
4912	0	80	1235	28	1954	808	0	32767	32694	32850	32676	32815	32727	32970	32694	
4913	0	122	1240	30	1946	809	0	32701	32569	32846	32511	32901	32751	32903	32647	
4914	0	76	1251	30	1989	810	0	32758	32727	32571	32583	32933	32683	32583	32596	
4915	0	103	1257	29	1948	811	0	32835	32807	32407	32399	32930	32679	32036	32613	
4916	0	95	1282	29	1956	812	0	32860	32838	32397	32517	32929	32739	32387	32674	
4917	0	87	1232	29	1966	813	0	32895	32606	32669	32722	32847	32727	32719	32766	
4918	0	179	1243	29	1994	814	0	32863	32775	32695	32719	32701	32791	32771	32635	
4919	0	88	1217	29	1963	815	0	32789	32798	32748	32773	32665	32815	32999	32740	
4920	0	150	1224	30	1969	816	0	32758	32753	32967	32967	32711	32623	32983	32783	
4921	0	106	1287	30	1987	817	0	32735	32591	32871	32827	32732	32522	32887	32655	
4922	0	114	1224	29	1998	818	0	32687	32718	32829	32895	32775	32615	32367	32535	
4923	0	99	1220	28	1981	819	0	32738	32727	32885	33151	32621	32549	32799	32626	
4924	0	72	1252	29	1956	820	0	32903	32727	33159	33194	32691	32637	32635	32609	
4925	0	141	1234	30	1933	821	0	32903	32495	33335	33047	32578	32675	32660	32587	
4926	0	116	1237	29	1951	822	0	32847	32817	33235	33191	32335	32525	33277	32614	
4927	0	107	1262	27	1956	823	0	32791	32797	32887	32923	32453	32541	33159	32589	
4928	0	71	1216	29	1947	824	0	32889	32855	32715	32923	32499	32517	33367	32638	
4929	0	96	1221	30	1968	825	0	32858	32835	32561	32903	32470	32638	33375	32659	
4930	0	118	1252	28	1936	826	0	32772	32693	32626	32615	32501	32561	33259	32604	
4931	0	102	1211	27	1954	827	0	32740	32877	32681	32508	32455	32631	32807	32627	
4932	0	107	1239	29	1999	828	0	32669	32831	32629	32796	32695	32687	31775	32519	
4933	0	100	1264	28	1954	829	0	32606	32827	32675	32807	32751	32804	31219	32443	
4934	0	112	1232	28	1948	830	0	32715	32783	32658	32702	32710	32699	31391	32487	
4935	0	120	1243	29	1974	831	0	32725	32647	32646	32738	32683	32629	31671	32567	
4936	0	106	1266	29	1928	832	0	32655	32884	32455	32845	32615	32631	31819	32642	
4937	0	106	1209	28	1971	833	0	32687	32775	32303	32603	32452	32631	32065	32699	
4938	0	119	1242	29	1920	834	0	32685	32623	32558	32567	32545	32574	32364	32767	
4939	0	99	1251	30	1990	835	0	32703	32756	32647	32583	32486	32580	33003	32749	
4940	0	108	1216	29	1977	836	0	32685	32791	32742	32451	32399	32613	33716	32837	
4941	0	115	1266	28	1951	837	0	32745	32805	32887	32543	32571	32572	33991	32819	
4942	0	108	1237	30	1989	838	0	32847	32642	32871	32679	32673	32675	33885	32805	
4943	0	113	1254	30	1987	839	0	32868	32775	32877	32549	32685	32699	33787	32751	
4944	0	129	1257	28	1988	840	0	32834	32658	32949	32647	32647	32535	34002	32775	
4945	0	115	1217	30	1962	841	0	32694	32748	32895	32593	32679	32775	33731	32644	
4946	0	134	1281	29	1981	842	0	32713	32635	33022	32517	32708	32767	33084	32741	
4947	0	135	1235	29	1956	843	0	32681	32855	33015	32639	32791	32583	32719	32605	
4948	0	117	1280	28	1949	844	0	32668	32807	33052	32767	32899	32530	32391	32582	
4949	0	128	1263	28	1945	845	0	32692	32631	32951	32527	32861	32643	32413	32743	
4950	0	119	1243	28	1984	846	0	32754	32743	32705	32627	32763	32709	32347	32729	
4951	0	88	1219	29	1988	847	0	32747	32784	32685	32455	32846	32769	32263	32791	
4952	0	130	1231	29	1947	848	0	32793	32773	32636	32561	32947	32785	32255	32726	
4953	0	119	1292	28	1998	849	0	32864	32623	32670	32735	32989	32831	32111	32574	
4954	0	131	1258	30	1957	850	0	32863	32751	32695	32940	32967	32791	32118	32647	
4955	0	129	1215	29	1999	851	0	32931	32895	32490	32959	33031	32801	32135	32699	
4956	0	97	1271	30	1937	852	0	32999	32775	32567	33013	32931	32869	32043	32676	
4957	0	63	1258	29	1968	853	0	32900	32748	32791	33023	32919	32844	31892	32669	
4958	0	113	1285	28	1974	854	0	32859	32655	32769	32993	32916	32769	32214	32663	
4959	0	100	1267	28	1989	855	0	32817	32831	32801	33063	32812	32660	32711	32698	
4960	0	150	1266	28	1960	856	0	32695	32775	32731	33079	32717	32595	33479	32647	
4961	0	105	1245	28	1981	857	0	32598	32795	32531	32898	32594	32490	34135	32717	
4962	0	99	1241	29	1993	858	0	32458	32647	32415	32927	32683	32467	34383	32705	
4963	0	125	1235	29	1983	859	0	32505	32733	32722	33043	32639	32591	34647	32803	
4964	0	99	1273	29	1938	860	0	32630	32919	32933	32879	32719	32597	34281	32767	
4965	0	72	1289	29	1954	861	0	32804	32836	32921	32707	32613	32615	33903	32647	
4966	0	94	1232	29	1961	862	0	32848	32789	32949	32607	32558	32643	33361	32867	
4967	0	131	1263	29	1952	863	0	32768	32557	32835	32756	32455	32589	32839	32833	
4968	0	119	1251	29	2006	864	0	32790	32593	32724	32647	32338	32583	32187	32811	
4969	0	101	1278	28	1986	865	0	32694	32835	32733	32543	32157	32685	31687	32588	
4970	0	117	1248	29	1978	866	0	32645	32729	32809	32647	32770	32823	31535	32818	
4971	0	122	1219	30	1977	867	0	32694	32738	32863	32671	32997	32855	31319	32775	
4972	0	118	1272	28	1950	868	0	32726	32645	32850	32646	33042	32759	30828	32541	
4973	0	113	1277	29	1921	869	0	32850	32807	32811	32711	33191	32695	30767	32535	
4974	0	111	1235	30	1952	870	0	32981	32799	32811	32643	33175	32715	31171	32435	
4975	0	103	1259	29	1976	871	0	32902	32749	32685	32699	33155	32838	31702	32662	
4976	0	131	1244	28	1986	872	0	32831	32609	32719	32671	32939	32637	32129	32457	
4977	0	112	1237	29	1938	873	0	32743	32604	32731	32655	32916	32677	32439	32559	
4978	0	118	1256	28	1989	874	0	32685	32852	32575	32839	33022	32599	32919	32487	
4979	0	148	1260	30	1944	875	0	32732	32902	32487	32751	32963	32549	33415	32486	
4980	0	110	1262	30	1941	876	0	32671	32817	32662	32687	32757	32455	33749	32503	
4981	0	120	1239	27	1970	877	0	32692	32740	32727	32743	32637	32473	33639	32660	
4982	0	93	1254	29	1939	878	0	32768	32459	32693	32761	32661	32563	33212	32640	
4983	0	104	1234	29	1998	879	0	32801	32554	32569	32851	32783	32543	33191	32567	
4984	0	65	1232	28	1996	880	0	32709	32691	32758	32843	32831	32669	33143	32775	
4985	0	132	1253	28	1949	881	0	32834	32879	32679	32717	32813	32671	32999	32853	
4986	0	94	1200	29	1971	882	0	32787	32783	32699	32801	32727	32710	33039	32836	
4987	0	115	1213	30	1997	883	0	32831	32807	32493	32875	32899	32745	33055	32837	
4988	0	95	1234	29	1956	884	0	32973	32647	32478	32791	32743	32679	32919	32799	
4989	0	112	1265	30	1939	885	0	33140	32887	32571	32799	32637	32679	32830	32759	
4990	0	116	1221	28	1928	886	0	33099	32797	32742	32911	32755	32617	32911	32725	
4991	0	93	1237	29	1930	887	0	33003	32727	32871	32719	32757	32559	32962	32647	
4992	0	123	1314	29	1960	888	0	32938	32749	32895	32875	32751	32647	32899	32667	
4993	0	132	1238	30	1953	889	0	32912	32890	32927	32956	32635	32675	32775	32661	
4994	0	84	1252	29	1957	890	0	32751	32943	32830	32775	32647	32662	32783	32640	
4995	0	108	1296	29	1954	891	0	32644	32887	32815	32754	32711	32763	32785	32668	
4996	0	128	1258	30	1979	892	0	32449	32655	32885	32875	32708	32815	32935	32703	
4997	0	157	1264	27	1984	893	0	32356	32869	33023	32835	32663	32855	32923	32703	
4998	0	125	1257	29	1960	894	0	32318	32771	33105	32748	32647	32791	33087	32667	
4999	0	78	1330	29	1934	895	0	32391	32801	33085	32799	32740	32667	33088	32617	
5000	0	99	1281	28	1945	896	0	32473	32809	32934	32822	32751	32852	33007	32834	
5001	0	78	1234	28	1971	897	0	32489	32823	32855	32685	32807	32613	32943	32809	
5002	0	79	1220	29	1975	898	0	32576	32783	32795	32715	32807	32723	32837	32679	
5003	0	116	1280	29	1993	899	0	32623	32623	32681	32687	32838	32631	32487	32715	
5004	0	113	1277	29	1962	900	0	32760	32735	32615	32775	32887	32655	32153	32561	
5005	0	93	1229	28	1948	901	0	32842	32814	32547	32700	32862	32521	31866	32551	
5006	0	120	1263	28	2012	902	0	32858	32711	32517	32709	32933	32662	31837	32547	
5007	0	95	1253	30	1951	903	0	32814	32725	32489	32684	32925	32633	32079	32717	
5008	0	81	1249	29	1954	904	0	32815	32845	32477	32686	33017	32695	32237	32847	
5009	0	81	1210	28	1984	905	0	32821	32754	32587	32647	33014	32611	32351	32700	
5010	0	94	1240	29	1962	906	0	32849	32823	32815	32738	33018	32731	32503	32683	
5011	0	129	1274	30	1978	907	0	32865	32750	32877	32659	32854	32742	32775	32748	
5012	0	143	1246	29	1961	908	0	32903	32815	32887	32564	32827	32711	32615	32463	
5013	0	97	1283	28	1957	909	0	32861	32775	32919	32703	32717	32783	32748	32585	
5014	0	122	1292	29	1950	910	0	32845	32803	32989	32709	32663	32865	32885	32629	
5015	0	109	1255	29	1952	911	0	32831	32775	32837	32707	32711	32695	33175	32727	
5016	0	114	1260	29	1962	912	0	32935	32646	32818	32681	32633	32734	33367	32675	
5017	0	91	1232	30	1991	913	0	32930	32783	32609	32545	32647	32771	33253	32551	
5018	0	94	1257	30	1973	914	0	32890	32823	32598	32535	32711	32791	33308	32767	
5019	0	130	1230	30	1965	915	0	32880	32807	32638	32679	32555	32815	33191	32740	
5020	0	94	1242	28	1993	916	0	32919	32901	32713	32831	32603	32605	32932	32548	
5021	0	103	1290	29	2026	917	0	32817	32683	32883	32946	32711	32583	32741	32559	
5022	0	93	1231	28	2000	918	0	32799	32806	32933	32995	32825	32391	32967	32589	
5023	0	140	1229	28	1980	919	0	32758	32843	32839	32935	32683	32509	32860	32643	
5024	0	94	1215	28	1929	920	0	32757	32815	32911	32915	32607	32551	32551	32607	
5025	0	102	1255	28	1976	921	0	32732	32893	32919	32960	32722	32519	32301	32598	
5026	0	136	1238	29	1973	922	0	32775	32834	32847	33037	32719	32530	32163	32662	
5027	0	114	1243	28	1974	923	0	32745	32723	32834	32935	32831	32419	32020	32607	
5028	0	120	1304	29	1892	924	0	32769	32685	32813	32853	32935	32577	32314	32462	
5029	0	153	1226	30	1954	925	0	32796	32740	32725	32799	32895	32479	32515	32551	
5030	0	132	1256	28	1956	926	0	32736	32811	32676	32669	32973	32583	32647	32572	
5031	0	115	1288	28	1978	927	0	32735	32559	32679	32597	32932	32525	32744	32667	
5032	0	115	1248	30	1945	928	0	32705	32721	32671	32551	32860	32669	32884	32731	
5033	0	135	1256	29	2001	929	0	32768	32783	32771	32511	32570	32534	33212	32723	
5034	0	102	1221	28	1970	930	0	32801	32638	32567	32589	32483	32647	32978	32769	
5035	0	105	1223	29	1957	931	0	32713	32826	32575	32734	32695	32775	32711	32659	
5036	0	137	1248	29	1946	932	0	32717	32978	32679	32708	32684	32747	32703	32679	
5037	0	86	1284	29	1968	933	0	32710	32751	32805	32713	32765	32711	32717	32771	
5038	0	149	1298	29	1956	934	0	32692	32847	32877	32731	32773	32609	32855	32690	
5039	0	130	1236	29	2001	935	0	32718	32873	32879	32746	32799	32749	32665	32703	
5040	0	74	1234	29	1944	936	0	32703	32687	32858	32645	32845	32622	32807	32640	
5041	0	105	1233	28	1979	937	0	32676	32922	32757	32788	32919	32767	32591	32623	
5042	0	109	1287	28	2016	938	0	32679	32658	32839	32837	32836	32706	32443	32759	
5043	0	122	1283	29	1975	939	0	32678	32799	32879	32844	32903	32806	32514	32598	
5044	0	92	1250	30	1939	940	0	32647	32771	32895	32811	33068	32743	32815	32658	
5045	0	65	1251	31	1959	941	0	32732	32845	32860	32817	32933	32461	32767	32551	
5046	0	127	1213	29	1950	942	0	32783	32879	32882	32803	32959	32590	32935	32641	
5047	0	97	1276	28	1952	943	0	32814	32599	32759	32749	32919	32535	32836	32595	
5048	0	154	1229	30	1931	944	0	32865	32735	32719	32670	32851	32604	32735	32557	
5049	0	96	1255	29	1930	945	0	32801	32958	32759	32647	32845	32531	32834	32647	
5050	0	111	1222	30	1968	946	0	32745	32687	32827	32679	33111	32699	32637	32511	
5051	0	100	1230	29	1957	947	0	32728	32866	32859	32599	33025	32615	32631	32717	
5052	0	86	1253	27	1927	948	0	32653	32609	32819	32613	32810	32563	32695	32775	
5053	0	125	1276	29	1976	949	0	32673	32791	32893	32711	32638	32597	32970	32715	
5054	0	95	1254	29	1978	950	0	32718	32839	32839	32671	32279	32748	33165	32798	
5055	0	109	1269	30	1977	951	0	32762	32695	32717	32668	32178	32639	33023	32879	
5056	0	126	1220	28	1954	952	0	32838	32819	32679	32640	32181	32834	32730	32699	
5057	0	113	1223	27	1928	953	0	32854	32599	32647	32639	32407	32717	32637	32676	
5058	0	110	1276	30	1975	954	0	32854	32767	32613	32449	32183	32737	32591	32566	
5059	0	96	1301	29	1981	955	0	32856	32647	32734	32231	32636	32756	32335	32699	
5060	0	129	1239	29	1994	956	0	32768	32795	32772	32473	32788	32455	32339	32714	
5061	0	88	1266	28	2005	957	0	32807	32846	32575	32663	32921	32647	32295	32692	
5062	0	125	1273	30	1977	958	0	32870	32647	32677	32903	32819	32571	32287	32679	
5063	0	96	1221	29	1962	959	0	32848	32751	32716	33031	32543	32582	32516	32596	
5064	0	88	1230	29	1968	960	0	32809	32803	32679	33007	32329	32327	32621	32647	
5065	0	96	1248	29	1996	961	0	32744	32707	32717	32922	32551	32559	32927	32627	
5066	0	133	1250	29	1939	962	0	32698	32844	32711	32903	32951	32647	32869	32766	
5067	0	108	1252	29	1978	963	0	32676	32642	32700	32927	33415	32899	32903	32815	
5068	0	157	1277	29	1986	964	0	32663	32764	32707	32941	33735	32975	32903	32679	
5069	0	111	1236	28	1937	965	0	32703	32827	32807	33045	33807	32887	33159	32718	
5070	0	139	1244	30	1956	966	0	32694	32751	32846	33076	33346	32867	33543	32731	
5071	0	120	1279	28	1934	967	0	32671	32775	32766	33054	33239	32589	33709	32843	
5072	0	56	1254	29	2006	968	0	32640	32677	32799	32775	33181	32721	33065	32818	
5073	0	96	1230	28	1952	969	0	32679	32783	32939	32668	32775	32811	32843	32775	
5074	0	77	1342	30	1996	970	0	32709	32847	32871	32628	32679	32791	32655	32852	
5075	0	117	1275	29	1992	971	0	32707	32783	32815	32694	32597	32765	32433	32785	
5076	0	104	1305	28	1932	972	0	32767	32807	32807	32620	33115	32613	32271	32642	
5077	0	117	1240	29	1963	973	0	32756	32711	32691	32559	32931	32607	32197	32647	
5078	0	78	1210	29	1985	974	0	32684	32827	32717	32690	32727	32567	32542	32683	
5079	0	113	1272	29	2018	975	0	32754	32765	32869	32803	32551	32647	32679	32459	
5080	0	128	1220	28	1946	976	0	32809	32818	32828	32765	32467	32679	32422	32577	
5081	0	102	1193	28	1940	977	0	32830	32901	32799	32767	32647	32691	32343	32569	
5082	0	93	1184	29	1989	978	0	32873	32631	32860	32661	32798	32847	32407	32780	
5083	0	105	1233	28	1924	979	0	32895	32799	32773	32559	32557	32615	32673	32677	
5084	0	174	1228	28	1946	980	0	32788	32638	32767	32535	32263	32581	33019	32514	
5085	0	100	1209	29	1951	981	0	32754	32835	32821	32551	32199	32575	33338	32660	
5086	0	87	1288	28	1953	982	0	32771	32919	32631	32695	32543	32631	33415	32620	
5087	0	116	1217	29	1962	983	0	32804	32612	32513	32822	32615	32722	32628	32567	
5088	0	127	1231	28	1956	984	0	32855	32775	32767	32813	32612	32627	32135	32613	
5089	0	127	1240	30	1973	985	0	32919	32759	32662	32772	33013	32821	32183	32391	
5090	0	106	1280	30	1976	986	0	32846	32839	32799	32995	33315	32694	32733	32508	
5091	0	116	1229	29	1969	987	0	32726	32771	32854	32877	32895	32439	32583	32519	
5092	0	74	1247	30	1980	988	0	32743	32589	32871	32951	32663	32583	32171	32495	
5093	0	70	1237	30	1982	989	0	32756	32720	32714	32978	32607	32751	32080	32523	
5094	0	77	1266	30	1977	990	0	32658	32780	32753	32814	32493	32659	32195	32485	
5095	0	105	1249	28	1987	991	0	32612	32827	32715	32671	32647	32535	32679	32324	
5096	0	129	1224	29	1991	992	0	32623	32859	32759	32619	32889	32619	33070	32429	
5097	0	92	1320	29	1958	993	0	32666	32805	32727	32687	32855	32663	33193	32407	
5098	0	136	1249	29	1946	994	0	32716	32565	32813	32627	32775	32692	33089	32475	
5099	0	110	1277	29	1984	995	0	32705	32775	32807	32517	32891	32714	32999	32509	
5100	0	67	1231	29	1962	996	0	32726	32764	32859	32695	33159	32763	32511	32575	
5101	0	128	1280	30	1956	997	0	32725	32751	32791	32809	32965	32806	32487	32647	
5102	0	154	1227	29	1984	998	0	32800	32605	32803	32599	32493	32803	32525	32743	
5103	0	99	1269	29	1972	999	0	32775	32887	32775	32497	32451	32701	32402	32863	
5104	0	66	1268	29	1932	1000	0	32736	32765	32789	32623	32425	32641	32162	32883	
5105	0	105	1252	28	1956	1001	0	32780	32749	32916	32791	32628	32679	32447	32855	
5106	0	80	1235	30	1955	1002	0	32717	32583	32788	32815	32762	32679	32847	32950	
5107	0	88	1268	28	1955	1003	0	32722	32665	32845	32793	32947	32711	32954	33053	
5108	0	114	1239	28	1984	1004	0	32763	32793	32884	32894	32839	32685	33189	32948	
5109	0	76	1215	28	1946	1005	0	32767	32833	32847	32809	32679	32791	32925	33035	
5110	0	127	1239	29	1952	1006	0	32766	32735	32734	32679	32641	32887	32771	32959	
5111	0	138	1264	29	1946	1007	0	32749	32655	32687	32763	32660	32894	32693	32903	
5112	0	133	1289	29	1949	1008	0	32701	32527	32741	32795	32718	32791	32815	32860	
5113	0	61	1297	28	1959	1009	0	32678	32775	32799	32711	32727	32621	32447	32751	
5114	0	98	1261	29	1974	1010	0	32742	32733	32839	32615	32903	32647	32391	32749	
5115	0	100	1225	28	1977	1011	0	32739	32807	32855	32692	32647	32637	32489	32691	
5116	0	74	1268	28	1968	1012	0	32808	32613	32785	32658	32791	32682	32550	32711	
5117	0	141	1298	28	1938	1013	0	32756	32748	32647	32572	32679	32623	32539	32726	
5118	0	124	1255	29	2013	1014	0	32796	32823	32635	32695	32846	32575	32578	32687	
5119	0	98	1248	28	1979	1015	0	32815	32759	32619	32638	32916	32519	32655	32679	
5120	0	119	1265	30	1940	1016	0	32838	32751	32743	32537	32823	32449	32863	32747	
5121	0	202	1241	29	1927	1017	0	32810	32532	32679	32493	32814	32567	32839	32783	
5122	0	107	1244	30	1952	1018	0	32782	32662	32733	32595	32810	32655	33137	32815	
5123	0	124	1269	28	1932	1019	0	32772	32858	32813	32647	32767	32679	33149	32597	
5124	0	121	1242	29	1956	1020	0	32844	32784	32710	32503	32794	32761	32863	32615	
5125	0	108	1272	29	1988	1021	0	32807	32731	32799	32596	32726	32743	32567	32615	
5126	0	127	1228	29	1974	1022	0	32790	32606	32775	32903	32895	32833	32403	32429	
5127	0	128	1264	29	1985	1023	0	32711	32719	32775	32998	33283	32823	32540	32551	
5128	0	100	1239	29	1952	1024	0	32739	32759	32810	32877	33326	32668	32686	32631	
5129	0	121	1271	30	1932	1025	0	32710	32722	32901	32903	33445	32629	32801	32479	
5130	0	124	1223	30	1969	1026	0	32698	32591	32721	32867	33319	32575	32846	32615	
5131	0	123	1258	27	1951	1027	0	32756	32699	32639	32931	33124	32647	32801	32775	
5132	0	125	1248	30	1935	1028	0	32729	32883	32599	33031	32789	32556	32927	32674	
5133	0	97	1263	28	1986	1029	0	32775	32775	32734	32989	32599	32473	33011	32735	
5134	0	123	1243	29	1940	1030	0	32802	32605	32639	32762	32787	32519	32843	32807	
5135	0	110	1246	30	2006	1031	0	32742	32707	32839	32720	32591	32543	32839	32751	
5136	0	105	1250	28	1945	1032	0	32756	32806	32842	32823	32263	32567	32799	32772	
5137	0	135	1305	29	1978	1033	0	32826	32717	32759	32729	32325	32581	32831	32634	
5138	0	130	1278	29	1930	1034	0	32884	32762	32847	32631	32386	32519	32903	32615	
5139	0	80	1263	28	2000	1035	0	32812	32639	32735	32686	32250	32751	32847	32669	
5140	0	137	1239	28	1970	1036	0	32833	32854	32895	32629	32388	32783	32863	32694	
5141	0	114	1260	29	1954	1037	0	32711	32823	32827	32620	32668	32687	33002	32590	
5142	0	150	1282	28	1961	1038	0	32784	32835	32714	32655	32871	32615	32855	32576	
5143	0	130	1244	29	1942	1039	0	32870	32638	32757	32657	32827	32695	32429	32532	
5144	0	129	1262	27	1970	1040	0	32885	32763	32619	32543	32771	32883	32373	32663	
5145	0	98	1251	29	1942	1041	0	32911	32877	32679	32391	32697	32991	32349	32714	
5146	0	119	1221	30	1973	1042	0	32893	32807	32735	32687	32631	32823	32367	32685	
5147	0	156	1227	29	1953	1043	0	32876	32598	32815	32703	32460	32699	32659	32775	
5148	0	80	1248	29	1992	1044	0	32854	32823	32842	32711	32263	32711	32711	32725	
5149	0	94	1207	29	1931	1045	0	32793	32879	32841	32805	32370	32723	32619	32687	
5150	0	108	1264	30	1990	1046	0	32742	32735	32831	32743	32573	32647	32638	32701	
5151	0	113	1227	29	1978	1047	0	32714	32639	32850	32736	32727	32691	32797	32731	
5152	0	107	1283	29	1986	1048	0	32701	32595	32717	32791	33015	32670	32921	32663	
5153	0	124	1257	29	1985	1049	0	32647	32892	32679	32663	32991	32711	32788	32711	
5154	0	117	1286	28	2034	1050	0	32577	32775	32639	32450	32903	32661	32647	32791	
5155	0	143	1266	28	1959	1051	0	32617	32843	32607	32426	33025	32767	32439	32711	
5156	0	127	1283	29	1985	1052	0	32687	32546	32594	32571	33135	32647	32442	32691	
5157	0	127	1215	29	2010	1053	0	32735	32757	32615	32719	33031	32597	32583	32635	
5158	0	81	1281	28	1980	1054	0	32807	32772	32591	32660	32877	32607	32611	32739	
5159	0	135	1250	28	1968	1055	0	32789	32757	32596	32807	32579	32571	32676	32695	
5160	0	122	1205	29	1969	1056	0	32802	32721	32607	32951	32418	32556	32814	32793	
5161	0	111	1243	29	1971	1057	0	32723	32535	32732	33003	32333	32597	33021	32881	
5162	0	79	1214	30	1990	1058	0	32684	32758	32685	33055	32583	32691	33054	32895	
5163	0	86	1261	29	1946	1059	0	32806	32837	32709	33015	32586	32666	33124	32839	
5164	0	137	1232	27	1973	1060	0	32805	32709	32767	32919	32423	32639	32866	32619	
5165	0	99	1255	29	1998	1061	0	32751	32759	32775	32879	32919	32695	33044	32723	
5166	0	110	1260	30	1971	1062	0	32738	32711	32797	32960	33007	32854	32852	32748	
5167	0	89	1233	28	1993	1063	0	32742	32935	32863	33147	32975	32759	32817	32701	
5168	0	76	1254	29	1968	1064	0	32740	32798	32957	32985	33195	32747	32805	32637	
5169	0	128	1224	28	1958	1065	0	32720	32627	32973	32903	33057	32660	32593	32491	
5170	0	115	1231	29	1938	1066	0	32682	32636	33023	32836	32962	32839	32387	32578	
5171	0	179	1263	29	1959	1067	0	32721	32851	33127	32859	33171	32957	32437	32883	
5172	0	129	1238	31	1931	1068	0	32746	32829	33066	32868	33151	32925	32445	32867	
5173	0	117	1226	28	1957	1069	0	32815	32839	33031	32747	33107	32759	32547	32703	
5174	0	116	1248	31	1974	1070	0	32798	32741	33091	32794	33129	32727	32759	32743	
5175	0	100	1291	29	1958	1071	0	32822	32535	33119	32858	32771	32731	32829	32943	
5176	0	95	1260	29	1978	1072	0	32852	32847	32965	32855	32567	32794	32631	32677	
5177	0	79	1270	29	1960	1073	0	32726	32789	32823	32931	32642	32935	32423	32582	
5178	0	115	1268	29	1979	1074	0	32743	32757	32602	32941	32911	32889	32556	32635	
5179	0	137	1264	29	2008	1075	0	32799	32775	32471	32630	32851	32687	32744	32583	
5180	0	127	1245	29	1970	1076	0	32827	32895	32475	32495	32773	32739	32701	32495	
5181	0	100	1235	28	1945	1077	0	32799	32823	32567	32547	32783	32423	32826	32467	
5182	0	84	1222	30	1988	1078	0	32690	32668	32634	32484	32701	32331	33036	32451	
5183	0	113	1244	29	1944	1079	0	32643	32691	32710	32487	32775	32415	32903	32495	
5184	0	104	1242	29	1970	1080	0	32704	32940	32719	32619	32755	32501	32871	32491	
5185	0	111	1248	27	1988	1081	0	32647	32839	32594	32639	32453	32501	32791	32594	
5186	0	100	1264	28	1963	1082	0	32683	32875	32671	32572	32055	32479	32529	32607	
5187	0	135	1253	29	1987	1083	0	32653	32711	32861	32566	32377	32423	32759	32601	
5188	0	105	1221	27	1970	1084	0	32727	32882	32863	32279	32493	32403	32915	32491	
5189	0	79	1243	28	1965	1085	0	32796	32769	32879	32342	32367	32543	32660	32551	
5190	0	122	1264	30	1986	1086	0	32876	32715	32749	32681	32135	32459	32769	32527	
5191	0	149	1234	29	1962	1087	0	32826	32695	32639	33071	32386	32455	32807	32687	
5192	0	83	1247	27	1973	1088	0	32734	32647	32429	33023	32595	32479	32898	32741	
5193	0	92	1258	28	1976	1089	0	32737	32925	32461	32829	32709	32439	33051	32595	
5194	0	85	1284	31	2007	1090	0	32698	32803	32535	33053	32749	32547	32939	32620	
5195	0	100	1233	28	1932	1091	0	32842	32677	32645	33045	32903	32719	32893	32634	
5196	0	107	1243	29	1966	1092	0	32852	32727	32661	33110	32559	32751	32799	32763	
5197	0	115	1220	29	1952	1093	0	32983	32884	32621	32979	32495	33047	32380	32743	
5198	0	128	1202	28	1958	1094	0	32943	32747	32783	32847	33123	32919	32251	32693	
5199	0	123	1258	28	2008	1095	0	32879	32828	32924	32877	33491	32793	32313	32595	
5200	0	142	1234	29	1949	1096	0	32838	32703	32903	32815	33603	32632	32391	32638	
5201	0	144	1235	29	1971	1097	0	32789	32927	32858	32583	33571	32711	32444	32647	
5202	0	143	1269	29	1934	1098	0	32724	32911	32932	32421	33634	32635	32775	32877	
5203	0	125	1253	29	1986	1099	0	32701	32845	32951	32434	33367	32535	32995	32789	
5204	0	117	1231	29	1942	1100	0	32723	32631	32803	32573	33143	32519	33117	32807	
5205	0	118	1287	28	1955	1101	0	32743	32733	32837	32527	33049	32605	33183	32837	
5206	0	120	1222	30	1976	1102	0	32791	32775	32924	32422	32879	32570	32901	32799	
5207	0	96	1230	28	1984	1103	0	32775	32807	32887	32623	32804	32641	32761	32751	
5208	0	121	1267	29	2007	1104	0	32788	32751	32667	32603	32843	32784	32683	32535	
5209	0	155	1219	29	1960	1105	0	32775	32826	32759	32573	32866	32707	32467	32545	
5210	0	164	1271	30	1966	1106	0	32759	32805	32669	32727	32790	32691	32469	32540	
5211	0	106	1219	30	1977	1107	0	32767	32807	32562	32799	32775	32772	32558	32646	
5212	0	100	1209	29	1967	1108	0	32777	32647	32490	32787	32967	32787	32623	32786	
5213	0	114	1285	29	1982	1109	0	32751	32725	32647	32901	32918	32625	32739	32690	
5214	0	115	1244	29	1992	1110	0	32788	32789	32642	32972	32895	32695	32783	32679	
5215	0	95	1275	30	1967	1111	0	32750	32759	32735	32723	32722	32694	32677	32592	
5216	0	134	1245	29	1947	1112	0	32786	32846	32811	32611	32815	32789	32914	32630	
5217	0	84	1220	28	1989	1113	0	32784	32605	33015	32559	32647	32515	32894	32587	
5218	0	105	1234	29	1986	1114	0	32759	32733	33127	32567	32687	32725	32707	32471	
5219	0	135	1217	29	2000	1115	0	32760	32771	32980	32735	32695	32759	32949	32662	
5220	0	101	1259	30	1946	1116	0	32783	32579	32839	32887	32775	32703	32794	32573	
5221	0	97	1248	29	1999	1117	0	32768	32793	32798	32862	32683	32775	32767	32668	
5222	0	95	1222	29	2007	1118	0	32852	32813	32690	32751	32705	32775	32471	32581	
5223	0	118	1251	29	1968	1119	0	32806	32687	32759	32824	32461	32733	32498	32694	
5224	0	115	1271	27	1992	1120	0	32756	32742	32881	32719	32693	32631	32615	32674	
5225	0	119	1284	28	1959	1121	0	32783	32630	32817	32703	32718	32775	32775	32547	
5226	0	91	1268	30	1967	1122	0	32830	32721	32702	32738	32615	32775	32841	32775	
5227	0	73	1211	30	1932	1123	0	32762	32807	32595	32830	32675	32775	33135	32879	
5228	0	152	1217	29	1989	1124	0	32701	32583	32647	32935	32719	32575	33119	32737	
5229	0	140	1234	29	1955	1125	0	32660	32775	32519	32991	32739	32645	32925	32783	
5230	0	85	1232	28	1915	1126	0	32671	32626	32509	33123	32719	32717	32738	32642	
5231	0	110	1206	29	1986	1127	0	32740	32833	32665	32967	32631	32619	32588	32797	
5232	0	84	1269	29	1975	1128	0	32725	32804	32877	32885	32687	32575	32511	32574	
5233	0	127	1234	29	1968	1129	0	32727	32731	33014	32955	32699	32578	32343	32556	
5234	0	85	1260	28	1941	1130	0	32754	32647	33003	32705	32741	32602	32459	32565	
5235	0	142	1237	27	1983	1131	0	32727	32751	32879	32605	32803	32612	32731	32547	
5236	0	131	1245	30	1922	1132	0	32732	32799	32903	32571	32783	32711	32863	32615	
5237	0	120	1239	29	2000	1133	0	32752	32647	32812	32431	32711	32731	32910	32575	
5238	0	115	1276	28	1993	1134	0	32761	32643	32827	32436	32677	32734	32850	32987	
5239	0	112	1239	28	1932	1135	0	32799	32487	32833	32518	32803	32871	32819	33178	
5240	0	99	1247	29	1922	1136	0	32861	32667	32839	32687	32839	32743	32723	32973	
5241	0	116	1292	28	1972	1137	0	32804	32847	32859	32815	32802	32623	32687	32734	
5242	0	130	1261	30	1961	1138	0	32831	32805	32829	32831	32822	32647	32815	32754	
5243	0	78	1288	28	1986	1139	0	32790	32797	32887	32743	32975	32719	32711	32665	
5244	0	149	1224	28	1959	1140	0	32826	32833	32797	32843	33015	32791	32749	32493	
5245	0	118	1273	29	1962	1141	0	32813	32646	32732	32956	32747	32707	32797	32413	
5246	0	137	1263	29	1951	1142	0	32791	32715	32759	33057	32603	32591	32635	32463	
5247	0	130	1229	29	1939	1143	0	32807	32855	32773	33093	32745	32555	32619	32365	
5248	0	168	1259	30	1953	1144	0	32809	32943	32851	33069	32900	32570	32589	32455	
5249	0	128	1264	28	1946	1145	0	32871	32852	32823	32943	32869	32667	32500	32481	
5250	0	143	1285	28	1961	1146	0	32790	32875	32647	32850	32852	32674	32517	32671	
5251	0	133	1227	29	1943	1147	0	32710	32894	32647	32805	32807	32646	32439	32599	
5252	0	81	1223	31	1913	1148	0	32726	32637	32540	32783	32759	32690	32499	32563	
5253	0	138	1264	29	1927	1149	0	32809	32663	32540	32511	32775	32797	32485	32717	
5254	0	142	1237	29	1948	1150	0	32735	32725	32443	32511	32875	32775	32647	32611	
5255	0	154	1278	29	1998	1151	0	32671	32711	32633	32516	33026	32595	32775	32519	
5256	0	138	1261	29	1968	1152	0	32626	32748	32735	32511	32877	32743	32754	32625	
5257	0	105	1272	30	1954	1153	0	32594	32647	32626	32549	32625	32859	32695	32678	
5258	0	93	1223	29	1947	1154	0	32634	32727	32591	32515	32724	32817	32757	32603	
5259	0	123	1245	29	1963	1155	0	32718	32879	32636	32615	32783	32681	32637	32695	
5260	0	80	1251	28	1961	1156	0	32796	32775	32847	32543	32749	32675	32671	32743	
5261	0	100	1255	29	1957	1157	0	32837	32694	32753	32543	32762	32615	32713	32591	
5262	0	113	1251	28	1968	1158	0	32834	32551	32583	32655	32863	32633	32717	32537	
5263	0	117	1232	29	1972	1159	0	32749	32620	32711	32607	32976	32661	32751	32646	
5264	0	137	1212	29	1959	1160	0	32773	32683	32635	32577	32793	32763	32735	32623	
5265	0	132	1253	29	1987	1161	0	32740	32839	32745	32596	32844	32662	32751	32773	
5266	0	104	1242	29	1933	1162	0	32732	32799	32901	32715	32717	32613	32867	32847	
5267	0	107	1246	29	1933	1163	0	32765	32710	32959	32845	32710	32571	32756	32743	
5268	0	100	1284	29	1956	1164	0	32798	32759	32951	32739	32865	32469	32818	32723	
5269	0	123	1228	28	1968	1165	0	32836	32595	32927	32703	32804	32493	32731	32775	
5270	0	121	1252	28	1976	1166	0	32742	32735	32875	32795	32703	32549	32702	32895	
5271	0	94	1265	29	1977	1167	0	32841	32827	32703	32719	32749	32516	32677	32884	
5272	0	102	1250	28	1980	1168	0	32873	32803	32611	32703	32807	32532	32695	32899	
5273	0	104	1222	30	1948	1169	0	32828	32815	32663	32703	32801	32551	32719	32859	
5274	0	97	1235	29	1927	1170	0	32828	32742	32726	32855	32861	32502	32748	32867	
5275	0	127	1266	28	1984	1171	0	32813	32839	32737	32755	32836	32607	32725	32803	
5276	0	137	1226	29	1969	1172	0	32841	32895	32667	32743	32943	32577	32727	32583	
5277	0	116	1278	28	2003	1173	0	32836	32900	32677	32758	32835	32681	32731	32524	
5278	0	111	1244	29	1952	1174	0	32855	32743	32723	32711	32824	32599	32775	32531	
5279	0	121	1240	28	1955	1175	0	32854	32807	32775	32852	32955	32639	32734	32589	
5280	0	106	1277	28	1957	1176	0	32723	32937	32647	32829	32903	32631	32787	32545	
5281	0	126	1230	29	1926	1177	0	32698	32939	32679	32751	32724	32791	32860	32631	
5282	0	151	1229	30	1964	1178	0	32695	32885	32623	32795	32871	32722	32902	32625	
5283	0	96	1189	28	1996	1179	0	32536	32797	32731	32823	32761	32692	32775	32527	
5284	0	93	1276	28	2020	1180	0	32503	32919	32551	32631	32871	32566	32831	32573	
5285	0	107	1310	28	1987	1181	0	32573	32861	32431	32687	32835	32628	32767	32551	
5286	0	112	1241	29	1964	1182	0	32559	32775	32543	32597	32871	32738	32679	32619	
5287	0	109	1254	29	1958	1183	0	32598	32607	32698	32493	32695	32735	32475	32719	
5288	0	138	1194	30	1969	1184	0	32597	32549	33075	32546	32715	32647	32450	32789	
5289	0	81	1274	29	1951	1185	0	32538	32682	33223	32807	32715	32674	32441	32708	
5290	0	148	1208	29	1960	1186	0	32604	32790	33179	32700	32710	32811	32388	32734	
5291	0	104	1267	29	1931	1187	0	32754	32693	33204	32638	32685	32775	32335	32633	
5292	0	166	1252	30	1977	1188	0	32741	32749	33058	32710	32566	32754	32351	32671	
5293	0	137	1224	30	1953	1189	0	32672	32547	33109	32769	32543	32773	32339	32599	
5294	0	94	1256	29	1969	1190	0	32678	32644	33131	32647	32645	32893	32365	32555	
5295	0	119	1254	29	1988	1191	0	32557	32753	33221	32597	32487	32887	32377	32583	
5296	0	121	1244	29	2000	1192	0	32444	32719	33543	32367	32508	32946	32275	32624	
5297	0	117	1245	28	1953	1193	0	32479	32569	33799	32187	32359	32993	32131	32759	
5298	0	94	1240	29	1977	1194	0	32671	32327	33927	31934	32391	32914	32167	32879	
5299	0	125	1230	28	1967	1195	0	32791	32415	33917	32063	32354	32951	32127	32957	
5300	0	105	1213	28	1994	1196	0	33024	32468	33646	32303	32334	33153	32206	33010	
5301	0	97	1282	29	1995	1197	0	32940	32391	33519	32456	32311	33127	32211	32915	
5302	0	89	1248	30	1947	1198	0	32807	32527	33363	32515	32619	33095	32169	32794	
5303	0	108	1218	29	1945	1199	0	32823	32519	33305	32667	32603	33135	32193	32786	
5304	0	136	1242	29	1927	1200	0	32734	32415	32903	32698	32662	32988	32439	33047	
5305	0	88	1259	30	2006	1201	0	32844	32435	32685	32805	32691	33095	32469	32857	
5306	0	138	1232	29	1952	1202	0	33106	32181	32767	32637	32826	33172	32621	32887	
5307	0	97	1246	29	1985	1203	0	33260	32071	32647	32667	32893	33143	32799	32941	
5308	0	123	1280	30	1999	1204	0	33348	31965	32643	33031	32884	32991	32994	32975	
5309	0	125	1227	29	1992	1205	0	33396	32223	32559	32931	33078	32775	33089	32977	
5310	0	119	1284	29	1947	1206	0	33318	32455	32391	32914	33090	32619	33255	32886	
5311	0	114	1249	28	1969	1207	0	33250	32578	32331	33054	33123	32570	33365	32877	
5312	0	99	1258	30	1994	1208	0	33268	32607	32243	32935	33247	32525	33281	32762	
5313	0	75	1244	29	1956	1209	0	33270	32983	32071	33350	33258	32539	33436	32817	
5314	0	115	1258	30	1970	1210	0	33159	33220	31919	33442	33179	32493	33593	32687	
5315	0	130	1233	29	1964	1211	0	33106	33375	31985	33695	33343	32334	33814	32615	
5316	0	85	1247	29	1951	1212	0	33014	33287	31821	33971	33287	32181	33903	32465	
5317	0	144	1262	29	1951	1213	0	32814	33442	31634	33799	33363	32172	33943	32471	
5318	0	109	1238	28	1955	1214	0	32732	33567	31567	33583	33333	32230	33943	32447	
5319	0	105	1269	28	1958	1215	0	32671	33522	31270	33641	33479	32127	34177	32468	
5320	0	161	1294	28	1993	1216	0	32556	33506	31100	33752	33463	32175	33922	32439	
5321	0	94	1254	30	1995	1217	0	32602	33201	31250	33470	33254	32212	33854	32445	
5322	0	114	1222	30	1964	1218	0	32426	33385	31619	33313	33079	32275	33484	32343	
5323	0	133	1228	29	1936	1219	0	32505	33343	31967	33230	33039	32375	33231	32284	
5324	0	99	1253	29	1972	1220	0	32543	33207	32335	32863	32898	32252	32986	32386	
5325	0	144	1216	28	1956	1221	0	32580	32943	32679	32718	32827	32279	32857	32363	
5326	0	123	1245	29	1961	1222	0	32450	32986	32699	32297	32775	32421	32607	32263	
5327	0	118	1278	30	1973	1223	0	32461	32893	32924	32517	32623	32479	32479	32333	
5328	0	118	1230	29	1986	1224	0	32359	32719	33075	32427	32634	32453	32468	32443	
5329	0	118	1252	29	1951	1225	0	32304	32859	33127	32231	32587	32474	32412	32371	
5330	0	112	1278	30	1970	1226	0	32263	32803	33004	32263	32503	32563	32253	32434	
5331	0	107	1262	29	1964	1227	0	32372	32775	33063	32373	32335	32591	32237	32391	
5332	0	123	1226	29	1956	1228	0	32441	32575	33180	32324	32437	32679	32225	32367	
5333	0	113	1225	28	1982	1229	0	32471	32531	33325	32332	32509	32694	32087	32236	
5334	0	108	1267	29	1950	1230	0	32509	32658	33187	32251	32453	32708	32179	32287	
5335	0	97	1232	29	1961	1231	0	32642	32871	33079	32355	32515	32667	32177	32300	
5336	0	98	1171	30	1997	1232	0	32733	32743	33092	32343	32466	32647	32231	32399	
5337	0	100	1257	30	2011	1233	0	32692	32716	33255	32340	32663	32687	32327	32321	
5338	0	69	1252	29	1931	1234	0	32735	32673	33104	32359	32677	32639	32322	32379	
5339	0	100	1274	29	1986	1235	0	32765	32575	32895	32279	32703	32707	32351	32450	
5340	0	140	1237	30	2019	1236	0	32769	32671	32759	32403	32626	32775	32471	32647	
5341	0	93	1248	29	1959	1237	0	32834	32847	32743	32452	32660	32871	32623	32706	
5342	0	97	1251	29	1987	1238	0	32918	32692	32749	32647	32569	32931	32466	32761	
5343	0	118	1256	29	1957	1239	0	32854	32647	32850	32773	32507	32797	32503	32757	
5344	0	104	1246	30	1927	1240	0	32791	32470	32867	32831	32633	32746	32579	32741	
5345	0	104	1249	29	2001	1241	0	32751	32582	32826	32964	32751	32786	32727	32731	
5346	0	105	1252	30	2001	1242	0	32784	32810	32733	33010	32759	32939	32729	32769	
5347	0	86	1235	29	1977	1243	0	32831	32839	32662	32973	32754	32879	32715	32817	
5348	0	93	1219	29	1989	1244	0	32844	32774	32595	32969	32519	32807	32663	32947	
5349	0	161	1238	28	1987	1245	0	32809	32692	32685	32743	32615	32823	32763	32962	
5350	0	102	1215	28	1977	1246	0	32754	32549	32903	32671	32710	32867	32772	32911	
5351	0	93	1250	28	1977	1247	0	32735	32599	32883	32511	32738	32839	32548	32943	
5352	0	119	1245	30	1940	1248	0	32736	32822	32839	32404	32647	32723	32525	32827	
5353	0	165	1231	28	1938	1249	0	32742	32827	32941	32333	32623	32589	32647	32666	
5354	0	98	1248	29	1957	1250	0	32724	32751	33031	32559	32607	32587	32263	32518	
5355	0	83	1226	28	1957	1251	0	32730	32743	32943	32775	32743	32575	32799	32513	
5356	0	115	1203	27	1983	1252	0	32748	32609	32959	32823	32807	32539	32670	32466	
5357	0	143	1255	30	1978	1253	0	32810	32731	33055	32687	32724	32465	32698	32567	
5358	0	105	1257	28	1925	1254	0	32892	32766	32983	32725	32647	32573	32923	32681	
5359	0	164	1252	29	1997	1255	0	33030	32711	32935	32759	32710	32583	33157	32676	
5360	0	105	1202	28	1988	1256	0	33000	32647	32903	32647	32829	32533	33211	32723	
5361	0	123	1234	31	1958	1257	0	32897	32639	32822	32791	32960	32449	33191	32572	
5362	0	119	1258	29	1939	1258	0	32856	32805	32804	32898	32930	32519	32599	32637	
5363	0	101	1248	28	1938	1259	0	32847	32771	32772	32919	32914	32699	32681	32732	
5364	0	60	1290	29	1959	1260	0	32834	32675	32503	32839	32722	32707	33047	32743	
5365	0	125	1256	28	1931	1261	0	32895	32706	32479	32799	32659	32662	32991	32691	
5366	0	124	1259	29	1955	1262	0	32888	32735	32705	32842	32731	32549	32818	32668	
5367	0	120	1246	28	1979	1263	0	32881	32647	32836	32995	32851	32559	32375	32566	
5368	0	96	1286	28	1980	1264	0	32727	32911	32805	32879	32831	32447	32133	32598	
5369	0	121	1259	31	2000	1265	0	32764	32863	32879	32775	32675	32471	32087	32791	
5370	0	111	1262	29	1950	1266	0	32743	32855	32861	32711	32635	32475	32011	32699	
5371	0	104	1237	30	2000	1267	0	32728	32775	32751	32711	32669	32615	32179	32671	
5372	0	128	1253	28	2019	1268	0	32732	32847	32687	32798	32662	32711	32375	32655	
5373	0	122	1243	29	1958	1269	0	32754	32627	32756	32743	32711	32711	32863	32597	
5374	0	104	1228	30	1966	1270	0	32700	32647	32739	32791	32815	32684	33015	32567	
5375	0	98	1234	28	2003	1271	0	32694	32607	32789	32775	32926	32751	33327	32855	
5376	0	84	1241	29	1980	1272	0	32753	32871	33012	32731	32957	32821	33164	32869	
5377	0	171	1241	29	1933	1273	0	32788	32805	32927	32687	32767	32751	32735	32694	
5378	0	147	1277	30	1926	1274	0	32808	32686	32815	32811	32765	32799	32176	32667	
5379	0	99	1209	30	2000	1275	0	32813	32734	32671	33013	32941	32655	32135	32578	
5380	0	107	1247	29	1975	1276	0	32762	32943	32722	33062	33079	32662	32527	32759	
5381	0	107	1245	29	1963	1277	0	32700	32903	32659	32963	33039	32791	32611	32643	
5382	0	104	1253	29	1963	1278	0	32731	32799	32540	32637	33207	32802	32846	32655	
5383	0	118	1268	29	1969	1279	0	32671	32758	32566	32509	32886	32686	32579	32623	
5384	0	103	1250	28	1916	1280	0	32642	32865	32567	32527	32829	32617	32442	32599	
5385	0	88	1196	29	1953	1281	0	32637	32742	32671	32725	32875	32385	32461	32565	
5386	0	87	1221	28	1980	1282	0	32658	32875	32815	32715	32807	32331	32468	32623	
5387	0	113	1246	28	2001	1283	0	32793	32775	32775	32557	32877	32491	32519	32559	
5388	0	121	1273	28	1920	1284	0	32756	32727	32865	32627	32749	32391	32873	32479	
5389	0	134	1195	28	1958	1285	0	32804	32711	32807	32829	32510	32454	32982	32702	
5390	0	92	1273	29	1980	1286	0	32832	32519	32940	32773	32411	32404	33333	32692	
5391	0	77	1229	30	1943	1287	0	32749	32775	33061	32647	32309	32468	33531	32773	
5392	0	137	1242	29	1985	1288	0	32701	32657	32889	32489	32339	32463	33097	32757	
5393	0	156	1254	28	1977	1289	0	32668	32647	32874	32507	32813	32495	32743	32717	
5394	0	100	1214	28	1960	1290	0	32633	32663	33094	32463	32839	32571	33043	32655	
5395	0	168	1268	28	1957	1291	0	32705	32963	32903	32212	32683	32611	33191	32707	
5396	0	122	1254	29	1930	1292	0	32742	32819	32711	32412	32673	32667	33045	32626	
5397	0	128	1203	30	1994	1293	0	32771	32619	32701	32787	32847	32820	32635	32722	
5398	0	138	1260	30	1984	1294	0	32825	32663	32733	32917	32817	32832	32436	32811	
5399	0	99	1227	29	1953	1295	0	32855	32829	32732	33167	32687	32775	32655	32775	
5400	0	98	1286	31	1987	1296	0	32824	32791	32605	33405	32493	32833	32787	32759	
5401	0	128	1254	29	1935	1297	0	32799	32784	32703	33729	32559	32877	32735	32739	
5402	0	110	1268	30	1921	1298	0	32763	32647	32897	33663	32461	32733	32903	32805	
5403	0	80	1210	28	1957	1299	0	32766	32749	32875	33415	32711	32655	32799	32692	
5404	0	118	1262	29	1960	1300	0	32889	32879	32796	33351	32857	32599	32815	32666	
5405	0	144	1242	29	1948	1301	0	32805	32850	32879	33423	32791	32663	33031	32617	
5406	0	107	1236	30	1984	1302	0	32844	32679	32877	33333	32711	32551	33047	32638	
5407	0	130	1244	30	1955	1303	0	32804	32762	32903	32995	32797	32647	32895	32647	
5408	0	128	1249	29	1988	1304	0	32872	32759	32769	32339	32642	32943	32583	32733	
5409	0	141	1256	29	1966	1305	0	32874	32695	32757	32223	32532	32941	32485	32870	
5410	0	125	1222	29	1946	1306	0	32821	32557	32770	32160	32679	32855	32213	32763	
5411	0	100	1221	28	1951	1307	0	32674	32879	32786	32154	33101	32837	32075	32759	
5412	0	126	1258	27	1996	1308	0	32680	32851	32727	32245	33206	32847	32235	32803	
5413	0	89	1253	29	1949	1309	0	32742	32854	32726	32278	33231	32783	32429	32775	
5414	0	112	1245	29	1955	1310	0	32728	32633	32639	32342	33074	32667	32559	32573	
5415	0	150	1252	29	1937	1311	0	32695	32892	32566	32607	33257	32629	32407	32477	
5416	0	92	1228	29	1926	1312	0	32721	32903	32732	32625	33095	32663	32419	32407	
5417	0	104	1248	29	1956	1313	0	32708	32903	32835	32627	32977	32597	32487	32519	
5418	0	128	1228	29	1948	1314	0	32805	32583	32775	32581	32967	32614	32559	32675	
5419	0	110	1265	28	1925	1315	0	32815	32703	32823	32573	32738	32713	32621	32676	
5420	0	148	1267	28	2010	1316	0	32781	32743	32935	32815	32717	32730	32733	32663	
5421	0	153	1246	29	1959	1317	0	32705	32804	33063	32749	32719	32643	32903	32647	
5422	0	125	1280	29	1972	1318	0	32711	32559	33031	32722	32615	32711	33047	32635	
5423	0	149	1267	29	1910	1319	0	32669	32773	32902	32679	32467	32736	32891	32570	
5424	0	118	1293	29	1978	1320	0	32749	32697	32823	32455	32647	32633	32949	32566	
5425	0	97	1273	28	1932	1321	0	32790	32597	32735	32603	32615	32647	32929	32577	
5426	0	89	1197	28	1979	1322	0	32759	32834	32542	32615	32581	32625	32910	32551	
5427	0	116	1260	28	1960	1323	0	32694	32767	32399	32463	32756	32577	32868	32391	
5428	0	118	1225	30	1992	1324	0	32796	32755	32509	32471	32657	32559	32903	32501	
5429	0	141	1273	28	1936	1325	0	32758	32591	32591	32507	32661	32495	32759	32594	
5430	0	81	1243	29	1943	1326	0	32799	32610	32495	32575	32653	32499	32719	32590	
5431	0	141	1257	29	1928	1327	0	32759	32871	32551	32493	32809	32415	32759	32615	
5432	0	111	1273	30	1983	1328	0	32716	32807	32775	32326	32957	32503	32699	32727	
5433	0	147	1262	29	2000	1329	0	32662	32767	32719	32391	32833	32567	32671	32621	
5434	0	160	1232	29	1920	1330	0	32698	32805	32553	32527	32839	32567	32725	32591	
5435	0	93	1235	30	1960	1331	0	32816	32703	32775	32655	32813	32482	32496	32725	
5436	0	133	1223	29	1955	1332	0	32827	32955	33047	32795	32871	32635	32417	32958	
5437	0	77	1234	29	1984	1333	0	32882	32751	33311	32854	32835	32892	32491	32875	
5438	0	98	1253	29	1944	1334	0	32921	32703	33027	33126	32845	32903	32519	32841	
5439	0	99	1234	29	1952	1335	0	32988	32519	32989	33212	32964	32763	32695	32810	
5440	0	117	1218	29	1988	1336	0	33018	32811	33043	32695	32855	32610	32730	32861	
5441	0	133	1204	28	1944	1337	0	32896	32835	32791	32621	32807	32511	32812	32677	
5442	0	85	1264	29	1989	1338	0	32846	32799	32723	32903	32873	32471	32796	32731	
5443	0	83	1239	28	1981	1339	0	32759	32551	32615	33131	32789	32423	32895	32718	
5444	0	104	1258	27	1952	1340	0	32676	32647	32655	33079	32765	32474	32751	32903	
5445	0	126	1220	29	1974	1341	0	32578	32775	32707	32943	32583	32631	32611	32854	
5446	0	130	1248	30	1961	1342	0	32537	32795	32515	32942	32639	32578	32619	32804	
5447	0	93	1193	30	1997	1343	0	32499	32787	32363	33065	32557	32607	32604	32763	
5448	0	90	1272	30	1989	1344	0	32487	32756	32454	33159	32695	32539	32581	32797	
5449	0	110	1270	29	1987	1345	0	32576	32863	32299	33359	32679	32516	32615	32735	
5450	0	108	1264	29	2002	1346	0	32567	32839	32642	33517	32828	32527	32759	32849	
5451	0	113	1252	29	2015	1347	0	32479	32861	32631	33402	32951	32569	32903	32699	
5452	0	92	1277	28	1964	1348	0	32559	32695	32607	33109	32919	32513	32925	32647	
5453	0	143	1269	29	1948	1349	0	32589	32935	32667	32769	32943	32423	32833	32629	
5454	0	132	1252	31	1958	1350	0	32656	32887	32900	32737	32891	32505	32804	32655	
5455	0	147	1252	28	1924	1351	0	32745	32929	32869	32903	32903	32519	32861	32775	
5456	0	100	1247	30	1941	1352	0	32788	32714	33031	32843	32711	32469	32903	32687	
5457	0	105	1250	28	1946	1353	0	32870	32819	32934	32617	32783	32423	32899	32647	
5458	0	145	1242	29	2004	1354	0	32879	33115	32931	32643	32699	32388	32813	32570	
5459	0	100	1263	30	1982	1355	0	32801	32967	33083	32474	32667	32346	32941	32647	
5460	0	132	1237	29	1962	1356	0	32819	32813	33103	32199	32487	32519	32669	32667	
5461	0	109	1244	29	1974	1357	0	32887	32519	32903	32191	32307	32878	32404	32739	
5462	0	120	1274	29	2004	1358	0	33013	32559	32791	32295	32386	33207	32506	32787	
5463	0	77	1281	28	1992	1359	0	33028	32667	32638	32407	32855	32850	33003	32603	
5464	0	131	1281	28	1963	1360	0	33023	32615	32342	32518	32946	32663	32903	32295	
5465	0	124	1252	28	1928	1361	0	32921	32599	32047	32726	33083	32507	33203	32335	
5466	0	155	1250	30	1971	1362	0	32810	32590	31879	32900	33311	32596	33191	32423	
5467	0	91	1245	28	1968	1363	0	32847	32695	32203	32991	33079	32751	32703	32583	
5468	0	122	1290	28	1985	1364	0	32871	32655	32555	32847	32667	32708	32479	32653	
5469	0	138	1231	28	1971	1365	0	32855	32845	33223	32675	32643	32626	32387	32647	
5470	0	92	1254	28	1956	1366	0	32816	32793	33302	32735	32559	32678	32567	32636	
5471	0	121	1228	31	1950	1367	0	32863	32734	33049	32679	32435	32587	32423	32583	
5472	0	147	1258	28	1918	1368	0	32805	32591	33215	32611	32187	32543	32503	32695	
5473	0	107	1262	28	1958	1369	0	32695	32703	33319	32703	32221	32506	32647	32775	
5474	0	107	1291	29	1924	1370	0	32706	32847	33239	32545	32439	32588	32761	32739	
5475	0	131	1215	30	1929	1371	0	32569	32815	33095	32551	32574	32658	32903	32701	
5476	0	93	1238	30	1956	1372	0	32633	32760	33007	32550	32658	32793	32709	32643	
5477	0	124	1254	29	1924	1373	0	32567	32627	32951	32617	32587	32749	32605	32703	
5478	0	113	1226	29	1943	1374	0	32594	32702	33103	32607	32583	32695	32686	32766	
5479	0	110	1281	29	1991	1375	0	32615	32788	33054	32647	32753	32708	32759	32867	
5480	0	127	1247	28	1965	1376	0	32606	32887	32969	32631	32548	32483	32625	32673	
5481	0	122	1233	28	1965	1377	0	32598	32823	32875	32826	32915	32502	32989	32551	
5482	0	97	1247	29	1957	1378	0	32687	32740	32647	32922	32910	32647	33081	32659	
5483	0	121	1263	28	1989	1379	0	32665	32727	32937	32935	32814	32559	32885	32641	
5484	0	93	1256	29	1942	1380	0	32728	32843	33005	33099	32588	32564	32836	32790	
5485	0	106	1208	27	1958	1381	0	32881	32819	32701	33011	32391	32621	32825	32860	
5486	0	136	1232	28	1971	1382	0	33082	32702	32357	32829	32355	32631	32775	32903	
5487	0	106	1255	29	1951	1383	0	33089	32740	31845	32823	32399	32669	32861	32845	
5488	0	67	1293	29	1928	1384	0	33080	32879	31815	32839	32759	32647	32679	32839	
5489	0	68	1252	29	1942	1385	0	33031	32765	31869	32495	33111	32699	32397	32757	
5490	0	132	1224	30	1942	1386	0	32844	32741	32751	32100	33127	32578	32287	32743	
5491	0	146	1239	29	2008	1387	0	32686	32623	33347	32143	33253	32495	32327	32775	
5492	0	91	1251	29	1963	1388	0	32491	32597	33121	32407	33590	32335	32743	32583	
5493	0	57	1260	29	1970	1389	0	32630	32601	32638	32734	33463	32247	32804	32543	
5494	0	99	1252	29	1953	1390	0	32861	32839	33127	32788	33239	32228	32511	32535	
5495	0	133	1309	29	1975	1391	0	32852	32903	33314	32903	32875	32548	32407	32550	
5496	0	125	1263	28	1965	1392	0	32583	32975	33139	33069	32769	32647	32143	32557	
5497	0	127	1231	28	1938	1393	0	32630	32914	33231	32585	32839	32765	32092	32597	
5498	0	87	1252	29	1985	1394	0	32678	32741	33110	32279	32735	32791	32332	32621	
5499	0	96	1255	28	1950	1395	0	32722	32457	32567	32297	32810	32775	32406	32569	
5500	0	132	1227	29	2008	1396	0	32759	32689	31959	32717	33060	32879	32738	32613	
5501	0	132	1217	28	1992	1397	0	32754	32923	31951	33167	33159	32839	32810	32775	
5502	0	98	1295	28	1953	1398	0	32716	32819	32263	32951	33039	32815	32687	32727	
5503	0	116	1196	29	1936	1399	0	32677	32715	32445	32229	32919	32839	32487	32668	
5504	0	138	1221	28	1976	1400	0	32787	32621	32993	32086	32874	32718	32739	32514	
5505	0	90	1279	30	1966	1401	0	32834	32471	33015	32102	32971	32586	33350	32658	
5506	0	137	1232	30	1924	1402	0	32785	32647	33071	32324	32743	32621	33149	32741	
5507	0	139	1258	29	1943	1403	0	32835	32879	32867	32931	32439	32804	32961	32749	
5508	0	132	1294	28	1984	1404	0	32798	32803	32517	33190	32483	32757	32979	32799	
5509	0	121	1253	30	1939	1405	0	32747	32803	32743	33175	32671	32814	33183	32690	
5510	0	86	1237	30	1970	1406	0	32658	32775	32251	33357	32829	32631	33493	32628	
5511	0	110	1238	29	1942	1407	0	32698	32855	32943	33294	32551	32533	33391	32706	
5512	0	120	1282	28	1935	1408	0	32701	32711	33279	33250	32379	32772	33185	32861	
5513	0	129	1255	30	1954	1409	0	32854	32558	32917	33487	32263	32808	33142	32854	
5514	0	125	1232	30	1966	1410	0	32962	32724	32860	33524	32415	32911	33191	33003	
5515	0	105	1220	27	1988	1411	0	33035	32607	32483	33573	32454	33102	32985	33071	
5516	0	141	1264	29	1963	1412	0	32889	32694	32503	33584	32335	32903	32826	32787	
5517	0	118	1239	29	1921	1413	0	32759	32867	32311	33505	32419	32484	32959	32599	
5518	0	153	1295	29	1992	1414	0	32730	32775	32535	33127	32783	32423	32989	32573	
5519	0	93	1255	29	1983	1415	0	32767	32775	32583	32931	32739	32447	32631	32484	
5520	0	109	1259	28	1988	1416	0	32801	32727	32879	32694	32643	32506	32323	32535	
5521	0	126	1217	29	1966	1417	0	32786	32802	33055	32209	32595	32479	32059	32559	
5522	0	118	1277	29	1936	1418	0	32698	32882	32962	32396	32591	32535	31405	32486	
5523	0	109	1214	29	1973	1419	0	32657	32795	32790	32519	32711	32694	30842	32653	
5524	0	145	1269	27	2011	1420	0	32815	32903	33031	32350	33287	32796	30654	32471	
5525	0	103	1226	29	1949	1421	0	32839	32771	32887	32307	33468	32684	31343	32434	
5526	0	98	1232	29	2012	1422	0	32743	32851	32722	32599	33471	32631	31855	32405	
5527	0	137	1284	30	1955	1423	0	32772	32775	32611	32775	33693	32659	32287	32516	
5528	0	129	1200	30	2017	1424	0	32775	33082	32597	32719	33610	32519	32858	32445	
5529	0	63	1238	27	1948	1425	0	32775	32927	32655	32647	33746	32685	33249	32391	
5530	0	135	1236	28	1952	1426	0	32807	32836	32493	32818	33444	32599	33607	32479	
5531	0	138	1267	29	1989	1427	0	32727	32639	32381	32647	33331	32566	33967	32551	
5532	0	82	1251	29	1971	1428	0	32701	32727	32539	32423	32967	32335	34116	32623	
5533	0	109	1240	29	1938	1429	0	32749	32903	32413	32550	32509	32329	33781	32647	
5534	0	85	1214	30	1968	1430	0	32729	32770	32548	32852	32567	32547	33560	32849	
5535	0	150	1240	28	1977	1431	0	32669	32745	32627	32868	32551	32503	33159	32853	
5536	0	132	1230	30	1949	1432	0	32740	32595	32828	32679	32627	32407	32275	32762	
5537	0	90	1243	30	1968	1433	0	32849	32556	32503	32605	32547	32365	31947	32697	
5538	0	85	1231	28	1967	1434	0	32940	32609	32791	32557	32583	32391	32509	32727	
5539	0	84	1251	29	1980	1435	0	32846	32676	33159	32645	32838	32406	33961	32860	
5540	0	148	1295	28	1955	1436	0	32786	32733	33189	32567	32667	32342	34926	32844	
5541	0	69	1258	29	1964	1437	0	32688	32625	33266	32676	31911	32435	34113	32979	
5542	0	100	1241	28	1973	1438	0	32655	32855	33346	32742	31594	32711	32983	33079	
5543	0	132	1228	29	1981	1439	0	32705	32935	33316	32620	32163	32719	32276	32892	
5544	0	89	1219	29	1954	1440	0	32714	32791	32843	32669	32179	32743	31786	32794	
5545	0	114	1285	30	1967	1441	0	32767	32677	32811	32855	32499	32685	31919	32647	
5546	0	117	1266	30	1975	1442	0	32873	32800	32655	32513	32767	32775	32031	32672	
5547	0	105	1215	30	1968	1443	0	32921	32837	32375	32303	32707	33076	31857	32629	
5548	0	101	1221	28	2023	1444	0	32807	32851	32446	32243	32505	33037	31967	32557	
5549	0	128	1214	30	1981	1445	0	32688	32711	32543	32052	32741	33067	32287	32590	
5550	0	79	1238	29	1992	1446	0	32682	32803	32637	32254	33389	32951	32459	32503	
5551	0	129	1233	28	1896	1447	0	32711	32679	32507	32482	33411	32799	32402	32454	
5552	0	153	1270	28	1933	1448	0	32818	32478	32450	32391	33403	32663	32751	32549	
5553	0	121	1232	28	1939	1449	0	32702	32834	32634	32299	33301	32595	32991	32540	
5554	0	134	1265	29	1962	1450	0	32607	32855	32807	32375	33009	32567	33174	32559	
5555	0	112	1212	28	1984	1451	0	32643	32747	32487	32743	32719	32487	33343	32551	
5556	0	80	1246	29	1976	1452	0	32617	32659	32511	32973	32498	32621	32751	32695	
5557	0	120	1296	30	1936	1453	0	32681	32827	32947	33341	32578	32583	32511	32815	
5558	0	109	1269	29	1941	1454	0	32706	32727	33131	33365	32643	32563	32517	32847	
5559	0	111	1223	29	1955	1455	0	32641	32637	33063	32794	32727	32591	32747	32709	
5560	0	145	1243	29	1935	1456	0	32698	32873	32754	32939	33145	32621	32959	32863	
5561	0	115	1217	28	1952	1457	0	32826	32863	32879	32870	33087	32711	33125	32854	
5562	0	108	1263	29	1978	1458	0	32847	32863	32941	33117	32999	32615	33234	32705	
5563	0	90	1199	29	1944	1459	0	32828	32647	32727	33394	32677	32613	32831	32708	
5564	0	117	1260	29	1960	1460	0	32836	32679	32507	33543	32804	32767	32817	32719	
5565	0	112	1247	28	1984	1461	0	32764	32834	32630	33679	32571	32863	32731	32737	
5566	0	89	1235	28	1989	1462	0	32757	32805	32540	33603	32373	32719	32447	32717	
5567	0	128	1220	29	1960	1463	0	32658	32647	32557	33245	32275	32508	32575	32655	
5568	0	141	1246	29	1995	1464	0	32678	32937	32735	33477	32455	32542	32609	32583	
5569	0	156	1278	29	1976	1465	0	32550	32839	32915	33345	32629	32630	32595	32567	
5570	0	115	1238	28	2015	1466	0	32638	32619	33303	32873	32827	32783	32681	32638	
5571	0	97	1278	28	1965	1467	0	32738	32847	33468	32931	32687	32781	32383	32559	
5572	0	118	1239	28	1967	1468	0	32861	32857	33183	32818	32718	32624	32463	32483	
5573	0	79	1249	29	2036	1469	0	32903	32807	33220	32595	32792	32438	32350	32526	
5574	0	143	1219	29	1942	1470	0	32956	32678	32711	32565	32855	32435	32801	32668	
5575	0	145	1235	29	1966	1471	0	33043	32765	32445	32239	32607	32727	32775	32707	
5576	0	82	1286	29	1946	1472	0	32986	32706	32647	32092	32446	32882	32557	32613	
5577	0	110	1240	29	1950	1473	0	32788	32764	32487	32133	32679	32801	32685	32673	
5578	0	99	1247	29	1956	1474	0	32587	32679	32567	32367	32605	32647	32591	32605	
5579	0	94	1216	29	1985	1475	0	32641	32911	31744	32557	32621	32633	32659	32728	
5580	0	112	1262	28	1955	1476	0	32701	32839	31725	32541	32783	32595	32895	32695	
5581	0	93	1263	29	1959	1477	0	32644	32773	32805	32513	32815	32581	33159	32499	
5582	0	106	1270	30	1966	1478	0	32845	32530	33127	32530	32631	32695	33159	32519	
5583	0	127	1229	29	1992	1479	0	32933	32719	32719	32818	32759	32771	33207	32551	
5584	0	109	1250	30	1976	1480	0	32833	32807	33047	32850	32453	32703	33115	32675	
5585	0	125	1267	28	1954	1481	0	32793	32754	33221	32715	32351	32740	32679	32679	
5586	0	132	1229	29	1975	1482	0	32640	32835	33511	32674	32381	32772	32729	32604	
5587	0	105	1258	30	1998	1483	0	32570	32853	33951	32583	32453	32738	32572	32644	
5588	0	144	1246	29	1966	1484	0	32677	33043	33436	32639	32775	32677	32637	32775	
5589	0	68	1256	29	1924	1485	0	32818	32725	32915	32695	32847	32700	32457	32813	
5590	0	101	1259	29	1980	1486	0	32833	32543	32997	32540	32895	32725	32429	32894	
5591	0	138	1234	28	1975	1487	0	32892	32295	32743	32765	32820	32735	32487	32951	
5592	0	120	1217	29	1937	1488	0	32933	32479	32647	32858	32925	32745	32469	32858	
5593	0	105	1265	29	1895	1489	0	32858	32620	32475	32836	32807	32610	32381	32538	
5594	0	140	1278	28	1986	1490	0	32660	32757	31954	32807	32727	32447	32531	32372	
5595	0	103	1220	29	1956	1491	0	32542	32671	32147	32727	32530	32583	32562	32542	
5596	0	119	1226	30	1979	1492	0	32682	32839	32390	32655	32591	32575	32621	32575	
5597	0	85	1230	29	1980	1493	0	32775	32975	32470	32605	32902	32558	32594	32549	
5598	0	95	1263	28	1972	1494	0	32755	32919	32767	32583	32965	32463	32797	32564	
5599	0	147	1229	28	1945	1495	0	32832	32717	32667	32439	32927	32447	32903	32671	
5600	0	127	1224	30	1950	1496	0	32860	32903	32667	32684	32955	32642	32783	32677	
5601	0	89	1250	29	2028	1497	0	32858	32925	32937	32807	32933	32515	32867	32507	
5602	0	105	1261	29	1956	1498	0	32775	32811	33046	32998	32763	32479	32875	32499	
5603	0	114	1237	30	1984	1499	0	32781	32707	33081	32843	32910	32409	32860	32695	
5604	0	122	1239	29	1957	1500	0	32854	32605	32565	32801	32819	32647	32866	32715	
5605	0	150	1277	28	1958	1501	0	32968	32842	32647	32551	32822	32839	32839	32841	
5606	0	130	1209	28	1951	1502	0	33058	32790	32773	32413	32579	32851	33047	32827	
