# OpenSignals Text File Format
# {"00:07:80:64:6D:DA": {"sensor": ["CUSTOM/0.5/1.0/V", "CUSTOM/0.5/1.0/V", "CUSTOM/0.5/1.0/V", "CUSTOM/0.5/1.0/V"], "device name": "Platform", "column": ["nSeq", "DI", "CH1", "CH2", "CH3", "CH4"], "sync interval": 2, "time": "14:35:10.502", "comments": "", "device connection": "BTH00:07:80:64:6D:DA", "channels": [1, 2, 3, 4], "date": "2017-6-29", "mode": 0, "digital IO": [0, 1], "firmware version": 772, "device": "biosignalsplux", "position": 0, "sampling rate": 1000, "label": ["CH1", "CH2", "CH3", "CH4"], "resolution": [16, 16, 16, 16], "special": [{}, {}, {}, {}]}, "00:07:80:3B:46:38": {"sensor": ["EMG", "EMG", "EMG", "EMG", "EMG", "EMG", "EMG", "EMG"], "device name": "EMGs", "column": ["nSeq", "DI", "X", "CH2", "CH3", "CH4", "CH5", "CH6", "CH7", "CH8"], "sync interval": 2, "time": "14:35:10.502", "comments": "", "device connection": "BTH00:07:80:3B:46:38", "channels": [1, 2, 3, 4, 5, 6, 7, 8], "date": "2017-6-29", "mode": 0, "digital IO": [0, 1], "firmware version": 772, "device": "biosignalsplux", "position": 1, "sampling rate": 1000, "label": ["X", "CH2", "CH3", "CH4", "CH5", "CH6", "CH7", "CH8"], "resolution": [16, 16, 16, 16, 16, 16, 16, 16], "special": [{}, {}, {}, {}, {}, {}, {}, {}]}}
# EndOfHeader
0	0	101	1220	28	2005	1346	0	32769	32662	32612	32959	32830	33927	33125	33243	
1	0	125	1252	28	1961	1347	0	32859	32642	32655	32941	33023	33201	33062	33231	
2	0	111	1221	29	2043	1348	0	32774	32751	32683	32903	32250	33025	33260	33981	
3	0	133	1231	29	2006	1349	0	32666	32739	32795	32571	33324	32721	33313	33157	
4	0	160	1256	28	1989	1350	0	32692	32671	32791	32683	32391	32391	32903	32583	
5	0	123	1264	29	1936	1351	0	32738	32716	32855	32845	32701	32509	32783	32527	
6	0	121	1253	30	1988	1352	0	32768	32593	32596	32918	33152	32843	32702	32236	
7	0	128	1249	29	1981	1353	0	32742	32689	32420	32870	32204	32700	32895	31595	
8	0	86	1266	29	1992	1354	0	32813	32647	32571	32775	33351	32959	32759	31908	
9	0	112	1273	30	1986	1355	0	32784	32607	32491	32679	32345	33671	32204	32195	
10	0	148	1220	29	2001	1356	0	32760	32653	32626	32892	32785	33548	31944	32356	
11	0	82	1234	28	1992	1357	0	32731	32805	32757	32879	33095	33475	32098	32559	
12	0	82	1234	29	1962	1358	0	32603	32669	32775	32599	32189	33415	31875	32988	
13	0	84	1214	29	1957	1359	0	32628	32583	32839	32498	33351	33671	31855	32865	
14	0	67	1221	29	1960	1360	0	32612	32687	32785	32775	32455	33322	31506	32388	
15	0	134	1231	28	2009	1361	0	32756	32786	32775	32868	32668	32608	31647	32013	
16	0	64	1238	28	1951	1362	0	32768	32681	32735	32957	33216	32331	31750	32039	
17	0	104	1271	29	1978	1363	0	32694	32706	32673	32647	32165	32039	31154	31948	
18	0	120	1259	29	1986	1364	0	32748	32717	32727	32754	33397	31835	32247	32643	
19	0	148	1237	29	1992	1365	0	32772	32711	32748	32767	32309	32091	32871	33469	
20	0	129	1263	29	1998	1366	0	32740	32781	32769	32867	32711	31446	33285	33323	
21	0	127	1257	30	1957	1367	0	32807	32766	32745	32619	33202	31860	33503	31701	
22	0	100	1260	29	2017	1368	0	32799	32797	32704	32832	32100	31965	33901	32135	
23	0	100	1251	29	1986	1369	0	32804	32806	32775	32809	33425	31937	33266	33329	
24	0	141	1251	30	1968	1370	0	32753	32791	32775	32868	32399	32067	33399	34273	
25	0	129	1275	29	1931	1371	0	32832	32727	32712	32735	32709	32548	33439	34512	
26	0	92	1240	29	1956	1372	0	32881	32635	32621	32647	33257	33159	32903	33838	
27	0	67	1219	29	2017	1373	0	32838	32625	32701	32876	32180	33351	32407	32954	
28	0	133	1248	29	1977	1374	0	32782	32658	32739	32863	33401	33763	32085	32365	
29	0	126	1245	28	1966	1375	0	32775	32715	32621	32274	32453	33287	32541	32162	
30	0	119	1258	28	1999	1376	0	32718	32751	32802	32918	32637	34139	32669	32363	
31	0	125	1255	29	1966	1377	0	32626	32639	32847	33230	33255	34967	32845	32631	
32	0	168	1245	29	2001	1378	0	32638	32666	32722	32985	32150	34587	33334	32284	
33	0	129	1251	29	1993	1379	0	32737	32619	32711	32795	33403	33252	33431	31623	
34	0	112	1234	29	1973	1380	0	32752	32687	32687	32660	32285	32631	32942	31799	
35	0	117	1272	29	1974	1381	0	32775	32730	32681	32756	32751	32486	32839	32449	
36	0	124	1251	30	1984	1382	0	32766	32706	32690	32604	33115	32470	33980	32903	
37	0	94	1238	29	1961	1383	0	32791	32685	32530	32692	32225	32807	34423	33614	
38	0	98	1237	29	1964	1384	0	32813	32690	32710	33010	33249	32585	33819	33202	
39	0	91	1283	29	1985	1385	0	32775	32669	32710	33045	32355	32159	32751	32852	
40	0	143	1252	29	1974	1386	0	32761	32675	32671	32657	32793	32270	31604	32464	
41	0	142	1252	29	1977	1387	0	32744	32695	32718	32743	33199	32135	32051	32540	
42	0	146	1271	28	2000	1388	0	32770	32749	32612	32739	32105	32017	32910	33223	
43	0	135	1245	28	1993	1389	0	32748	32782	32807	32773	33446	31847	33287	33883	
44	0	100	1260	29	1991	1390	0	32745	32742	32911	32635	32359	31733	33202	34078	
45	0	131	1279	28	2021	1391	0	32724	32697	32795	32620	32786	31535	32503	33545	
46	0	84	1226	29	1973	1392	0	32770	32770	32807	32738	33074	31975	31772	32903	
47	0	113	1281	29	2012	1393	0	32856	32801	32668	32752	32248	33041	31156	32911	
48	0	117	1216	30	1959	1394	0	32804	32806	32742	32859	33430	33551	31129	32445	
49	0	134	1246	31	2017	1395	0	32747	32765	32631	32687	32307	33071	31495	31964	
50	0	127	1231	29	1996	1396	0	32740	32684	32711	32572	32788	32504	31617	31721	
51	0	103	1224	29	1955	1397	0	32736	32644	32647	32754	33148	32695	32071	32155	
52	0	120	1238	29	1990	1398	0	32832	32695	32489	32854	32197	32956	31810	32078	
53	0	130	1275	29	1977	1399	0	32840	32761	32510	32829	33262	33602	32040	31777	
54	0	89	1271	29	2002	1400	0	32782	32797	32482	32706	32398	33395	32551	32033	
55	0	87	1263	29	2011	1401	0	32692	32696	32662	32779	32759	32832	33053	32284	
56	0	118	1254	30	1996	1402	0	32742	32662	32694	32831	33241	32903	33367	32603	
57	0	130	1252	29	2009	1403	0	32842	32670	32613	32958	32156	32666	33179	32729	
58	0	123	1255	29	1976	1404	0	32804	32697	32667	32715	33303	32029	33543	32727	
59	0	90	1240	27	1984	1405	0	32802	32733	32557	32311	32425	31815	33516	32391	
60	0	105	1250	28	1971	1406	0	32757	32718	32749	32679	32660	32615	33666	32197	
61	0	55	1196	29	2008	1407	0	32769	32602	32799	33135	33235	33258	33687	32277	
62	0	100	1218	28	1998	1408	0	32748	32671	32738	32871	32170	33126	33446	32132	
63	0	141	1223	30	1998	1409	0	32692	32748	32879	32724	33415	32686	33101	31907	
64	0	112	1239	29	1969	1410	0	32612	32607	32991	32647	32317	32530	32999	31937	
65	0	100	1236	30	2002	1411	0	32576	32679	32843	32647	32775	32743	33129	32535	
66	0	117	1233	30	1974	1412	0	32662	32677	32759	32655	33140	33326	33079	33123	
67	0	129	1245	30	1967	1413	0	32766	32791	32572	32500	32206	33258	32903	33444	
68	0	128	1252	29	1970	1414	0	32858	32852	32615	32710	33238	33246	32679	33750	
69	0	116	1238	28	2012	1415	0	32847	32815	32628	32727	32435	33135	32225	33687	
70	0	102	1226	30	1955	1416	0	32788	32759	32815	32775	32729	32660	32050	33125	
71	0	66	1255	29	1938	1417	0	32831	32771	32931	32599	33095	32452	31955	32623	
72	0	59	1231	28	1955	1418	0	32764	32734	32837	32422	32166	32287	32341	32719	
73	0	101	1242	29	1984	1419	0	32765	32715	32884	32454	33328	32432	32405	32943	
74	0	86	1245	29	1975	1420	0	32756	32705	32815	32467	32356	33095	31475	32813	
75	0	108	1271	28	1995	1421	0	32749	32752	32865	32738	32609	33265	31691	32441	
76	0	94	1296	30	1982	1422	0	32775	32716	32887	32621	33183	32903	32327	32519	
77	0	92	1247	29	1958	1423	0	32775	32797	32828	32562	32190	32236	33652	32570	
78	0	88	1271	29	1960	1424	0	32769	32808	32874	32684	33377	32707	34883	33103	
79	0	99	1206	28	1982	1425	0	32752	32754	32775	32686	32420	33011	35331	33355	
80	0	136	1260	29	1987	1426	0	32844	32821	32701	32576	32639	33309	34876	33584	
81	0	148	1225	30	1962	1427	0	32807	32743	32716	32553	33257	32495	33494	32892	
82	0	112	1241	27	1981	1428	0	32742	32750	32626	32676	32106	31676	32463	32414	
83	0	100	1262	29	2008	1429	0	32711	32773	32757	32758	33367	31871	32127	32509	
84	0	119	1272	29	1968	1430	0	32647	32711	32807	32343	32479	32271	31770	32557	
85	0	111	1247	28	1988	1431	0	32594	32652	32754	32311	32691	32399	31879	32535	
86	0	87	1215	30	1963	1432	0	32683	32624	32773	32587	33287	32644	31795	32069	
87	0	142	1243	30	1983	1433	0	32689	32671	32646	32615	32189	32838	31635	32128	
88	0	120	1242	30	1981	1434	0	32662	32709	32711	32477	33223	32429	32036	32363	
89	0	99	1223	30	1963	1435	0	32686	32723	32594	32315	32551	32479	32207	32473	
90	0	106	1271	28	2010	1436	0	32784	32765	32609	32263	32676	32698	32468	32685	
91	0	79	1260	29	1957	1437	0	32820	32731	32509	32459	33167	33274	32533	32913	
92	0	118	1270	29	1984	1438	0	32828	32637	32580	32576	32090	33439	32479	32717	
93	0	93	1233	29	1985	1439	0	32827	32583	32580	32642	33337	32900	32460	32563	
94	0	81	1223	30	1987	1440	0	32783	32567	32715	32482	32417	32607	32555	32191	
95	0	135	1239	28	1939	1441	0	32828	32663	32647	32563	32576	33462	32710	32007	
96	0	98	1247	28	1973	1442	0	32860	32617	32677	32573	33302	33787	33370	31949	
97	0	128	1291	29	1989	1443	0	32822	32556	32663	32856	32018	33565	33594	32303	
98	0	84	1230	29	1959	1444	0	32696	32461	32605	33043	33356	32182	33543	32502	
99	0	78	1246	29	1980	1445	0	32748	32477	32799	33135	32555	32128	33023	32548	
100	0	115	1216	28	2001	1446	0	32764	32558	32824	33089	32541	32403	32719	32737	
101	0	132	1231	29	1937	1447	0	32791	32690	32683	33204	33319	32422	32859	33155	
102	0	132	1257	29	1960	1448	0	32802	32679	32629	32950	32101	33062	32807	33700	
103	0	102	1247	28	1996	1449	0	32763	32653	32600	33044	33316	33863	32437	33303	
104	0	111	1262	28	1950	1450	0	32783	32775	32642	33006	32439	33438	31535	32951	
105	0	92	1276	29	1998	1451	0	32895	32741	32542	33010	32585	32415	31744	32805	
106	0	103	1242	29	1979	1452	0	32926	32756	32630	32543	33318	31647	32002	32559	
107	0	124	1234	29	1937	1453	0	32821	32722	32623	32723	32021	31876	32025	32444	
108	0	111	1244	29	1977	1454	0	32787	32660	32613	33037	33334	32035	31999	32318	
109	0	126	1288	29	2016	1455	0	32748	32812	32647	32893	32585	32129	31740	31975	
110	0	70	1258	29	1949	1456	0	32592	32727	32642	32658	32633	32407	32893	31578	
111	0	77	1218	30	1980	1457	0	32640	32617	32703	32799	33138	32823	33469	31935	
112	0	145	1218	30	1971	1458	0	32681	32543	32592	32883	32140	33072	33765	32979	
113	0	131	1228	30	1965	1459	0	32722	32617	32582	32591	33303	33276	33447	33367	
114	0	98	1220	30	1980	1460	0	32687	32620	32671	32471	32573	34123	33140	32695	
115	0	143	1233	30	1977	1461	0	32681	32561	32586	32098	32507	33895	33449	32289	
116	0	119	1283	29	1968	1462	0	32655	32421	32677	32479	33342	33586	33367	33190	
117	0	101	1233	29	1999	1463	0	32729	32413	32530	32743	32135	33815	33058	33725	
118	0	114	1262	28	1954	1464	0	32758	32506	32734	32732	33185	33072	32391	33307	
119	0	138	1294	29	1976	1465	0	32775	32590	32729	32647	32574	32453	33296	33014	
120	0	130	1264	30	1963	1466	0	32805	32647	32604	32466	32538	32135	34889	33074	
121	0	91	1254	29	1954	1467	0	32852	32647	32775	32631	33307	32547	34771	32787	
122	0	108	1267	30	1998	1468	0	32724	32581	32917	32775	31992	32936	33511	32861	
123	0	102	1231	30	1997	1469	0	32804	32658	32878	32945	33309	32483	32806	32647	
124	0	119	1253	29	2017	1470	0	32784	32625	32887	32721	32559	32118	32527	32211	
125	0	124	1322	29	1994	1471	0	32740	32630	32722	32703	32602	32049	33187	32443	
126	0	136	1236	29	2000	1472	0	32827	32591	32658	32919	33283	32887	33443	31983	
127	0	120	1245	30	1942	1473	0	32862	32583	32574	33007	32117	33047	33415	31534	
128	0	112	1268	29	1986	1474	0	32823	32639	32647	33004	33173	32135	32568	31319	
129	0	139	1261	30	2002	1475	0	32877	32655	32561	32685	32625	31809	32423	32127	
130	0	61	1230	30	1978	1476	0	32860	32684	32564	32717	32583	31436	31476	32615	
131	0	112	1240	30	1987	1477	0	32871	32715	32591	32723	33151	31509	30365	32522	
132	0	105	1205	28	2002	1478	0	32831	32594	32583	32903	32121	32231	30316	32788	
133	0	131	1263	29	1984	1479	0	32684	32511	32686	32563	33223	32647	31538	33090	
134	0	96	1267	28	1970	1480	0	32640	32515	32894	32679	32626	32707	31860	32994	
135	0	143	1229	30	1996	1481	0	32719	32478	32815	32824	32479	32871	32575	32873	
136	0	108	1279	30	1973	1482	0	32660	32534	32858	32671	33268	33233	32511	33135	
137	0	94	1257	30	1991	1483	0	32712	32567	33078	32598	32093	33732	32135	32921	
138	0	105	1200	28	2040	1484	0	32710	32644	33174	32893	33179	34070	31879	33159	
139	0	91	1229	29	1978	1485	0	32676	32708	33150	32943	32631	33741	30977	32791	
140	0	130	1229	28	1989	1486	0	32620	32684	32911	33031	32582	33272	31544	32577	
141	0	132	1264	29	1938	1487	0	32576	32775	32903	32850	33186	32159	32129	32639	
142	0	92	1216	29	1979	1488	0	32605	32679	32916	32693	32164	32126	33223	33340	
143	0	109	1226	30	1991	1489	0	32694	32659	32832	32844	33302	32874	34170	33579	
144	0	131	1255	30	1984	1490	0	32708	32675	32655	32835	32474	33639	34042	32903	
145	0	129	1213	29	2003	1491	0	32836	32755	32570	32656	32546	33907	33977	32023	
146	0	110	1205	29	1977	1492	0	32889	32754	32527	33127	33321	33561	33562	32066	
147	0	115	1227	29	1914	1493	0	32869	32726	32563	32984	32072	34151	33097	32551	
148	0	130	1274	30	1957	1494	0	32810	32700	32571	32951	33158	33989	33287	32831	
149	0	80	1276	28	1998	1495	0	32832	32685	32475	32867	32631	33427	33180	32471	
150	0	127	1247	28	2023	1496	0	32767	32687	32588	32807	32559	32866	33121	32342	
151	0	75	1266	30	2020	1497	0	32710	32711	32565	32671	33327	33159	32837	32239	
152	0	99	1264	29	1985	1498	0	32786	32766	32431	32923	32000	33261	32397	32286	
153	0	109	1242	28	1966	1499	0	32932	32692	32335	33083	33247	32541	33002	32623	
154	0	126	1245	29	1995	1500	0	32795	32567	32508	32815	32583	31660	33113	32367	
155	0	100	1268	28	1975	1501	0	32716	32619	32576	32967	32569	31823	33167	32387	
156	0	110	1220	28	2020	1502	0	32770	32771	32391	33037	33297	32829	32767	32590	
157	0	145	1245	28	2007	1503	0	32707	32743	32603	32647	31996	32576	32251	32783	
158	0	106	1218	29	1983	1504	0	32694	32690	32511	32727	33318	32111	31738	33263	
159	0	135	1204	28	2016	1505	0	32775	32729	32412	32791	32607	32524	31751	33308	
160	0	117	1246	27	1950	1506	0	32720	32696	32559	32617	32612	32282	31772	33083	
161	0	102	1232	29	1975	1507	0	32641	32743	32677	32639	33167	31903	32087	32797	
162	0	130	1280	28	1984	1508	0	32780	32646	32635	32654	32171	31840	32169	32435	
163	0	73	1267	29	1952	1509	0	32775	32799	32655	32675	33317	32319	32470	32407	
164	0	87	1256	29	1975	1510	0	32823	32703	32737	32502	32605	32507	32507	31922	
165	0	118	1223	29	1957	1511	0	32806	32729	32699	32566	32487	32302	33025	31686	
166	0	133	1214	28	1947	1512	0	32796	32727	32835	32583	33298	32041	33956	31979	
167	0	129	1238	30	1984	1513	0	32851	32742	32767	32631	32148	32312	34080	32519	
168	0	120	1246	29	1957	1514	0	32812	32788	32856	32359	33342	33250	33255	32551	
169	0	132	1267	29	1974	1515	0	32679	32757	32847	32314	32465	33887	32707	32903	
170	0	119	1241	29	1987	1516	0	32580	32535	32694	32647	32679	33629	32433	32852	
171	0	121	1249	29	1977	1517	0	32663	32541	32827	32535	33194	33643	32293	32613	
172	0	120	1239	29	1974	1518	0	32775	32578	32810	32443	32163	33401	32025	32551	
173	0	140	1248	29	1985	1519	0	32711	32759	32661	32720	33363	33071	32336	32567	
174	0	135	1262	29	1988	1520	0	32799	32670	32721	32431	32511	33093	33047	32937	
175	0	111	1248	29	1998	1521	0	32741	32689	32876	32587	32519	33020	33215	33097	
176	0	116	1295	29	1943	1522	0	32676	32679	32748	32805	33281	32815	33597	32919	
177	0	136	1240	29	1961	1523	0	32756	32775	32634	32629	32102	32493	33625	32796	
178	0	102	1266	29	1993	1524	0	32861	32785	32647	32694	33370	32631	33739	32833	
179	0	121	1240	28	2029	1525	0	32775	32683	32585	32775	32367	32461	33685	32647	
180	0	137	1232	28	1956	1526	0	32795	32554	32495	32638	32583	32327	32957	32679	
181	0	77	1239	28	2000	1527	0	32731	32527	32581	32583	33234	32493	31903	32741	
182	0	85	1256	29	2007	1528	0	32694	32495	32592	32804	32199	32415	31858	32818	
183	0	114	1244	30	2011	1529	0	32714	32515	32646	32940	33220	32373	32692	33012	
184	0	91	1236	29	1993	1530	0	32760	32613	32647	32612	32455	32188	33316	33113	
185	0	94	1253	28	1986	1531	0	32799	32743	32687	32871	32683	32361	32935	32868	
186	0	92	1244	29	1956	1532	0	32830	32735	32971	32815	33239	32643	32227	32420	
187	0	117	1259	29	1943	1533	0	32837	32786	33125	32681	32081	32665	32545	32461	
188	0	114	1243	29	1996	1534	0	32681	32704	33000	32679	33315	32469	31847	32167	
189	0	130	1241	29	2008	1535	0	32659	32692	33119	32771	32477	32597	31735	32310	
190	0	156	1280	29	1960	1536	0	32668	32697	33079	32783	32719	32735	31399	32354	
191	0	132	1214	30	1951	1537	0	32663	32669	33007	32783	33243	33059	31389	32319	
192	0	152	1268	28	1963	1538	0	32647	32671	33063	32784	32119	33104	31557	32344	
193	0	104	1262	29	1957	1539	0	32687	32660	32790	32838	33306	33157	32443	32448	
194	0	117	1258	29	2004	1540	0	32735	32719	32767	32919	32479	33415	32511	32811	
195	0	138	1242	29	1956	1541	0	32812	32749	32816	32735	32580	32918	32298	32801	
196	0	98	1282	29	2004	1542	0	32743	32711	32743	32890	33262	32309	32037	33271	
197	0	111	1234	29	1981	1543	0	32769	32715	32751	32617	32188	32378	32304	33050	
198	0	105	1266	30	1958	1544	0	32770	32753	32663	32647	33388	32423	32495	32431	
199	0	109	1254	29	2004	1545	0	32773	32731	32623	32769	32316	32215	33277	32087	
200	0	101	1239	29	1980	1546	0	32765	32717	32694	32999	32708	32122	33796	32324	
201	0	132	1281	27	1982	1547	0	32838	32722	32559	33010	33234	32775	34078	32581	
202	0	155	1257	29	1995	1548	0	32762	32642	32715	32652	32209	33216	34053	32871	
203	0	105	1225	30	1990	1549	0	32847	32695	32795	32708	33415	33191	34255	33281	
204	0	139	1248	29	1945	1550	0	32782	32671	32735	32690	32455	32927	34327	33370	
205	0	102	1243	28	1956	1551	0	32760	32658	32775	32775	32605	32571	33876	33345	
206	0	104	1255	29	1989	1552	0	32753	32591	32629	32335	33201	32418	33296	33069	
207	0	98	1243	30	1976	1553	0	32711	32567	32637	32077	32207	32500	32991	33180	
208	0	140	1262	28	1992	1554	0	32669	32719	32600	32873	33350	32935	32799	33095	
209	0	134	1281	29	1963	1555	0	32782	32727	32461	32863	32447	33831	32507	33114	
210	0	87	1269	30	2006	1556	0	32793	32720	32581	32827	32662	33949	32177	32998	
211	0	133	1263	27	1940	1557	0	32875	32690	32701	32719	33159	33279	32287	32550	
212	0	98	1260	29	1984	1558	0	32839	32690	32733	32735	32165	32796	32172	32412	
213	0	130	1288	29	1965	1559	0	32870	32787	32973	32544	33415	32644	32101	32170	
214	0	101	1274	28	1983	1560	0	32716	32763	33091	32715	32295	32647	32191	32414	
215	0	124	1254	29	1978	1561	0	32738	32711	33028	32721	32709	32442	32630	32823	
216	0	122	1267	29	1969	1562	0	32676	32549	33063	32791	33193	32595	32910	32819	
217	0	90	1254	29	1959	1563	0	32758	32549	32854	32557	32226	32602	32665	32728	
218	0	132	1284	29	1952	1564	0	32681	32553	32668	32571	33261	32438	32223	32412	
219	0	107	1289	29	2010	1565	0	32653	32611	32731	32525	32415	32983	32029	32295	
220	0	94	1246	28	1958	1566	0	32732	32638	32763	32402	32804	32647	31975	32366	
221	0	101	1206	28	2016	1567	0	32696	32799	32711	32775	33211	33013	31970	32705	
222	0	90	1272	29	1976	1568	0	32714	32735	32589	33174	32240	32503	31966	32468	
223	0	89	1268	28	1972	1569	0	32813	32745	32558	32867	33348	31986	33108	33005	
224	0	116	1284	29	1999	1570	0	32771	32671	32526	32673	32295	32054	34205	32647	
225	0	108	1249	29	1976	1571	0	32733	32728	32589	32541	32837	32348	33906	32422	
226	0	113	1282	29	1965	1572	0	32788	32707	32508	32923	33127	32399	33222	31963	
227	0	132	1225	29	1965	1573	0	32719	32751	32558	32911	32284	32487	33292	32310	
228	0	118	1240	29	1958	1574	0	32713	32566	32659	32734	33329	32314	33683	32503	
229	0	126	1252	29	1994	1575	0	32783	32703	32551	32758	32187	31861	33592	32417	
230	0	109	1252	29	1971	1576	0	32876	32745	32440	32525	32819	32678	33157	32570	
231	0	125	1245	29	1991	1577	0	32879	32705	32341	32726	33095	33871	31895	32679	
232	0	131	1248	29	1998	1578	0	32855	32674	32506	32847	32255	33996	32358	33093	
233	0	135	1224	29	2046	1579	0	32718	32715	32631	32751	33415	33415	32250	33505	
234	0	98	1281	28	1969	1580	0	32678	32639	32759	32639	32303	32676	32130	33023	
235	0	90	1270	29	1981	1581	0	32805	32593	32625	32749	32843	32439	31337	32013	
236	0	92	1278	30	2002	1582	0	32936	32775	32597	32759	33047	32956	30835	32039	
237	0	135	1254	30	2015	1583	0	32921	32508	32724	32903	32272	33054	31887	32706	
238	0	134	1285	29	1941	1584	0	32881	32529	32724	32869	33415	32956	32466	32671	
239	0	104	1235	29	2002	1585	0	32782	32727	32689	32642	32199	32541	32843	32783	
240	0	163	1256	28	1969	1586	0	32672	32740	32697	32754	32967	32599	33005	32844	
241	0	125	1225	29	1976	1587	0	32696	32759	32669	32807	33058	32562	32871	32486	
242	0	71	1284	28	1971	1588	0	32756	32839	32700	32864	32190	32663	32498	32424	
243	0	106	1266	31	2002	1589	0	32732	32801	32826	32760	33439	32597	32357	32246	
244	0	92	1214	29	1972	1590	0	32747	32727	32967	32757	32187	32645	32516	32665	
245	0	80	1252	29	1979	1591	0	32868	32829	32979	33005	32959	32820	32692	32964	
246	0	77	1279	30	1971	1592	0	33069	32867	32771	32890	32887	32691	32530	33015	
247	0	100	1284	29	2022	1593	0	32998	32908	32740	32676	32298	32683	33378	33646	
248	0	112	1253	30	1975	1594	0	32882	32830	32837	32759	33403	33141	33155	33243	
249	0	74	1248	29	1960	1595	0	32876	32775	32866	32739	32269	32612	33455	32756	
250	0	91	1264	29	1964	1596	0	33008	32796	32823	32757	32932	32141	32962	32186	
251	0	124	1244	30	2002	1597	0	33159	32839	32678	32534	32935	31118	32260	31746	
252	0	124	1216	29	1974	1598	0	33153	32761	32710	32709	32287	30570	32201	31212	
253	0	115	1258	28	2019	1599	0	33059	32858	32724	32765	33265	30527	32607	31175	
254	0	113	1264	28	1996	1600	0	32960	32709	32635	32708	32221	31251	32838	31431	
255	0	95	1268	29	2019	1601	0	32991	32769	32541	32378	32983	32372	32884	31911	
256	0	105	1277	29	2010	1602	0	32903	32791	32621	32700	32997	33590	32997	32301	
257	0	106	1256	28	1961	1603	0	32797	32677	32610	32848	32199	33626	32809	32852	
258	0	135	1276	29	1991	1604	0	32752	32572	32391	32689	33396	35101	33196	33935	
259	0	95	1223	28	1965	1605	0	32766	32540	32475	32711	32177	36231	32773	34981	
260	0	110	1246	30	1965	1606	0	32861	32547	32454	32647	33037	36065	32730	34514	
261	0	80	1217	30	2012	1607	0	32826	32411	32317	32639	32843	33927	32514	33767	
262	0	95	1261	29	1997	1608	0	32829	32357	32284	32319	32269	33093	32974	34064	
263	0	97	1274	30	1965	1609	0	32646	32359	32257	32382	33329	32890	33106	33436	
264	0	119	1274	29	2019	1610	0	32625	32278	32251	32456	32210	33495	33199	32024	
265	0	131	1244	29	1984	1611	0	32538	32074	32314	32277	33026	33092	33061	31585	
266	0	152	1232	29	1983	1612	0	32492	32063	32463	32452	32807	32101	32871	31751	
267	0	132	1281	28	1971	1613	0	32434	32254	32582	32596	32269	31461	32326	31342	
268	0	112	1249	29	1965	1614	0	32528	32357	32469	32596	33375	31251	32278	31887	
269	0	131	1220	29	1988	1615	0	32497	32317	32601	32497	32201	32338	32641	32662	
270	0	100	1246	29	1989	1616	0	32436	32311	32673	32723	32912	32813	32628	33159	
271	0	118	1250	29	2022	1617	0	32383	32324	32719	32951	32865	32718	32548	32967	
272	0	109	1269	29	1941	1618	0	32396	32459	32642	32911	32327	32958	32690	32364	
273	0	130	1237	30	1978	1619	0	32503	32582	32587	33076	33399	32717	33187	32475	
274	0	113	1253	29	1956	1620	0	32509	32588	32711	33126	32193	32652	32946	32969	
275	0	146	1252	30	1998	1621	0	32594	32766	32690	32983	32969	33319	31352	33499	
276	0	129	1218	29	1963	1622	0	32554	32750	32879	32854	32891	32729	31330	33948	
277	0	120	1238	29	1957	1623	0	32457	32613	33319	32943	32309	32015	31631	32964	
278	0	118	1276	29	1980	1624	0	32493	32707	33266	32971	33415	32293	32093	32443	
279	0	118	1204	29	1946	1625	0	32335	32935	33538	32623	32191	31725	32421	32474	
280	0	79	1237	29	1988	1626	0	32256	32859	33518	33285	32974	31886	33151	32733	
281	0	130	1254	28	1988	1627	0	32245	32807	33502	33391	32791	32135	34023	33315	
282	0	99	1236	30	1986	1628	0	32196	32869	33447	33110	32379	33204	34096	33879	
283	0	137	1271	30	1984	1629	0	32279	32893	33467	33371	33371	34925	34326	33663	
284	0	132	1264	30	2016	1630	0	32356	32887	33247	33564	32019	35354	34681	33298	
285	0	84	1308	29	2029	1631	0	32257	32892	33348	33083	33082	33715	34509	32487	
286	0	79	1253	30	1966	1632	0	32348	32855	33471	32990	32807	33133	34502	32470	
287	0	118	1243	27	1992	1633	0	32568	32813	33355	33352	32399	32306	34163	32210	
288	0	105	1261	30	2006	1634	0	32848	32927	33033	33093	33393	32157	33495	32231	
289	0	117	1299	29	1987	1635	0	33101	32969	32954	32870	32062	31964	32366	32123	
290	0	95	1263	28	1986	1636	0	33120	33087	32966	32807	33089	31386	31122	31967	
291	0	152	1246	29	1984	1637	0	33140	33123	32863	32591	32781	32279	31159	32828	
292	0	120	1254	29	1965	1638	0	33268	33027	32647	32728	32414	32404	31519	33199	
293	0	122	1225	29	1999	1639	0	33263	32998	32532	32715	33343	32006	31260	33075	
294	0	131	1265	28	1989	1640	0	33295	33060	32398	32763	31988	31344	31693	32557	
295	0	154	1255	30	1976	1641	0	33240	33025	32335	32493	33190	31049	31959	31303	
296	0	95	1217	29	1958	1642	0	33159	32985	32356	32666	32706	32258	31700	30225	
297	0	129	1290	29	1976	1643	0	33078	33033	32362	32745	32484	32103	31975	30767	
298	0	79	1264	29	1920	1644	0	33032	32943	32159	32476	33178	33177	33103	32497	
299	0	120	1254	29	1959	1645	0	33028	32967	32215	32415	32135	34623	33321	33182	
300	0	53	1248	29	1994	1646	0	33066	32975	32276	32573	33181	34166	33099	32343	
301	0	104	1255	30	1968	1647	0	33035	32863	32391	32171	32694	33107	33254	31328	
302	0	111	1276	28	1964	1648	0	33146	32877	32399	32333	32444	32898	33235	31981	
303	0	136	1263	29	1979	1649	0	33132	32757	32279	33093	33334	32612	32039	32639	
304	0	122	1239	29	1960	1650	0	32921	32557	32493	32851	32124	32576	31846	32351	
305	0	112	1264	29	1966	1651	0	32850	32534	32533	32454	33279	33247	32175	32287	
306	0	101	1283	29	2000	1652	0	32850	32679	32457	32407	32517	33311	31735	31826	
307	0	161	1243	28	1984	1653	0	32924	32776	32515	32539	32561	33560	32445	32218	
308	0	55	1246	29	1986	1654	0	32966	32847	32524	32577	33276	32835	33687	33657	
309	0	129	1276	29	1962	1655	0	32954	32770	32534	32483	32165	32626	34367	33506	
310	0	127	1303	30	2010	1656	0	32784	32749	32647	32541	33182	32830	34023	33577	
311	0	84	1235	30	1965	1657	0	32663	32644	32709	32569	32685	32788	32959	33838	
312	0	102	1286	29	1938	1658	0	32676	32707	32595	32646	32471	32710	31950	33447	
313	0	91	1204	29	1950	1659	0	32750	32823	32411	32759	33319	32279	32459	33740	
314	0	79	1268	29	1996	1660	0	32628	32519	32470	32458	32156	31552	33181	33190	
315	0	109	1201	29	1985	1661	0	32686	32431	32612	32668	33181	33234	33179	33071	
316	0	99	1218	28	1962	1662	0	32643	32454	32901	32613	32495	33276	32738	32965	
317	0	111	1233	29	2008	1663	0	32564	32559	32930	32629	32575	32523	33539	32969	
318	0	110	1237	29	1992	1664	0	32497	32563	33063	32716	33255	32846	32969	32317	
319	0	97	1246	30	1957	1665	0	32592	32449	32898	32511	32145	32680	32098	31059	
320	0	96	1237	28	1980	1666	0	32788	32540	32800	32556	33159	33328	31824	31783	
321	0	129	1252	30	1982	1667	0	32812	32663	32983	32519	32609	33325	32154	32525	
322	0	117	1198	30	2004	1668	0	32707	32567	33047	32674	32584	32336	31733	32677	
323	0	74	1212	28	1944	1669	0	32655	32721	32916	32663	33343	31761	32471	32731	
324	0	93	1276	29	1969	1670	0	32782	32691	32756	32804	32054	32830	33164	33740	
325	0	128	1269	28	1984	1671	0	32780	32794	32405	32997	33287	33990	33287	34497	
326	0	132	1229	28	1988	1672	0	32937	32775	32303	32719	32588	35007	33319	35028	
327	0	91	1257	28	1976	1673	0	32962	32671	32424	32775	32556	34559	33253	34162	
328	0	149	1259	29	1994	1674	0	32806	32655	32585	32529	33322	33855	32557	32327	
329	0	87	1231	29	2001	1675	0	32676	32557	32902	32660	32058	33275	32683	31337	
330	0	121	1225	28	1972	1676	0	32568	32468	32964	33211	33341	32306	32383	30399	
331	0	104	1214	28	1987	1677	0	32512	32548	33229	33309	32586	31837	32553	30557	
332	0	131	1312	29	1993	1678	0	32482	32580	33174	32769	32634	32250	33263	30807	
333	0	122	1267	29	2001	1679	0	32625	32706	32789	32967	33287	32594	33783	31189	
334	0	84	1220	29	1976	1680	0	32720	32623	32470	33036	32010	31974	33032	31239	
335	0	132	1259	30	1992	1681	0	32806	32542	32343	32796	33355	31069	31284	31971	
336	0	120	1241	28	1958	1682	0	32871	32670	32187	32807	32497	31613	31353	33757	
337	0	93	1271	28	1946	1683	0	32943	32738	32074	32888	32621	32656	32295	34541	
338	0	128	1246	28	1970	1684	0	32931	32757	32109	32679	33270	32559	33251	34404	
339	0	88	1240	31	1978	1685	0	32892	32739	32154	32647	32002	32436	32647	33384	
340	0	105	1269	30	1950	1686	0	32886	32772	32313	32695	33351	32879	32358	33233	
341	0	110	1235	29	1982	1687	0	32846	32806	32455	32508	32503	32996	30061	33831	
342	0	127	1258	28	1957	1688	0	32749	32791	32570	32765	32668	32535	30498	33454	
343	0	66	1201	30	1972	1689	0	32657	32758	33092	32875	33281	32758	32391	33093	
344	0	140	1243	30	1969	1690	0	32539	32658	33371	32774	32121	32895	33359	33076	
345	0	119	1279	29	1988	1691	0	32726	32775	33095	32891	33342	33125	33814	32374	
346	0	40	1252	29	2009	1692	0	32782	32763	33031	32933	32527	33195	33695	32037	
347	0	59	1281	29	1987	1693	0	32754	32681	33063	32775	32658	32911	33754	31721	
348	0	86	1254	29	1975	1694	0	32628	32514	33116	32642	33104	32741	33810	31292	
349	0	108	1242	28	2016	1695	0	32461	32359	33232	32684	32186	32614	33360	31222	
350	0	126	1268	29	1988	1696	0	32381	32534	33148	32615	33277	32420	33287	32223	
351	0	91	1242	30	1984	1697	0	32376	32591	32838	32580	32515	31943	33489	32799	
352	0	106	1270	29	1957	1698	0	32594	32604	32614	32737	32542	31997	32611	32984	
353	0	139	1220	28	1966	1699	0	32684	32662	32426	32671	33213	32487	33129	32951	
354	0	122	1206	30	1988	1700	0	32775	32679	32352	32714	32156	33051	33189	33051	
355	0	85	1235	29	1962	1701	0	32711	32709	32493	32758	33378	33911	33007	32548	
356	0	109	1259	29	1965	1702	0	32735	32751	32576	32788	32331	34007	33111	31924	
357	0	81	1223	27	2010	1703	0	32844	32895	32383	32505	32727	33619	33038	32338	
358	0	89	1261	31	2023	1704	0	32931	32718	32529	32659	33159	33031	32895	33577	
359	0	131	1210	29	2010	1705	0	32937	32628	32559	32656	32218	32749	32696	33165	
360	0	131	1245	29	1982	1706	0	32748	32692	32451	32562	33254	33967	32524	32581	
361	0	79	1229	29	1988	1707	0	32845	32887	32658	32816	32293	34773	32539	32943	
362	0	127	1233	28	1952	1708	0	32614	32735	32934	32809	32769	33422	33052	33842	
363	0	118	1252	30	1975	1709	0	32611	32791	32831	32676	33151	32318	32503	33774	
364	0	80	1264	29	1986	1710	0	32669	32790	32908	32844	32204	32029	32783	33982	
365	0	119	1224	28	2009	1711	0	32607	32767	33012	32732	33412	31578	32799	33367	
366	0	101	1201	29	1976	1712	0	32689	32713	32932	32721	32263	31575	32481	32529	
367	0	159	1238	30	1958	1713	0	32750	32625	32807	32918	32810	31618	32313	32214	
368	0	87	1219	29	1984	1714	0	32684	32527	32675	32929	33118	32305	32583	31631	
369	0	104	1268	30	1962	1715	0	32671	32454	32629	32679	32231	32604	32606	31513	
370	0	55	1265	28	1945	1716	0	32692	32474	32629	32795	33279	32796	32979	32223	
371	0	99	1251	29	1987	1717	0	32556	32484	32654	32743	32359	33049	33101	32941	
372	0	127	1248	28	1952	1718	0	32659	32405	32663	32757	32807	32423	32465	32707	
373	0	116	1221	29	1968	1719	0	32756	32593	32553	32495	33055	32590	32399	32743	
374	0	100	1230	28	1987	1720	0	32807	32614	32583	32546	32244	32293	32780	32735	
375	0	151	1237	27	1979	1721	0	32804	32507	32549	32676	33292	32541	32687	32871	
376	0	133	1276	28	1984	1722	0	32889	32533	32666	32675	32407	33491	32399	32596	
377	0	81	1242	30	2015	1723	0	32796	32540	32683	32617	32647	33031	31636	32120	
378	0	115	1226	29	1970	1724	0	32686	32479	32748	32739	33078	32391	31913	32349	
379	0	170	1258	29	1999	1725	0	32676	32639	32775	32757	32212	32201	32442	32297	
380	0	124	1265	28	2020	1726	0	32775	32657	32569	32562	33366	31879	32451	32365	
381	0	91	1251	30	1975	1727	0	32752	32647	32535	32619	32389	31495	32307	32401	
382	0	105	1242	28	1949	1728	0	32791	32598	32609	32548	32783	31842	32198	33059	
383	0	128	1274	30	1961	1729	0	32864	32711	32603	32642	33073	33015	32335	33534	
384	0	147	1253	29	1996	1730	0	32912	32722	32571	32773	32087	32812	32413	33766	
385	0	85	1220	27	1962	1731	0	32932	32655	32761	32677	33427	32837	32866	33303	
386	0	129	1254	29	1988	1732	0	32775	32698	32773	32974	32382	32854	33204	32706	
387	0	130	1232	29	1977	1733	0	32775	32713	32722	32902	32750	33243	33221	31857	
388	0	139	1216	29	1978	1734	0	32579	32556	32964	32732	33079	32732	33255	31151	
389	0	115	1242	29	1988	1735	0	32494	32539	33044	32779	32232	32577	33350	31810	
390	0	84	1263	28	2017	1736	0	32487	32295	33011	32477	33435	32571	33313	32810	
391	0	69	1254	28	1981	1737	0	32607	32346	32925	32676	32343	32467	32967	33823	
392	0	99	1255	27	1967	1738	0	32740	32596	32775	32923	32711	32081	32558	34454	
393	0	71	1267	29	1971	1739	0	32805	32802	32843	32637	33131	32668	32891	34587	
394	0	144	1276	29	1977	1740	0	32834	32703	32681	32793	32260	33679	33090	33921	
395	0	116	1239	29	1988	1741	0	32806	32725	32631	32571	33357	33095	32971	33399	
396	0	109	1286	28	1985	1742	0	32823	32719	32756	32445	32363	32591	32577	32773	
397	0	121	1245	29	1971	1743	0	32911	32715	32663	32771	32749	32543	32545	32540	
398	0	117	1247	28	1956	1744	0	32974	32721	32615	32828	33026	33436	32773	31875	
399	0	126	1270	30	1979	1745	0	32957	32587	32630	32618	32273	34197	32918	31675	
400	0	136	1246	28	2025	1746	0	32913	32581	32676	32833	33340	34503	32913	31715	
401	0	102	1216	30	1995	1747	0	33008	32567	32695	32871	32297	34427	32845	31904	
402	0	81	1202	29	1968	1748	0	32903	32630	32732	32638	32775	33695	33043	32026	
403	0	142	1246	28	1953	1749	0	32676	32589	33049	32737	33063	32705	33263	32279	
404	0	115	1221	29	1976	1750	0	32476	32606	33082	32786	32276	32576	33127	32064	
405	0	70	1302	29	1907	1751	0	32512	32593	32755	32543	33375	32591	32899	32391	
406	0	96	1228	28	1960	1752	0	32693	32742	32666	32797	32222	31989	32511	32507	
407	0	144	1242	30	1985	1753	0	32846	32703	32773	32717	32932	32088	32614	32817	
408	0	125	1273	29	1933	1754	0	32831	32667	32835	32529	32903	32514	32631	32438	
409	0	98	1235	29	2003	1755	0	32769	32501	32799	32677	32263	32125	32198	32391	
410	0	138	1233	28	1975	1756	0	32809	32453	32610	32735	33351	32479	31711	32784	
411	0	114	1270	30	2002	1757	0	32758	32500	32662	32839	32279	32486	31186	33330	
412	0	112	1282	29	1998	1758	0	32704	32512	32682	32551	32834	31382	31606	32835	
413	0	122	1251	29	1982	1759	0	32814	32629	32507	32782	32892	31855	32189	32919	
414	0	95	1218	29	1966	1760	0	32897	32672	32632	32775	32263	33475	32111	31917	
415	0	170	1263	29	2010	1761	0	32929	32850	32594	32692	33427	34575	32391	31476	
416	0	96	1245	29	1975	1762	0	32890	32807	32487	32695	32255	33375	33153	31480	
417	0	155	1234	27	1978	1763	0	32871	32723	32530	32643	32879	32935	33484	31475	
418	0	83	1239	29	1965	1764	0	32773	32699	32755	32677	32839	32659	33575	31235	
419	0	119	1230	29	1934	1765	0	32746	32624	32718	32710	32237	33061	33478	31443	
420	0	121	1258	29	1998	1766	0	32786	32576	32703	32705	33415	33159	33227	32117	
421	0	66	1178	28	1981	1767	0	32745	32491	32723	32870	32255	33119	33084	32967	
422	0	95	1257	28	1966	1768	0	32709	32543	32638	33010	32887	33094	33255	33583	
423	0	111	1202	29	1999	1769	0	32805	32523	32437	32647	32980	33183	33186	33622	
424	0	130	1243	30	1983	1770	0	32761	32559	32476	32536	32299	32687	32910	33836	
425	0	103	1280	29	1986	1771	0	32711	32530	32527	33305	33254	32071	32861	33986	
426	0	125	1215	29	1983	1772	0	32715	32589	32643	33399	32215	32135	33074	34172	
427	0	117	1232	29	2011	1773	0	32684	32523	32903	33227	33037	32157	32708	33581	
428	0	131	1294	28	1968	1774	0	32716	32557	32963	32935	32951	32897	32351	32817	
429	0	137	1274	29	2007	1775	0	32710	32585	33126	33033	32210	33759	32221	32431	
430	0	109	1265	29	1973	1776	0	32772	32669	33191	32965	33447	33100	32374	32303	
431	0	144	1275	29	2009	1777	0	32681	32714	33146	33018	32146	32174	32194	32389	
432	0	155	1204	30	2001	1778	0	32749	32767	33110	32465	33063	32239	31819	32317	
433	0	149	1226	29	1953	1779	0	32728	32785	32867	32587	32943	32609	31671	32347	
434	0	143	1223	29	1983	1780	0	32804	32662	32487	33364	32206	33058	32375	33095	
435	0	126	1227	29	1972	1781	0	32858	32806	32471	32926	33275	33693	32630	33415	
436	0	126	1254	29	1982	1782	0	32868	32742	32493	32911	32191	33490	32692	33560	
437	0	112	1242	29	2000	1783	0	32812	32632	32446	32783	33061	32716	33376	33701	
438	0	110	1286	30	2000	1784	0	32663	32505	32453	32567	32919	32305	33709	32957	
439	0	109	1288	28	2000	1785	0	32775	32437	32173	32471	32236	32292	33793	32631	
440	0	73	1271	30	1970	1786	0	32775	32487	32271	32815	33437	32019	33335	32417	
441	0	126	1284	29	1999	1787	0	32767	32517	32407	32675	32127	32142	33004	32552	
442	0	114	1249	28	1988	1788	0	32694	32717	32556	32756	33097	33023	32413	32307	
443	0	150	1264	29	1967	1789	0	32786	32729	32615	32541	32732	32967	32150	31077	
444	0	135	1211	29	1997	1790	0	32744	32786	32740	32326	32367	32862	31684	30547	
445	0	140	1232	29	2018	1791	0	32660	32797	32637	32409	33369	33223	32357	31675	
446	0	100	1188	29	1957	1792	0	32677	32677	32615	32489	32205	33281	32647	32145	
447	0	101	1284	29	2018	1793	0	32658	32701	32754	32489	32933	33221	33217	32310	
448	0	96	1233	29	1992	1794	0	32757	32612	32807	32343	32882	33658	32141	32221	
449	0	122	1199	28	1995	1795	0	32832	32756	32814	32605	32320	34629	32226	33700	
450	0	133	1228	29	1931	1796	0	32828	32718	32849	32663	33391	33047	31737	33749	
451	0	117	1261	28	2010	1797	0	32775	32555	32898	32510	32173	31714	30545	33115	
452	0	109	1227	29	1980	1798	0	32820	32594	32867	32549	32997	31911	29819	32631	
453	0	136	1287	29	1992	1799	0	32788	32675	32903	32439	32729	31980	31925	33287	
454	0	135	1281	28	1956	1800	0	32805	32733	32743	32511	32407	32039	34001	33311	
455	0	103	1254	29	2032	1801	0	32824	32685	32714	32622	33351	32980	35055	33493	
456	0	123	1256	28	1991	1802	0	32825	32655	32679	32830	32149	33577	35228	33141	
457	0	118	1234	30	2015	1803	0	32804	32705	32669	32811	33063	33024	34548	32775	
458	0	111	1269	29	1943	1804	0	32839	32658	32684	32863	32823	32863	33877	32291	
459	0	82	1258	29	1989	1805	0	32708	32615	32679	32901	32329	32212	34279	32385	
460	0	105	1256	30	1939	1806	0	32663	32646	32495	32979	33381	31643	33927	32679	
461	0	113	1251	29	1942	1807	0	32714	32708	32503	32735	32025	32039	33356	32984	
462	0	92	1234	29	1996	1808	0	32775	32687	32471	32806	33149	32545	32620	32727	
463	0	75	1221	29	1960	1809	0	32746	32773	32555	32729	32796	32157	32903	32423	
464	0	75	1246	28	2011	1810	0	32717	32712	32655	32597	32412	31751	33299	32350	
465	0	103	1250	29	1965	1811	0	32696	32691	32615	32348	33232	31785	32939	33029	
466	0	120	1231	30	1993	1812	0	32686	32735	32605	32391	32167	32118	32120	33014	
467	0	127	1259	30	1981	1813	0	32676	32764	32846	32462	33142	32455	31903	33193	
468	0	130	1284	30	2003	1814	0	32775	32751	32815	32486	32795	33095	32029	32912	
469	0	143	1286	29	2020	1815	0	32870	32762	33027	32932	32349	33874	32433	32890	
470	0	123	1271	28	1971	1816	0	32762	32596	33103	32964	33347	33837	32579	32435	
471	0	99	1217	29	1994	1817	0	32884	32675	32943	33134	32156	34540	32684	32529	
472	0	107	1256	29	1991	1818	0	32890	32632	32982	32901	33010	33474	32445	32479	
473	0	144	1283	29	1976	1819	0	32647	32534	32919	33082	32823	33862	32775	32381	
474	0	70	1230	29	1948	1820	0	32657	32518	32764	33087	32390	33839	32647	32999	
475	0	134	1240	28	2001	1821	0	32666	32581	32695	32871	33375	32125	32546	32719	
476	0	121	1282	28	1941	1822	0	32772	32702	32519	32967	32007	30638	32662	31980	
477	0	133	1234	30	1998	1823	0	32799	32738	32389	32975	33159	31384	33245	32263	
478	0	92	1268	28	1984	1824	0	32717	32615	32469	32607	32763	31172	33101	33287	
479	0	137	1221	30	1975	1825	0	32637	32602	32595	32653	32444	31524	32839	33189	
480	0	99	1203	28	1986	1826	0	32656	32663	32549	32375	33207	32967	32299	33515	
481	0	75	1247	29	1984	1827	0	32692	32702	32726	32719	32142	33692	32499	33250	
482	0	120	1267	29	1997	1828	0	32753	32742	32775	32671	33159	34735	32388	32887	
483	0	120	1207	28	1976	1829	0	32816	32805	32637	32692	32639	35227	32019	32662	
484	0	100	1267	30	1985	1830	0	32753	32788	32634	32799	32407	35455	32119	32470	
485	0	106	1213	29	2032	1831	0	32715	32748	32687	32763	33283	34061	32378	31589	
486	0	157	1235	29	1966	1832	0	32706	32721	32709	32467	32133	33440	31938	30215	
487	0	93	1244	29	1936	1833	0	32756	32806	32535	32623	33042	32421	30711	29526	
488	0	124	1293	30	1945	1834	0	32800	32738	32575	32691	32767	31791	31698	30103	
489	0	133	1273	28	2000	1835	0	32812	32768	32814	32487	32452	31815	33456	31478	
490	0	156	1246	30	1989	1836	0	32861	32730	32996	32532	33391	32399	33951	33787	
491	0	85	1245	29	1995	1837	0	32838	32631	33253	32570	32021	32210	33168	34612	
492	0	121	1254	30	2007	1838	0	32834	32555	32959	32425	33227	31935	32863	34609	
493	0	66	1256	29	1959	1839	0	32759	32565	32762	32647	32663	32503	32545	34466	
494	0	100	1299	30	1974	1840	0	32710	32655	32681	32707	32491	32757	32846	33453	
495	0	73	1262	30	1978	1841	0	32686	32767	32669	32663	33327	32571	33025	32522	
496	0	78	1276	29	1977	1842	0	32702	32759	32747	32802	32022	32361	33089	31935	
497	0	132	1235	29	1958	1843	0	32766	32789	32699	32838	33134	32181	32874	32058	
498	0	76	1262	28	1977	1844	0	32769	32639	32863	32827	32733	32402	32791	32455	
499	0	140	1268	29	1985	1845	0	32740	32650	32808	32743	32415	32317	32655	32428	
500	0	97	1239	30	1957	1846	0	32753	32773	32739	32759	33357	32532	32775	32647	
501	0	128	1267	29	2009	1847	0	32702	32706	32807	32865	32135	32710	32510	32726	
502	0	91	1270	29	1956	1848	0	32821	32734	32725	32951	33069	32737	32490	32887	
503	0	127	1279	29	1987	1849	0	32834	32719	32668	32983	32721	32671	32767	33143	
504	0	133	1243	30	1961	1850	0	32824	32732	32681	32925	32484	32953	32879	33111	
505	0	132	1296	30	2004	1851	0	32656	32771	32743	33061	33223	32271	32466	32903	
506	0	89	1229	28	2007	1852	0	32681	32839	32855	33287	32053	31561	32486	32896	
507	0	112	1219	29	1988	1853	0	32775	32812	32692	33050	33221	31589	32798	32803	
508	0	129	1266	29	1974	1854	0	32816	32854	32485	33185	32727	32167	32834	33055	
509	0	99	1227	30	2019	1855	0	32783	32826	32663	33065	32340	31927	32883	33159	
510	0	101	1252	30	1956	1856	0	32707	32788	32775	32949	33297	31746	33093	33059	
511	0	133	1243	29	1984	1857	0	32747	32698	32903	32629	32059	32050	33111	32493	
512	0	98	1234	28	2017	1858	0	32748	32645	32807	32686	33209	32722	32787	31709	
513	0	119	1221	28	1976	1859	0	32764	32615	32558	32711	32583	34439	32804	31742	
514	0	162	1210	30	1989	1860	0	32782	32694	32647	32433	32487	35860	32671	32455	
515	0	130	1186	30	1959	1861	0	32775	32775	32570	32567	33287	35103	32303	32887	
516	0	114	1235	30	1970	1862	0	32743	32635	32539	32775	32164	34517	32714	33164	
517	0	110	1213	29	1988	1863	0	32620	32414	32804	32690	33079	33317	33082	33815	
518	0	115	1261	28	1980	1864	0	32636	32383	32738	32790	32726	31637	33207	34006	
519	0	126	1239	29	1971	1865	0	32660	32520	32532	33215	32477	31449	33092	33477	
520	0	112	1269	29	1988	1866	0	32695	32541	32429	33245	33255	31991	32807	32775	
521	0	104	1244	28	1982	1867	0	32679	32644	32511	33474	32124	31356	32410	32486	
522	0	102	1210	30	1970	1868	0	32720	32720	32555	33551	33259	31367	32111	32475	
523	0	113	1294	28	1988	1869	0	32887	32615	32513	33190	32511	32879	32420	31975	
524	0	105	1254	28	1979	1870	0	32924	32592	32626	33172	32543	33151	32470	31435	
525	0	94	1284	28	1989	1871	0	32855	32717	32581	33010	33217	33577	32647	31447	
526	0	102	1241	29	1981	1872	0	32903	32837	32615	32494	32142	34130	32785	31580	
527	0	68	1243	29	1963	1873	0	32816	32710	32530	32351	33289	32950	32717	31489	
528	0	147	1191	29	2017	1874	0	32826	32662	32642	32311	32467	33170	32818	32188	
529	0	115	1289	29	2006	1875	0	32742	32743	32623	32049	32619	33481	32676	32656	
530	0	146	1261	30	1970	1876	0	32749	32634	32566	32135	33244	33671	32830	32739	
531	0	73	1285	27	1983	1877	0	32820	32534	32617	32250	32148	33388	32876	32959	
532	0	130	1216	28	2010	1878	0	32802	32796	32487	32096	33338	33187	33047	33396	
533	0	102	1335	30	1979	1879	0	32863	32775	32535	32407	32447	33091	33206	32975	
534	0	117	1282	29	1992	1880	0	32916	32843	32615	32316	32489	32612	32985	32763	
535	0	118	1227	29	1972	1881	0	32788	32631	32654	32591	33159	32596	32695	32969	
536	0	84	1266	30	2014	1882	0	32758	32490	32893	32594	32196	32511	32727	32532	
537	0	109	1263	28	2009	1883	0	32612	32486	33123	32399	33258	32387	32917	32481	
538	0	118	1297	29	1969	1884	0	32551	32613	33122	32575	32500	32391	33058	32517	
539	0	133	1258	29	1986	1885	0	32758	32635	32917	32447	32702	32363	32506	32519	
540	0	92	1280	29	1987	1886	0	32791	32703	33001	32621	33283	32190	32167	32695	
541	0	96	1241	28	2004	1887	0	32715	32577	33103	32647	32046	32457	32351	32671	
542	0	111	1234	28	1989	1888	0	32612	32623	33023	32461	33389	32231	32231	32351	
543	0	109	1244	28	1964	1889	0	32594	32747	32883	32685	32428	32559	32359	32487	
544	0	109	1249	28	1981	1890	0	32747	32691	32957	32477	32700	32614	32391	32666	
545	0	104	1227	30	1984	1891	0	32743	32719	32815	32612	33255	32429	32647	32822	
546	0	120	1300	29	1969	1892	0	32768	32758	32562	32610	32074	32266	32784	33055	
547	0	116	1231	30	1991	1893	0	32814	32711	32523	32622	33302	32087	32546	32415	
548	0	82	1232	29	2009	1894	0	32858	32639	32473	32514	32468	32061	32575	32630	
549	0	78	1250	28	1982	1895	0	32903	32654	32403	32760	32711	32263	32673	32709	
550	0	125	1218	28	1981	1896	0	32903	32827	32323	32816	33206	32547	32695	32509	
551	0	112	1278	30	1989	1897	0	32972	32879	32378	32662	32243	33220	33140	33773	
552	0	90	1214	29	1968	1898	0	32868	32791	32503	32875	33410	32668	33107	33226	
553	0	114	1284	30	1980	1899	0	32741	32692	32603	32787	32270	32758	33011	32357	
554	0	102	1248	30	1986	1900	0	32654	32500	32674	32854	32695	32610	32592	31038	
555	0	101	1258	29	1994	1901	0	32733	32570	32911	32971	33189	33045	32971	31955	
556	0	111	1266	29	1966	1902	0	32688	32623	32953	32738	32268	33401	33067	32564	
557	0	100	1208	30	1984	1903	0	32700	32503	33013	32690	33374	33266	33037	32900	
558	0	132	1239	29	1965	1904	0	32646	32501	32943	32715	32391	33039	32901	33431	
559	0	135	1227	29	1975	1905	0	32609	32526	33011	32799	32666	33551	33220	33583	
560	0	93	1260	28	2019	1906	0	32625	32647	33037	32666	33174	34240	32962	33455	
561	0	81	1284	29	1978	1907	0	32745	32762	32941	32689	32226	33997	32525	32683	
562	0	144	1282	29	1985	1908	0	32738	32817	32988	32681	33439	32902	32484	32795	
563	0	129	1265	30	1998	1909	0	32704	32789	32886	32551	32223	32131	32775	32786	
564	0	142	1265	29	1993	1910	0	32728	32581	32660	32568	32723	32248	32803	32700	
565	0	114	1226	29	1977	1911	0	32800	32641	32679	32517	33156	32732	32911	32481	
566	0	89	1221	29	1969	1912	0	32822	32656	32620	32415	32203	33025	32669	32778	
567	0	111	1239	29	1992	1913	0	32805	32829	32517	32497	33397	32543	32268	33189	
568	0	119	1267	29	1958	1914	0	32812	32797	32506	32599	32327	32135	32421	33309	
569	0	131	1213	31	1946	1915	0	32772	32774	32646	32471	32887	32367	32498	33137	
570	0	118	1230	28	1996	1916	0	32699	32762	32751	32658	32927	32221	32702	33135	
571	0	97	1217	29	2014	1917	0	32734	32599	32735	32748	32243	32253	32711	32831	
572	0	111	1269	31	1977	1918	0	32804	32719	32594	32740	33447	32737	32587	32363	
573	0	63	1234	29	1959	1919	0	32871	32885	32582	32903	32238	32863	32647	32585	
574	0	93	1253	29	1988	1920	0	32869	32826	32669	32991	32916	32839	32381	32792	
575	0	136	1248	28	1990	1921	0	32714	32723	32694	32902	32925	32378	31923	32421	
576	0	125	1253	28	2001	1922	0	32756	32721	32621	32773	32206	32098	32370	32516	
577	0	101	1253	29	1961	1923	0	32751	32775	32892	32963	33442	31943	33077	32999	
578	0	80	1213	29	1924	1924	0	32720	32767	32957	33093	32247	32351	33251	32930	
579	0	93	1234	30	1966	1925	0	32681	32644	32775	32871	32948	32474	33054	33019	
580	0	106	1253	30	1988	1926	0	32750	32551	32487	33044	32989	33014	32516	32455	
581	0	139	1307	28	1964	1927	0	32790	32804	32545	33074	32158	33568	32442	32330	
582	0	77	1269	28	2024	1928	0	32807	32815	32599	32939	33410	33844	32215	32719	
583	0	138	1245	29	1976	1929	0	32722	32763	32735	33024	32183	33755	33156	33238	
584	0	106	1212	28	2016	1930	0	32642	32726	32804	32950	32988	33396	33731	33399	
585	0	127	1290	30	1983	1931	0	32738	32747	32927	32612	32967	32825	33951	33385	
586	0	133	1267	28	2008	1932	0	32844	32727	32827	32997	32196	32519	32548	32844	
587	0	151	1327	28	2016	1933	0	32736	32669	32806	33031	33355	32667	32315	32775	
588	0	117	1253	29	1981	1934	0	32797	32587	32883	32762	32215	32822	32156	32935	
589	0	108	1273	28	1992	1935	0	32764	32767	32970	32965	33079	32791	31822	32326	
590	0	118	1221	29	1961	1936	0	32791	32812	32861	32674	32871	32983	31975	32039	
591	0	110	1243	29	1960	1937	0	32852	32893	32596	32783	32311	32797	32132	31494	
592	0	109	1261	28	1996	1938	0	33020	32895	32460	32732	33395	32596	32563	31441	
593	0	90	1277	29	2004	1939	0	32999	32751	32429	32731	32191	32823	32719	32149	
594	0	105	1236	29	1981	1940	0	32919	32655	32471	32870	32967	32423	32261	32706	
595	0	139	1244	29	1997	1941	0	32914	32749	32420	32745	32831	32861	32834	33249	
596	0	83	1259	29	2006	1942	0	32889	32767	32389	32599	32324	32951	33122	32617	
597	0	116	1262	30	1978	1943	0	32632	32645	32727	32754	33375	32293	33215	32578	
598	0	119	1291	28	1993	1944	0	32463	32470	32927	32775	32163	32059	33110	32882	
599	0	125	1228	28	1980	1945	0	32463	32557	32762	32718	32982	31814	32801	33159	
600	0	115	1252	29	1962	1946	0	32461	32637	32755	32711	32727	31957	32485	32415	
601	0	132	1264	29	1970	1947	0	32566	32589	32742	32647	32380	33024	32772	32719	
602	0	108	1281	28	1988	1948	0	32721	32614	32557	32849	33287	33330	32701	33047	
603	0	120	1220	29	1987	1949	0	32823	32677	32375	32822	32167	32929	32663	33111	
604	0	151	1245	27	1974	1950	0	32887	32759	32553	32925	33145	33820	32662	33269	
605	0	90	1265	28	1953	1951	0	32842	32774	32679	32693	32691	33894	32595	33019	
606	0	115	1304	29	1963	1952	0	32797	32673	32775	32800	32383	34336	32918	33159	
607	0	99	1250	29	1997	1953	0	32832	32683	32903	32863	33383	34535	32976	32627	
608	0	115	1245	29	1946	1954	0	32838	32807	33115	32635	32154	34049	33028	31863	
609	0	101	1304	28	1971	1955	0	32801	32681	32970	32713	33185	32796	32946	32391	
610	0	86	1252	28	2002	1956	0	32820	32663	32827	32775	32671	31578	32914	33319	
611	0	116	1245	28	1952	1957	0	32847	32647	32886	32652	32435	31807	32609	33716	
612	0	90	1257	30	1966	1958	0	32795	32591	32794	32719	33277	32463	32215	32987	
613	0	112	1221	28	1981	1959	0	32850	32817	32643	32788	32143	32253	32489	32826	
614	0	65	1230	29	1941	1960	0	32871	32838	32568	32722	33047	32070	32751	33535	
615	0	116	1273	28	1978	1961	0	32879	32759	32709	32685	32646	32031	33031	32716	
616	0	81	1263	29	1946	1962	0	32707	32634	32686	32762	32439	32319	33175	32174	
617	0	100	1238	29	1982	1963	0	32598	32564	32647	32641	33319	32281	33391	32287	
618	0	133	1270	29	1974	1964	0	32519	32559	32727	32566	32148	32262	33063	32527	
619	0	143	1256	29	2009	1965	0	32629	32548	32679	32687	33209	32279	32836	32854	
620	0	126	1269	30	1968	1966	0	32813	32503	32577	32509	32639	32582	32708	32493	
621	0	112	1202	29	1999	1967	0	32863	32595	32456	32690	32492	33083	32415	31717	
622	0	89	1235	30	1995	1968	0	32868	32775	32564	32762	33271	32975	32543	31492	
623	0	114	1248	29	1994	1969	0	32787	32775	32850	32614	32150	33138	32658	31809	
624	0	91	1253	28	2016	1970	0	32738	32759	32893	32575	33063	33637	32715	31799	
625	0	120	1244	29	1952	1971	0	32756	32709	32799	32749	32598	33634	32441	32093	
626	0	99	1245	30	2011	1972	0	32716	32740	32748	32682	32404	33679	32299	32587	
627	0	71	1280	28	1996	1973	0	32736	32607	32831	32935	33335	32851	32871	33166	
628	0	108	1236	30	1994	1974	0	32716	32431	32838	32962	32098	31542	32497	33021	
629	0	162	1288	30	1961	1975	0	32684	32429	32773	32659	33247	31608	32631	32739	
630	0	132	1253	28	1973	1976	0	32729	32570	32669	32887	32727	32615	32591	32832	
631	0	98	1262	28	1974	1977	0	32720	32678	32657	33036	32378	33330	32521	32527	
632	0	108	1243	29	1956	1978	0	32723	32684	32691	32775	33223	32625	32571	32031	
633	0	107	1229	29	1959	1979	0	32775	32687	32476	32871	32116	32655	32277	32065	
634	0	63	1247	29	1987	1980	0	32806	32772	32455	32989	33164	33188	32492	32119	
635	0	148	1241	30	1978	1981	0	32806	32775	32447	32743	32698	33943	32645	32239	
636	0	100	1252	29	1980	1982	0	32815	32783	32413	32836	32525	33693	32757	32365	
637	0	99	1256	29	1988	1983	0	32952	32641	32103	32919	33159	33622	32775	32874	
638	0	104	1226	29	1988	1984	0	32940	32511	32263	32551	32089	33237	32938	33060	
639	0	100	1234	27	2013	1985	0	32900	32483	32453	32733	33204	33491	32864	32892	
640	0	129	1221	29	2000	1986	0	32772	32508	32631	32839	32658	33193	32890	32519	
641	0	120	1280	28	1975	1987	0	32748	32563	32717	32858	32564	32895	32830	32614	
642	0	130	1252	28	1954	1988	0	32838	32755	32813	32646	33172	32515	32687	32743	
643	0	107	1226	28	1961	1989	0	32871	32767	32886	32712	32093	32297	32714	32885	
644	0	115	1218	28	1956	1990	0	32874	32741	32911	32738	33271	32153	32613	32917	
645	0	112	1311	29	1956	1991	0	32806	32829	33054	32583	32605	32359	32687	32576	
646	0	47	1266	28	1983	1992	0	32786	32722	33028	32800	32458	32609	32745	32615	
647	0	115	1276	29	1983	1993	0	32775	32795	32903	32855	33183	32323	32937	32921	
648	0	110	1254	30	2002	1994	0	32772	32598	32895	32592	32118	32447	32948	33481	
649	0	89	1277	29	1990	1995	0	32742	32683	32738	32671	33319	32553	32937	32783	
650	0	103	1235	29	1955	1996	0	32742	32620	32591	32771	32574	32571	32918	32464	
651	0	96	1239	31	1939	1997	0	32658	32734	32634	32739	32604	32527	32915	32498	
652	0	136	1242	30	2021	1998	0	32751	32748	32487	32743	33140	32459	32740	32638	
653	0	92	1262	29	1952	1999	0	32874	32631	32391	32867	32025	32560	32572	32808	
654	0	106	1274	28	1992	2000	0	32810	32723	32351	32638	33351	32550	32621	32839	
655	0	139	1244	28	2022	2001	0	32783	32627	32567	32835	32551	32599	32565	32780	
656	0	165	1268	28	1988	2002	0	32732	32477	32791	32871	32637	32652	32692	32893	
657	0	141	1233	30	1976	2003	0	32751	32525	32775	32587	33271	32637	32667	32745	
658	0	99	1243	29	1975	2004	0	32719	32557	32890	32615	32052	32673	32587	32672	
659	0	92	1245	29	2003	2005	0	32737	32667	33011	32685	33415	32735	32756	32743	
660	0	118	1245	29	1977	2006	0	32685	32719	33143	32556	32482	32676	32612	32391	
661	0	115	1303	28	2002	2007	0	32643	32705	32970	32786	32714	32756	32628	32343	
662	0	129	1280	30	2002	2008	0	32757	32861	32815	32834	33155	32795	32559	32231	
663	0	69	1200	30	1948	2009	0	32808	32850	32661	32619	32173	32839	32419	32446	
664	0	111	1268	29	2023	2010	0	32802	32697	32514	32793	33391	32787	32607	32679	
665	0	109	1272	29	1957	2011	0	32764	32591	32507	32850	32442	32703	32715	32687	
666	0	136	1256	29	1998	2012	0	32749	32637	32671	32596	32738	32706	32890	32802	
667	0	65	1242	28	1983	2013	0	32722	32587	32593	32747	33103	32506	32956	32717	
668	0	143	1256	28	1959	2014	0	32708	32589	32589	32825	32198	32617	32765	32460	
669	0	107	1278	29	1967	2015	0	32713	32663	32571	32883	33375	32961	32694	32655	
670	0	80	1245	28	1991	2016	0	32783	32647	32510	32667	32326	32811	32855	32703	
671	0	26	1206	28	1968	2017	0	32734	32737	32615	32686	32717	32876	32751	32695	
672	0	95	1252	30	1981	2018	0	32719	32683	32543	32711	33159	32815	32716	32447	
673	0	99	1256	29	1932	2019	0	32784	32711	32402	32528	32207	32508	32609	32508	
674	0	130	1268	29	1965	2020	0	32779	32722	32552	32625	33247	32463	32668	32593	
675	0	135	1238	29	1965	2021	0	32700	32775	32719	32606	32403	32377	32489	32453	
676	0	109	1271	28	1952	2022	0	32598	32644	32791	32587	32786	32397	32729	32449	
677	0	83	1252	29	1936	2023	0	32610	32731	32771	32631	33127	32484	32789	33159	
678	0	76	1278	30	1988	2024	0	32663	32646	32654	32727	32233	32787	32855	33793	
679	0	125	1248	28	2023	2025	0	32623	32459	32797	32717	33250	32712	33079	34005	
680	0	135	1299	28	1956	2026	0	32745	32739	32759	32869	32279	32611	33411	34168	
681	0	118	1215	28	1961	2027	0	32771	32698	32828	32925	32803	32773	33256	32878	
682	0	130	1253	28	1942	2028	0	32797	32734	32903	32695	33111	32901	32851	32292	
683	0	66	1261	29	1964	2029	0	32684	32681	32888	32831	32217	32858	32121	31476	
684	0	143	1234	29	1950	2030	0	32769	32726	32844	32895	33407	33213	32311	31187	
685	0	109	1237	29	2009	2031	0	32922	32861	32735	32687	32242	33267	32720	31511	
686	0	127	1259	29	2001	2032	0	32804	32792	32759	32772	32757	32658	32367	31181	
687	0	87	1215	29	2018	2033	0	32871	32643	32522	32655	33157	32556	32271	31325	
688	0	106	1301	29	1965	2034	0	32804	32634	32657	32375	32217	32271	32349	31748	
689	0	112	1235	29	1956	2035	0	32806	32493	32727	32518	33423	31709	32335	31815	
690	0	56	1264	30	1961	2036	0	32716	32545	32833	32631	32199	32325	32603	32684	
691	0	108	1225	29	1978	2037	0	32663	32546	33016	32450	32885	32668	32721	32787	
692	0	92	1264	29	1971	2038	0	32805	32667	33007	32626	33047	32827	32815	32733	
693	0	99	1192	29	2002	2039	0	32719	32717	32877	32742	32261	33002	32797	33334	
694	0	77	1237	28	1959	2040	0	32715	32647	32789	32687	33428	34321	32935	33647	
695	0	91	1275	29	1980	2041	0	32754	32655	32621	32823	32153	33903	32915	33589	
696	0	121	1281	29	1989	2042	0	32698	32709	32537	32860	32845	33594	32871	33460	
697	0	65	1255	30	1975	2043	0	32735	32631	32495	32593	33093	33945	33175	33535	
698	0	106	1266	28	1964	2044	0	32696	32576	32582	32712	32236	33315	33087	33601	
699	0	115	1193	29	1969	2045	0	32625	32429	32655	32835	33425	32827	33159	33349	
700	0	130	1218	29	1977	2046	0	32622	32471	32623	32671	32180	32949	33065	33111	
701	0	138	1244	28	1967	2047	0	32598	32738	32630	32799	32767	32559	33018	32903	
702	0	102	1257	29	1938	2048	0	32745	32679	32463	32785	33075	32399	32708	32660	
703	0	113	1256	29	1928	2049	0	32786	32702	32126	32808	32215	32507	32457	32431	
704	0	118	1281	29	1998	2050	0	32793	32715	32279	32554	33447	32684	32359	32335	
705	0	118	1212	29	1964	2051	0	32805	32703	32479	32425	32167	32532	32511	32772	
706	0	99	1237	29	2027	2052	0	32820	32737	32613	32642	32815	32379	32491	32664	
707	0	120	1265	29	1966	2053	0	32815	32741	32884	32727	33055	32405	32278	32580	
708	0	62	1266	29	1976	2054	0	32807	32634	32985	32604	32244	32420	32545	32945	
709	0	114	1215	29	1940	2055	0	32766	32604	32996	32745	33377	32471	32565	32879	
710	0	100	1221	29	2005	2056	0	32712	32839	33026	32759	32253	32541	32689	32510	
711	0	116	1223	28	2048	2057	0	32816	32781	33035	32775	32959	32485	32682	32507	
712	0	114	1247	30	1965	2058	0	32761	32772	32929	32791	32991	32523	32407	32579	
713	0	113	1266	30	1983	2059	0	32861	32815	32996	32690	32295	32619	32534	32309	
714	0	146	1241	29	1956	2060	0	32919	32645	32703	32756	33425	32735	32771	32274	
715	0	92	1260	29	1961	2061	0	32807	32748	32771	32839	32127	32735	32722	32305	
716	0	102	1229	29	2020	2062	0	32784	32751	32663	32615	32916	32749	32734	32359	
717	0	121	1241	29	1988	2063	0	32722	32706	32707	32727	32813	32751	32881	32427	
718	0	128	1251	29	1974	2064	0	32690	32582	32662	32415	32326	32820	32850	32702	
719	0	109	1291	28	1961	2065	0	32605	32626	32775	32551	33426	32711	32915	32605	
720	0	116	1244	30	2004	2066	0	32620	32631	32622	32676	32135	32723	32790	32330	
721	0	120	1257	29	2000	2067	0	32647	32583	32609	32471	33023	32821	32687	32423	
722	0	92	1239	29	1979	2068	0	32742	32759	32710	32725	32882	32853	32801	32591	
723	0	94	1241	28	1983	2069	0	32749	32773	32925	32673	32387	32875	32824	32799	
724	0	121	1252	29	1984	2070	0	32713	32747	32959	32535	33295	32797	32829	33067	
725	0	109	1244	29	1976	2071	0	32804	32821	32952	32903	32114	32954	32705	33185	
726	0	111	1243	29	2023	2072	0	32786	32851	32714	32895	33095	32900	32506	33075	
727	0	120	1259	30	1974	2073	0	32705	32695	32460	32879	32852	32766	32692	32803	
728	0	99	1202	28	2004	2074	0	32702	32623	32412	32885	32308	32749	32523	32545	
729	0	96	1265	30	1968	2075	0	32709	32479	32391	32708	33391	32743	32774	32533	
730	0	145	1221	29	1972	2076	0	32701	32471	32471	32717	32148	32607	32967	32322	
731	0	111	1284	28	1974	2077	0	32864	32711	32287	32782	32969	32626	32841	32322	
732	0	115	1291	29	1961	2078	0	32964	32786	32207	32569	32737	32573	32844	32579	
733	0	85	1256	29	1951	2079	0	33119	32877	32299	32743	32365	32701	32598	32876	
734	0	115	1221	29	1949	2080	0	33043	32832	32596	32741	33347	32793	32581	33047	
735	0	111	1258	29	1975	2081	0	32918	32823	32717	32512	32171	32664	32566	33212	
736	0	102	1269	29	1999	2082	0	32880	32893	32666	32630	33177	32671	32695	33095	
737	0	122	1274	29	1977	2083	0	32739	32591	32635	32775	32807	32471	32734	32998	
738	0	125	1242	29	1972	2084	0	32862	32619	32479	32545	32293	31911	32680	32859	
739	0	104	1257	28	1955	2085	0	32935	32820	32541	32766	33267	31779	32687	32613	
740	0	102	1251	29	1968	2086	0	32943	32821	32552	32595	32119	32431	32434	32278	
741	0	126	1276	29	1993	2087	0	32990	32759	32646	32587	33167	32544	32513	32185	
742	0	114	1271	29	1956	2088	0	32912	32727	32674	32671	32775	32797	32339	31988	
743	0	108	1256	29	1968	2089	0	32896	32705	32555	32748	32421	33321	32543	32723	
744	0	131	1208	29	1996	2090	0	32866	32647	32599	32753	33295	33622	32519	32731	
745	0	122	1239	29	1991	2091	0	32765	32459	32783	32599	32153	33871	32704	33094	
746	0	94	1253	30	1959	2092	0	32730	32586	32797	32692	33140	33972	32705	33159	
747	0	104	1233	30	2001	2093	0	32733	32468	32859	32607	32775	33839	32412	32257	
748	0	107	1214	29	1967	2094	0	32720	32416	32608	32634	32290	33799	32540	32263	
749	0	101	1249	30	1986	2095	0	32692	32361	32556	32516	33381	33435	32567	32507	
750	0	124	1232	30	1979	2096	0	32604	32245	32571	32679	32066	33117	32698	32838	
751	0	106	1255	30	2018	2097	0	32536	32148	32594	32772	33193	32885	32745	32428	
752	0	160	1277	29	1937	2098	0	32571	32135	32517	32439	32757	32525	33063	32357	
753	0	106	1196	28	1977	2099	0	32617	32324	32647	32535	32336	33287	33177	32937	
754	0	108	1248	28	1956	2100	0	32705	32411	32471	32762	33338	33310	33042	33220	
755	0	145	1258	28	1978	2101	0	32646	32387	32350	32631	32156	32517	32892	32929	
756	0	80	1237	29	2017	2102	0	32568	32329	32496	32670	33129	32583	32747	32212	
757	0	113	1201	29	1989	2103	0	32474	32367	32551	32903	32724	32879	32877	32085	
758	0	111	1215	29	1969	2104	0	32390	32391	32735	33017	32505	32930	33054	32692	
759	0	73	1241	29	1936	2105	0	32456	32375	32647	33151	33209	32643	33285	33380	
760	0	139	1247	30	1994	2106	0	32492	32423	32743	33247	32101	32340	33190	33743	
761	0	120	1246	30	2005	2107	0	32495	32699	32827	32963	33266	32346	32858	33151	
762	0	139	1260	29	1974	2108	0	32506	32738	32807	33078	32607	32453	32921	32931	
763	0	112	1261	30	2005	2109	0	32516	32709	32811	32999	32489	32263	33003	32982	
764	0	91	1270	28	1947	2110	0	32512	32892	32695	33069	33338	32278	32847	32630	
765	0	108	1256	29	1967	2111	0	32681	32849	32925	33269	32135	32549	32999	32653	
766	0	112	1189	30	1990	2112	0	32647	32887	33192	33006	33159	32745	33045	32802	
767	0	126	1269	29	1964	2113	0	32593	32879	33294	33217	32669	32895	33102	32514	
768	0	101	1242	30	1942	2114	0	32468	32921	33488	33499	32508	32855	33143	32481	
769	0	103	1246	28	1985	2115	0	32237	33019	33755	33259	33223	32687	32948	32524	
770	0	91	1250	30	1949	2116	0	32266	32903	33639	33298	32098	32722	33167	32461	
771	0	124	1244	29	2016	2117	0	32335	32897	33582	32979	33287	32771	33122	32617	
772	0	125	1216	29	1931	2118	0	32373	32775	33551	33175	32530	32604	33039	32835	
773	0	103	1258	29	1987	2119	0	32518	32772	33191	33212	32437	32596	32942	32605	
774	0	161	1262	29	2021	2120	0	32888	33091	32969	32919	33150	32621	32717	32617	
775	0	94	1249	30	1970	2121	0	33201	33079	33079	32818	32092	32646	32349	32460	
776	0	132	1289	29	1973	2122	0	33253	33159	33269	32493	33345	32615	32399	32565	
777	0	101	1248	29	1985	2123	0	33055	33159	33266	32599	32493	32510	32357	32423	
778	0	116	1239	29	1989	2124	0	33017	33018	33116	32508	32615	32458	32423	32487	
779	0	130	1229	28	2028	2125	0	33058	32929	32823	32341	33119	32594	32415	32407	
780	0	89	1262	30	1956	2126	0	33150	32843	32582	32411	32058	32690	32316	32444	
781	0	111	1278	29	1962	2127	0	33238	32963	32157	32463	33364	32695	32340	32391	
782	0	105	1280	29	1968	2128	0	33369	33059	32003	32148	32485	32623	32231	32271	
783	0	139	1254	29	1970	2129	0	33409	33091	32066	32361	32645	32663	32285	32114	
784	0	74	1275	29	1988	2130	0	33433	33138	32045	32463	33281	32615	32287	32293	
785	0	141	1270	28	1971	2131	0	33353	33151	32095	32284	32041	32613	32259	32313	
786	0	115	1275	29	2015	2132	0	33201	32810	32543	32479	33195	32642	32438	32354	
787	0	50	1245	28	1983	2133	0	33085	32759	32455	32263	32518	32647	32407	32431	
788	0	84	1273	29	1969	2134	0	33011	32911	32327	32245	32576	32658	32513	32337	
789	0	104	1252	29	2010	2135	0	33021	32895	32471	32503	33281	32716	32535	32602	
790	0	100	1289	28	1995	2136	0	32871	32859	32679	32647	32033	32671	32700	32810	
791	0	57	1277	31	2009	2137	0	32973	32756	32551	32638	33379	32708	32737	32799	
792	0	98	1259	30	2002	2138	0	32903	32679	32359	32757	32437	32719	32759	32783	
793	0	118	1283	29	1972	2139	0	32784	32557	32576	32917	32711	32858	32839	32718	
794	0	100	1215	29	2007	2140	0	32628	32567	32727	32979	33257	32999	32635	32763	
795	0	122	1281	29	1989	2141	0	32609	32479	32759	32919	32094	32920	32786	32895	
796	0	97	1264	30	1964	2142	0	32619	32506	32890	32952	33383	32739	32546	32720	
797	0	60	1259	28	2016	2143	0	32680	32479	32891	32823	32500	32749	32579	32597	
798	0	111	1244	29	2032	2144	0	32585	32479	32842	33118	32607	32643	32521	32506	
799	0	153	1236	29	2010	2145	0	32470	32476	32885	33042	33159	32606	32615	32684	
800	0	129	1220	28	2012	2146	0	32489	32613	32841	32749	32183	32700	32714	32886	
801	0	126	1274	29	1968	2147	0	32588	32676	32517	32732	33380	32748	32964	33185	
802	0	106	1232	29	2022	2148	0	32587	32571	32685	32775	32463	32553	32988	32956	
803	0	75	1228	29	1958	2149	0	32383	32407	32999	32441	32610	32379	32980	32640	
804	0	116	1251	28	1971	2150	0	32576	32493	32598	32627	33095	32447	32963	32855	
805	0	131	1266	29	2002	2151	0	32739	32685	32485	32718	32208	32662	32742	32878	
806	0	98	1227	29	1956	2152	0	32860	32612	32356	32629	33321	32869	32983	32929	
807	0	118	1297	29	2002	2153	0	32834	32621	32471	32855	32375	32855	32858	32851	
808	0	92	1218	29	1980	2154	0	32797	32783	32493	32862	32764	32723	32579	32718	
809	0	125	1256	29	1962	2155	0	32772	32775	32877	32919	33201	32903	32593	32335	
810	0	93	1241	30	1987	2156	0	32807	32669	32972	32802	32094	33126	32687	32375	
811	0	67	1224	29	1944	2157	0	32708	32576	32972	32685	33441	33484	32745	32378	
812	0	81	1254	31	1979	2158	0	32692	32582	33095	32662	32359	33427	32853	32340	
813	0	135	1234	30	1986	2159	0	32602	32635	33052	32879	32787	33131	32820	32566	
814	0	115	1217	29	2005	2160	0	32687	32647	32757	32775	33197	32801	32723	32658	
815	0	125	1222	29	2022	2161	0	32829	32640	32687	32395	32087	32745	32596	32551	
816	0	118	1310	29	2039	2162	0	32706	32509	32687	32629	33269	33079	32833	32604	
817	0	108	1202	29	1976	2163	0	32749	32475	32733	32687	32364	33037	32868	32718	
818	0	123	1241	28	1959	2164	0	32622	32548	32621	32548	32825	32873	32621	32614	
819	0	110	1240	28	2020	2165	0	32590	32722	32667	32775	33117	32854	32831	32563	
820	0	98	1242	29	2002	2166	0	32684	32638	32541	32670	32222	32815	32647	32700	
821	0	76	1251	29	2000	2167	0	32687	32615	32358	32775	33428	32804	32759	32647	
822	0	130	1273	28	2005	2168	0	32701	32646	32510	32743	32261	32699	32703	32636	
823	0	124	1254	29	1958	2169	0	32785	32738	32708	32803	32762	32742	32685	32525	
824	0	131	1266	30	1974	2170	0	32859	32647	32751	32668	33204	33087	32809	32611	
825	0	148	1261	28	1998	2171	0	32927	32775	32962	32749	32204	32983	32734	32513	
826	0	115	1231	30	1990	2172	0	32847	32786	33036	32823	33396	32628	32754	32635	
827	0	135	1219	28	2008	2173	0	32756	32701	33035	32519	32375	32567	32627	33045	
828	0	105	1238	29	1968	2174	0	32788	32667	32841	32767	32875	32570	32701	33370	
829	0	98	1284	30	2004	2175	0	32824	32867	32877	32623	33143	32455	32615	33415	
830	0	75	1282	29	2005	2176	0	32785	32736	32880	32580	32270	32102	32545	33479	
831	0	91	1280	28	1966	2177	0	32769	32766	32839	32623	33415	32351	32734	33397	
832	0	139	1248	29	1964	2178	0	32767	32667	32801	32583	32170	32175	32679	32948	
833	0	124	1230	28	2022	2179	0	32710	32530	32601	32762	32885	31800	32527	32637	
834	0	111	1197	28	2023	2180	0	32614	32347	32554	32694	33111	31622	32705	32419	
835	0	136	1278	29	1973	2181	0	32568	32418	32647	32557	32271	32190	32740	32279	
836	0	109	1267	29	1970	2182	0	32607	32553	32383	32775	33385	32558	32835	32039	
837	0	103	1203	29	1984	2183	0	32613	32571	32487	32859	32252	32951	32930	31988	
838	0	137	1267	30	1998	2184	0	32777	32596	32657	32604	32947	33477	32743	31935	
839	0	85	1279	28	1977	2185	0	32766	32598	32791	32774	32894	33811	32796	31731	
840	0	103	1272	28	1977	2186	0	32766	32666	32847	32881	32191	33708	32634	32091	
841	0	94	1230	29	2035	2187	0	32774	32638	32817	32633	33455	33744	32821	32311	
842	0	90	1235	29	1984	2188	0	32742	32627	32899	32877	32221	34294	32974	32385	
843	0	125	1241	29	1977	2189	0	32848	32735	32719	32826	32991	33839	32775	32887	
844	0	164	1267	29	1984	2190	0	32858	32667	32803	32587	33009	33245	32710	32731	
845	0	103	1261	29	1980	2191	0	32889	32734	32849	32531	32170	32682	32709	32844	
846	0	125	1230	30	1984	2192	0	32856	32664	32879	32838	33439	32833	32765	32775	
847	0	106	1242	30	2014	2193	0	32839	32698	32962	32855	32145	32895	32612	32520	
848	0	125	1254	30	1950	2194	0	32922	32903	32887	32702	32995	32674	32775	33119	
849	0	114	1257	29	2016	2195	0	32770	32737	32581	32928	32951	32263	32903	33151	
850	0	133	1229	30	2013	2196	0	32778	32676	32536	32764	32319	32635	32991	32574	
851	0	107	1215	30	1955	2197	0	32739	32519	32568	32807	33271	32965	32869	32286	
852	0	132	1232	28	2030	2198	0	32692	32647	32647	32915	32095	32821	32493	32307	
853	0	143	1185	29	1933	2199	0	32772	32743	32617	32935	33070	32787	32699	32703	
854	0	132	1222	29	1996	2200	0	32727	32671	32714	32509	32859	32929	32740	33367	
855	0	118	1256	29	2018	2201	0	32794	32508	32535	32702	32320	32755	32749	33455	
856	0	99	1282	29	2006	2202	0	32836	32508	32573	32793	33414	32511	32846	33644	
857	0	136	1191	29	1977	2203	0	32778	32555	32549	32611	32047	32640	32745	32956	
858	0	100	1248	30	1930	2204	0	32708	32538	32442	32699	33063	32796	32855	32973	
859	0	88	1277	29	1929	2205	0	32732	32669	32404	32787	32887	32511	32671	33179	
860	0	110	1244	29	2024	2206	0	32841	32731	32319	32601	32258	32338	32747	32791	
861	0	100	1221	29	2011	2207	0	32839	32730	32408	32694	33365	32407	32709	32551	
862	0	84	1239	30	1975	2208	0	32805	32738	32607	32667	32192	32535	32679	32263	
863	0	134	1247	29	1935	2209	0	32668	32727	32707	32519	33101	32508	32743	32455	
864	0	81	1263	29	2018	2210	0	32594	32741	32740	32523	32765	32543	32715	32553	
865	0	139	1197	29	1991	2211	0	32741	32707	32813	32639	32372	32587	32709	32658	
866	0	108	1266	28	1987	2212	0	32732	32671	33007	32506	33335	32677	32493	32427	
867	0	99	1238	29	1948	2213	0	32734	32619	32943	32615	32127	32698	32593	32164	
868	0	86	1266	28	1954	2214	0	32807	32763	32831	32700	33129	32679	32701	32574	
869	0	92	1270	29	1971	2215	0	32879	32710	32623	32751	32855	32630	32663	32854	
870	0	97	1304	27	1981	2216	0	33098	32785	32528	32834	32391	32681	32617	32871	
871	0	102	1222	29	1996	2217	0	33096	32669	32695	32669	33377	32755	32581	32717	
872	0	102	1264	30	1944	2218	0	32828	32562	32935	32809	32007	32807	32636	32398	
873	0	121	1264	28	1954	2219	0	32752	32605	32911	32871	33115	32788	32617	32271	
874	0	82	1287	28	1995	2220	0	32672	32670	32851	32615	32811	32923	32754	32647	
875	0	104	1268	27	1963	2221	0	32599	32574	32653	32743	32451	32917	32935	32903	
876	0	142	1194	29	1989	2222	0	32705	32574	32611	32615	33275	32759	32839	32601	
877	0	136	1253	30	1984	2223	0	32781	32506	32731	32599	32083	32522	32830	32719	
878	0	120	1254	28	1983	2224	0	32753	32506	32840	32641	33172	32677	32863	32721	
879	0	137	1272	29	1952	2225	0	32655	32721	33111	32628	32756	32663	32955	32985	
880	0	121	1253	30	1993	2226	0	32608	32767	33185	32922	32367	32492	32737	32488	
881	0	94	1249	30	2009	2227	0	32820	32694	33158	33087	33238	32497	32443	32772	
882	0	115	1239	30	1930	2228	0	32903	32717	33071	32925	32127	32501	32346	32766	
883	0	111	1287	28	1985	2229	0	32705	32711	33135	33138	33198	32425	32569	32724	
884	0	127	1228	30	1975	2230	0	32646	32831	33025	33120	32716	32583	32703	33047	
885	0	91	1265	29	1950	2231	0	32607	32606	32992	32861	32523	32585	32965	33071	
886	0	125	1263	29	1967	2232	0	32605	32557	32717	32919	33203	32679	33155	32943	
887	0	97	1272	29	1962	2233	0	32605	32783	32791	32671	31988	33204	32807	32937	
888	0	87	1294	28	2021	2234	0	32600	32606	32619	32725	33174	33303	32598	32466	
889	0	131	1242	28	1980	2235	0	32792	32607	32501	32679	32665	33275	32306	32092	
890	0	147	1249	28	1994	2236	0	32852	32671	32590	32399	32576	33119	32391	31771	
891	0	154	1234	27	1993	2237	0	32856	32601	32510	32565	33283	32703	32447	31487	
892	0	131	1249	29	2019	2238	0	32837	32590	32399	32692	32128	32540	32487	31394	
893	0	100	1244	29	1982	2239	0	32996	32555	32353	32350	33127	32671	32578	31783	
894	0	103	1242	30	2016	2240	0	32952	32493	32250	32620	32667	32595	32612	32314	
895	0	122	1195	29	1979	2241	0	32783	32615	32560	32644	32527	32559	33193	33082	
896	0	132	1252	29	2006	2242	0	32749	32807	32541	32415	33325	32158	32815	33439	
897	0	134	1279	29	1963	2243	0	32704	32767	32565	32557	32143	31751	33193	33749	
898	0	106	1252	29	1982	2244	0	32721	32709	32463	32811	33156	31945	33097	33415	
899	0	116	1232	30	1976	2245	0	32852	32707	32289	32551	32617	32633	32775	33258	
900	0	106	1227	29	1956	2246	0	32786	32723	32443	32755	32485	32712	32253	32647	
901	0	137	1258	29	1976	2247	0	32728	32709	32687	32933	33300	32795	31855	32259	
902	0	125	1250	30	1968	2248	0	32730	32554	32647	32662	32132	33182	32507	33242	
903	0	117	1242	29	1989	2249	0	32746	32596	32369	32943	33170	33436	32896	33525	
904	0	100	1215	30	1977	2250	0	32844	32751	32519	33103	32554	34779	33159	33123	
905	0	122	1259	29	2004	2251	0	32871	32765	32727	32812	32598	34891	33054	32562	
906	0	107	1284	29	1966	2252	0	32730	32671	32791	32935	33233	34037	32821	32181	
907	0	107	1261	29	2004	2253	0	32767	32795	32757	32743	32135	33476	32861	32154	
908	0	114	1236	29	1989	2254	0	32775	32766	32807	32903	33330	32954	32786	32372	
909	0	105	1254	29	1987	2255	0	32743	32573	32804	32927	32459	32515	32837	32155	
910	0	108	1260	28	2019	2256	0	32724	32652	32808	32671	32482	32790	32935	32487	
911	0	128	1275	28	1992	2257	0	32683	32834	32882	32691	33271	33090	32701	32553	
912	0	108	1249	29	1958	2258	0	32640	32715	32820	32479	32125	32454	32741	32988	
913	0	100	1260	29	1994	2259	0	32716	32602	32685	32511	33322	32388	32679	33283	
914	0	112	1235	29	2008	2260	0	32766	32637	32671	32788	32557	32315	32707	33151	
915	0	126	1240	29	1925	2261	0	32730	32686	32647	32578	32668	32364	32647	32715	
916	0	106	1211	31	1957	2262	0	32743	32461	32748	32786	33123	32335	32583	32541	
917	0	89	1232	28	1998	2263	0	32786	32565	32855	32917	32152	32272	32499	32559	
918	0	99	1235	29	1937	2264	0	32810	32674	32745	32681	33327	32397	32389	32423	
919	0	121	1253	28	1955	2265	0	32768	32803	32534	32663	32457	32491	32415	32669	
920	0	110	1232	29	2016	2266	0	32712	32703	32588	32804	32690	32367	32577	32593	
921	0	117	1249	29	1976	2267	0	32681	32692	32611	32528	33270	32309	32669	32491	
922	0	119	1265	29	1971	2268	0	32694	32707	32551	32605	32052	32325	32796	32421	
923	0	112	1237	29	1995	2269	0	32710	32599	32628	32584	33258	32397	32903	32614	
924	0	98	1282	29	2018	2270	0	32765	32671	32790	32641	32410	32433	32971	32974	
925	0	136	1229	29	1995	2271	0	32663	32738	32785	32750	32784	32602	32844	33061	
926	0	73	1229	29	1961	2272	0	32643	32722	32709	32449	33154	32983	32727	33222	
927	0	93	1274	27	2013	2273	0	32706	32645	32647	32541	32203	32894	32551	33014	
928	0	127	1216	29	1979	2274	0	32809	32751	32767	32467	33415	32939	32615	33081	
929	0	127	1244	28	1990	2275	0	32802	32567	32647	32585	32409	33099	32566	32985	
930	0	119	1235	29	2010	2276	0	32815	32585	32583	32815	32663	33031	32849	32783	
931	0	115	1228	29	2018	2277	0	32832	32638	32419	32903	33124	32431	32891	32823	
932	0	113	1213	28	1967	2278	0	32814	32721	32287	32740	32215	31895	32857	32876	
933	0	123	1227	30	1957	2279	0	32802	32729	32334	32985	33335	32173	32775	32895	
934	0	83	1282	29	1966	2280	0	32751	32673	32343	32913	32359	32527	32719	32742	
935	0	111	1232	29	1966	2281	0	32812	32762	32443	33013	32813	32693	32557	32572	
936	0	139	1263	29	1944	2282	0	32815	32565	32697	33111	33171	32819	32767	32317	
937	0	100	1312	28	1989	2283	0	32761	32555	32823	33053	32130	32599	32869	32377	
938	0	144	1272	29	1973	2284	0	32679	32599	32796	33058	33261	32404	32703	32721	
939	0	101	1205	29	2057	2285	0	32789	32731	32903	33037	32363	32625	32310	32207	
940	0	98	1252	28	1981	2286	0	32741	32625	33116	32759	32852	32863	32295	31598	
941	0	123	1271	30	1969	2287	0	32687	32762	33227	32925	33134	33254	32531	31735	
942	0	83	1268	29	1969	2288	0	32772	32679	33238	32892	32252	33861	32977	32343	
943	0	140	1246	28	1989	2289	0	32766	32625	33049	32711	33350	34130	33463	32697	
944	0	108	1252	29	1969	2290	0	32740	32784	32869	32837	32319	33479	33415	32675	
945	0	109	1273	28	1988	2291	0	32686	32847	32705	32903	32802	33230	33370	32511	
946	0	117	1253	29	1994	2292	0	32690	32735	32675	32578	32923	33535	33029	32607	
947	0	95	1225	29	1945	2293	0	32662	32671	32621	32713	32238	33143	32943	32324	
948	0	133	1246	28	1984	2294	0	32774	32737	32722	32703	33433	32743	33504	32402	
949	0	78	1271	29	2015	2295	0	32856	32805	32629	32595	32246	32574	33284	32732	
950	0	101	1253	29	1940	2296	0	32809	32703	32730	32620	32952	32114	32538	32876	
951	0	93	1285	29	2002	2297	0	32804	32625	32822	32431	33047	31455	32477	33115	
952	0	102	1218	29	1957	2298	0	32742	32782	32829	32646	32287	32374	32361	33190	
953	0	121	1241	28	1998	2299	0	32764	32655	32671	32647	33287	32318	31764	32535	
954	0	96	1272	28	2000	2300	0	32676	32695	32700	32643	32118	32258	31260	32314	
955	0	107	1259	30	1981	2301	0	32655	32519	32698	32720	32895	32381	30450	32441	
956	0	89	1266	29	1974	2302	0	32671	32439	32839	32579	32999	31990	29831	32431	
957	0	145	1181	29	1991	2303	0	32685	32514	32676	32804	32300	32391	29732	32705	
958	0	82	1238	28	1948	2304	0	32734	32623	32690	32679	33407	32871	30316	33121	
959	0	71	1222	29	1987	2305	0	32798	32655	32659	32847	32167	32487	32381	33268	
960	0	90	1247	28	2013	2306	0	32808	32766	32513	32897	33014	33303	35091	33487	
961	0	119	1246	29	1961	2307	0	32786	32745	32293	32927	32979	33222	35718	33331	
962	0	104	1273	28	1993	2308	0	32684	32644	32349	32929	32202	32876	33825	32788	
963	0	135	1252	29	2016	2309	0	32794	32615	32482	32694	33265	33154	33143	32799	
964	0	139	1237	28	1977	2310	0	32808	32815	32559	32802	32073	33580	33815	33148	
965	0	74	1268	29	2010	2311	0	32789	32736	32484	32551	32955	33791	33423	32845	
966	0	131	1254	30	2005	2312	0	32850	32823	32602	32659	32733	34131	33099	32803	
967	0	103	1278	30	1951	2313	0	32808	32591	32718	32500	32239	33835	32712	32871	
968	0	98	1272	30	1981	2314	0	32730	32770	32730	32661	33229	32758	33415	33526	
969	0	116	1244	29	1976	2315	0	32793	32783	32773	32827	32022	32875	34221	33636	
970	0	121	1254	30	1998	2316	0	32898	32840	32620	32903	33039	32471	34039	32727	
971	0	135	1240	30	1974	2317	0	32873	32756	32719	32833	32687	32107	33863	32246	
972	0	100	1265	29	2000	2318	0	32794	32852	32978	32871	32391	31751	33502	31495	
973	0	128	1236	31	1991	2319	0	32768	32761	33119	32900	33369	31223	33563	31773	
974	0	83	1311	29	1960	2320	0	32740	32793	33175	32581	32132	31451	32184	31000	
975	0	112	1261	29	2041	2321	0	32735	32669	33010	32645	33191	32198	31498	31638	
976	0	134	1277	29	2001	2322	0	32623	32535	33021	32633	32743	32599	32321	32711	
977	0	118	1209	28	2003	2323	0	32671	32440	33071	32737	32455	32937	33172	33006	
978	0	119	1224	28	1987	2324	0	32713	32447	32784	32759	33223	32877	33619	32925	
979	0	113	1247	29	1956	2325	0	32687	32679	32613	32412	31983	32852	33468	32995	
980	0	67	1232	29	1996	2326	0	32716	32658	32608	32535	33127	32871	32638	32818	
981	0	95	1251	28	1977	2327	0	32735	32688	32566	32595	32701	32866	31975	32789	
982	0	81	1242	28	1924	2328	0	32806	32852	32442	32380	32500	32677	31819	32689	
983	0	103	1236	29	2012	2329	0	32806	32869	32491	32615	33347	32599	32003	32803	
984	0	127	1229	29	1963	2330	0	32795	32850	32669	32806	32150	32734	32271	32784	
985	0	114	1232	28	1984	2331	0	32726	32743	32553	32812	33104	32655	32449	32743	
986	0	100	1253	29	1984	2332	0	32797	32659	32559	32935	32575	32535	32221	32762	
987	0	117	1245	29	1954	2333	0	32885	32723	32479	32924	32501	32501	32371	32701	
988	0	86	1261	29	1955	2334	0	32878	32749	32559	32726	33303	32793	31989	32531	
989	0	112	1278	28	2011	2335	0	32850	32807	32519	32811	32108	33003	32271	32655	
990	0	124	1230	28	1998	2336	0	32721	32751	32334	32844	33258	32929	32607	32279	
991	0	123	1213	29	1987	2337	0	32829	32805	32419	32578	32691	32695	32519	32391	
992	0	114	1239	31	1979	2338	0	32844	32808	32461	32817	32421	32626	32153	32428	
993	0	97	1250	28	1947	2339	0	32736	32566	32844	32631	33170	32759	32215	32483	
994	0	111	1312	29	2005	2340	0	32727	32600	33031	32809	32066	32881	32318	32401	
995	0	94	1277	30	1949	2341	0	32893	32833	32903	32886	33299	32643	32975	32679	
996	0	133	1231	30	1960	2342	0	32943	32827	32735	32409	32647	33223	33287	33023	
997	0	128	1294	30	1982	2343	0	32781	32745	33042	32692	32484	33287	32204	32878	
998	0	92	1240	29	1994	2344	0	32640	32610	33033	32887	33250	32950	31628	32807	
999	0	99	1266	29	2025	2345	0	32495	32505	32851	32897	32139	32807	31518	32572	
1000	0	98	1261	28	1961	2346	0	32532	32455	32939	32816	33321	32671	31352	32720	
1001	0	130	1266	30	1978	2347	0	32689	32566	32754	32708	32454	32991	31354	32799	
1002	0	88	1227	29	1979	2348	0	32848	32837	32500	32935	32493	32597	33625	32434	
1003	0	114	1290	29	2037	2349	0	32816	32839	32679	32826	33135	32325	35173	32627	
1004	0	139	1257	28	2016	2350	0	32690	32821	32863	32756	32097	32775	34902	32692	
1005	0	81	1268	29	1951	2351	0	32692	32817	32876	32750	33358	32175	34847	32557	
1006	0	112	1276	28	1982	2352	0	32757	32681	32705	32799	32513	32082	36107	32823	
1007	0	84	1238	29	2028	2353	0	32775	32613	32559	32746	32684	32783	35287	33082	
1008	0	125	1226	28	1979	2354	0	32644	32595	32783	32530	33255	33277	33232	32991	
1009	0	139	1263	29	2027	2355	0	32699	32791	32617	32563	32031	33575	32400	32919	
1010	0	135	1273	30	1964	2356	0	32760	32755	32758	32775	33220	33698	32193	32695	
1011	0	109	1278	30	1971	2357	0	32754	32700	32610	32751	32510	33693	32431	32825	
1012	0	120	1209	29	1975	2358	0	32735	32732	32705	32738	32654	33358	32592	33139	
1013	0	153	1257	29	1966	2359	0	32860	32566	32603	32787	33268	32733	32742	33124	
1014	0	99	1253	29	2000	2360	0	32823	32609	32893	32760	32199	32555	32476	32493	
1015	0	94	1284	30	1986	2361	0	32889	32714	32756	32902	33365	32285	32109	32331	
1016	0	97	1270	29	1973	2362	0	32794	32623	32647	32978	32355	31289	31503	32134	
1017	0	130	1268	29	2025	2363	0	32633	32586	32784	32653	32577	31131	31348	32305	
1018	0	118	1289	29	1948	2364	0	32647	32675	32879	32727	33267	31887	31506	32373	
1019	0	93	1249	29	1976	2365	0	32722	32535	32941	32621	32210	32228	31673	32426	
1020	0	111	1244	28	1995	2366	0	32708	32612	33158	32632	33311	32767	31341	32161	
1021	0	109	1247	29	2048	2367	0	32713	32797	33115	32836	32431	33746	30619	32039	
1022	0	106	1283	31	1988	2368	0	32786	32804	32986	32740	32729	33831	31646	32346	
1023	0	113	1286	29	1944	2369	0	32879	32863	32841	32887	33083	33913	32979	32938	
1024	0	107	1239	28	2014	2370	0	32614	32700	33067	32794	32070	34543	33124	33444	
1025	0	132	1258	28	2000	2371	0	32620	32687	32941	32677	33436	34823	33107	32775	
1026	0	106	1263	28	1984	2372	0	32687	32751	32679	32759	32386	33967	33343	32274	
1027	0	62	1248	28	1976	2373	0	32721	32539	32621	32685	32813	33890	33567	32549	
1028	0	148	1278	27	1986	2374	0	32861	32437	32469	32547	33047	33039	33410	32615	
1029	0	118	1252	30	1983	2375	0	32838	32482	32226	32632	32114	32483	33245	32827	
1030	0	104	1240	30	1964	2376	0	32903	32611	32391	32624	33436	32020	33061	33054	
1031	0	117	1285	30	2003	2377	0	32911	32747	32501	32615	32295	32090	33429	33060	
1032	0	111	1255	29	1957	2378	0	32846	32663	32466	32736	32839	32234	33653	32727	
1033	0	107	1188	30	1971	2379	0	32804	32671	32306	32527	33126	32299	33551	32829	
1034	0	129	1220	29	2003	2380	0	32743	32587	32647	32657	32253	32195	33262	32558	
1035	0	126	1189	29	2011	2381	0	32866	32459	32647	32584	33412	32274	32332	32332	
1036	0	119	1297	29	1966	2382	0	32726	32509	32674	32483	32326	32284	31999	32479	
1037	0	94	1236	29	2028	2383	0	32653	32302	32692	32549	32809	33097	32215	32631	
1038	0	109	1246	29	1968	2384	0	32621	32351	33023	32407	33010	33447	32063	32621	
1039	0	97	1235	28	1986	2385	0	32614	32444	33073	32680	32293	32838	32391	32596	
1040	0	115	1258	28	2008	2386	0	32736	32387	32794	32705	33398	32299	32694	32335	
1041	0	111	1242	29	1956	2387	0	32822	32391	32647	32749	32203	32354	33110	32901	
1042	0	104	1267	29	2009	2388	0	32890	32629	32692	32954	32940	32473	33218	33123	
1043	0	138	1260	28	1978	2389	0	32859	32647	32679	32612	33039	33055	33074	33140	
1044	0	120	1212	29	2030	2390	0	32800	32686	32687	32780	32300	32925	32809	32767	
1045	0	67	1270	29	2001	2391	0	32741	32656	32551	32690	33303	32629	32455	32582	
1046	0	92	1291	29	1997	2392	0	32786	32455	32511	32835	32183	32813	32500	32500	
1047	0	101	1246	28	1959	2393	0	32738	32611	32443	32903	32967	32271	32786	32385	
1048	0	143	1261	30	2001	2394	0	32751	32551	32313	32501	33017	32004	32971	32603	
1049	0	136	1225	30	1951	2395	0	32880	32686	32109	32771	32311	32240	33080	32518	
1050	0	116	1257	28	1974	2396	0	32895	32623	32221	32726	33325	32571	33407	32519	
1051	0	134	1256	29	1973	2397	0	32933	32423	32402	32771	32179	32726	33595	32612	
1052	0	138	1247	29	1962	2398	0	32863	32570	32659	32621	32995	32916	33191	32691	
1053	0	132	1254	28	1955	2399	0	32786	32482	32833	32599	32895	32867	32727	32671	
1054	0	129	1263	30	1972	2400	0	32838	32542	33092	32615	32284	32480	32687	32460	
1055	0	136	1266	28	1936	2401	0	32795	32404	33275	32699	33303	32670	32480	32274	
1056	0	119	1223	29	1989	2402	0	32725	32583	33324	32739	32167	33153	31806	32834	
1057	0	99	1211	29	1970	2403	0	32740	32560	32951	32524	33094	33092	31689	32843	
1058	0	150	1235	29	1998	2404	0	32694	32539	32791	32786	32743	32946	31226	32183	
1059	0	124	1235	30	1956	2405	0	32624	32677	32791	32623	32218	32968	31607	32561	
1060	0	65	1266	30	1956	2406	0	32530	32626	32893	32683	33367	33011	32046	33259	
1061	0	91	1290	28	1957	2407	0	32427	32453	32975	32487	32120	33466	31023	33065	
1062	0	91	1250	28	2024	2408	0	32406	32421	32991	32308	33101	33734	31398	33127	
1063	0	133	1248	30	1940	2409	0	32518	32489	32815	32585	32877	33427	31527	32935	
1064	0	118	1241	29	1990	2410	0	32694	32528	32756	32790	32354	32652	31437	32800	
1065	0	123	1238	29	1934	2411	0	32749	32700	32583	32758	33247	32559	31535	32485	
1066	0	124	1246	29	1955	2412	0	32788	32787	32503	32785	32094	32638	31942	32523	
1067	0	141	1235	30	2013	2413	0	32885	32745	32579	32956	33167	32690	33052	33047	
1068	0	106	1233	28	1991	2414	0	32895	32775	32431	33001	32775	32755	33234	32879	
1069	0	105	1230	28	1993	2415	0	32962	32903	32512	33089	32391	32637	33382	32551	
1070	0	94	1217	30	1952	2416	0	32982	32807	32405	32967	33367	32633	33075	32594	
1071	0	99	1219	29	1992	2417	0	32941	32775	32211	32699	32006	32598	33685	32543	
1072	0	142	1277	29	2008	2418	0	32844	32736	32412	32839	33172	32419	35343	32375	
1073	0	117	1225	29	2016	2419	0	32815	32717	32634	32893	32783	32461	36027	32561	
1074	0	121	1238	27	1955	2420	0	32809	32832	32623	32564	32429	32689	35367	32725	
1075	0	115	1255	31	2007	2421	0	32733	32669	32815	32631	33375	32743	33893	32713	
1076	0	80	1267	29	2017	2422	0	32838	32711	32711	32727	31997	32745	32852	32796	
1077	0	62	1269	29	2007	2423	0	32792	32787	32759	32511	33093	32815	31220	32629	
1078	0	88	1265	28	2020	2424	0	32687	32679	33083	32672	32789	32627	31382	32455	
1079	0	99	1238	29	1996	2425	0	32583	32543	33174	32718	32389	32662	31465	32581	
1080	0	149	1298	30	1955	2426	0	32620	32721	33082	32643	33364	32935	32594	32753	
1081	0	107	1229	29	1943	2427	0	32698	32855	32887	32796	32137	32940	34226	32750	
1082	0	117	1270	30	1968	2428	0	32747	32869	32595	33015	33063	32878	34831	32919	
1083	0	100	1235	29	1990	2429	0	32799	32935	32415	32844	32643	32809	34365	32815	
1084	0	128	1255	29	1991	2430	0	32903	32944	32797	32958	32465	33031	32978	32692	
1085	0	133	1240	29	2006	2431	0	32833	32975	32813	32889	33319	33039	32127	32890	
1086	0	118	1265	29	1974	2432	0	32837	32839	32647	32903	32135	33007	31638	32426	
1087	0	140	1231	29	1943	2433	0	32903	32669	32711	32807	33221	32980	31730	32418	
1088	0	105	1258	28	1992	2434	0	32878	32788	32759	32917	32575	32871	31871	32591	
1089	0	107	1193	29	2002	2435	0	32856	33039	32785	32982	32487	32639	32343	32399	
1090	0	97	1258	31	1975	2436	0	32891	32892	32739	33025	33299	32692	32773	32411	
1091	0	90	1237	29	1982	2437	0	32846	32795	32755	33009	32134	32768	32706	32525	
1092	0	104	1258	28	1964	2438	0	32816	32844	32868	32875	33252	32903	32468	32428	
1093	0	110	1245	28	1954	2439	0	32679	32707	32775	32825	32695	32991	32375	32658	
1094	0	162	1242	30	1996	2440	0	32708	32678	32850	32766	32386	32838	31546	32516	
1095	0	93	1291	28	1988	2441	0	32633	32720	32843	33044	33365	32787	31594	32843	
1096	0	115	1240	30	1988	2442	0	32695	32685	32647	32827	32148	32537	31781	32889	
1097	0	140	1228	30	2003	2443	0	32679	32713	32658	32865	33248	32484	32314	32692	
1098	0	103	1222	28	1989	2444	0	32798	32811	32343	32950	32551	32967	32509	32731	
1099	0	129	1253	29	1979	2445	0	32895	32833	32175	32668	32473	33194	32747	32810	
1100	0	108	1217	30	2030	2446	0	32800	32843	32437	32911	33239	32986	33283	32877	
1101	0	129	1255	29	1964	2447	0	32575	32705	32771	32775	32125	32878	33287	32903	
1102	0	138	1258	29	2005	2448	0	32462	32775	32919	32643	33095	32903	33070	32751	
1103	0	123	1287	28	1970	2449	0	32516	32772	33064	32711	32623	32699	33365	32915	
1104	0	73	1253	27	1956	2450	0	32654	32846	32979	32719	32431	32757	33349	32977	
1105	0	99	1198	28	1936	2451	0	32801	32838	32703	32459	33355	32390	33527	32655	
1106	0	99	1271	29	2000	2452	0	32831	32639	32606	32627	32007	32310	33753	32634	
1107	0	102	1274	29	1978	2453	0	32818	32795	32589	32385	33107	32713	33040	32572	
1108	0	65	1246	29	2020	2454	0	32911	32810	32655	32583	32694	32457	32797	32663	
1109	0	133	1288	30	1973	2455	0	33013	32885	32615	32826	32479	32116	32679	32453	
1110	0	86	1281	29	1948	2456	0	32966	32860	32695	32701	33329	31860	32515	32413	
1111	0	117	1267	30	1953	2457	0	32969	32903	32615	32661	32158	32540	32827	32629	
1112	0	119	1226	29	1984	2458	0	32894	32609	32805	32599	33309	32919	32547	32503	
1113	0	104	1232	29	1995	2459	0	32726	32819	32807	32844	32503	32434	32359	32167	
1114	0	98	1212	28	2044	2460	0	32758	32850	32793	32959	32510	31620	32989	32262	
1115	0	123	1286	29	1983	2461	0	32698	32699	32865	32742	33319	32293	32883	32839	
1116	0	94	1306	29	2013	2462	0	32674	32691	32841	32615	32061	33133	32642	32885	
1117	0	108	1297	29	1967	2463	0	32722	32496	32852	32585	33303	33101	32203	32391	
1118	0	144	1305	29	2005	2464	0	32918	32695	32875	32869	32555	33211	32527	32259	
1119	0	116	1234	30	1965	2465	0	32816	32783	32951	32946	32535	33166	32678	31943	
1120	0	82	1279	29	1940	2466	0	32814	32679	32866	32727	33333	32903	32967	31963	
1121	0	112	1233	29	1951	2467	0	32734	32647	32975	32518	32103	33437	32601	32410	
1122	0	106	1241	30	1974	2468	0	32464	32601	33255	32484	33351	33671	31950	33095	
1123	0	132	1263	29	1989	2469	0	32141	32282	33307	32097	32354	33906	31476	33692	
1124	0	95	1241	29	1997	2470	0	32399	32559	33000	32132	32696	33383	31394	32880	
1125	0	136	1260	29	2011	2471	0	32535	32556	32607	32615	33287	33425	31578	32914	
1126	0	138	1229	29	1998	2472	0	32580	32717	32540	32748	32178	33593	32423	32867	
1127	0	114	1265	29	1995	2473	0	32779	32843	32418	32485	33237	32928	34075	32182	
1128	0	104	1183	29	1972	2474	0	32876	32884	32247	32495	32431	32892	33883	32345	
1129	0	86	1241	29	1980	2475	0	32959	33032	32239	32705	32671	32492	32311	31757	
1130	0	106	1319	29	1993	2476	0	33065	33047	32103	32769	33095	32156	30770	31847	
1131	0	145	1213	29	1972	2477	0	32992	32959	32252	32538	32156	31879	31247	32274	
1132	0	134	1268	29	1932	2478	0	32917	32798	32423	32566	33270	32135	32715	32761	
1133	0	125	1252	28	1984	2479	0	32931	32793	32525	32644	32519	32193	33502	32810	
1134	0	114	1303	29	1992	2480	0	32784	32775	32415	32676	32543	32201	33735	33062	
1135	0	96	1264	28	2002	2481	0	32785	32802	32374	32658	33271	32609	33997	33574	
1136	0	123	1203	28	2004	2482	0	32772	32756	32333	32784	32176	32721	33956	34043	
1137	0	144	1232	29	1967	2483	0	32769	32623	32348	32782	33223	32482	33006	34541	
1138	0	115	1260	28	2015	2484	0	32840	32722	32575	32921	32475	32727	32839	34054	
1139	0	108	1264	30	1994	2485	0	32842	32822	32736	32767	32698	32807	32435	33143	
1140	0	139	1226	29	1974	2486	0	32854	32845	32763	32955	33175	32939	32903	32940	
1141	0	96	1218	29	2030	2487	0	32773	32791	32999	32722	32184	32794	33276	32703	
1142	0	73	1282	28	1955	2488	0	32749	32765	33012	32638	33363	32837	33135	32540	
1143	0	130	1235	29	1968	2489	0	32819	32823	33055	32933	32367	32885	32775	32067	
1144	0	92	1274	28	1957	2490	0	32758	32933	33095	33025	32660	32724	33067	32213	
1145	0	132	1204	28	1935	2491	0	32667	32898	33220	32711	33260	32947	32518	32518	
1146	0	124	1245	30	1995	2492	0	32664	32903	33094	32716	32192	32907	31978	32293	
1147	0	132	1269	29	1998	2493	0	32769	32914	32979	32817	33241	32966	32204	32154	
1148	0	99	1265	29	2018	2494	0	32815	32982	32807	32922	32487	32951	32519	31919	
1149	0	107	1242	27	1963	2495	0	32870	32945	32704	32903	32713	32745	32617	31889	
1150	0	143	1270	30	1967	2496	0	32903	32847	32726	32834	33263	32769	32647	32074	
1151	0	110	1242	29	1969	2497	0	32827	32839	32749	32954	32066	32791	32690	32421	
1152	0	139	1271	30	1968	2498	0	32725	32791	32791	32671	33415	32711	32832	32447	
1153	0	126	1255	29	1933	2499	0	32709	32710	32606	32757	32415	32687	32903	32469	
1154	0	142	1239	30	1973	2500	0	32677	32653	32255	32789	32756	32763	33128	32694	
1155	0	129	1217	30	2008	2501	0	32711	32706	32450	32605	33103	32727	32903	32667	
1156	0	68	1252	28	1971	2502	0	32738	32793	32413	32806	32088	32679	32487	32146	
1157	0	116	1275	29	1996	2503	0	32838	32820	32503	32993	33407	32690	32194	32325	
1158	0	69	1252	28	1988	2504	0	32837	32845	32793	32822	32423	32431	32727	32609	
1159	0	135	1210	29	1966	2505	0	32839	32743	32831	32963	32813	32322	33085	32587	
1160	0	84	1298	28	1949	2506	0	32780	32711	32742	32870	33069	32519	33027	32559	
1161	0	140	1282	28	1987	2507	0	32665	32663	32936	32474	32210	32981	32307	32673	
1162	0	81	1291	29	2022	2508	0	32490	32540	33017	32374	33307	33364	31598	33119	
1163	0	135	1278	29	2010	2509	0	32359	32671	33139	32327	32427	33615	31271	33375	
1164	0	92	1251	29	1937	2510	0	32540	32879	32898	32563	32647	33330	32365	33473	
1165	0	144	1205	29	1952	2511	0	32658	33049	32691	32647	33234	33443	32558	33159	
1166	0	101	1217	29	1941	2512	0	32742	32999	32608	32887	32205	33187	32735	32943	
1167	0	101	1282	29	1992	2513	0	32685	32938	32700	32875	33403	32871	33007	32679	
1168	0	69	1251	30	1974	2514	0	32793	32949	32804	32899	32262	32582	34165	32830	
1169	0	129	1259	28	1974	2515	0	32844	32877	32762	32861	32803	32361	34130	32252	
1170	0	85	1240	29	1957	2516	0	32891	32761	32900	32914	33232	32098	33543	32014	
1171	0	139	1268	29	1950	2517	0	32778	32617	33046	32995	32222	31975	32748	31991	
1172	0	94	1296	29	2014	2518	0	32762	32538	33003	33031	33255	32439	32293	32587	
1173	0	109	1227	27	2019	2519	0	32859	32495	33046	32957	32435	32706	32439	32903	
1174	0	93	1261	28	1995	2520	0	32766	32244	32890	32908	32731	32740	32106	32726	
1175	0	131	1265	29	1957	2521	0	32690	32087	32631	32791	33223	32978	32389	32710	
1176	0	134	1250	30	1980	2522	0	32663	31962	32511	32698	32066	33174	33135	32479	
1177	0	100	1261	28	1960	2523	0	32660	31938	32242	33021	33404	33078	32946	32295	
1178	0	115	1245	30	2014	2524	0	32660	31929	32243	32940	32341	32997	32135	32283	
1179	0	133	1216	29	1967	2525	0	32686	31949	32257	33055	32775	32886	32666	32412	
1180	0	153	1239	29	1998	2526	0	32700	32028	32203	32786	33069	32599	33692	32742	
1181	0	96	1241	29	2006	2527	0	32723	32154	32229	32725	32233	32784	34169	32827	
1182	0	149	1267	30	1936	2528	0	32775	32066	32261	32725	33347	32922	33482	32903	
1183	0	97	1270	29	1974	2529	0	32861	32079	32342	32786	32407	33111	33119	32785	
1184	0	145	1231	27	1989	2530	0	32887	32119	32527	32582	32786	32823	32646	32855	
1185	0	108	1238	29	2002	2531	0	32748	32002	32635	32575	33058	32941	31925	32685	
1186	0	150	1274	28	1930	2532	0	32748	32109	32825	32756	32176	32903	32247	32473	
1187	0	76	1247	29	2018	2533	0	32980	32370	32654	32605	33335	32983	32367	32487	
1188	0	124	1220	29	1945	2534	0	32893	32391	32575	32598	32379	32823	31935	32439	
1189	0	141	1221	28	1977	2535	0	32720	32239	32821	32532	32824	32945	31364	32528	
1190	0	160	1242	28	1991	2536	0	32783	32263	32731	32540	33167	32971	31565	32263	
1191	0	117	1252	29	1951	2537	0	32896	32311	32822	32665	32100	32898	32236	32495	
1192	0	107	1240	28	1949	2538	0	32806	32338	32870	32644	33415	33021	32887	32722	
1193	0	118	1241	30	2020	2539	0	32726	32247	32902	32891	32382	32775	33191	32662	
1194	0	103	1227	28	2002	2540	0	32630	32127	33071	32634	32701	32851	33395	32711	
1195	0	107	1232	30	1982	2541	0	32555	32157	32799	32668	33159	32841	33479	32493	
1196	0	138	1281	29	1976	2542	0	32716	32367	32620	32790	32217	32642	33638	32447	
1197	0	111	1240	29	2003	2543	0	32871	32420	32629	32524	33371	32740	33723	32401	
1198	0	111	1225	29	1978	2544	0	32751	32423	32606	32749	32355	32829	33645	32304	
1199	0	100	1220	29	1996	2545	0	32642	32391	32562	32741	32723	32694	33355	32383	
1200	0	136	1250	29	2028	2546	0	32738	32483	32773	32503	33167	32553	32517	32348	
1201	0	108	1283	29	2000	2547	0	32720	32474	32775	32636	32243	32782	31922	32460	
1202	0	112	1206	29	1962	2548	0	32701	32407	32894	32712	33353	32878	31886	32871	
1203	0	99	1252	30	1961	2549	0	32636	32503	32919	32575	32339	32738	31610	32723	
1204	0	96	1226	28	1966	2550	0	32786	32668	32903	32721	32743	32379	31578	32356	
1205	0	103	1273	30	2010	2551	0	32815	32679	32821	32733	33132	32448	32167	32679	
1206	0	146	1286	30	1995	2552	0	32714	32749	33026	32615	32187	32903	32518	33107	
1207	0	107	1261	31	2012	2553	0	32620	32671	33153	32575	33429	32799	32495	33607	
1208	0	99	1294	28	1993	2554	0	32772	32775	32903	32833	32307	32620	33014	33264	
1209	0	121	1284	28	1988	2555	0	32852	32924	32758	32716	32782	32406	33276	32607	
1210	0	119	1257	28	1973	2556	0	32837	32990	32915	32797	33011	32629	33259	32391	
1211	0	64	1241	29	2006	2557	0	32866	32993	32787	32740	32282	32681	33104	32357	
1212	0	101	1277	28	1968	2558	0	32769	32927	32671	32705	33366	32879	32808	32530	
1213	0	116	1249	28	1977	2559	0	32806	32839	32639	32802	32277	32935	32671	32797	
1214	0	101	1249	29	1985	2560	0	32762	32819	32552	32839	32775	32773	32320	32263	
1215	0	105	1315	28	1981	2561	0	32666	32683	32495	32757	33023	32747	32520	32210	
1216	0	93	1280	28	1997	2562	0	32708	32717	32562	32587	32263	32847	32425	32225	
1217	0	93	1298	30	1994	2563	0	32719	32812	32637	32713	33415	32703	32405	32151	
1218	0	86	1281	30	2022	2564	0	32766	32941	32413	32845	32296	32581	32477	32365	
1219	0	115	1230	28	1967	2565	0	32832	32930	32263	32678	32877	32445	32343	32189	
1220	0	74	1253	30	1975	2566	0	32877	32990	32240	32823	33072	32409	32099	32167	
1221	0	64	1313	29	1969	2567	0	32935	33063	32221	32825	32263	32503	32549	32310	
1222	0	68	1246	28	1942	2568	0	33002	33223	32238	32555	33431	32490	33071	32639	
1223	0	96	1267	30	2006	2569	0	32978	33281	32261	32727	32143	32591	32898	32684	
1224	0	133	1229	28	1971	2570	0	33064	33199	32423	32611	32925	32833	32826	32887	
1225	0	127	1270	30	1988	2571	0	32896	33138	32611	32363	33015	32587	33146	32838	
1226	0	130	1259	28	1982	2572	0	32832	33017	32656	32585	32285	32357	33072	32530	
1227	0	78	1228	29	1981	2573	0	32733	32916	32815	32505	33279	32883	32759	32895	
1228	0	72	1204	29	2019	2574	0	32754	32783	32919	32174	32317	33326	33023	32952	
1229	0	98	1273	28	1961	2575	0	32903	32931	32644	32263	32887	33735	33556	33049	
1230	0	133	1286	29	1952	2576	0	32967	32829	32572	32479	33073	33429	32767	32231	
1231	0	111	1269	28	1954	2577	0	32951	32717	32623	32637	32179	32730	32812	32165	
1232	0	117	1256	30	2048	2578	0	32886	32743	32713	32663	33335	32307	32499	32411	
1233	0	87	1242	28	1988	2579	0	32791	32631	32647	32537	32286	32514	31767	32875	
1234	0	94	1209	30	2012	2580	0	32759	32661	32346	32690	32935	32919	32053	33397	
1235	0	137	1235	29	1994	2581	0	32828	32715	32410	32789	32947	32767	32470	33744	
1236	0	66	1232	31	1978	2582	0	32655	32553	32562	32513	32262	32647	33332	33785	
1237	0	42	1226	30	2027	2583	0	32500	32370	32534	32387	33431	32447	33587	33681	
1238	0	92	1262	30	1984	2584	0	32609	32299	32492	32407	32143	32751	33221	33143	
1239	0	100	1201	28	1994	2585	0	32692	32391	32445	32509	32940	33559	33698	33101	
1240	0	137	1223	30	1964	2586	0	32658	32471	32751	32441	32983	34000	33156	33181	
1241	0	107	1227	28	1995	2587	0	32647	32562	32844	32551	32298	33431	32229	33117	
1242	0	136	1256	28	1996	2588	0	32745	32621	32768	32713	33274	33257	31437	33027	
1243	0	119	1251	29	1991	2589	0	32598	32590	32897	32890	32219	32999	31602	32301	
1244	0	117	1263	29	2006	2590	0	32551	32663	33048	32950	32918	33348	31972	31992	
1245	0	120	1230	29	1993	2591	0	32620	32726	33047	33055	33026	32841	31519	31677	
1246	0	106	1253	28	2000	2592	0	32623	32734	32921	33234	32157	32484	32660	32068	
1247	0	105	1232	28	2014	2593	0	32692	32855	32814	33353	33279	32341	33740	32541	
1248	0	122	1216	28	1957	2594	0	32615	32695	32965	32961	32244	32500	33879	33197	
1249	0	96	1244	29	1980	2595	0	32602	32579	33136	32959	32911	32737	33366	33326	
1250	0	129	1291	29	1926	2596	0	32431	32523	33203	32823	33021	32667	33272	33333	
1251	0	110	1292	29	2006	2597	0	32375	32615	33311	32824	32303	32756	33119	33129	
1252	0	140	1250	28	1954	2598	0	32448	32683	33287	32909	33297	32723	32115	33183	
1253	0	127	1240	29	2000	2599	0	32433	32787	33190	33143	32261	32575	32698	33289	
1254	0	125	1272	29	1925	2600	0	32280	32839	33367	33251	32903	32611	33581	33255	
1255	0	74	1282	28	1960	2601	0	32125	32727	33601	32962	33019	32692	33067	33539	
1256	0	158	1254	29	2027	2602	0	32094	32719	33653	33369	32151	32701	33037	33260	
1257	0	98	1276	28	1984	2603	0	32222	32727	33746	33479	33415	32647	32815	33394	
1258	0	101	1241	30	1998	2604	0	32228	32796	33626	33031	32197	32586	32959	33301	
1259	0	108	1270	29	1978	2605	0	32367	32922	33294	33357	33031	32546	32959	33213	
1260	0	131	1239	27	1990	2606	0	32480	33031	33219	33460	32860	32354	32996	33158	
1261	0	125	1255	30	1986	2607	0	32773	33105	32944	33063	32299	32276	32916	32391	
1262	0	126	1242	29	1964	2608	0	33178	33167	32538	32991	33349	32309	32667	31993	
1263	0	126	1274	29	1967	2609	0	33428	33189	32322	32845	32251	32068	31919	31759	
1264	0	90	1216	29	2031	2610	0	33503	33203	32200	32759	32873	31941	32236	31661	
1265	0	83	1276	30	1966	2611	0	33422	33303	32259	32486	32935	31927	32663	31967	
1266	0	131	1252	29	1938	2612	0	33340	33159	32266	32539	32237	32653	32391	32049	
1267	0	145	1259	29	1961	2613	0	33200	32933	32359	32293	33415	32804	32327	32506	
1268	0	67	1264	28	1958	2614	0	33155	32919	32364	32239	32237	33260	32047	32676	
1269	0	101	1220	30	1951	2615	0	33129	32937	32256	32380	33055	33210	32091	32693	
1270	0	142	1278	29	2041	2616	0	33330	32997	32286	32671	32758	32815	32369	32455	
1271	0	128	1204	28	1947	2617	0	33336	33036	32055	32519	32311	32654	32438	32559	
1272	0	95	1266	29	1953	2618	0	33268	32990	32074	32729	33343	32509	32663	32627	
1273	0	102	1242	29	1959	2619	0	33167	33007	32199	32665	32199	32505	32622	32825	
1274	0	144	1277	29	1961	2620	0	33010	32791	32165	32599	32937	32527	32855	32780	
1275	0	104	1243	29	1998	2621	0	33014	32757	32343	32551	32895	32636	32931	32935	
1276	0	93	1296	29	1963	2622	0	32992	32738	32333	32758	32325	32657	32834	32766	
1277	0	105	1231	30	1985	2623	0	32896	32718	32071	32735	33388	32661	32671	32903	
1278	0	80	1249	28	1979	2624	0	32818	32735	32271	32534	32210	32593	32556	32798	
1279	0	123	1270	28	2018	2625	0	32768	32736	32638	32583	32927	32540	32863	32775	
1280	0	123	1207	30	1958	2626	0	32801	32623	32581	32662	32941	32943	32931	33047	
1281	0	140	1246	28	2006	2627	0	32792	32543	32791	32522	32297	33168	33200	33092	
1282	0	121	1252	29	2021	2628	0	32783	32577	32975	32600	33413	32876	33603	33145	
1283	0	155	1238	29	1933	2629	0	32815	32576	32864	32773	32047	32516	33145	33102	
1284	0	129	1246	30	1977	2630	0	32754	32545	33051	32918	33103	32476	32663	32903	
1285	0	99	1252	30	1932	2631	0	32781	32494	32929	32587	32826	32210	32230	32639	
1286	0	155	1228	28	1983	2632	0	32748	32609	32847	32742	32357	32638	32805	32935	
1287	0	131	1274	29	2014	2633	0	32758	32575	32895	32742	33387	32947	32918	32455	
1288	0	108	1248	29	1949	2634	0	32815	32817	32638	32903	32027	32966	33001	32289	
1289	0	97	1266	29	1972	2635	0	32729	32585	32407	32589	33123	33055	32471	31926	
1290	0	151	1207	28	2024	2636	0	32647	32609	32519	32763	32791	32845	32122	31975	
1291	0	147	1236	29	1982	2637	0	32434	32350	32782	32754	32353	32851	32155	32018	
1292	0	143	1261	28	1973	2638	0	32322	32283	33068	32631	33383	33223	32374	32407	
1293	0	164	1300	27	1988	2639	0	32279	32303	33123	32726	32150	33859	32383	32540	
1294	0	140	1224	29	1955	2640	0	32391	32447	32927	32629	32972	33895	32071	32733	
1295	0	121	1270	30	1999	2641	0	32674	32396	32815	32807	32715	33495	31383	32626	
1296	0	141	1247	30	1986	2642	0	32796	32511	32701	32929	32400	32831	31346	33016	
1297	0	125	1235	30	1979	2643	0	32785	32578	32898	32519	33307	32037	32431	32871	
1298	0	104	1220	30	1984	2644	0	32726	32580	32855	32591	32143	32036	33382	32495	
1299	0	95	1261	29	1974	2645	0	32743	32789	32935	32818	33159	32380	33426	32314	
1300	0	88	1235	28	1964	2646	0	32742	32764	33019	32546	32695	32429	33616	32519	
1301	0	115	1272	29	1971	2647	0	32662	32733	33093	32695	32289	32999	33308	32703	
1302	0	69	1198	30	1973	2648	0	32561	32711	33213	32566	33415	33098	32338	32263	
1303	0	129	1208	29	1981	2649	0	32574	32763	32923	32599	32079	33050	32532	32431	
1304	0	156	1276	29	1996	2650	0	32714	32881	32815	32715	33182	33052	32815	32549	
1305	0	83	1245	30	1939	2651	0	32756	32803	32687	32717	32647	33008	33107	32885	
1306	0	84	1272	29	1978	2652	0	32774	32676	32620	32615	32303	32767	33491	32851	
1307	0	104	1224	29	1982	2653	0	32893	32675	32628	32713	33359	32786	33245	32791	
1308	0	112	1266	29	1932	2654	0	32932	32751	32743	32795	32102	32701	33223	32783	
1309	0	118	1302	28	1977	2655	0	32804	32657	32785	32921	33198	32391	33356	32429	
1310	0	117	1253	29	1996	2656	0	32681	32635	32823	32875	32660	32501	33543	32723	
1311	0	82	1252	28	1971	2657	0	32594	32655	32808	32957	32383	32773	32647	32775	
1312	0	147	1242	30	1993	2658	0	32574	32581	32725	32725	33303	32898	32259	33029	
1313	0	126	1318	30	1976	2659	0	32597	32599	32735	32935	32135	33010	31913	33022	
1314	0	106	1252	28	2001	2660	0	32646	32551	32519	32895	33063	32974	31352	33063	
1315	0	81	1220	29	1973	2661	0	32703	32630	32355	32845	32756	32669	32231	32950	
1316	0	120	1224	29	1955	2662	0	32872	32772	32142	32686	32391	32310	32942	32495	
1317	0	124	1189	30	2003	2663	0	32900	32775	32178	33061	33343	32098	32799	32399	
1318	0	109	1253	28	1972	2664	0	32903	32726	32319	32989	32134	32366	32916	32505	
1319	0	143	1268	28	1986	2665	0	32865	32693	32323	32615	33069	32655	33015	32733	
1320	0	127	1223	29	1971	2666	0	32823	32647	32599	32657	32727	32975	33125	33103	
1321	0	143	1220	30	2026	2667	0	32720	32679	32695	32695	32441	32936	33295	33109	
1322	0	77	1205	30	1944	2668	0	32738	32663	32691	32439	33342	32839	33311	32955	
1323	0	118	1236	29	1976	2669	0	32722	32631	32732	32668	32147	32982	33351	32175	
1324	0	142	1246	28	1964	2670	0	32688	32549	32769	32699	33090	33276	33152	31311	
1325	0	132	1257	30	1948	2671	0	32715	32605	32646	32522	32734	33510	33462	31879	
1326	0	112	1271	29	1989	2672	0	32716	32630	32768	32615	32489	32939	33385	32807	
1327	0	121	1270	29	1965	2673	0	32713	32579	32847	32734	33339	32483	33050	33219	
1328	0	90	1262	29	1962	2674	0	32660	32553	32797	32391	32029	32582	32503	33295	
1329	0	122	1196	29	1988	2675	0	32738	32594	32796	32536	33140	32643	31974	32900	
1330	0	128	1267	29	1964	2676	0	32843	32683	32437	32641	32705	32885	32359	32738	
1331	0	103	1276	29	1996	2677	0	32909	32746	32495	32762	32526	33127	32859	32954	
1332	0	113	1234	29	1960	2678	0	32868	32719	32535	32655	33339	33375	32999	33135	
1333	0	105	1235	29	1929	2679	0	33001	32727	32373	32897	32078	33140	32750	33087	
1334	0	130	1239	30	1970	2680	0	33035	32746	32511	32927	33238	32372	31788	32085	
1335	0	63	1247	29	1970	2681	0	32884	32743	32775	32711	32666	32759	31127	31794	
1336	0	115	1214	27	2000	2682	0	32792	32703	32790	32738	32599	32632	31055	32346	
1337	0	84	1257	29	1980	2683	0	32869	32699	32775	32876	33187	32575	31459	31966	
1338	0	110	1243	29	1973	2684	0	32799	32655	32919	32566	32132	32421	31866	32214	
1339	0	88	1230	28	1985	2685	0	32692	32578	32922	32617	33318	32813	31783	32531	
1340	0	122	1270	28	2010	2686	0	32628	32623	32877	32706	32593	32871	32367	33095	
1341	0	84	1280	29	1969	2687	0	32621	32638	32852	32647	32604	32799	32993	33266	
1342	0	94	1244	29	1976	2688	0	32700	32775	32711	32731	33295	32686	33103	33015	
1343	0	101	1245	29	1983	2689	0	32717	32799	32676	32796	32029	32562	32955	32799	
1344	0	127	1276	28	1966	2690	0	32766	32935	32815	32785	33341	32730	32871	32350	
1345	0	88	1252	29	1996	2691	0	32944	32895	32665	32579	32498	32615	32601	32115	
1346	0	79	1252	28	1974	2692	0	33004	32852	32863	32751	32615	32624	33645	32251	
1347	0	117	1296	27	1993	2693	0	32908	32757	33067	32735	33135	32677	35023	32570	
1348	0	117	1284	29	1994	2694	0	32775	32756	33023	32852	32140	32700	34839	32756	
1349	0	136	1255	29	1976	2695	0	32756	32743	32863	32782	33302	32959	34063	32607	
1350	0	144	1278	28	1988	2696	0	32807	32700	32627	32775	32615	32727	32927	32746	
1351	0	130	1280	30	1974	2697	0	32808	32661	32692	32771	32508	32807	32585	32583	
1352	0	124	1299	28	2031	2698	0	32631	32687	32797	32863	33279	32967	32319	32578	
1353	0	105	1263	30	1979	2699	0	32663	32791	32583	32911	32086	32837	32207	32612	
1354	0	98	1245	30	2024	2700	0	32756	32704	32503	33034	33343	32900	32108	32391	
1355	0	96	1232	29	1992	2701	0	32773	32595	32533	32939	32567	32743	32195	32430	
1356	0	136	1264	30	1998	2702	0	32680	32496	32656	32888	32532	32663	32223	32562	
1357	0	129	1257	29	1974	2703	0	32694	32525	32815	32663	33309	32647	32959	32495	
1358	0	146	1264	29	1965	2704	0	32655	32390	32951	32749	32101	32734	32978	32687	
1359	0	147	1252	30	1970	2705	0	32686	32475	33231	32719	33351	32759	32881	32535	
1360	0	92	1228	28	1973	2706	0	32680	32579	33261	32665	32425	32617	33078	32420	
1361	0	93	1262	29	1939	2707	0	32673	32551	32917	32701	32578	32722	32903	32357	
1362	0	97	1221	29	1981	2708	0	32831	32711	32927	32833	33287	32805	32981	32598	
1363	0	88	1206	29	1966	2709	0	32854	32834	32743	32891	32093	32679	32852	32823	
1364	0	107	1252	30	1945	2710	0	32860	32868	32589	32598	33353	32873	32855	32854	
1365	0	111	1216	29	1974	2711	0	32834	32751	32759	32671	32391	32647	32483	32452	
1366	0	96	1210	29	2020	2712	0	32925	32900	32647	32714	32647	32582	32405	32343	
1367	0	98	1229	30	1977	2713	0	32902	32828	32511	32819	33202	32874	32481	32547	
1368	0	95	1234	30	2013	2714	0	32927	32741	32538	32738	32172	32868	32668	32461	
1369	0	129	1228	28	1988	2715	0	32804	32629	32431	32780	33369	32727	32591	32364	
1370	0	111	1266	31	1955	2716	0	32621	32563	32540	32725	32351	33159	31779	32058	
1371	0	113	1296	30	1969	2717	0	32369	32410	32798	32237	32710	33359	30826	32569	
1372	0	110	1267	29	2002	2718	0	32470	32421	32801	32477	33241	32900	30679	32171	
1373	0	90	1232	29	1963	2719	0	32666	32591	32569	32695	32081	32933	32020	32573	
1374	0	120	1275	29	1999	2720	0	32721	32716	32603	32791	33254	32871	33458	32959	
1375	0	145	1305	30	1946	2721	0	32775	32801	32673	32647	32441	32763	33933	33019	
1376	0	125	1230	29	1985	2722	0	32727	32754	32599	32823	32684	32596	33743	32944	
1377	0	96	1219	30	1965	2723	0	32607	32695	32583	32935	33223	32631	33709	32873	
1378	0	156	1238	29	1960	2724	0	32664	32743	32505	32793	32059	32669	33815	32919	
1379	0	68	1248	29	1980	2725	0	32749	32732	32531	32632	33393	32524	33639	32578	
1380	0	113	1268	29	1957	2726	0	32743	32807	32599	32759	32359	32591	33209	32903	
1381	0	141	1258	29	1947	2727	0	32725	32775	32519	32948	32775	32591	32694	32730	
1382	0	117	1236	29	1976	2728	0	32771	32710	32527	32543	33199	32347	32662	32759	
1383	0	138	1232	28	1998	2729	0	32878	32754	32416	32740	32082	32391	32897	32745	
1384	0	78	1263	30	1985	2730	0	32737	32789	32509	32827	33434	32837	32938	32927	
1385	0	76	1256	29	1981	2731	0	32708	32591	32674	32813	32359	32957	32923	33231	
1386	0	81	1249	28	2001	2732	0	32791	32520	32540	32487	32844	32896	32669	32838	
1387	0	143	1240	29	2012	2733	0	32766	32613	32487	32719	33045	32945	32773	32883	
1388	0	108	1277	30	1956	2734	0	32775	32701	32725	32775	32185	32955	32567	32843	
1389	0	87	1231	29	1997	2735	0	32811	32628	32775	32852	33399	32735	32605	32863	
1390	0	60	1255	29	1944	2736	0	32901	32719	32895	32615	32287	32455	32423	32518	
1391	0	95	1267	30	1987	2737	0	32864	32607	32950	32815	32762	32642	32356	32516	
1392	0	101	1235	28	2001	2738	0	32780	32567	32871	32759	33138	33031	32370	32758	
1393	0	105	1276	29	1981	2739	0	32645	32546	32892	32809	32227	33120	32375	32801	
1394	0	101	1247	28	1945	2740	0	32632	32557	32852	32524	33391	32879	32668	32775	
1395	0	121	1311	29	1967	2741	0	32647	32629	32932	32628	32263	32829	32471	32708	
1396	0	131	1233	31	1986	2742	0	32713	32630	32791	32599	32792	33210	32220	33220	
1397	0	147	1249	29	2000	2743	0	32761	32663	32807	32413	33153	33037	32158	33199	
1398	0	140	1268	31	1956	2744	0	32845	32685	32556	32591	32203	32751	32094	32647	
1399	0	100	1223	30	2003	2745	0	32862	32713	32509	32749	33429	32647	32420	32679	
1400	0	110	1245	29	2016	2746	0	32835	32743	32379	32599	32239	32679	32943	32940	
1401	0	141	1301	30	1949	2747	0	32912	32750	32478	32826	32839	32643	32914	33181	
1402	0	149	1266	29	1987	2748	0	32829	32735	32725	33009	33155	32676	33179	33051	
1403	0	124	1233	30	1984	2749	0	32805	32816	32736	32796	32231	32675	32854	32903	
1404	0	100	1240	28	1978	2750	0	32818	32804	32829	32949	33263	32661	32668	32807	
1405	0	93	1241	29	1984	2751	0	32897	32765	32754	32964	32351	32501	32693	32693	
1406	0	61	1253	30	1971	2752	0	32921	32711	32787	32791	32756	32647	32673	32295	
1407	0	110	1248	29	1987	2753	0	32773	32663	32973	32839	33181	32559	33019	32312	
1408	0	69	1204	29	1984	2754	0	32681	32549	33056	32934	32114	32463	33383	32535	
1409	0	123	1243	29	1995	2755	0	32730	32705	32847	32740	33287	32761	32964	32863	
1410	0	101	1251	29	1985	2756	0	32710	32695	32717	32758	32358	33154	32135	32951	
1411	0	119	1212	29	1986	2757	0	32662	32565	32679	32454	32855	33057	32595	33151	
1412	0	113	1254	29	1970	2758	0	32601	32647	32565	32647	33049	32670	33102	32751	
1413	0	143	1255	29	1989	2759	0	32734	32564	32540	32444	32223	32238	33343	32391	
1414	0	93	1272	29	2004	2760	0	32772	32605	32612	32547	33287	32550	33084	32459	
1415	0	143	1264	28	1996	2761	0	32742	32468	32506	32594	32262	32900	33283	32932	
1416	0	102	1252	29	2009	2762	0	32867	32530	32382	32454	32902	32815	32865	33040	
1417	0	120	1248	29	1976	2763	0	32957	32634	32621	32679	33090	32615	32623	32668	
1418	0	113	1250	29	1979	2764	0	32803	32532	32634	32793	32166	32848	33191	32233	
1419	0	142	1251	29	2032	2765	0	32788	32683	32598	32409	33364	33261	33331	32441	
1420	0	118	1251	30	1972	2766	0	32768	32683	32764	32681	32303	33299	32150	32764	
1421	0	106	1254	29	1976	2767	0	32820	32671	32892	32742	32890	32825	31421	32953	
1422	0	128	1259	29	1997	2768	0	32850	32692	32871	32818	33074	33031	31054	33159	
1423	0	128	1274	29	2016	2769	0	32898	32816	32921	32789	32135	32974	30280	33009	
1424	0	118	1246	29	2002	2770	0	32865	32796	32963	32919	33441	32614	30795	32828	
1425	0	86	1236	28	2036	2771	0	32833	32806	33057	32685	32287	32477	32199	32838	
1426	0	129	1234	30	1963	2772	0	32695	32823	33104	32854	32955	32587	33327	32902	
1427	0	122	1235	29	2021	2773	0	32743	32751	32971	32813	32903	32701	34205	33118	
1428	0	76	1255	30	1995	2774	0	32665	32710	33031	32604	32285	32914	34584	33065	
1429	0	108	1215	29	1990	2775	0	32712	32763	33003	32644	33373	32852	33813	32903	
1430	0	125	1219	28	2004	2776	0	32690	32719	32827	32667	32263	32383	32653	32673	
1431	0	98	1197	30	1942	2777	0	32694	32557	32736	32738	32980	32507	31956	32557	
1432	0	141	1249	29	1998	2778	0	32718	32457	32591	32796	32929	32359	32250	32478	
1433	0	102	1244	29	2023	2779	0	32698	32485	32417	32875	32261	32391	33308	32441	
1434	0	96	1278	28	2028	2780	0	32828	32735	32445	32601	33431	32577	33435	32646	
1435	0	116	1223	29	1956	2781	0	32903	32854	32551	32962	32215	32647	33406	32647	
1436	0	125	1264	29	2000	2782	0	32901	32895	32540	33094	32988	32626	32967	32167	
1437	0	123	1244	29	1977	2783	0	32827	32859	32687	32775	32919	32679	32975	32135	
1438	0	124	1220	29	1962	2784	0	32736	32694	32893	32964	32263	33125	33099	32344	
1439	0	123	1276	29	1985	2785	0	32604	32617	32846	32768	33436	33351	32998	32607	
1440	0	119	1241	30	1981	2786	0	32674	32567	32894	32767	32090	33303	32898	32698	
1441	0	132	1256	29	1949	2787	0	32530	32563	33068	32634	33087	33320	32179	32420	
1442	0	137	1272	29	1998	2788	0	32532	32626	33035	32643	32891	32814	32219	32804	
1443	0	114	1244	29	1992	2789	0	32612	32581	33056	32743	32330	32890	32628	33077	
1444	0	154	1246	30	1938	2790	0	32655	32550	33011	32725	33415	32903	32726	32647	
1445	0	114	1251	29	1987	2791	0	32679	32613	32683	32503	32061	32895	32874	32719	
1446	0	120	1238	29	1975	2792	0	32668	32719	32816	32549	33090	33050	32786	33101	
1447	0	138	1233	29	2000	2793	0	32652	32607	32655	32604	32815	33095	32775	32863	
1448	0	99	1241	29	1934	2794	0	32740	32683	32172	32365	32339	32644	32707	32595	
1449	0	78	1266	29	2004	2795	0	32781	32679	32194	32621	33281	32245	32715	32306	
1450	0	109	1253	30	2013	2796	0	32740	32711	32197	32711	32199	32391	32480	32391	
1451	0	85	1273	29	1978	2797	0	32796	32767	32340	32951	33070	32547	32349	32052	
1452	0	130	1223	28	1991	2798	0	32788	32691	32311	32639	32765	32285	31945	31943	
1453	0	114	1265	29	1992	2799	0	32813	32617	32263	32818	32309	32657	32191	32263	
1454	0	103	1222	28	2012	2800	0	32848	32731	32359	32999	33366	33015	32623	32518	
1455	0	126	1235	29	1988	2801	0	33005	32731	32283	32887	32199	32929	33114	32875	
1456	0	70	1233	30	1971	2802	0	32821	32698	32458	32628	32901	32762	33279	32863	
1457	0	107	1199	31	1969	2803	0	32720	32721	32701	32749	32915	32829	33007	33116	
1458	0	133	1243	28	1957	2804	0	32663	32593	32715	32724	32263	32694	32737	32969	
1459	0	92	1214	27	2020	2805	0	32694	32719	32767	32605	33431	32902	32756	32710	
1460	0	112	1215	28	1973	2806	0	32754	32775	32716	32839	32079	32966	33122	32514	
1461	0	126	1262	29	1966	2807	0	32869	32700	32551	33029	33101	32893	32892	32005	
1462	0	149	1247	30	1990	2808	0	32865	32670	32666	32725	32853	33159	32830	32174	
1463	0	121	1239	30	1987	2809	0	32866	32678	32612	32813	32348	33361	32547	32333	
1464	0	110	1294	30	1957	2810	0	32786	32694	32643	32817	33366	33325	32253	32421	
1465	0	118	1204	28	2025	2811	0	32703	32615	32751	32902	32123	33271	32606	32504	
1466	0	89	1270	30	1980	2812	0	32771	32647	32775	32563	33095	32997	32863	32563	
1467	0	106	1251	29	1990	2813	0	32814	32789	32866	32711	32715	32507	32948	32539	
1468	0	133	1233	30	1960	2814	0	32737	32745	32873	32847	32327	32289	32867	32658	
1469	0	121	1269	28	1979	2815	0	32637	32732	32879	32551	33297	32546	32607	32985	
1470	0	116	1220	29	1960	2816	0	32605	32715	33127	32612	32159	32757	33095	33019	
1471	0	107	1245	29	1996	2817	0	32660	32732	33226	32590	32987	32768	33435	32644	
1472	0	109	1256	28	2002	2818	0	32743	32613	33188	32596	32684	32603	33177	32189	
1473	0	147	1262	29	1956	2819	0	32590	32647	33133	32615	32406	32457	33031	32555	
1474	0	105	1244	29	1978	2820	0	32715	32725	32802	32635	33326	32511	32989	32786	
1475	0	121	1257	29	1992	2821	0	32884	32559	32574	32623	32172	32402	32872	32771	
1476	0	109	1287	29	2004	2822	0	32943	32583	32374	32782	33017	32372	32983	32743	
1477	0	92	1235	29	1991	2823	0	32944	32573	32425	32849	32751	32259	32983	32571	
1478	0	69	1210	28	2000	2824	0	32906	32606	32508	32743	32377	32534	32609	32492	
1479	0	140	1301	29	1998	2825	0	32839	32681	32481	32583	33388	32831	32583	32373	
1480	0	119	1253	30	1979	2826	0	32809	32738	32535	32903	32017	32464	32346	32343	
1481	0	164	1229	30	1957	2827	0	32751	32788	32515	32948	33202	32385	31932	31791	
1482	0	95	1238	29	1999	2828	0	32598	32642	32742	32629	32749	32701	31603	31693	
1483	0	163	1239	29	1970	2829	0	32671	32664	32718	32814	32466	32983	31830	32343	
1484	0	112	1244	29	1988	2830	0	32669	32775	32634	32876	33367	32857	31763	32671	
1485	0	116	1211	29	1988	2831	0	32730	32758	32805	32765	32061	33334	32079	32719	
1486	0	139	1247	29	1991	2832	0	32694	32716	32847	32732	33232	33516	32855	32990	
1487	0	109	1290	29	1943	2833	0	32671	32695	32727	32669	32647	33487	33263	32839	
1488	0	112	1293	29	1969	2834	0	32738	32642	32735	32734	32479	33103	33268	32812	
1489	0	67	1248	29	1956	2835	0	32765	32556	32739	32620	33335	32638	32902	33223	
1490	0	125	1230	29	2026	2836	0	32802	32621	32615	32786	31993	32254	32230	33329	
1491	0	153	1246	29	1970	2837	0	32756	32836	32867	32695	33200	32116	32123	32944	
1492	0	93	1254	28	1976	2838	0	32754	32695	32843	32583	32629	32533	32739	32599	
1493	0	92	1234	29	1948	2839	0	32824	32896	32743	32748	32487	32472	33461	32346	
1494	0	95	1226	29	2003	2840	0	33082	32934	32679	32859	33357	32583	33695	32679	
1495	0	105	1195	29	1946	2841	0	33014	32845	32681	32593	31993	32772	32786	32548	
1496	0	113	1268	28	1988	2842	0	32871	32759	32772	32803	33228	32603	32712	32359	
1497	0	70	1264	29	1957	2843	0	32724	32711	32603	32855	32607	32647	33569	32679	
1498	0	102	1252	29	1977	2844	0	32590	32359	32791	32463	32509	32887	32991	32769	
1499	0	75	1250	30	2002	2845	0	32452	32327	32915	32541	33331	32798	32447	32851	
1500	0	104	1256	29	2002	2846	0	32612	32493	32695	32719	32001	32565	32476	32391	
1501	0	99	1217	30	2034	2847	0	32760	32772	32665	32676	33260	32627	32626	32214	
1502	0	124	1285	30	1968	2848	0	32783	32815	32679	32927	32647	32991	32721	32339	
