# OpenSignals Text File Format
# {"00:07:80:64:6D:DA": {"sensor": ["CUSTOM/0.5/1.0/V", "CUSTOM/0.5/1.0/V", "CUSTOM/0.5/1.0/V", "CUSTOM/0.5/1.0/V"], "device name": "Platform", "column": ["nSeq", "DI", "CH1", "CH2", "CH3", "CH4"], "sync interval": 2, "time": "14:35:38.356", "comments": "", "device connection": "BTH00:07:80:64:6D:DA", "channels": [1, 2, 3, 4], "date": "2017-6-29", "mode": 0, "digital IO": [0, 1], "firmware version": 772, "device": "biosignalsplux", "position": 0, "sampling rate": 1000, "label": ["CH1", "CH2", "CH3", "CH4"], "resolution": [16, 16, 16, 16], "special": [{}, {}, {}, {}]}, "00:07:80:3B:46:38": {"sensor": ["EMG", "EMG", "EMG", "EMG", "EMG", "EMG", "EMG", "EMG"], "device name": "EMGs", "column": ["nSeq", "DI", "X", "CH2", "CH3", "CH4", "CH5", "CH6", "CH7", "CH8"], "sync interval": 2, "time": "14:35:38.356", "comments": "", "device connection": "BTH00:07:80:3B:46:38", "channels": [1, 2, 3, 4, 5, 6, 7, 8], "date": "2017-6-29", "mode": 0, "digital IO": [0, 1], "firmware version": 772, "device": "biosignalsplux", "position": 1, "sampling rate": 1000, "label": ["X", "CH2", "CH3", "CH4", "CH5", "CH6", "CH7", "CH8"], "resolution": [16, 16, 16, 16, 16, 16, 16, 16], "special": [{}, {}, {}, {}, {}, {}, {}, {}]}}
# EndOfHeader
3891	0	2403	5349	3898	8145	0	0	32686	32745	32725	32606	32404	32679	32943	32703	
3892	0	2465	5308	3884	8162	1	0	32760	32807	32683	32743	33379	32501	32935	32758	
3893	0	2417	5329	3890	8138	2	0	32791	32679	32703	32833	32011	32663	32736	32488	
3894	0	2453	5298	3869	8160	3	0	32761	32695	32657	32923	33159	32679	32631	32487	
3895	0	2392	5324	3841	8150	4	0	32786	32658	32726	32707	32635	32685	32730	32427	
3896	0	2435	5361	3872	8128	5	0	32721	32509	32713	32613	32608	32734	32726	32695	
3897	0	2428	5322	3874	8142	6	0	32762	32602	32719	32767	33287	32695	32615	33269	
3898	0	2414	5316	3840	8137	7	0	32773	32695	32647	32813	32143	32690	32849	33409	
3899	0	2437	5321	3888	8156	8	0	32738	32460	32775	32881	33311	32594	32915	33095	
3900	0	2430	5338	3861	8190	9	0	32740	32647	32750	32811	32435	32687	32919	32694	
3901	0	2434	5323	3865	8166	10	0	32771	32640	32841	32487	32713	32935	33037	32663	
3902	0	2444	5366	3868	8116	11	0	32737	32773	32902	32438	33207	32735	32839	32681	
3903	0	2464	5266	3854	8148	12	0	32732	32617	32729	32584	32189	32599	32772	32439	
3904	0	2437	5309	3925	8130	13	0	32708	32745	32756	32669	33271	32763	32799	32487	
3905	0	2408	5348	3836	8131	14	0	32668	32775	32713	32813	32330	32876	32767	32519	
3906	0	2396	5323	3881	8133	15	0	32724	32748	32646	32576	32885	32877	32640	32477	
3907	0	2413	5316	3891	8137	16	0	32767	32785	32711	32709	32995	32763	32637	32623	
3908	0	2436	5356	3848	8139	17	0	32756	32657	32696	32769	32275	32807	32701	32679	
3909	0	2402	5347	3832	8169	18	0	32791	32775	32711	32834	33279	32919	32662	32610	
3910	0	2436	5317	3868	8152	19	0	32887	32718	32713	32676	32231	33031	32640	32754	
3911	0	2446	5318	3895	8136	20	0	32923	32784	32690	32813	33054	32933	32588	32677	
3912	0	2433	5359	3862	8124	21	0	32916	32711	32849	32943	32927	32813	32607	32669	
3913	0	2487	5298	3886	8112	22	0	32823	32742	32919	32742	32250	32741	32731	32658	
3914	0	2462	5368	3858	8125	23	0	32782	32704	32862	32844	33380	32819	32692	32893	
3915	0	2367	5343	3872	8164	24	0	32687	32514	32839	32767	32153	32702	32647	32847	
3916	0	2409	5365	3824	8148	25	0	32736	32628	32571	32711	33129	32769	32636	32539	
3917	0	2410	5368	3874	8132	26	0	32738	32539	32553	32439	32707	32667	32647	32567	
3918	0	2398	5345	3864	8160	27	0	32728	32663	32566	32359	32543	32701	32627	32639	
3919	0	2430	5328	3850	8137	28	0	32734	32513	32603	32493	33213	32730	32619	32659	
3920	0	2426	5328	3889	8107	29	0	32617	32563	32575	32647	32016	32819	32791	32599	
3921	0	2394	5332	3828	8120	30	0	32647	32484	32639	32798	33207	32791	32715	32293	
3922	0	2390	5305	3867	8121	31	0	32704	32619	32551	32738	32514	32681	32621	32445	
3923	0	2434	5345	3882	8128	32	0	32743	32778	32637	32623	32735	32716	32787	32799	
3924	0	2420	5342	3864	8159	33	0	32781	32641	32563	32691	33159	32717	32769	32636	
3925	0	2418	5312	3868	8146	34	0	32757	32879	32773	32652	32127	32696	32677	32682	
3926	0	2471	5339	3808	8116	35	0	32801	32802	32838	32887	33395	32797	32805	32775	
3927	0	2436	5343	3834	8130	36	0	32868	32735	32927	33065	32415	32717	32771	32719	
3928	0	2429	5360	3848	8152	37	0	32798	32895	32850	32842	32844	32758	32678	32661	
3929	0	2436	5380	3786	8143	38	0	32793	32735	32959	32596	32961	32751	32726	32742	
3930	0	2393	5348	3837	8153	39	0	32739	32740	32747	32789	32155	32711	32836	32825	
3931	0	2411	5357	3869	8134	40	0	32738	32838	32731	32823	33444	32753	32695	32775	
3932	0	2442	5313	3882	8171	41	0	32819	32775	32717	32903	32252	32711	32643	32653	
3933	0	2436	5352	3878	8146	42	0	32850	32583	32710	32783	32999	32790	32751	32736	
3934	0	2386	5326	3868	8104	43	0	32756	32764	32635	32691	32915	32775	32732	32809	
3935	0	2394	5321	3880	8074	44	0	32790	32658	32655	32493	32247	32795	32801	32823	
3936	0	2394	5338	3858	8133	45	0	32742	32620	32541	32676	33391	32756	32775	32719	
3937	0	2440	5373	3822	8148	46	0	32756	32533	32490	33159	32199	32843	32558	32601	
3938	0	2426	5325	3887	8137	47	0	32798	32571	32540	33129	33149	32717	32711	32626	
3939	0	2378	5356	3868	8194	48	0	32775	32557	32585	32639	32655	32775	32702	32555	
3940	0	2416	5331	3910	8150	49	0	32782	32516	32644	32465	32297	32763	32674	32663	
3941	0	2457	5340	3860	8110	50	0	32719	32602	32629	32836	33223	32735	32781	32647	
3942	0	2436	5307	3827	8120	51	0	32814	32564	32647	32831	32028	32743	32741	32704	
3943	0	2413	5328	3872	8160	52	0	32819	32591	32571	32747	33250	32799	32719	32791	
3944	0	2479	5321	3860	8149	53	0	32809	32765	32711	32769	32647	32757	32709	32692	
3945	0	2400	5336	3846	8128	54	0	32773	32855	32793	32550	32518	32898	32775	32679	
3946	0	2368	5342	3842	8129	55	0	32742	32727	32761	32708	33307	32793	32767	32551	
3947	0	2420	5338	3845	8133	56	0	32700	32935	32713	32815	32141	32811	32767	32638	
3948	0	2412	5331	3849	8144	57	0	32763	32806	32824	32855	33361	32743	32666	32663	
3949	0	2440	5345	3811	8121	58	0	32799	32769	32813	32852	32500	32631	32647	32699	
3950	0	2430	5341	3876	8097	59	0	32766	32643	32811	32751	32726	32708	32724	32703	
3951	0	2412	5345	3844	8100	60	0	32701	32719	32695	32518	33083	32811	32679	32637	
3952	0	2386	5322	3822	8146	61	0	32734	32795	32858	32463	32103	32800	32759	32670	
3953	0	2438	5347	3881	8110	62	0	32753	32582	32689	32717	33287	32806	32799	32593	
3954	0	2469	5356	3812	8155	63	0	32767	32739	32713	32701	32333	32686	32715	32736	
3955	0	2416	5340	3864	8117	64	0	32775	32743	32710	32600	32922	32635	32802	32799	
3956	0	2422	5342	3850	8120	65	0	32749	32679	32631	32653	33085	32681	32726	32690	
3957	0	2418	5342	3864	8096	66	0	32714	32535	32714	32663	32310	32679	32697	32756	
3958	0	2418	5354	3844	8116	67	0	32704	32574	32578	32811	33435	32695	32647	32647	
3959	0	2457	5334	3837	8115	68	0	32756	32636	32658	32615	32199	32698	32679	32759	
3960	0	2429	5362	3897	8136	69	0	32822	32537	32675	32767	33020	32885	32692	32879	
3961	0	2408	5361	3849	8065	70	0	32813	32595	32738	32999	32802	32831	32733	32676	
3962	0	2383	5370	3812	8120	71	0	32790	32422	32743	32951	32276	32924	32678	32719	
3963	0	2401	5328	3906	8104	72	0	32811	32681	32695	32873	33374	32845	32659	32775	
3964	0	2426	5317	3878	8113	73	0	32794	32670	32813	33013	32134	32703	32472	32459	
3965	0	2437	5338	3881	8155	74	0	32684	32597	32807	33073	33234	32871	32671	32404	
3966	0	2410	5299	3896	8099	75	0	32770	32927	32773	33060	32647	32976	32719	32509	
3967	0	2393	5359	3823	8104	76	0	32708	32895	32710	32827	32570	32903	32740	32182	
3968	0	2431	5338	3852	8092	77	0	32761	32868	32832	32863	33206	33015	32790	32252	
3969	0	2427	5333	3857	8120	78	0	32748	32751	32726	32690	32021	32996	32807	32194	
3970	0	2448	5357	3876	8138	79	0	32788	32755	32754	32235	33207	32932	32791	32018	
3971	0	2402	5368	3838	8123	80	0	32806	32786	32642	32305	32427	32870	32647	32481	
3972	0	2467	5341	3855	8112	81	0	32740	32637	32625	32807	32716	32787	32740	32870	
3973	0	2378	5338	3881	8120	82	0	32729	32503	32647	32900	33247	32589	32787	33269	
3974	0	2406	5384	3836	8094	83	0	32702	32717	32695	32687	32218	32632	32681	33241	
3975	0	2430	5377	3887	8106	84	0	32734	32671	32647	32789	33367	32564	32690	33218	
3976	0	2423	5364	3907	8127	85	0	32745	32619	32675	32559	32364	32581	32834	33351	
3977	0	2459	5340	3847	8117	86	0	32773	32633	32745	32624	32868	32463	32897	33250	
3978	0	2394	5333	3876	8164	87	0	32826	32487	32719	32631	32903	32731	32787	33083	
3979	0	2433	5381	3872	8122	88	0	32801	32655	32684	32738	32270	32694	32847	32694	
3980	0	2410	5356	3880	8149	89	0	32766	32634	32689	32533	33422	32729	32666	32559	
3981	0	2386	5316	3871	8115	90	0	32810	32525	32769	32759	32150	32886	32642	32668	
3982	0	2428	5352	3862	8156	91	0	32833	32711	32713	32717	33006	32790	32668	32839	
3983	0	2464	5351	3856	8080	92	0	32809	32775	32822	32795	32899	32541	32711	32750	
3984	0	2446	5358	3907	8112	93	0	32731	32878	32661	32714	32245	32632	32610	32666	
3985	0	2476	5314	3868	8114	94	0	32740	32950	32775	32738	33367	32855	32734	32273	
3986	0	2433	5337	3881	8100	95	0	32757	32709	32757	32607	32135	32720	32637	32368	
3987	0	2450	5342	3855	8090	96	0	32706	32799	32824	32605	33131	32767	32751	32535	
3988	0	2390	5334	3827	8121	97	0	32740	32749	32727	32623	32679	32757	32839	32501	
3989	0	2455	5332	3853	8134	98	0	32798	32678	32901	32535	32545	32799	32759	32515	
3990	0	2432	5309	3874	8091	99	0	32830	32723	32745	32412	33344	32989	32803	32451	
3991	0	2444	5313	3888	8123	100	0	32740	32765	32613	32587	32022	33132	32737	32209	
3992	0	2445	5352	3868	8097	101	0	32747	32739	32718	32647	33328	32910	32701	32255	
3993	0	2458	5332	3887	8110	102	0	32774	32725	32819	32775	32543	32775	32710	32572	
3994	0	2440	5358	3882	8139	103	0	32772	32711	32708	32701	32694	32817	32785	33106	
3995	0	2415	5321	3842	8127	104	0	32677	32551	32655	32767	33175	32762	32775	33059	
3996	0	2445	5364	3856	8131	105	0	32694	32599	32609	33028	32165	32767	32630	32681	
3997	0	2484	5376	3886	8094	106	0	32740	32631	32621	33024	33415	32804	32671	32633	
3998	0	2436	5298	3865	8124	107	0	32742	32516	32567	33060	32326	32701	32615	32715	
3999	0	2447	5344	3878	8106	108	0	32750	32533	32615	33057	32717	32775	32699	32693	
4000	0	2422	5322	3849	8092	109	0	32732	32621	32557	32834	32999	32797	32809	32738	
4001	0	2388	5373	3864	8107	110	0	32690	32544	32599	32908	32278	32733	32664	32699	
4002	0	2421	5318	3848	8098	111	0	32735	32615	32642	32884	33455	32766	32671	32839	
4003	0	2424	5325	3892	8085	112	0	32726	32671	32763	32860	32186	32775	32827	32743	
4004	0	2426	5357	3918	8067	113	0	32708	32765	32782	32582	33035	32679	32755	32676	
4005	0	2431	5328	3864	8070	114	0	32775	32751	32796	32679	32787	32731	32727	32715	
4006	0	2405	5359	3903	8110	115	0	32775	32662	32830	32680	32338	32677	32678	32645	
4007	0	2450	5338	3893	8088	116	0	32818	32791	32756	32723	33383	32766	32700	32724	
4008	0	2420	5353	3878	8122	117	0	32858	32703	32764	32575	32153	32712	32748	32547	
4009	0	2460	5370	3868	8113	118	0	32750	32798	32652	32642	33144	32699	32794	32647	
4010	0	2459	5359	3844	8142	119	0	32804	32790	32743	32703	32615	32675	32647	32765	
4011	0	2462	5357	3868	8088	120	0	32744	32626	32790	32895	32492	32799	32647	32525	
4012	0	2443	5378	3834	8077	121	0	32767	32733	32773	32727	33351	32711	32719	32783	
4013	0	2392	5326	3889	8150	122	0	32767	32811	32791	32818	32100	32749	32754	32756	
4014	0	2443	5358	3878	8097	123	0	32721	32594	32826	32903	33213	32607	32658	32562	
4015	0	2416	5291	3852	8107	124	0	32767	32683	32822	32882	32519	32771	32717	32599	
4016	0	2464	5367	3901	8112	125	0	32775	32728	32775	32902	32632	33041	32679	32516	
4017	0	2445	5330	3840	8097	126	0	32767	32543	32735	32822	33287	32867	32671	32535	
4018	0	2486	5396	3857	8150	127	0	32821	32519	32728	32693	32192	32799	32734	32585	
4019	0	2453	5375	3865	8122	128	0	32778	32636	32638	32533	33311	32743	32719	32812	
4020	0	2442	5361	3894	8108	129	0	32722	32603	32701	32681	32331	32787	32702	32870	
4021	0	2455	5386	3856	8137	130	0	32712	32590	32535	32663	32807	32763	32700	32711	
4022	0	2436	5368	3826	8114	131	0	32758	32660	32587	32734	33170	32683	32713	32767	
4023	0	2436	5385	3932	8088	132	0	32771	32708	32481	32786	32215	32799	32598	32735	
4024	0	2455	5350	3856	8074	133	0	32786	32641	32598	32681	33398	32714	32700	32509	
4025	0	2405	5351	3842	8134	134	0	32773	32873	32607	32583	32223	32748	32740	32490	
4026	0	2390	5363	3874	8104	135	0	32718	32796	32791	32832	32822	32885	32694	32710	
4027	0	2441	5384	3870	8074	136	0	32688	32783	32739	32740	32994	32787	32758	32658	
4028	0	2453	5365	3904	8114	137	0	32775	32735	32783	32699	32297	32813	32711	32783	
4029	0	2434	5364	3906	8116	138	0	32798	32571	32806	32489	33319	32775	32701	32838	
4030	0	2396	5386	3876	8102	139	0	32820	32810	32805	32658	32191	32842	32711	32628	
4031	0	2436	5349	3877	8072	140	0	32804	32743	32902	32734	33061	32748	32711	32674	
4032	0	2459	5362	3864	8098	141	0	32781	32564	32775	32647	32676	32751	32727	32639	
4033	0	2444	5386	3876	8087	142	0	32715	32765	32786	32501	32420	32703	32630	32627	
4034	0	2499	5376	3876	8118	143	0	32747	32669	32709	32537	33379	32755	32721	32530	
4035	0	2433	5355	3869	8100	144	0	32767	32603	32647	32530	32116	32813	32677	32549	
4036	0	2444	5316	3844	8133	145	0	32804	32801	32665	32647	33182	32694	32641	32687	
4037	0	2443	5323	3833	8153	146	0	32746	32647	32727	33028	32662	32769	32758	32679	
4038	0	2448	5376	3844	8080	147	0	32818	32456	32557	32665	32495	32676	32735	32631	
4039	0	2440	5386	3864	8114	148	0	32731	32535	32615	32607	33155	32749	32759	32663	
4040	0	2372	5347	3917	8061	149	0	32743	32493	32582	32882	32157	32612	32759	32743	
4041	0	2464	5359	3860	8064	150	0	32754	32674	32718	32935	33301	32615	32737	32747	
4042	0	2362	5361	3837	8077	151	0	32772	32599	32804	32775	32455	32531	32773	32579	
4043	0	2382	5347	3870	8132	152	0	32774	32587	32666	32722	32725	32679	32822	32647	
4044	0	2475	5326	3899	8100	153	0	32748	32799	32660	32930	33046	32695	32647	32783	
4045	0	2432	5339	3914	8066	154	0	32806	32847	32675	32914	32147	32604	32807	32588	
4046	0	2408	5366	3857	8084	155	0	32841	32698	32773	32903	33439	32801	32788	32611	
4047	0	2468	5354	3934	8096	156	0	32845	32891	32775	32727	32249	32877	32639	32711	
4048	0	2422	5344	3896	8132	157	0	32844	32804	32973	32692	32885	32930	32606	32551	
4049	0	2427	5348	3894	8090	158	0	32806	32709	32895	32756	33019	32917	32583	32607	
4050	0	2433	5344	3911	8107	159	0	32740	32878	32908	32704	32314	32971	32508	32439	
4051	0	2442	5376	3901	8080	160	0	32712	32716	32763	32686	33403	33069	32807	32655	
4052	0	2422	5350	3899	8075	161	0	32743	32726	32767	32754	32151	33047	32804	32868	
4053	0	2413	5361	3861	8120	162	0	32692	32628	32771	32623	33058	33006	32711	32829	
4054	0	2430	5348	3846	8090	163	0	32804	32695	32595	32515	32899	32775	32723	32723	
4055	0	2450	5377	3878	8166	164	0	32820	32722	32706	32477	32284	32668	32551	32451	
4056	0	2406	5325	3830	8098	165	0	32799	32775	32655	32658	33238	32525	32698	32711	
4057	0	2432	5326	3921	8098	166	0	32870	32555	32755	32676	32135	32636	32668	32909	
4058	0	2448	5400	3826	8114	167	0	32854	32681	32601	32635	33209	32663	32612	32888	
4059	0	2438	5343	3892	8102	168	0	32892	32679	32567	32699	32783	32743	32691	32749	
4060	0	2424	5329	3907	8107	169	0	32952	32576	32587	32670	32516	32771	32705	32675	
4061	0	2460	5328	3920	8084	170	0	32862	32834	32527	32605	33319	32679	32625	32607	
4062	0	2423	5375	3910	8085	171	0	32932	32727	32567	32607	32082	32630	32636	32389	
4063	0	2433	5312	3909	8116	172	0	32925	32757	32517	32679	33287	32788	32623	32557	
4064	0	2401	5373	3908	8133	173	0	32890	32599	32519	32655	32573	32751	32707	32783	
4065	0	2439	5347	3888	8128	174	0	32804	32708	32438	32659	32537	32758	32718	32728	
4066	0	2428	5331	3844	8082	175	0	32775	32583	32532	32647	33177	32739	32575	32865	
4067	0	2403	5408	3882	8088	176	0	32756	32619	32558	32764	32040	32908	32678	32783	
4068	0	2407	5370	3845	8115	177	0	32719	32343	32391	32691	33242	33061	32620	32714	
4069	0	2429	5334	3877	8070	178	0	32682	32535	32551	32493	32319	32941	32729	32659	
4070	0	2455	5364	3905	8084	179	0	32624	32453	32458	32641	32786	32922	32685	32671	
4071	0	2407	5387	3866	8120	180	0	32640	32202	32524	32607	33186	33052	32647	32791	
4072	0	2468	5316	3924	8059	181	0	32590	32302	32481	32535	32213	33033	32805	32662	
4073	0	2427	5390	3899	8105	182	0	32560	32223	32590	32523	33370	32855	32839	32855	
4074	0	2413	5345	3905	8088	183	0	32585	32250	32483	32455	32327	32871	32722	33071	
4075	0	2440	5353	3877	8111	184	0	32574	32084	32511	32308	32954	32918	32865	32941	
4076	0	2443	5397	3890	8102	185	0	32579	32275	32573	32399	32959	32929	32786	32719	
4077	0	2422	5374	3850	8081	186	0	32570	32314	32532	32627	32171	32969	32605	32477	
4078	0	2412	5381	3877	8088	187	0	32620	32127	32551	32685	33415	32935	32758	32634	
4079	0	2410	5341	3888	8074	188	0	32511	32339	32607	32658	32171	32843	32881	32712	
4080	0	2406	5324	3859	8098	189	0	32461	32405	32599	32677	33017	32740	32935	32646	
4081	0	2432	5364	3899	8127	190	0	32483	32385	32725	32916	32839	32692	33062	32995	
4082	0	2428	5329	3882	8056	191	0	32504	32637	32637	32871	32399	32701	32967	33047	
4083	0	2398	5380	3831	8104	192	0	32564	32644	32796	32975	33301	32718	32935	32887	
4084	0	2468	5348	3871	8078	193	0	32621	32829	32962	33039	32048	32642	32971	32973	
4085	0	2441	5336	3841	8060	194	0	32632	32775	32841	33171	33122	32656	32999	32847	
4086	0	2400	5411	3890	8072	195	0	32663	32837	33129	33271	32543	32636	33169	32960	
4087	0	2441	5389	3898	8084	196	0	32612	32978	33227	33218	32374	32686	33177	32978	
4088	0	2401	5324	3907	8088	197	0	32596	33067	33466	33378	33303	32739	33095	32791	
4089	0	2439	5374	3858	8078	198	0	32422	32806	33455	33156	32135	32668	33198	32623	
4090	0	2414	5356	3827	8110	199	0	32344	32996	33546	33526	33349	32612	33129	32570	
4091	0	2447	5364	3906	8070	200	0	32252	32903	33583	33977	32507	32687	33099	32535	
4092	0	2412	5391	3840	8099	201	0	32287	32803	33442	33703	32660	32725	33095	32413	
4093	0	2388	5350	3894	8094	202	0	32359	33093	33413	33299	33283	32717	33015	32583	
4094	0	2403	5372	3858	8101	203	0	32461	32965	33249	33274	32086	32669	32866	32464	
4095	0	2415	5384	3868	8098	204	0	32636	32923	33250	33238	33281	32578	32829	32295	
4096	0	2366	5323	3851	8110	205	0	32911	33191	32924	33180	32391	32613	32570	32413	
4097	0	2448	5367	3881	8082	206	0	33099	33246	32871	32757	32794	32562	32391	32436	
4098	0	2430	5356	3898	8073	207	0	33211	32999	32686	32711	33143	32567	32363	32338	
4099	0	2374	5375	3862	8090	208	0	33295	33142	32600	32615	32253	32622	32208	32289	
4100	0	2403	5386	3884	8066	209	0	33380	33065	32583	32529	33445	32694	32114	32311	
4101	0	2457	5366	3895	8105	210	0	33354	33117	32543	32417	32287	32647	32260	32417	
4102	0	2455	5336	3865	8090	211	0	33346	32931	32539	32450	32918	32692	32263	32215	
4103	0	2410	5356	3896	8104	212	0	33323	33155	32673	32314	32835	32634	32263	32335	
4104	0	2409	5373	3869	8070	213	0	33228	33175	32612	32471	32333	32679	32367	32509	
4105	0	2430	5374	3873	8080	214	0	33179	32983	32647	32391	33415	32639	32373	32339	
4106	0	2421	5359	3865	8096	215	0	33114	33171	32543	32497	32135	32695	32304	32528	
4107	0	2413	5373	3886	8024	216	0	33087	33148	32492	32443	33159	32660	32409	32547	
4108	0	2436	5332	3906	8056	217	0	33088	32877	32475	32319	32788	32679	32544	32679	
4109	0	2408	5349	3854	8054	218	0	33068	32868	32444	32464	32308	32751	32557	32775	
4110	0	2441	5354	3860	8070	219	0	32912	32883	32359	32511	33335	32815	32629	32727	
4111	0	2406	5414	3883	8074	220	0	32847	32613	32407	32600	32135	32854	32542	32704	
4112	0	2439	5398	3902	8084	221	0	32948	32745	32557	32546	33294	32866	32471	32671	
4113	0	2415	5342	3898	8088	222	0	32875	32591	32623	32399	32599	32767	32647	32522	
4114	0	2427	5366	3871	8075	223	0	32751	32590	32578	32306	32529	32743	32639	32391	
4115	0	2435	5362	3902	8037	224	0	32738	32654	32647	32503	33311	32743	32677	32503	
4116	0	2450	5374	3884	8051	225	0	32733	32578	32537	32622	32135	32671	32714	32727	
4117	0	2421	5380	3889	8091	226	0	32750	32629	32614	32700	33271	32703	32681	32769	
4118	0	2437	5334	3877	8043	227	0	32711	32341	32571	32875	32318	32605	32715	32699	
4119	0	2472	5383	3921	8066	228	0	32703	32532	32836	32623	32661	32753	32699	32838	
4120	0	2436	5380	3867	8100	229	0	32740	32461	32828	32669	33159	32786	32715	32647	
4121	0	2448	5332	3898	8094	230	0	32718	32262	32844	32771	32241	32758	32793	32708	
4122	0	2416	5368	3926	8024	231	0	32684	32519	32783	32919	33409	32743	32765	32759	
4123	0	2382	5381	3878	8070	232	0	32647	32534	32748	32806	32303	32697	32807	32874	
4124	0	2438	5358	3883	8036	233	0	32635	32415	32757	32582	32979	32642	32733	32805	
4125	0	2443	5363	3840	8044	234	0	32620	32647	32758	32775	32862	32647	32845	32711	
4126	0	2444	5345	3872	8078	235	0	32572	32728	32834	32767	32203	32799	32854	32687	
4127	0	2466	5366	3846	8065	236	0	32588	32563	32765	32733	33415	32975	32788	32863	
4128	0	2458	5398	3852	8070	237	0	32631	32765	32691	32479	32171	33250	32783	32854	
4129	0	2423	5384	3866	8053	238	0	32672	32698	32623	32647	33053	33177	32852	32607	
4130	0	2428	5369	3840	8026	239	0	32678	32541	32647	32613	32809	32991	32851	32563	
4131	0	2420	5361	3876	8066	240	0	32705	32663	32596	32820	32322	33039	32784	32680	
4132	0	2438	5402	3858	8064	241	0	32692	32695	32647	32623	33335	32935	32721	32971	
4133	0	2463	5376	3908	8084	242	0	32716	32508	32553	32783	32120	32966	32817	32810	
4134	0	2387	5388	3828	8078	243	0	32751	32632	32698	32818	33206	32837	32829	32574	
4135	0	2444	5341	3894	8101	244	0	32745	32671	32694	32903	32583	32751	32674	32493	
4136	0	2400	5340	3905	8084	245	0	32716	32703	32683	32743	32562	32743	32762	32639	
4137	0	2452	5393	3839	8102	246	0	32742	32622	32621	32718	33127	32751	32754	32746	
4138	0	2431	5376	3880	8102	247	0	32699	32458	32479	32980	32178	32636	32807	32709	
4139	0	2434	5378	3858	8110	248	0	32779	32599	32506	32946	33403	32710	32655	32946	
4140	0	2442	5408	3894	8086	249	0	32743	32643	32543	32781	32415	32695	32695	32871	
4141	0	2435	5360	3922	8048	250	0	32707	32498	32547	32857	32795	32729	32793	32915	
4142	0	2459	5378	3869	8060	251	0	32772	32551	32586	32718	33147	32621	32751	32607	
4143	0	2421	5338	3914	8053	252	0	32703	32539	32662	32764	32135	32747	32693	32680	
4144	0	2425	5351	3906	8080	253	0	32692	32786	32903	32652	33431	32751	32731	32708	
4145	0	2392	5420	3878	8089	254	0	32702	32759	32839	32679	32303	32727	32746	32537	
4146	0	2415	5380	3898	8071	255	0	32751	32674	32918	32747	32951	32806	32599	32687	
4147	0	2450	5364	3872	8107	256	0	32730	32802	32832	32757	32911	32831	32647	32765	
4148	0	2426	5395	3899	8083	257	0	32646	32796	32805	32697	32307	32854	32807	32718	
4149	0	2408	5359	3850	8096	258	0	32700	32647	32751	32471	33307	32748	32791	32687	
4150	0	2413	5394	3915	8066	259	0	32772	32695	32685	32695	32039	32831	32679	32715	
4151	0	2459	5333	3923	8102	260	0	32841	32770	32751	32655	32959	32791	32788	32573	
4152	0	2451	5397	3903	8100	261	0	32780	32553	32671	32691	32729	32727	32720	32615	
4153	0	2393	5364	3841	8041	262	0	32788	32666	32738	32855	32415	32724	32679	32583	
4154	0	2442	5376	3873	8061	263	0	32734	32727	32695	32703	33365	32710	32771	32413	
4155	0	2423	5398	3893	8075	264	0	32684	32595	32799	32551	32120	32762	32687	32679	
4156	0	2438	5393	3864	8069	265	0	32826	32639	32775	32422	33271	32729	32784	32727	
4157	0	2424	5401	3924	8092	266	0	32751	32627	32735	32659	32599	32737	32743	32631	
4158	0	2443	5355	3893	8060	267	0	32778	32528	32668	33082	32418	32756	32719	32647	
4159	0	2391	5344	3921	8044	268	0	32756	32587	32551	32711	33303	32743	32684	32804	
4160	0	2462	5408	3906	8052	269	0	32782	32417	32626	32764	32144	32704	32625	32713	
4161	0	2427	5386	3910	8098	270	0	32734	32708	32538	32683	33255	32754	32599	32822	
4162	0	2440	5379	3920	8080	271	0	32700	32717	32647	32861	32493	32667	32790	32789	
4163	0	2443	5395	3936	8068	272	0	32711	32562	32757	32845	32605	32700	32719	32801	
4164	0	2414	5408	3908	8068	273	0	32725	32751	32617	32971	33220	32690	32788	32698	
4165	0	2409	5352	3856	8067	274	0	32723	32655	32701	32918	32211	32734	32759	32742	
4166	0	2428	5385	3851	8057	275	0	32812	32864	32684	32940	33367	32791	32803	32694	
4167	0	2455	5401	3921	8060	276	0	32801	32813	32767	32812	32335	32829	32798	32564	
4168	0	2468	5426	3898	8092	277	0	32796	32676	32805	32964	32828	32687	32684	32570	
4169	0	2498	5392	3892	8074	278	0	32779	32743	32754	32927	32899	32646	32645	32637	
4170	0	2465	5344	3936	8035	279	0	32806	32858	32764	32756	32171	32752	32697	32594	
4171	0	2459	5421	3967	8093	280	0	32733	32667	32709	32833	33415	32718	32801	32809	
4172	0	2437	5386	3945	8036	281	0	32722	32765	32730	32727	32201	32979	32820	32723	
4173	0	2429	5410	3898	8062	282	0	32834	32653	32647	32783	33041	32839	32564	32354	
4174	0	2455	5379	3876	8068	283	0	32816	32703	32701	32687	32822	32733	32562	32451	
4175	0	2441	5428	3884	8089	284	0	32816	32740	32692	32628	32258	32662	32751	32791	
4176	0	2461	5344	3919	8082	285	0	32796	32537	32646	32479	33375	32935	32812	32740	
4177	0	2428	5353	3904	8044	286	0	32759	32687	32690	32558	32125	32972	32786	32786	
4178	0	2430	5394	3931	8060	287	0	32752	32687	32769	32644	33211	32911	32671	32738	
4179	0	2435	5401	3916	8041	288	0	32774	32567	32637	32638	32667	32735	32791	32583	
4180	0	2465	5366	3913	8046	289	0	32725	32604	32764	32498	32452	32854	32715	32513	
4181	0	2404	5400	3868	8058	290	0	32724	32692	32830	32589	33159	32885	32614	32404	
4182	0	2381	5370	3881	8028	291	0	32681	32479	32726	32708	32148	32858	32661	32505	
4183	0	2442	5420	3942	8032	292	0	32734	32743	32502	32724	33353	32967	32775	32750	
4184	0	2429	5415	3880	8070	293	0	32724	32738	32597	32863	32423	32923	32831	32871	
4185	0	2411	5355	3904	8048	294	0	32796	32622	32801	32676	32703	32730	32797	32867	
4186	0	2420	5384	3901	8038	295	0	32846	32838	32915	32802	33078	32713	32735	32807	
4187	0	2455	5412	3864	8033	296	0	32763	32812	32903	32834	32235	32578	32806	32548	
4188	0	2417	5368	3893	8038	297	0	32771	32755	32767	32742	33443	32555	32725	32679	
4189	0	2454	5428	3934	8040	298	0	32748	32807	32807	32628	32263	32591	32683	32804	
4190	0	2439	5384	3881	8067	299	0	32731	32761	32743	32718	32842	32647	32839	32765	
4191	0	2430	5399	3903	8058	300	0	32752	32679	32687	32701	33087	32754	32871	32882	
4192	0	2411	5387	3875	8049	301	0	32760	32710	32598	32780	32153	32702	32909	32974	
4193	0	2418	5401	3892	8041	302	0	32769	32583	32663	32512	33443	32607	32760	32627	
4194	0	2428	5395	3890	8073	303	0	32812	32749	32700	32775	32203	32727	32767	32575	
4195	0	2388	5410	3908	8020	304	0	32766	32757	32663	32695	33013	32764	32527	32489	
4196	0	2401	5386	3904	8026	305	0	32783	32487	32719	32754	32860	32627	32514	32435	
4197	0	2441	5404	3925	8033	306	0	32692	32700	32538	32780	32407	32771	32634	32567	
4198	0	2487	5385	3859	8039	307	0	32766	32573	32645	32685	33356	32831	32580	32637	
4199	0	2430	5377	3901	8024	308	0	32761	32519	32583	32766	31987	32814	32665	32726	
4200	0	2404	5391	3877	8029	309	0	32768	32570	32628	32754	33234	32946	32676	32809	
4201	0	2376	5342	3887	8062	310	0	32743	32571	32615	32807	32679	33285	32765	33003	
4202	0	2400	5393	3867	8023	311	0	32759	32450	32723	32750	32570	33334	32820	32945	
4203	0	2380	5374	3840	8072	312	0	32762	32676	32647	32231	33279	32858	32527	32527	
4204	0	2434	5408	3893	8008	313	0	32691	32764	32685	32295	32178	32643	32604	32655	
4205	0	2421	5384	3879	8054	314	0	32799	32635	32734	33036	33339	32567	32707	32571	
4206	0	2405	5356	3910	8072	315	0	32795	32731	32677	33130	32335	32662	32890	32615	
4207	0	2452	5400	3875	8028	316	0	32788	32911	32788	32647	32741	32704	32713	32702	
4208	0	2454	5341	3847	8030	317	0	32807	32719	32835	32743	33215	32795	32791	32699	
4209	0	2434	5405	3876	8054	318	0	32802	32775	32846	32860	32174	32709	32809	32612	
4210	0	2418	5395	3877	8025	319	0	32668	32772	32903	32787	33355	32730	32809	32639	
4211	0	2467	5420	3870	8038	320	0	32679	32574	32823	32676	32352	32637	32647	32747	
4212	0	2426	5423	3843	8049	321	0	32778	32617	32851	32462	32788	32631	32706	32663	
4213	0	2433	5376	3844	8058	322	0	32806	32647	32703	32749	32914	32690	32706	32639	
4214	0	2468	5392	3918	8068	323	0	32738	32560	32704	32795	32303	32660	32604	32584	
4215	0	2418	5402	3906	8072	324	0	32727	32711	32644	32775	33429	32719	32843	32724	
4216	0	2403	5401	3878	8034	325	0	32720	32727	32701	32811	32178	32647	32797	32503	
4217	0	2416	5360	3880	8048	326	0	32783	32455	32679	32771	33014	32642	32607	32636	
4218	0	2434	5388	3842	8081	327	0	32749	32647	32663	32827	32797	32852	32630	32535	
4219	0	2462	5405	3883	8033	328	0	32787	32521	32587	32773	32399	32931	32711	32713	
4220	0	2423	5364	3893	8026	329	0	32800	32604	32583	32919	33313	32732	32775	32871	
4221	0	2463	5362	3896	8031	330	0	32828	32702	32695	32970	32023	32576	32747	32810	
4222	0	2420	5381	3885	8028	331	0	32820	32615	32615	33063	33270	32789	32791	32839	
4223	0	2462	5380	3876	8050	332	0	32742	32583	32703	32759	32641	33011	32684	32866	
4224	0	2404	5422	3878	8066	333	0	32762	32848	32703	32655	32604	32991	32629	32713	
4225	0	2403	5418	3831	8047	334	0	32740	32805	32775	32855	33210	32826	32709	32631	
4226	0	2423	5362	3881	8049	335	0	32806	32844	32806	32893	32111	32699	32814	32386	
4227	0	2403	5382	3864	8030	336	0	32834	32915	32861	32903	33375	32757	32731	32495	
4228	0	2372	5436	3865	8027	337	0	32764	32748	32845	32735	32320	32687	32644	32597	
4229	0	2409	5382	3903	8019	338	0	32676	32679	32818	32457	32625	32804	32775	32722	
4230	0	2417	5379	3894	8064	339	0	32697	32754	32748	32364	33191	32701	32821	32703	
4231	0	2415	5380	3917	8012	340	0	32786	32746	32624	32677	32231	32792	32673	32519	
4232	0	2413	5385	3819	8017	341	0	32795	32585	32711	32693	33351	32706	32774	32638	
4233	0	2445	5428	3852	8024	342	0	32766	32732	32637	32687	32311	32727	32769	32613	
4234	0	2403	5414	3880	8008	343	0	32740	32671	32635	32457	32937	32797	32637	32679	
4235	0	2417	5392	3871	8033	344	0	32727	32487	32557	32406	32851	32739	32757	32647	
4236	0	2392	5392	3868	8001	345	0	32829	32746	32695	32617	32287	32825	32719	32564	
4237	0	2433	5369	3892	8044	346	0	32804	32691	32663	32610	33402	32655	32599	32669	
4238	0	2445	5382	3889	8067	347	0	32807	32451	32732	32771	32135	32740	32620	32772	
4239	0	2436	5373	3904	8067	348	0	32743	32553	32786	32528	33122	32756	32749	32663	
4240	0	2427	5398	3887	8017	349	0	32683	32548	32647	32673	32690	32771	32727	32765	
4241	0	2452	5372	3885	8053	350	0	32688	32534	32730	32763	32292	32764	32630	32724	
4242	0	2423	5345	3884	7981	351	0	32677	32662	32647	32925	33369	32703	32735	32771	
4243	0	2380	5393	3850	8048	352	0	32727	32694	32647	32919	32135	32809	32738	32685	
4244	0	2403	5377	3878	8019	353	0	32841	32783	32690	32742	33177	32775	32743	32759	
4245	0	2357	5371	3890	8026	354	0	32824	32851	32711	32724	32662	32807	32686	32634	
4246	0	2408	5344	3903	7997	355	0	32761	32753	32738	32900	32415	32725	32695	32601	
4247	0	2431	5381	3895	8033	356	0	32806	32887	32698	32951	33299	32751	32755	32497	
4248	0	2436	5372	3887	8050	357	0	32823	32871	32749	32732	32153	32760	32735	32667	
4249	0	2441	5376	3880	8024	358	0	32835	32598	32715	32681	33311	32743	32678	32727	
4250	0	2415	5392	3907	8036	359	0	32748	32799	32711	32811	32493	32683	32743	32593	
4251	0	2424	5341	3897	8046	360	0	32646	32797	32662	32636	32637	32772	32719	32745	
4252	0	2451	5350	3895	8036	361	0	32684	32708	32575	32539	33213	32775	32762	32693	
4253	0	2384	5403	3906	8050	362	0	32765	32775	32642	32850	32229	32863	32684	32599	
4254	0	2413	5377	3842	8045	363	0	32822	32543	32555	32775	33335	32783	32734	32711	
4255	0	2404	5369	3919	7998	364	0	32855	32700	32703	32807	32199	32775	32723	32711	
4256	0	2448	5370	3908	8005	365	0	32812	32647	32619	32869	32933	32791	32735	32682	
4257	0	2419	5412	3861	8016	366	0	32846	32615	32706	32681	33055	32715	32687	32678	
4258	0	2412	5358	3870	8037	367	0	32745	32541	32711	32632	32258	32772	32756	32775	
4259	0	2414	5436	3898	8036	368	0	32660	32534	32751	32743	33399	32701	32591	32813	
4260	0	2386	5389	3929	8060	369	0	32704	32355	32717	32816	32095	32723	32623	32667	
4261	0	2392	5388	3880	8051	370	0	32715	32556	32929	32937	33087	32718	32775	32810	
4262	0	2422	5405	3919	7990	371	0	32607	32682	32815	32755	32875	32805	32875	32647	
4263	0	2400	5381	3888	8011	372	0	32704	32473	32629	32610	32342	32719	32789	32946	
4264	0	2384	5364	3912	8010	373	0	32775	32662	32675	32807	33313	32831	32699	32851	
4265	0	2405	5407	3901	8032	374	0	32760	32749	32674	32841	32004	32773	32834	32550	
4266	0	2431	5391	3852	8035	375	0	32764	32617	32707	32949	33227	32835	32845	32575	
4267	0	2411	5342	3904	8012	376	0	32790	32898	32532	32722	32661	32873	32691	32503	
4268	0	2400	5379	3865	8015	377	0	32760	32767	32576	32692	32580	32815	32663	32379	
4269	0	2408	5372	3899	8054	378	0	32796	32775	32679	32548	33189	32767	32647	32219	
4270	0	2378	5357	3871	8008	379	0	32727	32747	32646	32612	32154	32756	32725	32327	
4271	0	2391	5346	3918	8043	380	0	32793	32599	32775	32524	33369	32724	32775	32473	
4272	0	2420	5408	3869	8053	381	0	32886	32788	32734	32493	32388	32719	32647	32727	
4273	0	2365	5352	3900	8022	382	0	32824	32699	32785	32507	32740	32745	32799	33107	
4274	0	2497	5392	3913	8014	383	0	32749	32690	32829	32767	33231	32562	32708	32871	
4275	0	2439	5394	3877	8033	384	0	32780	32455	32865	32855	32134	32594	32646	32729	
4276	0	2443	5381	3910	8048	385	0	32784	32747	32781	33017	33275	32620	32703	32599	
4277	0	2402	5360	3929	8033	386	0	32706	32541	32807	32803	32327	32599	32811	32784	
4278	0	2397	5412	3907	8040	387	0	32716	32576	32605	32629	32903	32630	32754	32895	
4279	0	2433	5427	3898	8022	388	0	32756	32541	32621	32759	33070	32775	32839	32738	
4280	0	2408	5397	3899	8009	389	0	32722	32376	32703	32721	32164	32995	32721	32839	
4281	0	2397	5394	3856	8041	390	0	32680	32601	32790	32825	33415	32787	32655	32647	
4282	0	2437	5376	3884	7974	391	0	32782	32613	32734	32675	32183	33011	32626	32468	
4283	0	2414	5426	3941	8014	392	0	32810	32498	32621	32850	33060	33076	32718	32730	
4284	0	2445	5418	3920	8052	393	0	32799	32757	32663	32891	32767	33103	32775	32756	
4285	0	2416	5410	3876	8022	394	0	32706	32848	32635	32878	32277	32999	32743	32886	
4286	0	2428	5416	3870	8018	395	0	32746	32754	32723	32671	33359	33019	32647	32845	
4287	0	2419	5421	3907	8060	396	0	32775	32799	32757	32497	32138	32720	32719	32623	
4288	0	2407	5412	3896	8059	397	0	32788	32684	32807	32660	33233	32698	32685	32951	
4289	0	2440	5396	3926	8050	398	0	32753	32869	32806	32806	32640	32701	32647	32879	
4290	0	2402	5346	3899	8020	399	0	32720	32790	32914	32827	32620	32829	32722	32717	
4291	0	2427	5401	3928	8026	400	0	32716	32683	32738	32871	33159	32867	32692	32387	
4292	0	2416	5392	3876	8036	401	0	32708	32775	32759	32671	32165	32832	32606	32541	
4293	0	2445	5368	3885	8041	402	0	32720	32730	32636	32656	33380	32801	32668	32635	
4294	0	2400	5375	3924	8036	403	0	32809	32530	32807	32803	32391	32669	32831	32510	
4295	0	2442	5383	3893	8042	404	0	32813	32759	32716	32736	32737	32684	32790	32647	
4296	0	2416	5434	3917	8068	405	0	32732	32678	32743	32731	33212	32766	32756	32711	
4297	0	2400	5389	3918	8009	406	0	32685	32429	32533	32536	32116	32667	32819	32614	
4298	0	2402	5413	3907	8033	407	0	32605	32538	32631	32501	33276	32751	32731	32647	
4299	0	2433	5356	3913	8066	408	0	32729	32535	32471	32677	32319	32743	32563	32609	
4300	0	2410	5418	3912	8048	409	0	32734	32599	32572	32913	32945	32644	32683	32685	
4301	0	2366	5407	3940	8044	410	0	32768	32701	32493	32703	32955	32671	32799	32750	
4302	0	2409	5374	3901	8048	411	0	32775	32638	32622	32586	32314	32702	32646	32724	
4303	0	2414	5385	3899	8040	412	0	32816	32575	32708	32838	33308	32773	32756	32710	
4304	0	2404	5403	3943	8037	413	0	32821	32773	32799	32690	32060	32685	32745	32538	
4305	0	2414	5377	3913	8058	414	0	32799	32740	32903	32588	33117	32775	32684	32647	
4306	0	2424	5389	3876	8076	415	0	32754	32775	32927	32566	32818	32733	32731	32743	
4307	0	2378	5416	3918	8038	416	0	32832	32882	32897	32909	32423	32727	32799	32639	
4308	0	2408	5422	3875	8030	417	0	32770	32882	32775	32955	33285	32691	32749	32791	
4309	0	2429	5408	3936	8050	418	0	32727	32678	32783	32793	31990	32735	32740	32759	
4310	0	2414	5412	3892	7997	419	0	32748	32797	32610	32789	33229	32757	32694	32525	
4311	0	2434	5417	3945	8044	420	0	32757	32731	32669	32674	32672	32686	32740	32620	
4312	0	2423	5349	3924	8096	421	0	32716	32532	32599	32793	32577	32786	32685	32660	
4313	0	2372	5389	3917	8028	422	0	32711	32713	32660	32875	33303	32731	32807	32590	
4314	0	2403	5399	3917	8033	423	0	32716	32642	32646	32793	32108	32814	32700	32608	
4315	0	2431	5411	3879	8036	424	0	32749	32615	32687	32868	33358	32834	32647	32564	
4316	0	2405	5407	3913	8068	425	0	32789	32631	32678	32903	32547	32695	32715	32668	
4317	0	2407	5380	3937	8052	426	0	32820	32701	32550	32845	32694	32769	32727	32698	
4318	0	2355	5435	3918	8033	427	0	32805	32711	32726	32604	33114	32732	32679	32706	
4319	0	2413	5388	3937	8034	428	0	32847	32473	32611	32544	32073	32729	32743	32799	
4320	0	2430	5377	3876	8064	429	0	32775	32523	32570	32539	33258	32810	32635	32578	
4321	0	2451	5376	3954	8025	430	0	32753	32607	32463	32615	32402	32795	32799	32573	
4322	0	2421	5394	3896	8055	431	0	32780	32634	32572	32569	32829	32775	32757	32745	
4323	0	2438	5415	3920	8064	432	0	32775	32493	32717	32727	33127	32727	32703	32711	
4324	0	2458	5380	3918	8001	433	0	32716	32747	32749	32751	32181	32834	32873	32799	
4325	0	2410	5426	3937	8016	434	0	32703	32863	32876	32867	33391	32809	32775	32765	
4326	0	2408	5437	3915	8034	435	0	32773	32637	32825	32833	32237	32876	32719	32582	
4327	0	2437	5358	3915	8046	436	0	32713	32809	32773	32621	32841	32740	32705	32535	
4328	0	2407	5402	3928	8062	437	0	32760	32796	32705	32647	32951	32810	32743	32644	
4329	0	2408	5436	3942	8045	438	0	32752	32688	32698	32788	32339	32698	32692	32527	
4330	0	2447	5422	3940	8036	439	0	32774	32722	32728	32756	33394	32771	32639	32578	
4331	0	2378	5368	3913	8000	440	0	32800	32615	32647	32893	32103	32799	32654	32582	
4332	0	2417	5390	3870	8012	441	0	32820	32773	32863	32692	33185	32735	32738	32527	
4333	0	2411	5404	4004	8036	442	0	32827	32767	32806	32639	32631	32783	32732	32623	
4334	0	2426	5385	3932	8026	443	0	32721	32575	32903	32609	32459	32743	32772	32585	
4335	0	2440	5328	3869	8043	444	0	32687	32773	32807	32685	33367	32692	32743	32702	
4336	0	2394	5375	3909	8062	445	0	32683	32751	32819	32647	32107	32711	32721	32745	
4337	0	2439	5386	3902	8044	446	0	32715	32507	32700	32591	33226	32775	32698	32599	
4338	0	2379	5370	3958	8026	447	0	32866	32535	32751	32669	32598	32797	32722	32813	
4339	0	2426	5348	3916	8050	448	0	32772	32583	32736	32743	32499	32775	32738	32769	
4340	0	2362	5388	3958	8032	449	0	32731	32583	32590	32775	33275	32820	32711	32551	
4341	0	2405	5424	3884	8007	450	0	32713	32481	32677	32549	32184	32818	32722	32701	
4342	0	2380	5388	3923	8004	451	0	32747	32463	32607	32633	33359	32822	32703	32868	
4343	0	2395	5416	3958	8024	452	0	32732	32709	32647	32661	32381	32758	32644	32791	
4344	0	2447	5390	3943	8034	453	0	32810	32758	32592	32791	32769	32828	32646	32788	
4345	0	2411	5380	3902	8076	454	0	32822	32751	32725	32573	33010	32743	32749	32723	
4346	0	2395	5461	3891	8064	455	0	32832	32844	32780	32621	32262	32790	32743	32699	
4347	0	2416	5355	3950	8060	456	0	32756	32716	32749	32807	33330	32699	32766	32622	
4348	0	2405	5361	3974	8070	457	0	32709	32711	32815	32691	32247	32751	32612	32673	
4349	0	2397	5391	3941	8049	458	0	32728	32702	32785	32766	32854	32696	32742	32727	
4350	0	2430	5388	3917	8016	459	0	32765	32605	32674	32929	32838	32806	32714	32749	
4351	0	2403	5415	3931	8060	460	0	32708	32687	32702	32978	32351	32623	32748	32617	
4352	0	2406	5392	3941	8036	461	0	32684	32647	32635	32885	33359	32686	32663	32679	
4353	0	2429	5421	3918	8002	462	0	32747	32719	32718	32743	32091	32772	32758	32631	
4354	0	2392	5423	3921	8036	463	0	32794	32730	32694	32723	33173	32686	32759	32710	
4355	0	2393	5401	3932	8037	464	0	32839	32596	32799	32842	32642	32762	32667	32615	
4356	0	2373	5415	3900	8064	465	0	32797	32707	32815	32945	32502	33043	32628	32498	
4357	0	2442	5399	3896	8014	466	0	32775	32623	32726	32685	33309	32881	32719	32543	
4358	0	2428	5351	3934	8032	467	0	32775	32663	32711	32711	32155	32751	32727	32428	
4359	0	2411	5413	3923	8009	468	0	32714	32702	32541	32647	33255	32754	32791	32534	
4360	0	2415	5417	3918	8000	469	0	32745	32477	32567	32647	32421	32716	32601	32643	
4361	0	2426	5355	3905	8029	470	0	32764	32635	32575	32548	32679	32786	32718	32535	
4362	0	2411	5380	3868	8003	471	0	32732	32527	32567	32559	33207	32859	32747	32519	
4363	0	2429	5410	3908	8064	472	0	32748	32725	32679	32694	32209	32903	32752	32318	
4364	0	2429	5397	3926	8036	473	0	32791	32702	32639	32769	33287	32887	32708	32511	
4365	0	2409	5410	3922	8014	474	0	32782	32751	32775	32739	32243	32837	32807	32615	
4366	0	2432	5378	3894	8035	475	0	32774	32775	32722	32637	32852	32717	32796	32804	
4367	0	2387	5429	3908	8016	476	0	32743	32687	32697	32727	33091	32775	32734	32903	
4368	0	2410	5398	3970	8027	477	0	32815	32789	32736	32671	32199	32732	32647	32738	
4369	0	2415	5367	3891	8008	478	0	32775	32775	32689	32729	33465	32823	32707	32804	
4370	0	2412	5393	3929	8000	479	0	32816	32635	32669	32855	32173	32799	32771	32849	
4371	0	2406	5395	3971	7987	480	0	32893	32762	32707	32621	33019	32675	32667	32745	
4372	0	2405	5442	3925	8030	481	0	32789	32799	32850	32718	32932	32801	32775	32732	
4373	0	2453	5405	3895	8042	482	0	32789	32785	32765	32788	32282	32788	32743	32659	
4374	0	2422	5470	3896	7997	483	0	32815	32726	32903	32895	33415	32863	32626	32743	
4375	0	2434	5368	3922	8000	484	0	32762	32637	32751	32953	32151	32692	32729	32815	
4376	0	2357	5411	3966	8026	485	0	32711	32675	32717	32863	33145	32743	32700	32666	
4377	0	2453	5388	3928	7990	486	0	32804	32607	32631	32679	32622	32826	32629	32723	
4378	0	2411	5379	3925	8032	487	0	32743	32562	32596	32618	32376	32708	32775	32654	
4379	0	2408	5421	3895	8035	488	0	32728	32643	32557	32815	33351	32759	32709	32623	
4380	0	2403	5413	3924	8030	489	0	32799	32721	32701	32808	32071	32765	32764	32609	
4381	0	2417	5445	3964	8024	490	0	32788	32505	32583	32791	33300	32839	32700	32726	
4382	0	2431	5467	3858	8044	491	0	32791	32671	32639	32599	32550	32814	32647	32635	
4383	0	2410	5397	3919	8026	492	0	32815	32759	32623	32639	32509	32740	32631	32351	
4384	0	2455	5415	3886	8052	493	0	32702	32612	32803	32819	33126	32722	32735	32547	
4385	0	2455	5377	3923	8034	494	0	32665	32801	32735	32789	32181	32718	32847	32662	
4386	0	2394	5425	3988	7992	495	0	32643	32770	32756	32822	33382	32750	32811	32514	
4387	0	2425	5388	3877	8040	496	0	32681	32547	32692	32769	32343	32773	32684	32676	
4388	0	2403	5366	3954	8012	497	0	32761	32743	32647	32535	32816	32718	32645	32717	
4389	0	2406	5392	3897	8019	498	0	32743	32726	32668	32691	32993	32647	32625	32692	
4390	0	2447	5384	3916	8038	499	0	32720	32574	32508	32818	32167	32757	32640	32913	
4391	0	2425	5424	3915	8006	500	0	32830	32740	32663	32739	33449	32700	32791	32815	
4392	0	2392	5412	3916	8045	501	0	32875	32775	32584	32755	32274	32743	32795	32813	
4393	0	2383	5409	3900	8027	502	0	32782	32599	32695	32656	32946	32855	32630	32560	
4394	0	2410	5396	3926	8018	503	0	32831	32787	32725	32583	32922	32786	32735	32702	
4395	0	2408	5411	3919	8030	504	0	32830	32773	32852	32454	32298	32832	32707	32592	
4396	0	2437	5408	3852	8050	505	0	32811	32615	32844	32554	33460	32775	32639	32754	
4397	0	2451	5385	3880	8009	506	0	32797	32711	32863	32567	32039	32822	32782	32698	
4398	0	2456	5374	3920	8021	507	0	32740	32629	32841	32673	32967	32775	32706	32562	
4399	0	2449	5402	3922	8043	508	0	32762	32495	32859	32695	32807	32718	32607	32577	
4400	0	2433	5393	3887	8012	509	0	32690	32699	32745	32555	32428	32711	32704	32460	
4401	0	2429	5385	3900	8012	510	0	32671	32588	32694	32385	33363	32798	32734	32677	
4402	0	2396	5394	3881	8022	511	0	32710	32534	32593	32615	32058	32940	32726	32870	
4403	0	2442	5370	3952	8040	512	0	32749	32727	32578	32796	33220	32802	32775	32615	
4404	0	2423	5390	3907	8045	513	0	32672	32731	32601	32627	32469	32588	32771	32647	
4405	0	2470	5410	3914	8072	514	0	32720	32623	32567	32634	32614	32737	32795	32666	
4406	0	2460	5404	3900	8076	515	0	32765	32799	32583	32887	33297	32755	32727	32675	
4407	0	2453	5430	3926	8049	516	0	32824	32846	32564	32919	32142	32852	32692	32706	
4408	0	2432	5440	3920	8030	517	0	32854	32647	32707	33093	33308	32751	32769	32675	
4409	0	2438	5420	3920	8003	518	0	32865	32797	32673	33197	32439	32775	32659	32807	
4410	0	2403	5358	3908	8024	519	0	32802	32786	32807	32928	32762	32887	32754	32903	
4411	0	2421	5400	3876	8014	520	0	32753	32759	32759	32668	33215	32863	32673	32883	
4412	0	2412	5482	3914	8015	521	0	32792	32727	32745	32966	32097	32695	32670	32826	
4413	0	2445	5396	3925	8034	522	0	32817	32653	32692	32978	33414	32617	32677	32835	
4414	0	2425	5426	3914	8018	523	0	32703	32730	32831	32839	32319	32715	32743	32612	
4415	0	2430	5417	3886	8000	524	0	32722	32615	32725	32879	32932	32724	32669	32692	
4416	0	2430	5430	3924	8021	525	0	32730	32715	32775	32854	33000	32719	32766	32629	
4417	0	2434	5424	3945	8028	526	0	32803	32735	32866	32722	32247	32742	32678	32429	
4418	0	2430	5349	3938	8032	527	0	32797	32545	32757	32557	33428	32747	32683	32535	
4419	0	2454	5387	3877	8028	528	0	32749	32639	32735	32501	32215	32815	32859	32426	
4420	0	2420	5397	3910	8053	529	0	32745	32558	32652	32757	33027	32887	32741	32403	
4421	0	2395	5412	3942	8016	530	0	32766	32615	32654	32783	32719	32837	32668	32327	
4422	0	2409	5419	3891	8028	531	0	32767	32621	32647	32848	32418	32673	32709	32660	
4423	0	2427	5407	3922	8020	532	0	32844	32609	32731	32846	33357	32732	32647	32807	
4424	0	2435	5436	3888	8016	533	0	32801	32714	32831	32646	32089	32799	32701	32935	
4425	0	2401	5359	3945	8028	534	0	32791	32601	32820	32593	33158	32707	32751	33039	
4426	0	2442	5437	3944	8046	535	0	32718	32924	32732	32775	32628	32799	32729	32759	
4427	0	2392	5396	3940	7998	536	0	32752	32845	32756	32885	32556	32782	32726	32717	
4428	0	2414	5398	3916	7968	537	0	32741	32591	32819	33039	33177	32795	32703	32556	
4429	0	2410	5416	3889	8021	538	0	32773	32787	32759	32911	32140	32711	32713	32583	
4430	0	2406	5449	3929	8004	539	0	32784	32769	32785	32633	33270	32804	32663	32658	
4431	0	2421	5380	3929	8024	540	0	32759	32519	32676	32594	32487	33043	32701	32575	
4432	0	2397	5431	3938	7973	541	0	32800	32668	32743	32719	32638	32923	32687	32587	
4433	0	2425	5431	3896	8016	542	0	32726	32647	32671	32866	33071	32901	32691	32531	
4434	0	2410	5353	3944	8031	543	0	32751	32598	32671	32693	32229	32703	32615	32548	
4435	0	2422	5380	3890	8042	544	0	32708	32613	32643	32551	33383	32663	32804	32541	
4436	0	2434	5401	3885	8002	545	0	32679	32679	32701	32634	32335	32655	32710	32486	
4437	0	2414	5395	3902	8005	546	0	32678	32578	32583	32615	32911	32702	32557	32489	
4438	0	2461	5396	3921	8014	547	0	32720	32684	32579	32686	32935	32739	32854	32585	
4439	0	2466	5416	3897	8002	548	0	32705	32673	32470	32701	32166	32737	32817	32681	
4440	0	2468	5400	3864	8012	549	0	32780	32529	32463	32535	33431	32871	32735	32806	
4441	0	2414	5429	3925	8028	550	0	32805	32669	32466	32434	32211	32774	32822	32765	
4442	0	2457	5426	3934	7986	551	0	32790	32590	32585	32546	33095	32730	32847	32950	
4443	0	2380	5388	3938	8042	552	0	32834	32747	32630	32761	32702	32631	32859	33055	
4444	0	2449	5404	3888	8035	553	0	32772	32802	32513	32746	32417	32736	32812	33026	
4445	0	2461	5443	3900	8023	554	0	32738	32631	32706	32715	33395	32703	32743	32973	
4446	0	2430	5400	3929	8029	555	0	32791	32743	32821	32679	32061	32781	32684	32730	
4447	0	2432	5406	3922	8022	556	0	32749	32775	32931	32915	33284	32813	32647	32455	
4448	0	2434	5433	3922	8070	557	0	32665	32845	32879	32879	32511	32791	32562	32598	
4449	0	2436	5414	3900	8008	558	0	32742	32716	32943	32928	32479	32893	32592	32546	
4450	0	2425	5403	3916	8013	559	0	32759	32621	32926	32763	33319	32770	32700	32674	
4451	0	2413	5371	3889	8016	560	0	32775	32798	32911	32590	32145	32841	32642	32702	
4452	0	2420	5371	3913	8009	561	0	32822	32694	32834	32678	33343	32726	32675	32527	
4453	0	2428	5428	3912	8000	562	0	32868	32583	32713	32541	32487	32775	32775	32630	
4454	0	2446	5403	3945	8024	563	0	32780	32692	32738	32470	32615	32695	32815	32697	
4455	0	2425	5379	3910	8049	564	0	32745	32695	32743	32685	33070	32742	32668	32513	
4456	0	2465	5418	3872	8003	565	0	32721	32623	32834	32613	32206	32775	32762	32566	
4457	0	2458	5350	3950	8035	566	0	32735	32724	32578	32682	33437	32698	32791	32558	
4458	0	2434	5422	3879	8043	567	0	32700	32679	32707	32723	32355	32811	32641	32630	
4459	0	2432	5393	3945	8001	568	0	32669	32463	32684	32690	32887	32841	32731	32735	
4460	0	2444	5416	3904	8050	569	0	32786	32611	32743	32742	32995	32844	32679	32679	
4461	0	2429	5384	3894	8036	570	0	32778	32629	32695	32825	32299	32818	32621	32681	
4462	0	2447	5411	3884	8034	571	0	32765	32505	32759	32755	33279	32705	32743	32659	
4463	0	2447	5394	3907	7990	572	0	32680	32591	32605	32932	32219	32822	32751	32684	
4464	0	2432	5412	3900	8020	573	0	32747	32455	32673	32969	33005	32745	32764	32615	
4465	0	2435	5409	3952	8005	574	0	32716	32742	32749	32850	32898	32775	32635	32691	
4466	0	2436	5385	3920	8008	575	0	32689	32742	32723	32748	32231	32728	32780	32711	
4467	0	2436	5390	3926	8035	576	0	32691	32871	32639	32967	33381	32786	32754	32727	
4468	0	2436	5380	3914	8049	577	0	32742	32852	32495	32991	32105	32690	32742	32772	
4469	0	2394	5435	3930	8028	578	0	32752	32665	32665	32987	33197	32775	32687	32683	
4470	0	2426	5358	3946	8011	579	0	32795	32831	32695	32763	32662	32690	32773	32638	
4471	0	2394	5451	3935	7997	580	0	32837	32767	32702	32743	32402	32825	32704	32582	
4472	0	2459	5407	3967	8035	581	0	32858	32803	32839	32679	33319	32683	32623	32740	
4473	0	2416	5412	3904	8014	582	0	32868	32731	32882	32855	32133	32757	32679	32829	
4474	0	2421	5453	3876	8046	583	0	32871	32505	32871	32647	33359	32727	32743	32885	
4475	0	2433	5436	3934	8064	584	0	32738	32647	32807	32746	32465	32702	32710	32645	
4476	0	2454	5383	3911	8028	585	0	32728	32611	32804	32818	32711	32842	32813	32728	
4477	0	2436	5385	3914	8036	586	0	32754	32722	32811	32695	33207	32862	32687	32615	
4478	0	2422	5407	3936	8038	587	0	32771	32701	32766	32522	32189	32747	32771	32471	
4479	0	2413	5410	3908	8033	588	0	32800	32474	32660	32681	33446	32813	32748	32571	
4480	0	2408	5404	3947	8028	589	0	32713	32595	32501	32735	32179	32705	32732	32462	
4481	0	2403	5389	3940	7999	590	0	32671	32447	32636	32755	32946	32751	32684	32504	
4482	0	2407	5421	3928	8008	591	0	32735	32660	32610	32529	33006	32699	32623	32677	
4483	0	2434	5368	3919	8014	592	0	32709	32671	32657	32681	32215	32735	32743	32700	
4484	0	2396	5405	3890	7998	593	0	32780	32749	32591	32708	33445	32694	32735	32773	
4485	0	2379	5413	3954	8018	594	0	32731	32822	32533	32719	32039	32792	32784	32569	
4486	0	2419	5411	3934	8013	595	0	32796	32770	32613	32636	33127	32809	32807	32797	
4487	0	2452	5363	3940	8026	596	0	32765	32859	32646	32787	32755	32797	32694	32647	
4488	0	2390	5401	3902	8028	597	0	32796	32685	32617	32839	32466	32732	32690	32676	
4489	0	2428	5410	3965	8060	598	0	32718	32837	32654	32679	33215	32764	32724	32495	
4490	0	2414	5452	3913	8000	599	0	32811	32698	32686	32766	32128	32734	32810	32541	
4491	0	2425	5408	3917	8021	600	0	32825	32804	32685	32795	33250	33011	32877	32587	
4492	0	2366	5448	3887	8022	601	0	32846	32607	32775	32583	32438	33087	32769	32430	
4493	0	2431	5379	3908	8004	602	0	32775	32752	32731	32754	32679	32767	32660	32599	
4494	0	2437	5414	3960	8038	603	0	32756	32538	32647	32834	33223	32839	32645	32565	
4495	0	2445	5411	3941	8040	604	0	32769	32655	32775	32870	32223	32693	32675	32770	
4496	0	2411	5409	3948	8088	605	0	32816	32558	32890	32668	33255	32647	32683	32733	
4497	0	2419	5424	3909	7998	606	0	32783	32593	32727	32759	32407	32613	32742	32903	
4498	0	2429	5410	3948	7973	607	0	32720	32559	32647	32751	32833	32678	32642	32929	
4499	0	2376	5412	3928	8051	608	0	32750	32615	32542	32721	33103	32883	32605	33135	
4500	0	2381	5460	3942	8025	609	0	32716	32455	32671	32556	32147	32903	32691	32826	
4501	0	2430	5386	3943	8043	610	0	32780	32599	32669	32487	33428	32719	32822	32611	
4502	0	2366	5428	3951	7988	611	0	32689	32511	32759	32401	32229	32626	32772	32554	
4503	0	2413	5376	3948	8046	612	0	32714	32687	32708	32606	32935	32566	32742	32775	
4504	0	2392	5393	3906	7993	613	0	32721	32570	32845	32719	32894	32730	32735	32683	
4505	0	2450	5418	3943	8020	614	0	32815	32804	32883	32569	32423	32722	32751	32525	
4506	0	2386	5445	3888	8031	615	0	32806	32610	32751	32831	33221	32838	32669	32617	
4507	0	2450	5410	3909	8071	616	0	32775	32886	32694	32900	32127	32857	32694	32743	
4508	0	2397	5404	3945	8035	617	0	32759	32813	32644	32962	33209	32939	32724	32706	
4509	0	2398	5418	3948	8034	618	0	32714	32845	32883	32807	32647	32951	32775	32663	
4510	0	2432	5421	3925	8068	619	0	32743	32735	32871	32932	32567	32963	32814	32790	
4511	0	2373	5376	3910	8035	620	0	32780	32647	32767	32836	33182	32955	32621	32730	
4512	0	2380	5395	3931	8037	621	0	32743	32807	32710	32930	32134	32885	32850	32586	
4513	0	2397	5416	3892	8036	622	0	32751	32720	32431	32726	33371	32687	32743	32583	
4514	0	2437	5408	3906	8041	623	0	32738	32689	32453	32941	32450	32726	32733	32715	
4515	0	2404	5388	3924	8054	624	0	32833	32692	32595	32916	32723	32743	32658	32685	
4516	0	2416	5372	3913	7988	625	0	32703	32485	32662	32822	33058	32679	32615	32589	
4517	0	2408	5405	3893	8062	626	0	32773	32557	32679	32549	32235	32687	32647	32571	
4518	0	2425	5410	3936	8024	627	0	32767	32419	32722	32629	33415	32679	32707	32723	
4519	0	2394	5341	3935	8019	628	0	32736	32611	32817	32661	32287	32751	32639	32699	
4520	0	2461	5399	3911	8016	629	0	32748	32519	32771	32626	32786	32748	32738	32639	
4521	0	2423	5419	3907	8027	630	0	32788	32667	32826	32538	33015	32647	32629	32665	
4522	0	2395	5352	3912	8032	631	0	32789	32689	32884	32724	32230	32737	32667	32391	
4523	0	2367	5376	3896	8021	632	0	32742	32722	32917	32797	33351	32891	32647	32559	
4524	0	2395	5395	3887	8010	633	0	32683	32767	32933	32655	32166	32976	32705	32633	
4525	0	2404	5396	3914	8046	634	0	32690	32783	33028	32804	33126	32815	32760	32595	
4526	0	2460	5421	3941	8019	635	0	32799	32827	32967	32879	32775	32663	32759	32751	
4527	0	2421	5397	3897	8022	636	0	32724	32902	32699	32581	32376	32834	32822	32578	
4528	0	2407	5453	3929	8062	637	0	32717	32691	32668	32666	33351	32787	32749	32715	
4529	0	2371	5446	3929	8020	638	0	32780	32815	32631	32690	32150	32706	32822	32847	
4530	0	2371	5414	3958	8036	639	0	32794	32604	32702	32667	33183	32753	32695	32783	
4531	0	2382	5424	3896	8020	640	0	32816	32738	32519	32799	32525	32700	32819	32763	
4532	0	2423	5386	3955	8043	641	0	32763	32626	32617	32635	32730	32671	32681	32698	
4533	0	2419	5450	3924	8052	642	0	32758	32797	32631	32855	33127	32764	32567	32740	
4534	0	2424	5404	3910	8028	643	0	32789	32647	32583	32873	32210	32715	32627	32570	
4535	0	2414	5413	3949	8036	644	0	32868	32769	32573	32591	33430	32709	32631	32789	
4536	0	2380	5397	3936	8066	645	0	32759	32727	32678	32838	32203	32809	32655	32692	
4537	0	2410	5397	3908	7995	646	0	32826	32706	32678	32980	32900	32740	32700	32876	
4538	0	2371	5385	3909	8012	647	0	32775	32468	32751	32667	33046	32759	32799	32669	
4539	0	2421	5434	3891	8033	648	0	32811	32574	32684	32673	32293	32713	32795	32695	
4540	0	2461	5373	3913	8026	649	0	32791	32647	32577	32711	33429	32638	32626	32567	
4541	0	2445	5400	3913	8003	650	0	32799	32591	32507	32804	32170	32826	32661	32422	
4542	0	2375	5410	3933	8036	651	0	32772	32671	32596	32839	33127	32774	32608	32334	
4543	0	2357	5388	3952	8067	652	0	32725	32725	32623	32871	32659	32747	32735	32251	
4544	0	2440	5345	3957	8020	653	0	32734	32766	32636	32566	32456	32702	32897	32487	
4545	0	2413	5396	3938	8075	654	0	32752	32612	32679	32939	33357	32687	32847	32619	
4546	0	2418	5355	3944	8019	655	0	32716	32855	32727	32887	32011	32706	32795	32646	
4547	0	2422	5401	3951	8028	656	0	32800	32738	32747	32901	33321	33030	32869	32967	
4548	0	2412	5425	3952	8015	657	0	32695	32796	32775	32919	32551	32919	32884	33082	
4549	0	2359	5428	3923	8060	658	0	32698	32545	32813	32717	32695	32731	32780	32860	
4550	0	2426	5411	3931	8029	659	0	32735	32687	32807	32839	33122	32783	32715	32943	
4551	0	2413	5368	3958	8042	660	0	32734	32679	32681	32881	32229	32901	32598	32663	
4552	0	2456	5378	3924	8034	661	0	32759	32751	32711	32578	33415	32722	32653	32775	
4553	0	2424	5337	3965	8036	662	0	32689	32663	32718	32554	32324	32502	32555	32461	
4554	0	2392	5396	3867	8085	663	0	32742	32756	32775	32586	32875	32553	32472	32687	
4555	0	2379	5396	3978	8004	664	0	32704	32491	32723	32391	33069	32662	32727	32756	
4556	0	2444	5391	3976	8040	665	0	32796	32704	32765	32503	32238	33120	32678	32689	
4557	0	2394	5382	3927	8038	666	0	32740	32526	32699	32551	33487	33404	32706	32693	
4558	0	2378	5420	3940	8019	667	0	32795	32647	32783	32387	32055	33188	32628	32354	
4559	0	2396	5355	3970	8052	668	0	32816	32524	32742	32509	33108	32791	32680	32446	
4560	0	2448	5400	3946	8047	669	0	32767	32611	32695	32550	32749	32733	32767	32607	
4561	0	2421	5388	3910	8053	670	0	32737	32528	32704	32747	32381	32727	32769	32534	
4562	0	2423	5405	3903	8024	671	0	32771	32635	32699	32867	33223	32611	32759	32687	
4563	0	2426	5419	3952	8061	672	0	32689	32581	32607	32757	32127	32635	32653	32663	
4564	0	2436	5364	3897	8009	673	0	32807	32751	32807	32775	33196	32695	32623	32545	
4565	0	2400	5384	3952	8058	674	0	32846	32707	32771	32785	32647	32765	32822	32629	
4566	0	2435	5444	3945	8064	675	0	32792	32935	32813	32840	32527	32726	32836	32763	
4567	0	2440	5384	3909	8044	676	0	32770	32877	32711	32678	33159	32674	32803	32719	
4568	0	2486	5370	3933	7998	677	0	32746	32731	32573	32632	32167	32716	32646	32685	
4569	0	2401	5370	3929	8024	678	0	32742	32742	32711	32898	33350	32775	32770	32661	
4570	0	2395	5365	3925	8054	679	0	32723	32559	32708	32940	32435	32739	32703	32711	
4571	0	2438	5392	3920	8033	680	0	32748	32721	32751	32883	32772	32793	32655	32734	
4572	0	2436	5349	3936	8040	681	0	32809	32802	32775	32575	33058	32736	32775	32679	
4573	0	2411	5393	3908	8042	682	0	32871	32785	32699	32740	32245	32751	32742	32833	
4574	0	2382	5386	3989	8043	683	0	32856	32774	32758	32811	33449	32617	32676	32743	
4575	0	2383	5406	3918	8035	684	0	32761	32583	32774	32741	32259	32677	32673	32637	
4576	0	2405	5386	3974	8023	685	0	32720	32669	32820	32681	32947	32646	32641	32583	
4577	0	2436	5414	3924	8069	686	0	32685	32483	32669	32647	32839	32747	32787	32727	
4578	0	2383	5400	3899	8033	687	0	32750	32666	32500	32793	32295	32636	32775	32740	
4579	0	2436	5414	3913	8016	688	0	32742	32643	32639	32820	33415	32711	32685	32487	
4580	0	2390	5385	3916	8004	689	0	32773	32467	32759	32858	32108	32645	32558	32544	
4581	0	2430	5362	3929	8009	690	0	32694	32557	32612	32763	33159	32867	32556	32709	
4582	0	2396	5402	3968	8029	691	0	32775	32487	32694	32877	32647	33002	32711	32791	
4583	0	2438	5361	3905	8014	692	0	32756	32578	32622	32722	32340	32861	32751	32480	
4584	0	2410	5408	3944	8036	693	0	32676	32644	32711	32844	33367	32917	32707	32590	
4585	0	2411	5384	3927	8035	694	0	32724	32739	32742	32812	32052	32969	32753	32774	
4586	0	2353	5370	3943	8026	695	0	32714	32734	32749	32653	33215	32871	32747	32647	
4587	0	2426	5403	3936	8039	696	0	32775	32806	32718	32738	32602	32729	32813	32749	
4588	0	2408	5381	3960	8006	697	0	32805	32703	32740	32824	32587	32775	32876	32901	
4589	0	2417	5411	3904	8052	698	0	32790	32839	32638	32559	33277	32887	32751	32770	
4590	0	2415	5412	3910	8040	699	0	32748	32686	32687	32640	32051	32647	32840	32838	
4591	0	2414	5416	3910	8056	700	0	32788	32771	32595	32647	33415	32799	32724	32596	
4592	0	2399	5389	3936	8027	701	0	32760	32743	32519	32551	32413	32722	32599	32544	
4593	0	2380	5378	3917	8028	702	0	32759	32607	32633	32391	32769	32599	32599	32546	
4594	0	2404	5385	3936	8036	703	0	32744	32658	32619	32617	33180	32564	32599	32566	
4595	0	2424	5374	3932	8049	704	0	32836	32584	32704	32686	32133	32677	32556	32724	
4596	0	2400	5421	3903	8002	705	0	32838	32743	32797	32762	33276	32730	32703	32703	
4597	0	2457	5424	3955	8020	706	0	32861	32684	32855	32662	32250	32775	32815	32674	
4598	0	2400	5349	3901	8025	707	0	32769	32626	32831	32947	33022	32701	32775	32541	
4599	0	2354	5388	3906	8040	708	0	32774	32543	32762	33063	32814	32807	32751	32679	
4600	0	2430	5461	3936	8074	709	0	32711	32598	32734	32913	32215	32676	32647	32723	
4601	0	2389	5397	3954	8057	710	0	32711	32609	32731	32919	33391	32739	32827	32679	
4602	0	2368	5381	3918	8025	711	0	32713	32391	32708	32937	32119	32677	32818	32889	
4603	0	2451	5364	3905	8052	712	0	32764	32671	32702	33063	33179	32871	32727	32879	
4604	0	2389	5363	3942	8079	713	0	32858	32790	32739	32903	32711	32783	32823	32641	
4605	0	2378	5416	3928	8071	714	0	32764	32676	32900	32675	32485	32827	32758	32647	
4606	0	2433	5406	3896	8011	715	0	32758	32859	32868	32813	33172	32713	32671	32765	
4607	0	2460	5392	3921	8037	716	0	32781	32709	32703	32960	32152	32751	32623	32464	
4608	0	2427	5362	3897	8047	717	0	32730	32844	32693	32849	33367	32765	32735	32685	
4609	0	2403	5402	3908	8028	718	0	32748	32845	32612	32621	32391	32830	32701	32557	
4610	0	2422	5368	3929	8070	719	0	32768	32698	32639	32802	32765	32799	32751	32607	
4611	0	2402	5422	3919	8056	720	0	32687	32787	32643	32817	33039	32845	32679	32442	
4612	0	2426	5359	3908	8057	721	0	32763	32613	32588	32579	32231	32790	32656	32647	
4613	0	2401	5395	3965	7997	722	0	32754	32750	32596	32449	33430	32775	32719	32607	
4614	0	2384	5345	3924	8001	723	0	32839	32757	32519	32551	32289	32719	32731	32466	
4615	0	2412	5416	3891	8003	724	0	32771	32739	32663	32519	32975	32827	32717	32605	
4616	0	2383	5360	3908	8016	725	0	32789	32567	32663	32609	33039	32829	32559	32678	
4617	0	2408	5365	3911	8014	726	0	32777	32501	32786	32361	32217	33010	32686	32889	
4618	0	2400	5435	3945	8069	727	0	32690	32489	32869	32559	33421	32823	32798	32769	
4619	0	2407	5370	3924	8046	728	0	32756	32391	32767	32607	32123	32786	32756	32799	
4620	0	2410	5415	3932	8018	729	0	32724	32605	32804	32553	33170	32682	32666	32815	
4621	0	2352	5372	3924	8050	730	0	32693	32567	32726	32346	32602	32727	32655	32569	
4622	0	2410	5409	3913	8080	731	0	32666	32679	32672	32575	32486	32754	32676	32790	
4623	0	2368	5384	3926	8049	732	0	32696	32717	32647	32763	33255	32736	32803	32799	
4624	0	2372	5408	3880	8016	733	0	32786	32810	32579	32647	32081	32750	32788	32828	
4625	0	2429	5348	3926	8072	734	0	32796	32691	32569	32889	33332	32684	32817	32753	
4626	0	2420	5411	3947	8011	735	0	32822	32867	32707	32957	32503	32765	32711	32467	
4627	0	2393	5397	3907	8036	736	0	32778	32671	32775	32711	32568	32741	32745	32566	
4628	0	2387	5409	3929	8077	737	0	32744	32735	32679	32887	33250	32719	32629	32533	
4629	0	2409	5363	3928	8000	738	0	32804	32599	32873	32962	32143	32863	32724	32605	
4630	0	2397	5390	3906	8073	739	0	32886	32775	32835	32758	33266	32847	32715	32631	
4631	0	2409	5376	3954	8022	740	0	32817	32631	32830	32933	32319	32831	32831	32918	
4632	0	2386	5421	3907	8013	741	0	32764	32743	32860	32990	32847	32823	32795	32935	
4633	0	2424	5397	3954	8026	742	0	32823	32563	32775	32891	32919	32719	32813	32807	
4634	0	2400	5417	3956	8045	743	0	32827	32748	32634	32815	32314	32767	32656	32718	
4635	0	2418	5380	3940	8038	744	0	32790	32790	32731	33018	33439	32709	32659	32613	
4636	0	2398	5376	3890	8090	745	0	32726	32731	32687	33105	32207	32759	32722	32634	
4637	0	2394	5413	3955	8010	746	0	32681	32506	32623	32750	33117	32694	32743	32476	
4638	0	2382	5444	3883	8023	747	0	32728	32647	32743	32852	32751	32737	32687	32762	
4639	0	2436	5348	3889	8052	748	0	32704	32580	32737	32839	32450	32813	32681	32847	
4640	0	2427	5429	3935	8029	749	0	32724	32535	32587	32903	33211	32749	32561	32705	
4641	0	2392	5402	3943	8014	750	0	32690	32597	32615	32599	32127	32863	32524	32543	
4642	0	2392	5390	3908	8061	751	0	32671	32581	32637	32717	33188	32714	32615	32387	
4643	0	2353	5420	3876	8058	752	0	32728	32659	32621	32687	32635	32815	32662	32199	
4644	0	2407	5400	3889	8032	753	0	32760	32518	32663	32679	32497	32784	32798	32422	
4645	0	2436	5406	3929	8053	754	0	32767	32732	32679	32631	33251	32823	32829	32405	
4646	0	2384	5399	3944	8003	755	0	32754	32611	32734	32662	32202	32799	32690	32714	
4647	0	2411	5387	3907	8048	756	0	32807	32790	32887	32612	33410	32719	32647	32765	
4648	0	2398	5411	3954	8004	757	0	32809	32743	32886	32583	32314	32815	32738	32783	
4649	0	2408	5350	3975	8100	758	0	32779	32783	32771	32515	32874	32773	32821	32689	
4650	0	2374	5389	3945	8024	759	0	32807	32719	32847	32402	33099	32703	32793	32731	
4651	0	2386	5411	3938	8045	760	0	32756	32725	32903	32404	32201	32745	32755	32794	
4652	0	2421	5376	3890	8083	761	0	32754	32570	32745	32762	33437	32727	32683	32751	
4653	0	2404	5370	3900	8076	762	0	32700	32754	32813	32826	32111	32766	32662	32834	
4654	0	2386	5410	3937	8044	763	0	32751	32678	32726	32771	33047	32754	32751	32517	
4655	0	2372	5394	3882	8060	764	0	32707	32615	32783	32623	32834	32775	32701	32669	
4656	0	2414	5381	3944	8035	765	0	32756	32698	32794	32897	32286	32743	32677	32679	
4657	0	2389	5420	3897	7996	766	0	32773	32487	32658	32948	33245	32717	32708	32751	
4658	0	2379	5348	3928	8063	767	0	32726	32631	32592	32871	32135	32751	32724	32607	
4659	0	2384	5418	3881	8023	768	0	32748	32519	32529	32556	33215	32790	32721	32711	
4660	0	2400	5432	3913	8064	769	0	32815	32551	32439	32751	32567	32859	32775	32805	
4661	0	2406	5407	3900	8058	770	0	32762	32543	32521	32763	32586	32820	32791	32900	
4662	0	2411	5353	3909	8035	771	0	32738	32597	32599	32703	33239	32719	32741	32681	
4663	0	2392	5418	3930	8035	772	0	32756	32707	32580	32839	32165	32813	32669	32725	
4664	0	2416	5350	3922	8056	773	0	32703	32647	32590	32828	33237	32671	32646	32671	
4665	0	2425	5365	3878	8032	774	0	32751	32773	32671	32589	32501	32751	32739	32551	
4666	0	2430	5443	3939	8074	775	0	32750	32634	32793	32855	32703	32736	32749	32727	
4667	0	2415	5359	3960	8042	776	0	32752	32927	32929	32766	33215	32713	32747	32639	
4668	0	2397	5410	3899	8088	777	0	32729	32765	32809	32671	32126	32589	32671	32834	
4669	0	2394	5404	3930	8033	778	0	32758	32850	32755	32519	33396	32469	32703	32775	
4670	0	2376	5399	3911	8040	779	0	32757	32717	32725	32599	32295	32515	32724	32590	
4671	0	2396	5417	3924	8027	780	0	32781	32727	32676	32751	32817	32623	32647	32474	
4672	0	2434	5385	3880	8088	781	0	32754	32747	32723	32587	33001	32785	32727	32453	
4673	0	2332	5374	3906	8039	782	0	32718	32594	32708	32817	32244	32946	32726	32308	
4674	0	2378	5407	3917	8031	783	0	32787	32690	32599	32975	33389	33167	32694	32279	
4675	0	2374	5409	3913	8066	784	0	32848	32571	32727	32991	32059	33024	32622	32503	
4676	0	2440	5362	3910	8100	785	0	32850	32657	32685	32690	33159	32865	32554	32551	
4677	0	2406	5383	3920	8064	786	0	32852	32495	32581	32738	32783	32885	32647	32844	
4678	0	2404	5405	3884	8026	787	0	32773	32625	32632	32666	32364	32822	32689	33134	
4679	0	2412	5420	3979	8038	788	0	32736	32541	32710	32634	33340	32809	32762	33042	
4680	0	2361	5377	3951	8072	789	0	32751	32587	32715	32775	32160	32781	32735	33198	
4681	0	2429	5416	3899	8009	790	0	32752	32569	32593	32576	33170	32829	32771	33007	
4682	0	2360	5404	3876	8057	791	0	32726	32702	32727	32595	32563	33103	32850	32836	
4683	0	2409	5396	3885	8098	792	0	32677	32561	32753	32622	32615	32942	32695	32708	
4684	0	2392	5404	3929	8084	793	0	32754	32710	32647	32690	33211	32775	32647	32259	
4685	0	2405	5429	3929	8046	794	0	32761	32607	32798	32452	32095	32761	32748	32405	
4686	0	2402	5410	3932	8067	795	0	32775	32775	32711	32586	33399	32701	32831	32423	
4687	0	2392	5368	3914	8061	796	0	32790	32695	32709	32638	32371	32775	32788	32563	
4688	0	2438	5378	3921	8082	797	0	32716	32859	32840	32441	32767	32679	32886	32491	
4689	0	2406	5393	3941	8055	798	0	32711	32775	32829	32415	32943	32694	32711	32623	
4690	0	2392	5374	3951	8028	799	0	32829	32679	32677	33019	32284	32595	32791	32764	
4691	0	2349	5416	3937	8036	800	0	32832	32727	32798	33083	33384	32615	32742	32773	
4692	0	2398	5390	3919	8055	801	0	32742	32535	32662	32954	32231	32563	32796	32718	
4693	0	2368	5432	3952	8072	802	0	32727	32750	32791	32738	32945	32571	32815	32527	
4694	0	2422	5412	3868	8078	803	0	32797	32695	32822	32946	32855	32607	32566	32582	
4695	0	2388	5413	3946	8002	804	0	32795	32732	32788	33099	32348	32615	32497	32551	
4696	0	2402	5360	3924	8044	805	0	32694	32653	32695	33141	33383	32883	32503	32567	
4697	0	2347	5392	3953	8066	806	0	32701	32533	32623	32775	31976	33097	32692	32675	
4698	0	2438	5390	3893	8078	807	0	32727	32559	32588	32869	33252	33028	32781	32711	
4699	0	2436	5380	3928	8044	808	0	32703	32443	32643	32823	32639	32925	32687	32709	
4700	0	2418	5383	3953	8094	809	0	32696	32494	32854	32564	32471	32804	32690	32756	
4701	0	2432	5370	3880	8052	810	0	32644	32414	32829	32834	33303	32710	32775	32919	
4702	0	2409	5446	3896	8072	811	0	32743	32601	32869	32812	32165	32841	32714	32769	
4703	0	2397	5378	3936	8077	812	0	32710	32738	32808	32748	33277	32843	32620	32771	
4704	0	2394	5370	3902	8056	813	0	32758	32903	32823	32541	32476	32759	32717	32717	
4705	0	2354	5369	3892	8060	814	0	32760	32903	32824	32770	32668	32742	32786	32786	
4706	0	2404	5360	3971	8084	815	0	32814	32823	32883	32881	33174	32636	32775	32611	
4707	0	2394	5378	3887	8060	816	0	32797	32903	32820	32684	32247	32732	32714	32733	
4708	0	2360	5426	3902	8066	817	0	32892	32775	32695	32754	33443	32623	32646	32527	
4709	0	2372	5401	3953	8075	818	0	32909	32847	32559	32831	32151	32834	32536	32582	
4710	0	2413	5386	3905	8089	819	0	32903	32699	32541	32596	32974	32859	32673	32276	
4711	0	2404	5366	3948	7981	820	0	32871	32833	32624	32692	32903	32723	32701	32471	
4712	0	2399	5416	3943	8064	821	0	32940	32871	32486	32584	32318	32775	32701	32577	
4713	0	2425	5420	3975	8052	822	0	32943	32841	32501	32527	33255	32683	32525	32673	
4714	0	2433	5376	3892	8048	823	0	32933	32839	32462	32455	32183	32736	32614	32837	
4715	0	2384	5428	3912	8035	824	0	32914	32555	32508	32497	33122	32615	32668	32807	
4716	0	2357	5374	3901	8062	825	0	32901	32687	32527	32603	32719	32551	32583	32475	
4717	0	2404	5400	3898	8034	826	0	32868	32535	32503	32470	32467	32772	32455	32639	
4718	0	2383	5377	3947	8068	827	0	32772	32327	32539	32517	33323	32879	32683	32783	
4719	0	2405	5396	3893	8067	828	0	32703	32367	32482	32326	31986	33006	32704	32692	
4720	0	2446	5386	3902	8054	829	0	32726	32227	32634	32285	33268	32883	32660	32757	
4721	0	2378	5413	3893	8052	830	0	32747	32239	32500	32455	32619	32831	32813	32698	
4722	0	2396	5402	3913	8086	831	0	32712	32433	32547	32476	32599	32933	32683	32999	
4723	0	2423	5448	3917	8034	832	0	32671	32431	32482	32485	33303	32886	32668	32967	
4724	0	2359	5397	3904	8064	833	0	32624	32263	32463	32610	32118	32995	32771	32855	
4725	0	2370	5408	3924	8046	834	0	32606	32539	32535	32538	33287	32972	32811	32887	
4726	0	2352	5429	3947	8074	835	0	32635	32498	32611	32489	32477	32955	32788	32638	
4727	0	2406	5399	3911	8063	836	0	32658	32478	32564	32495	32784	32952	32966	32623	
4728	0	2420	5411	3884	8050	837	0	32623	32454	32527	32785	33076	32865	32903	32716	
4729	0	2396	5374	3932	8056	838	0	32606	32469	32391	32839	32247	32946	32834	32599	
4730	0	2391	5366	3912	8060	839	0	32512	32176	32503	32838	33447	32837	32837	32871	
4731	0	2380	5420	3905	8052	840	0	32614	32439	32429	32589	32298	32819	32861	33056	
4732	0	2384	5384	3909	8096	841	0	32507	32423	32573	32599	32894	32887	32866	32949	
4733	0	2423	5385	3918	8056	842	0	32493	32400	32639	32805	33023	32739	32839	32989	
4734	0	2397	5377	3936	8032	843	0	32538	32679	32673	32965	32261	32802	32999	32809	
4735	0	2375	5400	3958	8064	844	0	32566	32591	32573	33100	33270	32783	33110	32789	
4736	0	2432	5401	3902	8074	845	0	32594	32486	32851	32814	32194	32679	32994	32780	
4737	0	2376	5410	3922	8041	846	0	32552	32726	32804	32735	33111	32786	33019	32731	
4738	0	2380	5408	3939	8022	847	0	32617	32573	32922	32955	32791	32723	33046	32789	
4739	0	2384	5361	3960	8064	848	0	32605	32708	32959	33074	32388	32698	32955	32852	
4740	0	2417	5396	3922	8049	849	0	32629	32655	33129	33223	33375	32749	32978	32824	
4741	0	2350	5388	3935	8036	850	0	32605	32860	33171	33223	31987	32698	33022	32725	
4742	0	2405	5328	3961	8090	851	0	32468	32839	33415	33127	33116	32676	32873	32439	
4743	0	2423	5355	3933	8040	852	0	32338	32631	33411	33133	32663	32669	33086	32463	
4744	0	2382	5378	3933	8035	853	0	32339	32868	33526	33400	32558	32743	33135	32335	
4745	0	2386	5389	3920	8020	854	0	32346	32967	33457	33383	33259	32674	33039	32287	
4746	0	2396	5387	3936	8051	855	0	32444	32787	33543	33466	32150	32614	33073	32503	
4747	0	2388	5384	3932	8050	856	0	32586	33071	33492	33402	33358	32628	32956	32455	
4748	0	2409	5398	3951	8064	857	0	32621	33141	33399	33239	32367	32702	32647	32511	
4749	0	2419	5380	3939	8107	858	0	32828	32991	33287	33062	32728	32564	32692	32487	
4750	0	2406	5371	3945	8048	859	0	33075	33143	33095	32903	33246	32658	32466	32365	
4751	0	2391	5380	3914	8056	860	0	33287	33131	32839	32858	32151	32553	32367	32427	
4752	0	2413	5410	3930	8067	861	0	33300	33308	32769	32580	33449	32612	32243	32391	
4753	0	2353	5404	3919	8044	862	0	33334	33308	32631	32275	32263	32620	32324	32541	
4754	0	2413	5416	3938	8084	863	0	33271	33091	32495	32412	32745	32662	32326	32383	
4755	0	2392	5383	3907	8035	864	0	33232	33054	32339	32399	32943	32690	32167	32439	
4756	0	2404	5380	3940	8035	865	0	33212	33140	32418	32466	32295	32594	32244	32279	
4757	0	2340	5378	3896	8102	866	0	33159	32835	32328	32553	33441	32681	32275	32355	
4758	0	2371	5382	3929	8042	867	0	33232	32903	32299	32445	32214	32763	32298	32471	
4759	0	2370	5383	3948	8048	868	0	33140	32852	32217	32068	33024	32703	32325	32359	
4760	0	2402	5336	3867	8023	869	0	33074	32793	32471	32199	32919	32732	32441	32503	
4761	0	2367	5383	3940	8013	870	0	33060	32838	32468	32655	32368	32711	32353	32591	
4762	0	2356	5380	3928	8071	871	0	33003	32790	32607	32679	33306	32615	32483	32887	
4763	0	2404	5378	4028	8060	872	0	32958	32722	32668	32747	31995	32756	32545	32923	
4764	0	2368	5380	3929	8094	873	0	32964	32753	32671	32775	33045	32793	32479	32847	
4765	0	2399	5370	3920	8065	874	0	32873	32799	32723	32903	32630	32727	32599	32750	
4766	0	2379	5380	3948	8093	875	0	32810	32757	32609	32939	32480	32775	32662	32594	
4767	0	2354	5364	3945	8026	876	0	32745	32733	32637	32754	33330	32827	32762	32556	
4768	0	2356	5385	3928	8050	877	0	32683	32669	32523	32644	32077	32903	32773	32399	
4769	0	2408	5410	3965	8008	878	0	32655	32608	32711	32718	33237	32871	32743	32231	
4770	0	2393	5350	3916	8075	879	0	32748	32594	32735	32662	32601	32807	32667	32389	
4771	0	2415	5371	3958	8026	880	0	32754	32620	32769	32702	32535	32862	32756	32391	
4772	0	2381	5395	3943	8072	881	0	32686	32558	32667	32661	33127	32775	32799	32574	
4773	0	2382	5353	3952	8058	882	0	32647	32675	32593	32655	32132	32743	32834	32806	
4774	0	2410	5348	3908	8060	883	0	32676	32562	32674	32499	33267	32830	32797	32815	
4775	0	2408	5384	3926	8038	884	0	32636	32607	32673	32684	32439	32807	32773	32925	
4776	0	2400	5388	3898	8068	885	0	32689	32487	32631	32747	32820	32911	32639	32878	
4777	0	2428	5386	3925	8078	886	0	32719	32623	32666	32726	33089	32895	32822	33019	
4778	0	2396	5413	3904	8066	887	0	32727	32543	32531	32692	32247	32876	32824	33127	
4779	0	2406	5383	3953	8056	888	0	32666	32340	32598	32549	33429	32918	32751	32877	
4780	0	2410	5370	3952	8065	889	0	32783	32438	32621	32689	32118	32802	32711	33060	
4781	0	2394	5412	3909	8077	890	0	32788	32487	32452	32764	32873	32758	32862	33110	
4782	0	2402	5354	3941	8023	891	0	32668	32596	32561	32775	32991	32711	32903	32927	
4783	0	2373	5379	3926	8092	892	0	32672	32620	32504	32856	32343	32820	32789	32852	
4784	0	2382	5361	3934	8054	893	0	32658	32655	32674	32804	33407	32817	32802	32511	
4785	0	2398	5368	3866	8036	894	0	32676	32611	32566	32671	32119	32771	32784	32262	
4786	0	2382	5385	3857	8088	895	0	32773	32756	32692	32973	33097	32730	32647	32391	
4787	0	2375	5363	3940	8055	896	0	32810	32783	32624	32991	32807	32759	32807	32521	
4788	0	2389	5350	3940	8066	897	0	32775	32704	32705	32900	32367	32673	32858	32510	
4789	0	2374	5331	3890	8052	898	0	32647	32807	32754	32813	33221	32674	32681	32687	
4790	0	2413	5404	3894	8061	899	0	32673	32686	32801	32662	32116	32612	32790	32841	
4791	0	2389	5393	3943	8077	900	0	32668	32554	32742	32717	33287	32724	32674	32693	
4792	0	2407	5360	3941	8061	901	0	32695	32687	32772	32603	32551	32765	32671	32647	
4793	0	2371	5390	3928	8055	902	0	32756	32726	32784	32629	32615	32767	32722	32687	
4794	0	2407	5393	3921	8082	903	0	32730	32487	32866	32503	33285	32970	32685	32935	
4795	0	2406	5379	3933	8052	904	0	32712	32621	32705	32391	32121	32996	32630	32825	
4796	0	2386	5346	3902	8076	905	0	32730	32559	32685	32487	33247	32854	32723	32721	
4797	0	2399	5372	3952	8056	906	0	32665	32563	32519	32519	32327	32753	32829	32943	
4798	0	2386	5432	3980	8042	907	0	32684	32599	32447	32620	32814	32764	32705	32876	
4799	0	2372	5324	3985	8056	908	0	32816	32549	32371	32695	33215	32883	32729	32524	
4800	0	2402	5436	3896	8058	909	0	32767	32601	32429	32551	32237	32753	32685	32383	
4801	0	2379	5366	3929	8036	910	0	32747	32455	32478	32543	33365	32755	32727	32431	
4802	0	2416	5362	3890	8049	911	0	32823	32695	32685	32771	32317	32805	32799	32615	
4803	0	2394	5397	3948	8080	912	0	32813	32732	32815	32881	32892	32701	32819	32743	
4804	0	2399	5364	3916	8106	913	0	32736	32581	32899	32887	32852	32690	32868	32527	
4805	0	2394	5366	3958	8057	914	0	32751	32758	32819	32826	32279	32704	32694	32524	
4806	0	2380	5396	3919	8112	915	0	32748	32799	32950	32797	33407	32871	32775	32866	
4807	0	2389	5381	3989	8045	916	0	32682	32631	32807	32957	32171	32976	32751	32810	
4808	0	2394	5458	3912	7996	917	0	32711	32827	32823	32932	33020	32775	32704	32775	
4809	0	2412	5395	3920	8092	918	0	32688	32799	32823	32967	32799	32791	32791	32956	
4810	0	2394	5370	3988	8030	919	0	32756	32612	32735	32742	32262	32979	32743	32841	
4811	0	2422	5385	3924	8051	920	0	32775	32807	32813	32838	33231	32822	32635	32775	
4812	0	2421	5404	3939	8093	921	0	32782	32839	32654	33047	32135	32738	32617	32561	
4813	0	2434	5409	3932	8103	922	0	32736	32700	32613	32994	33190	32731	32747	32679	
4814	0	2371	5330	3916	8080	923	0	32767	32665	32687	32877	32663	32711	32703	32391	
4815	0	2438	5384	3925	8082	924	0	32748	32702	32679	32822	32498	32682	32599	32471	
4816	0	2418	5400	3950	8102	925	0	32807	32519	32687	32899	33156	32663	32746	32489	
4817	0	2412	5398	3976	8061	926	0	32779	32619	32711	32807	32151	32748	32774	32489	
4818	0	2373	5380	4000	8050	927	0	32790	32617	32653	32868	33351	32679	32687	32767	
4819	0	2382	5370	3936	8082	928	0	32804	32535	32731	32629	32373	32745	32707	32823	
4820	0	2384	5416	3896	8065	929	0	32701	32578	32715	32332	32775	32671	32733	32588	
4821	0	2372	5376	3925	8066	930	0	32736	32661	32674	32381	33235	32717	32659	32775	
4822	0	2430	5370	3967	8060	931	0	32716	32525	32578	32622	32257	32758	32738	32916	
4823	0	2392	5389	3982	8057	932	0	32725	32771	32673	32647	33446	32725	32730	32815	
4824	0	2391	5391	3938	8087	933	0	32685	32727	32739	32875	32237	32673	32786	32804	
4825	0	2424	5390	3906	8100	934	0	32695	32714	32847	32980	32775	32775	32681	32668	
4826	0	2390	5403	3926	8070	935	0	32705	32939	32775	32855	32903	32914	32573	32811	
4827	0	2370	5393	3935	8054	936	0	32739	32836	32862	32694	32209	32802	32746	32794	
4828	0	2357	5388	3966	8072	937	0	32738	32630	32846	32814	33460	32487	32755	32843	
4829	0	2378	5390	3950	8076	938	0	32773	32759	32849	32838	32176	32455	32643	32775	
4830	0	2419	5354	3962	8044	939	0	32813	32743	32775	32871	33039	32605	32775	32607	
4831	0	2419	5407	3965	8065	940	0	32775	32557	32729	32621	32883	32585	32791	32739	
4832	0	2421	5404	3945	8069	941	0	32802	32831	32742	32500	32331	32731	32662	32677	
4833	0	2350	5384	3941	8046	942	0	32782	32704	32679	32530	33279	32815	32715	32587	
4834	0	2401	5348	3980	8105	943	0	32748	32507	32673	32599	32002	32985	32688	32672	
4835	0	2381	5388	3936	8068	944	0	32772	32735	32727	32639	33204	33156	32590	32561	
4836	0	2392	5368	3921	8088	945	0	32761	32709	32635	32730	32694	33187	32799	32574	
4837	0	2389	5424	3955	8100	946	0	32804	32556	32663	32695	32471	32985	32793	32445	
4838	0	2404	5365	3929	8091	947	0	32816	32647	32714	32562	33389	32978	32631	32557	
4839	0	2415	5388	3938	8074	948	0	32692	32647	32735	32811	32022	32742	32706	32627	
4840	0	2403	5403	3944	8069	949	0	32752	32422	32559	32765	33339	32677	32643	32538	
4841	0	2406	5370	3930	8086	950	0	32740	32683	32587	32767	32551	32723	32621	32567	
4842	0	2374	5386	3895	8052	951	0	32760	32773	32488	32735	32594	32615	32735	32611	
4843	0	2395	5369	3972	8065	952	0	32772	32566	32599	32581	33295	32763	32791	32471	
4844	0	2372	5381	3925	8089	953	0	32788	32745	32735	32501	32153	33049	32804	32756	
4845	0	2386	5378	3936	8058	954	0	32783	32724	32847	32676	33283	32980	32881	32703	
4846	0	2364	5376	3936	8053	955	0	32775	32811	32855	32820	32412	32821	32819	32869	
4847	0	2403	5342	3945	8067	956	0	32836	32860	32882	32813	32759	32751	32647	32755	
4848	0	2374	5344	3915	8076	957	0	32812	32677	32771	32501	33134	32711	32684	32707	
4849	0	2436	5343	3933	8038	958	0	32740	32886	32834	32717	32183	32621	32722	32562	
4850	0	2376	5378	3922	8070	959	0	32741	32903	32690	32751	33273	32724	32615	32695	
4851	0	2383	5380	3913	8026	960	0	32788	32767	32786	32871	32247	32709	32479	32684	
4852	0	2402	5371	3933	8032	961	0	32775	32749	32820	32583	32944	32759	32668	32579	
4853	0	2377	5393	3933	8074	962	0	32753	32543	32786	32723	32991	32647	32874	32735	
4854	0	2407	5356	3918	8104	963	0	32824	32691	32873	32762	32231	32678	32927	32773	
4855	0	2384	5380	3959	8085	964	0	32832	32694	32757	32861	33269	32692	32679	32591	
4856	0	2417	5403	3948	8073	965	0	32825	32500	32677	32609	32174	32699	32760	32738	
4857	0	2346	5414	3941	8061	966	0	32708	32613	32673	32460	33138	32818	32801	32733	
4858	0	2403	5402	3918	8056	967	0	32711	32579	32675	32687	32683	32821	32595	32482	
4859	0	2358	5390	3912	8062	968	0	32736	32454	32545	32769	32428	32775	32694	32534	
4860	0	2398	5368	3893	8094	969	0	32773	32642	32589	32804	33339	32843	32756	32661	
4861	0	2400	5316	3960	8065	970	0	32714	32679	32507	32631	32006	32754	32597	32873	
4862	0	2406	5375	3895	8088	971	0	32658	32585	32543	32771	33308	32724	32695	32891	
4863	0	2451	5370	3964	8044	972	0	32733	32629	32551	32870	32527	32701	32725	33063	
4864	0	2373	5383	3912	8008	973	0	32716	32787	32578	32977	32591	32746	32718	32989	
4865	0	2387	5368	3893	8036	974	0	32774	32685	32599	32813	33271	32623	32735	32901	
4866	0	2404	5409	3915	8032	975	0	32846	32874	32710	32564	32103	32647	32775	32845	
4867	0	2378	5344	3956	8072	976	0	32815	32814	32771	32510	33238	32735	32677	32831	
4868	0	2403	5356	3908	8041	977	0	32815	32703	32875	32517	32316	32703	32679	32621	
4869	0	2402	5380	3926	8070	978	0	32831	32717	32731	32594	32828	32839	32658	32622	
4870	0	2364	5360	3899	8090	979	0	32780	32739	32881	32703	33191	32871	32706	32519	
4871	0	2360	5370	3924	8025	980	0	32724	32692	32774	32617	32179	32861	32790	32313	
4872	0	2428	5382	3940	8040	981	0	32715	32801	32821	32805	33431	32838	32749	32338	
4873	0	2420	5437	3940	8066	982	0	32806	32874	32647	32850	32130	32786	32642	32421	
4874	0	2395	5412	3894	8065	983	0	32821	32647	32710	32847	32870	32864	32679	32372	
4875	0	2389	5346	3884	8066	984	0	32793	32745	32627	32673	32933	32835	32669	32469	
4876	0	2378	5372	3877	8038	985	0	32770	32537	32769	32828	32314	32854	32763	32551	
4877	0	2406	5349	3881	8051	986	0	32740	32701	32633	32846	33415	32711	32633	32461	
4878	0	2360	5371	3911	8006	987	0	32693	32647	32575	32977	32050	32739	32725	32569	
4879	0	2401	5398	3886	8065	988	0	32834	32500	32626	32727	33188	32813	32753	32661	
4880	0	2372	5389	3880	8076	989	0	32759	32475	32553	32855	32703	32839	32775	32535	
4881	0	2378	5382	3869	8058	990	0	32686	32439	32647	32863	32479	32701	32638	32765	
4882	0	2384	5392	3941	8026	991	0	32664	32708	32647	32972	33333	32739	32711	32922	
4883	0	2348	5402	3891	8058	992	0	32703	32757	32721	32801	32019	32664	32710	32706	
4884	0	2360	5366	3904	8033	993	0	32718	32477	32625	32947	33301	32754	32683	32709	
4885	0	2374	5408	3870	8028	994	0	32814	32763	32871	32916	32611	32819	32741	32919	
4886	0	2388	5409	3901	8076	995	0	32734	32823	32865	32877	32575	32825	32754	32745	
4887	0	2384	5368	3890	8062	996	0	32773	32891	32967	32839	33198	32759	32799	32851	
4888	0	2333	5397	3868	8066	997	0	32851	32807	32839	32692	32120	32716	32718	32838	
4889	0	2401	5391	3897	8032	998	0	32782	32836	32877	32687	33234	32757	32823	32743	
4890	0	2362	5372	3881	8082	999	0	32788	32845	32901	32943	32423	32775	32773	32708	
4891	0	2408	5416	3903	8038	1000	0	32832	32756	32684	32934	32750	32803	32783	32742	
4892	0	2403	5413	3881	8024	1001	0	32764	32775	32687	32545	33116	32743	32743	32767	
4893	0	2433	5388	3874	8068	1002	0	32748	32739	32561	32720	32122	32674	32729	32654	
4894	0	2406	5406	3949	8021	1003	0	32745	32734	32485	32895	33438	32766	32663	32487	
4895	0	2367	5440	3870	8019	1004	0	32749	32647	32530	32639	32287	32703	32674	32582	
4896	0	2377	5345	3923	8027	1005	0	32781	32591	32543	32420	32985	32766	32613	32561	
4897	0	2368	5407	3881	8041	1006	0	32768	32663	32715	32431	32914	32687	32663	32571	
4898	0	2386	5379	3875	8026	1007	0	32806	32600	32647	32587	32319	32710	32663	32590	
4899	0	2353	5388	3902	8048	1008	0	32780	32451	32738	32562	33237	32741	32679	32391	
4900	0	2392	5342	3867	8088	1009	0	32749	32574	32567	32452	32007	32806	32708	32694	
4901	0	2328	5416	3903	8042	1010	0	32637	32671	32611	32551	33151	32938	32786	33030	
4902	0	2390	5384	3893	8019	1011	0	32647	32594	32575	32679	32759	32799	32738	32858	
4903	0	2404	5392	3910	8063	1012	0	32716	32662	32591	32524	32425	32775	32780	32742	
4904	0	2406	5325	3914	8065	1013	0	32784	32632	32709	32450	33359	32727	32645	32764	
4905	0	2387	5384	3895	8056	1014	0	32813	32815	32655	32687	32096	32710	32743	32711	
4906	0	2408	5321	3870	8052	1015	0	32862	32915	32723	32852	33175	32677	32783	32673	
4907	0	2358	5410	3919	8018	1016	0	32804	32755	32691	32807	32583	32813	32621	32595	
4908	0	2374	5392	3910	8048	1017	0	32784	32810	32786	32711	32655	32816	32668	32531	
4909	0	2389	5362	3889	8046	1018	0	32719	32676	32894	32859	33189	32775	32729	32565	
4910	0	2392	5393	3916	8052	1019	0	32789	32804	32908	33025	32190	32659	32783	32621	
4911	0	2385	5415	3927	8078	1020	0	32748	32775	32969	32804	33287	32791	32647	32775	
4912	0	2332	5408	3916	8018	1021	0	32729	32643	32742	32863	32275	32799	32824	32663	
4913	0	2397	5352	3885	8041	1022	0	32684	32671	32774	32980	32858	32748	32775	32804	
4914	0	2366	5342	3909	8008	1023	0	32623	32477	32843	32959	33047	32663	32839	32689	
4915	0	2407	5345	3901	8049	1024	0	32727	32702	32834	32820	32276	32697	32666	32637	
4916	0	2390	5348	3927	8085	1025	0	32761	32727	32673	32796	33295	32827	32747	32818	
4917	0	2384	5382	3870	8068	1026	0	32783	32523	32631	32843	32105	32937	32709	32663	
4918	0	2391	5354	3885	8080	1027	0	32828	32620	32791	32675	33047	32847	32615	32492	
4919	0	2370	5405	3908	8058	1028	0	32831	32555	32631	32501	32937	32795	32659	32719	
4920	0	2388	5376	3871	8044	1029	0	32848	32698	32697	32703	32343	32791	32732	32924	
4921	0	2404	5397	3920	8017	1030	0	32786	32665	32597	32686	33305	32747	32771	32989	
4922	0	2379	5364	3963	8043	1031	0	32782	32487	32641	32754	32150	32846	32603	32835	
4923	0	2384	5357	3939	8021	1032	0	32773	32706	32660	32571	33049	32820	32687	32885	
4924	0	2342	5365	3915	8072	1033	0	32806	32709	32751	32719	32695	32773	32815	32679	
4925	0	2352	5377	3918	8060	1034	0	32766	32823	32826	32747	32519	32783	32758	32487	
4926	0	2393	5348	3878	8040	1035	0	32726	32903	32764	32796	33213	32775	32710	32519	
4927	0	2360	5369	3907	8048	1036	0	32816	32884	32827	32655	32132	32788	32679	32342	
4928	0	2394	5387	3906	8008	1037	0	32754	32838	32707	32729	33221	32647	32786	32534	
4929	0	2436	5374	3950	8056	1038	0	32850	32596	32727	32787	32501	32703	32879	32583	
4930	0	2386	5397	3936	8059	1039	0	32851	32843	32500	32827	32735	32762	32675	32529	
4931	0	2377	5373	3956	8033	1040	0	32806	32788	32591	32791	33199	32763	32767	32799	
4932	0	2389	5333	3876	8074	1041	0	32771	32622	32676	32507	32222	32797	32788	32765	
4933	0	2401	5407	3918	8073	1042	0	32698	32775	32733	32591	33342	32839	32831	32745	
4934	0	2418	5406	3888	8060	1043	0	32759	32647	32748	32655	32183	32850	32691	32708	
4935	0	2386	5417	3894	8048	1044	0	32748	32775	32647	32688	32967	32694	32783	32726	
4936	0	2365	5379	3895	8034	1045	0	32740	32719	32725	32503	32943	32687	32795	32747	
4937	0	2382	5368	3954	8063	1046	0	32820	32758	32726	32679	32281	32735	32799	32684	
4938	0	2362	5390	3897	8073	1047	0	32720	32635	32811	32691	33263	32699	32637	32832	
4939	0	2420	5359	3850	8021	1048	0	32683	32530	32815	32635	32183	32732	32630	32575	
4940	0	2399	5388	3938	8046	1049	0	32728	32533	32578	32454	33059	32652	32719	32617	
4941	0	2405	5377	3880	8072	1050	0	32752	32530	32541	32613	32845	32758	32750	32643	
4942	0	2379	5372	3932	8077	1051	0	32718	32690	32548	32721	32376	32820	32583	32665	
4943	0	2384	5404	3918	8069	1052	0	32788	32691	32646	32799	33200	32847	32740	32679	
4944	0	2380	5361	3880	8070	1053	0	32732	32548	32647	32717	32135	32708	32732	32476	
4945	0	2430	5378	3940	8060	1054	0	32687	32656	32799	32950	33211	32730	32685	32560	
4946	0	2431	5408	3938	8044	1055	0	32715	32757	32699	33071	32639	32686	32690	32549	
4947	0	2374	5375	3920	8037	1056	0	32756	32733	32655	33135	32612	32704	32765	32489	
4948	0	2362	5364	3864	8028	1057	0	32805	32819	32718	33115	33215	32767	32775	32763	
4949	0	2409	5371	3897	8068	1058	0	32761	32818	32663	32911	32008	32700	32647	32708	
4950	0	2411	5384	3935	8024	1059	0	32735	32583	32806	32692	33230	32647	32790	33009	
4951	0	2406	5412	3927	8084	1060	0	32765	32734	32811	32827	32466	32607	32775	32950	
4952	0	2401	5377	3910	8071	1061	0	32764	32756	32818	32895	32791	32719	32612	32657	
4953	0	2427	5423	3893	8092	1062	0	32754	32588	32644	32873	33143	32735	32726	32607	
4954	0	2402	5388	3929	8073	1063	0	32760	32627	32677	32918	32206	32819	32766	32736	
4955	0	2400	5368	3896	8053	1064	0	32796	32710	32607	32636	33444	32945	32763	32541	
4956	0	2374	5364	3894	8107	1065	0	32756	32765	32784	32767	32181	33067	32782	32670	
4957	0	2373	5399	3923	8083	1066	0	32713	32580	32762	32698	32835	32895	32783	32675	
4958	0	2384	5388	3902	8057	1067	0	32758	32453	32839	32647	32996	32667	32703	32548	
4959	0	2426	5350	3945	8059	1068	0	32778	32642	32750	32506	32304	32730	32647	32698	
4960	0	2378	5419	3914	8032	1069	0	32802	32567	32834	32289	33415	32679	32673	32587	
4961	0	2396	5384	3945	8059	1070	0	32834	32400	32877	32319	32126	32639	32593	32514	
4962	0	2424	5434	3980	8067	1071	0	32777	32667	32885	32545	33143	32690	32583	32405	
4963	0	2369	5388	3918	8083	1072	0	32720	32645	32926	32655	32799	32631	32658	32531	
4964	0	2416	5391	3891	8072	1073	0	32704	32556	32820	32705	32296	32588	32730	32791	
4965	0	2400	5389	3919	8120	1074	0	32709	32775	32735	32487	33347	32642	32671	32835	
4966	0	2401	5373	3934	8029	1075	0	32742	32767	32569	32633	32131	32707	32726	32661	
4967	0	2437	5347	3934	8062	1076	0	32762	32676	32601	32734	33270	32749	32749	32791	
4968	0	2395	5387	3908	8068	1077	0	32677	32767	32647	32870	32615	33173	32823	32861	
4969	0	2424	5380	3927	8022	1078	0	32796	32695	32495	32658	32480	32969	32713	32898	
4970	0	2397	5421	3936	8050	1079	0	32792	32770	32662	32917	33159	32827	32609	32735	
4971	0	2370	5402	3924	8046	1080	0	32775	32679	32598	32869	32192	32858	32737	32817	
4972	0	2393	5414	3932	8052	1081	0	32828	32819	32631	32903	33388	33159	32855	32860	
4973	0	2420	5429	3899	8036	1082	0	32764	32743	32549	32751	32345	32999	32694	32647	
4974	0	2441	5402	3913	8081	1083	0	32806	32572	32663	32743	32808	32895	32782	32743	
4975	0	2407	5364	3914	8092	1084	0	32806	32695	32686	32687	33135	32747	32765	32631	
4976	0	2425	5374	3916	8068	1085	0	32743	32666	32764	32762	32121	32716	32676	32214	
4977	0	2400	5381	3894	8096	1086	0	32759	32673	32807	32871	33316	32589	32667	32241	
4978	0	2428	5384	3901	8058	1087	0	32806	32614	32703	32647	32277	32560	32687	32535	
4979	0	2420	5406	3902	8089	1088	0	32730	32406	32769	32733	32963	32611	32717	32586	
4980	0	2362	5392	3927	8054	1089	0	32681	32646	32703	32798	32943	32741	32615	32775	
4981	0	2426	5358	3981	8069	1090	0	32707	32709	32751	32966	32331	32640	32791	32927	
4982	0	2414	5372	3902	8057	1091	0	32786	32621	32702	32718	33308	32727	32773	32647	
4983	0	2372	5394	3882	8074	1092	0	32748	32676	32827	32553	32029	32787	32700	32722	
4984	0	2431	5387	3910	8084	1093	0	32719	32688	32772	32711	33159	32845	32768	32590	
4985	0	2422	5422	3948	8059	1094	0	32764	32775	32631	32902	32771	32903	32722	32515	
4986	0	2402	5428	3958	8028	1095	0	32754	32821	32718	32855	32498	32901	32712	32455	
4987	0	2416	5390	3912	8110	1096	0	32753	32615	32679	32827	33370	32769	32590	32661	
4988	0	2436	5382	3944	8072	1097	0	32738	32823	32765	32838	32089	32676	32778	32809	
4989	0	2398	5381	3952	8069	1098	0	32817	32715	32747	32981	33183	32758	32749	32647	
4990	0	2386	5396	3869	8082	1099	0	32844	32807	32791	33002	32559	32711	32850	32749	
4991	0	2400	5381	3930	8051	1100	0	32844	32748	32822	32817	32615	32791	32658	32759	
4992	0	2420	5378	3891	8057	1101	0	32758	32671	32563	32583	33309	32694	32751	32974	
4993	0	2397	5357	3888	8034	1102	0	32830	32749	32557	32775	32175	32775	32815	32856	
4994	0	2406	5370	3936	8105	1103	0	32847	32673	32556	32635	33252	32631	32715	32825	
4995	0	2402	5348	3951	8063	1104	0	32856	32678	32647	32719	32271	32727	32767	32612	
4996	0	2403	5392	3913	8040	1105	0	32783	32555	32667	32804	32799	32715	32756	32663	
4997	0	2416	5414	3911	8060	1106	0	32729	32635	32703	32727	33146	32717	32607	32769	
4998	0	2402	5353	3933	8000	1107	0	32813	32676	32512	32455	32197	32795	32711	32615	
4999	0	2389	5403	3922	8050	1108	0	32780	32587	32591	32507	33394	32799	32739	32695	
5000	0	2410	5368	3916	8027	1109	0	32732	32509	32642	32461	32311	32857	32627	32669	
5001	0	2420	5386	3920	8017	1110	0	32751	32572	32626	32642	32898	32775	32603	32446	
5002	0	2404	5398	3876	8046	1111	0	32786	32677	32666	32733	32966	32831	32740	32548	
5003	0	2412	5412	3917	8030	1112	0	32734	32645	32789	32642	32335	32802	32711	32533	
5004	0	2398	5399	3926	8054	1113	0	32710	32720	32863	32763	33286	32738	32715	32435	
5005	0	2430	5366	3903	8038	1114	0	32677	32671	32831	32775	32142	32716	32626	32574	
5006	0	2405	5418	3929	8072	1115	0	32732	32824	32731	32810	33216	32783	32692	32623	
5007	0	2418	5376	3876	8062	1116	0	32722	32766	32807	32842	32763	32673	32676	32575	
5008	0	2451	5404	3958	8040	1117	0	32748	32830	32654	32711	32385	32726	32635	32793	
5009	0	2419	5415	3907	8016	1118	0	32734	32773	32617	32583	33187	32737	32667	32834	
5010	0	2420	5374	3944	8029	1119	0	32796	32795	32627	32791	32032	32772	32658	33101	
5011	0	2402	5413	3878	8078	1120	0	32791	32775	32638	32850	33299	32769	32753	33140	
5012	0	2381	5410	3907	8068	1121	0	32756	32799	32579	32892	32593	32727	32699	32903	
5013	0	2392	5414	3896	8035	1122	0	32796	32782	32674	32902	32571	32845	32767	32902	
5014	0	2409	5440	3892	8052	1123	0	32834	32613	32799	32710	33287	32837	32661	32647	
5015	0	2377	5360	3891	8049	1124	0	32865	32758	32766	32627	32183	32780	32725	32316	
5016	0	2420	5402	3900	8021	1125	0	32894	32677	32773	32639	33358	32854	32673	32466	
5017	0	2418	5394	3907	8074	1126	0	32871	32642	32863	32882	32383	32799	32695	32285	
5018	0	2372	5364	3892	8020	1127	0	32858	32533	32723	32838	32613	32837	32711	32230	
5019	0	2364	5394	3929	8108	1128	0	32858	32619	32943	32919	33205	32663	32835	32391	
5020	0	2394	5365	3970	8011	1129	0	32715	32409	32937	32590	32214	32771	32709	32626	
5021	0	2406	5399	3920	8050	1130	0	32726	32615	32743	32597	33351	32711	32875	32583	
5022	0	2405	5392	3891	8018	1131	0	32680	32671	32679	32694	32335	32757	32749	32637	
5023	0	2415	5386	3921	8100	1132	0	32713	32592	32699	32628	32914	32801	32706	32543	
5024	0	2448	5356	3910	8059	1133	0	32711	32706	32687	32707	33018	32813	32757	32692	
5025	0	2411	5403	3923	8016	1134	0	32710	32858	32598	32808	32153	32810	32834	32703	
5026	0	2417	5413	3890	8049	1135	0	32703	32603	32627	32815	33279	32716	32694	32774	
5027	0	2478	5376	3914	8060	1136	0	32736	32855	32749	32519	32223	32722	32705	32781	
5028	0	2413	5442	3887	8040	1137	0	32753	32886	32746	32495	33097	32783	32767	32630	
5029	0	2386	5404	3905	8065	1138	0	32760	32663	32743	32702	32863	32725	32655	32678	
5030	0	2421	5406	3897	8068	1139	0	32744	32745	32639	32805	32363	32773	32727	32607	
5031	0	2392	5372	3942	8068	1140	0	32797	32886	32723	32751	33273	32738	32647	32677	
5032	0	2466	5422	3913	8066	1141	0	32793	32567	32727	32834	32110	32799	32578	32725	
5033	0	2389	5386	3908	8037	1142	0	32764	32746	32756	32843	33223	32811	32687	32672	
5034	0	2418	5399	3898	8043	1143	0	32815	32734	32631	32671	32613	32743	32742	32638	
5035	0	2413	5415	3922	8032	1144	0	32741	32632	32657	32789	32451	32842	32743	32546	
5036	0	2376	5440	3904	8019	1145	0	32683	32772	32518	32855	33333	32691	32711	32763	
5037	0	2416	5389	3935	8050	1146	0	32802	32722	32559	32846	32173	32764	32738	32818	
5038	0	2408	5382	3889	8049	1147	0	32729	32647	32606	32636	33287	32727	32694	32610	
5039	0	2451	5398	3960	8041	1148	0	32818	32617	32532	32455	32463	32775	32629	32835	
5040	0	2392	5409	3953	8059	1149	0	32757	32378	32583	32534	32610	32743	32625	32775	
5041	0	2431	5414	3908	8006	1150	0	32766	32479	32578	32581	33207	32715	32714	32630	
5042	0	2425	5382	3927	8038	1151	0	32783	32479	32662	32608	32270	32786	32765	32711	
5043	0	2415	5382	3860	8040	1152	0	32720	32724	32720	32429	33380	32767	32647	32671	
5044	0	2394	5427	3894	8056	1153	0	32751	32743	32883	32594	32284	32796	32808	32626	
5045	0	2387	5413	3876	8037	1154	0	32753	32647	32935	32631	32940	32803	32755	32751	
5046	0	2483	5384	3888	8047	1155	0	32686	32855	32837	32774	32838	32795	32826	32756	
5047	0	2424	5421	3945	8040	1156	0	32773	32775	32813	32550	32298	32835	32707	32623	
5048	0	2414	5443	3873	8035	1157	0	32700	32854	32732	32694	33403	32747	32743	32738	
5049	0	2427	5410	3890	8064	1158	0	32802	32858	32756	32711	32151	32747	32753	32681	
5050	0	2440	5426	3904	8045	1159	0	32813	32740	32656	32739	33133	32834	32647	32662	
5051	0	2388	5441	3854	8034	1160	0	32807	32787	32679	32867	32775	32724	32731	32660	
5052	0	2441	5367	3896	8037	1161	0	32813	32756	32594	32730	32454	32829	32731	32799	
5053	0	2396	5412	3885	8060	1162	0	32862	32658	32613	32877	33203	32742	32735	32677	
5054	0	2424	5443	3960	8032	1163	0	32788	32738	32707	33078	32112	32807	32753	32655	
5055	0	2410	5436	3909	8042	1164	0	32839	32493	32676	33070	33281	32796	32612	32803	
5056	0	2417	5414	3872	8054	1165	0	32729	32643	32790	32922	32587	32799	32775	32603	
5057	0	2410	5417	3884	8042	1166	0	32741	32690	32701	32863	32568	32759	32753	32663	
5058	0	2429	5441	3936	8072	1167	0	32759	32419	32615	33007	33316	32775	32602	32740	
5059	0	2420	5394	3930	8086	1168	0	32679	32554	32487	32984	32076	32730	32682	32590	
5060	0	2445	5384	3869	8052	1169	0	32720	32529	32595	32911	33287	32799	32702	32677	
5061	0	2405	5407	3876	8045	1170	0	32703	32623	32593	32703	32423	32735	32719	32574	
5062	0	2440	5392	3908	8024	1171	0	32734	32644	32717	32567	32820	32706	32652	32663	
5063	0	2446	5367	3883	8048	1172	0	32769	32655	32711	32639	33143	32711	32809	32727	
5064	0	2454	5394	3908	8014	1173	0	32822	32735	32890	32677	32191	32775	32788	32527	
5065	0	2427	5441	3907	8060	1174	0	32838	32845	32983	32763	33455	32791	32709	32633	
5066	0	2416	5431	3876	7989	1175	0	32817	32604	32903	32603	32169	32812	32615	32663	
5067	0	2416	5425	3887	8017	1176	0	32745	32829	32968	32725	32995	32743	32767	32593	
5068	0	2404	5424	3830	8056	1177	0	32752	32743	32879	32730	32959	32839	32828	32791	
5069	0	2430	5421	3919	8068	1178	0	32738	32885	32868	32751	32237	32742	32781	32691	
5070	0	2421	5400	3872	8061	1179	0	32767	32692	32833	32605	33391	32783	32639	32599	
5071	0	2442	5391	3884	8061	1180	0	32794	32578	32607	32757	32175	32721	32691	32729	
5072	0	2402	5396	3866	8064	1181	0	32816	32695	32526	32807	33044	32804	32759	32662	
5073	0	2460	5430	3866	8032	1182	0	32698	32647	32523	32743	32775	32734	32727	32799	
5074	0	2404	5395	3885	8050	1183	0	32690	32494	32558	32502	32458	32738	32642	32647	
5075	0	2405	5412	3882	8027	1184	0	32721	32709	32719	32639	33319	32759	32543	32693	
5076	0	2407	5418	3950	8048	1185	0	32722	32647	32647	32673	32109	32748	32775	32614	
5077	0	2442	5390	3898	8048	1186	0	32742	32687	32754	32813	33180	32775	32757	32903	
5078	0	2394	5418	3886	8043	1187	0	32745	32647	32667	32602	32551	32775	32797	32830	
5079	0	2451	5389	3866	8018	1188	0	32815	32466	32614	32719	32692	32757	32637	32676	
5080	0	2491	5454	3912	8009	1189	0	32744	32573	32683	32751	33095	32812	32625	32710	
5081	0	2429	5405	3885	8064	1190	0	32735	32584	32607	32825	32210	32742	32823	32652	
5082	0	2436	5440	3876	8041	1191	0	32804	32763	32601	32679	33411	32758	32695	32519	
5083	0	2406	5382	3930	8016	1192	0	32785	32647	32634	32903	32333	32695	32619	32582	
5084	0	2468	5427	3840	8055	1193	0	32751	32580	32577	32981	32844	32810	32672	32481	
5085	0	2389	5412	3880	8014	1194	0	32744	32821	32694	33005	32990	32767	32807	32223	
5086	0	2436	5412	3912	8050	1195	0	32784	32896	32622	32844	32271	32783	32868	32551	
5087	0	2402	5427	3840	8005	1196	0	32871	32899	32617	32979	33362	32759	32715	32549	
5088	0	2408	5402	3838	8040	1197	0	32769	32783	32613	33051	32263	32660	32710	32721	
5089	0	2443	5357	3876	8005	1198	0	32811	32574	32658	32815	32950	32721	32756	32629	
5090	0	2392	5450	3880	8019	1199	0	32786	32677	32751	32479	32775	32721	32775	32743	
5091	0	2437	5454	3880	8042	1200	0	32758	32700	32937	32586	32343	32722	32807	32890	
5092	0	2420	5397	3894	8068	1201	0	32695	32796	32773	32694	33323	32732	32679	32738	
5093	0	2457	5401	3936	8056	1202	0	32744	32681	32823	32725	32151	32788	32832	32841	
5094	0	2440	5392	3851	8040	1203	0	32690	32751	32810	32773	33235	32797	32775	32941	
5095	0	2431	5378	3897	8063	1204	0	32759	32829	32963	32564	32642	32686	32623	32826	
5096	0	2427	5432	3845	8033	1205	0	32754	32763	32854	32711	32484	32801	32647	32918	
5097	0	2444	5453	3875	8008	1206	0	32680	32575	32889	32851	33332	32919	32579	32807	
5098	0	2413	5414	3867	8010	1207	0	32726	32621	32903	32737	32084	32833	32764	32792	
5099	0	2385	5396	3864	8048	1208	0	32743	32455	32833	32751	33309	32827	32699	32629	
5100	0	2387	5412	3892	8043	1209	0	32744	32638	32689	32701	32415	32758	32719	32669	
5101	0	2440	5400	3916	8046	1210	0	32743	32595	32553	32749	32717	32799	32675	32654	
5102	0	2437	5418	3890	8048	1211	0	32775	32556	32678	32491	33175	32716	32719	32351	
5103	0	2404	5392	3867	8051	1212	0	32829	32701	32699	32667	32238	32799	32726	32505	
5104	0	2436	5368	3851	8037	1213	0	32773	32615	32511	32726	33267	32695	32771	32576	
5105	0	2423	5460	3878	8038	1214	0	32743	32765	32551	32803	32343	32729	32681	32425	
5106	0	2426	5384	3900	8041	1215	0	32701	32775	32570	32556	32861	32743	32702	32663	
5107	0	2436	5416	3876	8048	1216	0	32730	32647	32557	32678	33077	32769	32775	32728	
5108	0	2424	5466	3851	8046	1217	0	32724	32775	32552	32644	32196	32698	32775	32769	
5109	0	2432	5428	3865	8040	1218	0	32822	32695	32583	32491	33444	32655	32765	32911	
5110	0	2408	5451	3841	8051	1219	0	32807	32767	32514	32762	32151	32783	32680	32810	
5111	0	2419	5389	3898	8036	1220	0	32841	32658	32703	32893	33016	32892	32673	32749	
5112	0	2424	5381	3864	8086	1221	0	32828	32799	32685	32719	32854	32965	32775	32879	
5113	0	2438	5414	3854	8024	1222	0	32740	32470	32666	32874	32386	32863	32799	32637	
5114	0	2430	5414	3821	8057	1223	0	32718	32654	32767	32794	33390	32789	32839	32647	
5115	0	2445	5400	3884	8054	1224	0	32701	32551	32722	32629	31987	32761	32674	32522	
5116	0	2414	5436	3861	8037	1225	0	32719	32662	32783	32755	33277	32728	32543	32492	
5117	0	2406	5419	3892	8043	1226	0	32740	32612	32787	32743	32663	32740	32663	32191	
5118	0	2414	5440	3864	8052	1227	0	32734	32647	32804	32839	32558	32671	32705	32384	
5119	0	2482	5446	3873	8014	1228	0	32763	32575	32756	32620	33325	32673	32635	32484	
5120	0	2462	5412	3831	8012	1229	0	32762	32487	32830	32759	32002	32729	32847	32647	
5121	0	2423	5377	3883	8037	1230	0	32756	32564	32775	32790	33359	32638	32775	32598	
5122	0	2409	5412	3832	8079	1231	0	32732	32622	32711	32887	32455	32770	32710	32617	
5123	0	2421	5440	3901	8053	1232	0	32764	32599	32740	32670	32675	32719	32726	32747	
5124	0	2452	5443	3939	8016	1233	0	32751	32671	32615	32610	33205	32963	32839	32914	
5125	0	2448	5405	3878	8030	1234	0	32753	32799	32713	32796	32171	32867	32881	32663	
5126	0	2417	5408	3862	8010	1235	0	32740	32941	32706	32775	33277	32892	32700	32673	
5127	0	2435	5460	3872	8027	1236	0	32794	32871	32759	32861	32311	32943	32847	32748	
5128	0	2432	5420	3858	8008	1237	0	32756	32735	32645	32729	32961	32809	32815	32676	
5129	0	2401	5425	3880	8020	1238	0	32814	32875	32723	32633	32939	32678	32751	32959	
5130	0	2401	5437	3849	8040	1239	0	32704	32782	32800	32791	32305	32623	32666	33037	
5131	0	2436	5404	3891	8025	1240	0	32737	32623	32639	32867	33267	32709	32714	32844	
5132	0	2472	5392	3834	8045	1241	0	32697	32711	32795	32685	32173	32828	32647	32919	
5133	0	2462	5412	3880	8064	1242	0	32788	32626	32660	32615	33167	32869	32575	32799	
5134	0	2400	5396	3886	8001	1243	0	32801	32791	32854	32854	32775	32831	32415	32479	
5135	0	2432	5415	3842	8018	1244	0	32836	32767	32821	32891	32445	32829	32521	32669	
5136	0	2462	5343	3874	8092	1245	0	32726	32615	32685	32615	33324	32937	32701	32641	
5137	0	2439	5381	3880	8064	1246	0	32791	32687	32824	32681	32011	32811	32812	32685	
5138	0	2426	5378	3829	8047	1247	0	32784	32663	32731	32569	33284	32785	32705	32548	
5139	0	2430	5382	3841	8029	1248	0	32812	32509	32759	32605	32634	32724	32742	32623	
5140	0	2408	5428	3800	8070	1249	0	32776	32613	32742	32726	32607	32660	32803	32607	
5141	0	2440	5394	3880	8033	1250	0	32753	32623	32800	32839	33308	32743	32697	32699	
5142	0	2401	5396	3877	8016	1251	0	32703	32535	32635	32668	32140	32775	32837	32741	
5143	0	2471	5442	3902	8057	1252	0	32703	32678	32628	32549	33319	32675	32813	32575	
5144	0	2476	5395	3836	8060	1253	0	32701	32615	32623	32775	32459	32739	32645	32679	
5145	0	2414	5423	3840	8076	1254	0	32795	32699	32658	32756	32695	32696	32775	32545	
5146	0	2415	5432	3845	8059	1255	0	32775	32719	32642	32852	33039	32732	32775	32595	
5147	0	2418	5392	3839	8058	1256	0	32741	32775	32749	32729	32233	32754	32710	32617	
5148	0	2434	5409	3878	8043	1257	0	32780	32794	32802	32507	33451	32753	32667	32577	
5149	0	2418	5454	3881	8034	1258	0	32792	32807	32719	32743	32228	32775	32783	32582	
5150	0	2450	5404	3872	8053	1259	0	32790	32743	32688	32871	32968	32783	32774	32639	
5151	0	2419	5420	3908	8045	1260	0	32796	32631	32708	32671	32931	32760	32805	32623	
5152	0	2410	5376	3865	8074	1261	0	32830	32756	32709	32547	32171	32683	32615	32629	
5153	0	2443	5439	3876	8064	1262	0	32756	32711	32687	32687	33415	32788	32756	32729	
5154	0	2441	5429	3856	8011	1263	0	32724	32679	32758	32744	32159	32765	32756	32767	
5155	0	2454	5415	3841	7997	1264	0	32724	32672	32596	32836	33092	32767	32771	32605	
5156	0	2413	5476	3883	8051	1265	0	32716	32719	32474	32863	32843	32683	32562	32723	
5157	0	2424	5404	3848	8015	1266	0	32701	32487	32437	32702	32408	32806	32687	32702	
5158	0	2447	5367	3830	8052	1267	0	32704	32674	32519	32658	33302	32817	32634	32555	
5159	0	2410	5426	3841	8044	1268	0	32772	32639	32559	32866	31981	32686	32711	32719	
5160	0	2435	5444	3891	8068	1269	0	32764	32460	32726	32844	33247	32773	32698	32795	
5161	0	2454	5444	3850	8052	1270	0	32775	32687	32683	32867	32647	32791	32712	32627	
5162	0	2433	5404	3904	8076	1271	0	32746	32623	32831	32829	32584	32754	32727	32720	
5163	0	2471	5440	3814	8052	1272	0	32760	32775	32759	32775	33313	32774	32811	32559	
5164	0	2467	5392	3839	8046	1273	0	32757	32621	32767	32741	32134	32654	32605	32596	
5165	0	2433	5413	3883	8066	1274	0	32789	32869	32805	32630	33364	32691	32734	32547	
5166	0	2455	5415	3828	8025	1275	0	32740	32803	32815	32740	32463	32705	32687	32338	
5167	0	2394	5392	3862	8009	1276	0	32757	32724	32785	32775	32614	32805	32619	32671	
5168	0	2435	5431	3895	8035	1277	0	32748	32775	32991	32890	33199	32819	32687	32756	
5169	0	2449	5418	3838	8021	1278	0	32738	32833	32773	32676	32231	32783	32683	32617	
5170	0	2464	5408	3845	8064	1279	0	32826	32673	32715	32583	33348	32852	32757	32774	
5171	0	2437	5428	3914	8050	1280	0	32826	32698	32815	32727	32322	32791	32789	32775	
5172	0	2480	5363	3866	8046	1281	0	32890	32786	32755	32756	32929	32806	32801	32711	
5173	0	2493	5415	3819	8041	1282	0	32837	32599	32731	32774	32903	32729	32743	32698	
5174	0	2412	5444	3862	8036	1283	0	32785	32732	32664	32797	32145	32796	32613	32628	
5175	0	2444	5418	3892	8038	1284	0	32763	32701	32732	32715	33269	32793	32751	32733	
5176	0	2434	5405	3896	8096	1285	0	32743	32607	32599	32655	32173	32742	32773	32694	
5177	0	2406	5439	3874	8038	1286	0	32722	32663	32560	32803	33120	32741	32805	32612	
5178	0	2432	5394	3831	8046	1287	0	32734	32599	32471	32711	32791	32715	32775	32723	
5179	0	2494	5441	3866	8066	1288	0	32793	32496	32529	32723	32441	32745	32738	32809	
5180	0	2456	5408	3817	8037	1289	0	32780	32594	32633	32863	33391	32772	32676	32749	
5181	0	2467	5387	3847	8065	1290	0	32768	32671	32691	32727	32009	32728	32757	32712	
5182	0	2440	5432	3845	8048	1291	0	32754	32534	32670	32657	33119	32763	32691	32571	
5183	0	2443	5404	3886	8012	1292	0	32775	32663	32758	32843	32638	32767	32551	32638	
5184	0	2458	5405	3848	8041	1293	0	32712	32498	32794	32817	32601	32775	32588	32711	
5185	0	2465	5393	3830	8068	1294	0	32716	32751	32716	32902	33238	32775	32677	32578	
5186	0	2435	5445	3886	8036	1295	0	32667	32871	32804	32742	32177	32900	32852	32767	
5187	0	2445	5394	3884	8028	1296	0	32695	32725	32684	32647	33389	32764	32784	32757	
5188	0	2444	5386	3879	8048	1297	0	32740	32837	32735	32615	32317	32711	32804	32571	
5189	0	2442	5440	3949	8052	1298	0	32791	32873	32584	32647	32671	32727	32769	32675	
5190	0	2463	5435	3884	8087	1299	0	32773	32614	32647	32686	33196	32767	32725	32679	
5191	0	2474	5404	3841	8037	1300	0	32773	32822	32673	32663	32260	32775	32833	32538	
5192	0	2418	5386	3903	8027	1301	0	32775	32717	32743	32807	33415	32751	32767	32727	
5193	0	2442	5412	3821	8069	1302	0	32802	32690	32759	32646	32239	32883	32775	32591	
5194	0	2487	5425	3875	8050	1303	0	32773	32552	32722	32558	32941	32793	32771	32702	
5195	0	2447	5365	3866	8052	1304	0	32760	32591	32694	32731	32967	32723	32683	32685	
5196	0	2442	5412	3836	8083	1305	0	32815	32568	32818	32790	32181	32613	32565	32597	
5197	0	2496	5420	3770	8084	1306	0	32736	32735	32823	32751	33431	32512	32451	32749	
5198	0	2433	5449	3833	8082	1307	0	32764	32591	32820	32551	32174	32641	32576	32784	
5199	0	2449	5368	3964	8018	1308	0	32844	32486	32747	32557	33037	32615	32660	32587	
5200	0	2406	5402	3866	8017	1309	0	32820	32583	32540	32655	32837	32731	32615	32694	
5201	0	2431	5406	3841	8027	1310	0	32743	32588	32629	32839	32420	32815	32774	32764	
5202	0	2434	5430	3900	8031	1311	0	32724	32452	32570	32863	33207	32975	32796	32653	
5203	0	2452	5371	3862	8034	1312	0	32767	32627	32644	32629	32127	32957	32660	32669	
5204	0	2436	5444	3833	8107	1313	0	32708	32743	32610	32793	33275	32903	32786	32571	
5205	0	2454	5408	3874	8084	1314	0	32742	32767	32722	32815	32583	32820	32727	32559	
5206	0	2472	5433	3851	8096	1315	0	32707	32803	32722	32834	32587	32903	32569	32567	
5207	0	2471	5442	3867	8040	1316	0	32794	32775	32819	32843	33319	32851	32634	32502	
5208	0	2490	5405	3873	8019	1317	0	32716	32839	32814	32638	32033	32549	32775	32647	
5209	0	2452	5439	3848	8024	1318	0	32748	32820	32767	32771	33377	32723	32745	32734	
5210	0	2415	5393	3854	8051	1319	0	32780	32647	32831	32823	32487	32677	32604	32699	
5211	0	2450	5418	3826	8088	1320	0	32799	32679	32791	32807	32756	32690	32738	32803	
5212	0	2438	5453	3861	8044	1321	0	32758	32621	32799	32891	33102	32679	32819	32697	
5213	0	2482	5440	3856	8024	1322	0	32716	32621	32687	32839	32251	32647	32730	32999	
5214	0	2446	5420	3868	8034	1323	0	32742	32763	32734	32674	33294	32677	32730	32690	
5215	0	2448	5430	3889	8064	1324	0	32814	32743	32662	32791	32325	32751	32775	32573	
5216	0	2468	5426	3876	8065	1325	0	32773	32582	32690	32780	32927	32935	32631	32553	
5217	0	2448	5416	3835	8062	1326	0	32757	32667	32559	32882	32973	32911	32421	32609	
5218	0	2462	5429	3845	8037	1327	0	32790	32644	32603	32908	32307	33053	32727	32733	
5219	0	2482	5416	3848	8070	1328	0	32743	32511	32583	32663	33452	32951	32815	32783	
5220	0	2426	5374	3841	8032	1329	0	32724	32593	32655	32595	32066	32867	32760	32617	
5221	0	2469	5405	3889	8068	1330	0	32731	32640	32662	32743	32948	32815	32919	32763	
5222	0	2453	5424	3831	8074	1331	0	32791	32671	32783	32699	32847	32795	32839	32714	
5223	0	2447	5443	3870	8044	1332	0	32784	32647	32806	32756	32402	32690	32759	32507	
5224	0	2443	5410	3850	8056	1333	0	32769	32715	32797	32563	33343	32755	32751	32489	
5225	0	2433	5409	3844	8061	1334	0	32775	32663	32823	32551	32133	32681	32642	32370	
5226	0	2424	5389	3866	8069	1335	0	32741	32835	32851	32791	33206	32642	32677	32519	
5227	0	2462	5432	3826	8034	1336	0	32764	32887	32723	32763	32575	32743	32759	32673	
5228	0	2474	5456	3848	8116	1337	0	32728	32666	32719	32772	32391	32757	32785	32559	
5229	0	2410	5412	3801	8032	1338	0	32783	32775	32628	32863	33325	32711	32559	32544	
5230	0	2436	5418	3801	8037	1339	0	32722	32743	32704	32845	32132	32738	32737	32578	
5231	0	2442	5432	3809	8068	1340	0	32772	32578	32775	32543	33243	32727	32807	32903	
5232	0	2418	5424	3825	8025	1341	0	32822	32751	32837	32630	32567	32823	32687	32895	
5233	0	2446	5420	3852	8052	1342	0	32847	32771	32910	32718	32598	32764	32775	32618	
5234	0	2400	5393	3891	8084	1343	0	32749	32535	32726	32886	33127	32847	32817	32725	
5235	0	2462	5432	3847	8078	1344	0	32743	32785	32790	33033	32079	32833	32633	32684	
5236	0	2429	5399	3845	8071	1345	0	32700	32713	32671	32767	33415	32719	32836	32815	
5237	0	2459	5416	3858	8025	1346	0	32724	32487	32719	32559	32391	32682	32783	32834	
5238	0	2442	5409	3840	8049	1347	0	32748	32607	32541	32658	32775	32559	32678	32811	
5239	0	2483	5405	3839	8036	1348	0	32756	32592	32575	32629	33121	32647	32575	32655	
5240	0	2489	5400	3789	8029	1349	0	32743	32511	32500	32708	32135	32686	32605	32692	
5241	0	2444	5431	3851	8061	1350	0	32769	32599	32611	32723	33287	32628	32629	32799	
5242	0	2426	5397	3836	8040	1351	0	32792	32719	32667	32602	32247	32647	32700	32623	
5243	0	2486	5386	3816	8040	1352	0	32764	32586	32756	32584	32999	32707	32859	32614	
5244	0	2441	5423	3842	8030	1353	0	32692	32710	32646	32775	32873	32868	32903	32807	
5245	0	2445	5405	3865	8053	1354	0	32676	32786	32751	32831	32321	32820	32793	32724	
5246	0	2493	5415	3844	8068	1355	0	32712	32689	32725	32783	33261	33039	32831	32742	
5247	0	2510	5414	3812	8068	1356	0	32705	32900	32775	32703	32007	33076	32823	32706	
5248	0	2408	5404	3866	8065	1357	0	32702	32767	32658	32548	33171	32947	32663	32637	
5249	0	2444	5443	3840	8028	1358	0	32764	32613	32566	32518	32709	32773	32715	32495	
5250	0	2432	5400	3865	8085	1359	0	32776	32848	32563	32636	32466	32850	32711	32439	
5251	0	2463	5452	3852	8056	1360	0	32839	32765	32742	32721	33367	32964	32676	32692	
5252	0	2466	5424	3876	8030	1361	0	32837	32775	32756	32926	32116	32812	32823	32801	
5253	0	2465	5405	3849	8035	1362	0	32827	32615	32804	32991	33204	32753	32739	32595	
5254	0	2471	5399	3816	8046	1363	0	32821	32763	32741	32941	32580	32647	32551	32603	
5255	0	2414	5413	3802	8096	1364	0	32816	32568	32766	32718	32647	32735	32663	32820	
5256	0	2450	5391	3858	8044	1365	0	32784	32763	32687	32791	33231	32756	32719	32629	
5257	0	2506	5426	3805	8073	1366	0	32725	32711	32632	32836	32162	32735	32748	32631	
5258	0	2480	5416	3811	8014	1367	0	32698	32661	32794	32850	33283	32548	32603	32799	
5259	0	2433	5408	3820	8028	1368	0	32735	32579	32707	32663	32423	32821	32767	32718	
5260	0	2457	5406	3785	8044	1369	0	32762	32457	32804	32795	32866	32695	32660	32671	
5261	0	2450	5438	3852	8069	1370	0	32794	32647	32807	32711	33052	32751	32635	32612	
5262	0	2514	5421	3818	8029	1371	0	32775	32677	32833	32623	32262	32815	32697	32735	
5263	0	2463	5404	3821	8069	1372	0	32773	32527	32823	32647	33269	32735	32663	32671	
5264	0	2493	5378	3809	8056	1373	0	32692	32695	32783	32679	32235	32743	32807	32641	
5265	0	2468	5404	3854	8058	1374	0	32716	32668	32863	32943	33003	32665	32700	32751	
5266	0	2477	5413	3837	8056	1375	0	32748	32795	32811	32895	32837	32903	32743	32691	
5267	0	2501	5421	3848	8050	1376	0	32753	32670	32632	32643	32387	33150	32806	32694	
5268	0	2466	5433	3834	8032	1377	0	32747	32695	32717	32799	33295	32859	32715	32695	
5269	0	2466	5445	3870	8032	1378	0	32791	32693	32735	32909	32145	32911	32775	32871	
5270	0	2461	5434	3867	8042	1379	0	32794	32783	32661	32658	33145	32726	32706	32761	
5271	0	2438	5431	3834	8050	1380	0	32806	32763	32727	32623	32567	32622	32775	32871	
5272	0	2471	5424	3821	8025	1381	0	32808	32686	32623	32794	32561	32646	32734	32685	
5273	0	2480	5407	3802	8048	1382	0	32748	32803	32621	32823	33327	32466	32621	32728	
5274	0	2423	5376	3829	8040	1383	0	32753	32679	32591	32757	32130	32424	32706	32719	
5275	0	2476	5412	3816	8048	1384	0	32740	32682	32707	32852	33274	32516	32801	32711	
5276	0	2507	5396	3850	8048	1385	0	32726	32587	32626	32793	32447	32703	32685	32611	
5277	0	2450	5428	3787	8096	1386	0	32758	32669	32701	32647	32740	32911	32749	32692	
5278	0	2464	5385	3828	8046	1387	0	32748	32497	32589	32647	33197	32783	32645	32550	
5279	0	2446	5413	3824	8079	1388	0	32711	32617	32657	32692	32094	32823	32623	32432	
5280	0	2502	5388	3817	8029	1389	0	32754	32588	32580	32685	33447	32935	32822	32693	
5281	0	2465	5394	3859	8057	1390	0	32793	32415	32617	32679	32365	32911	32791	32717	
5282	0	2484	5431	3856	8104	1391	0	32842	32662	32647	32556	32892	32900	32643	32557	
5283	0	2457	5429	3827	8045	1392	0	32760	32751	32731	32661	32991	32711	32791	32435	
5284	0	2472	5401	3839	8098	1393	0	32729	32586	32644	32745	32247	32758	32740	32479	
5285	0	2478	5404	3778	8008	1394	0	32775	32799	32667	32808	33414	32750	32751	32500	
5286	0	2432	5404	3830	8068	1395	0	32781	32701	32685	32647	32095	32918	32713	32742	
5287	0	2487	5425	3832	8068	1396	0	32810	32827	32684	32774	33028	32839	32767	32746	
5288	0	2496	5413	3848	8027	1397	0	32735	32655	32783	32839	32881	32847	32870	32820	
5289	0	2496	5414	3809	8078	1398	0	32775	32769	32756	32799	32306	32708	32751	32669	
5290	0	2453	5433	3819	8034	1399	0	32767	32682	32706	32587	33295	32621	32612	32683	
5291	0	2528	5442	3831	8000	1400	0	32772	32643	32735	32765	32161	32742	32503	32564	
5292	0	2464	5399	3879	8048	1401	0	32810	32690	32702	32759	33229	32775	32658	32564	
5293	0	2487	5383	3817	8064	1402	0	32785	32593	32789	32799	32677	32783	32695	32351	
5294	0	2445	5427	3760	8054	1403	0	32757	32719	32756	32508	32515	32726	32653	32503	
5295	0	2502	5433	3837	8047	1404	0	32758	32663	32745	32662	33175	32773	32539	32591	
5296	0	2498	5407	3777	8056	1405	0	32755	32706	32706	32742	32146	32685	32566	32852	
5297	0	2480	5426	3802	8046	1406	0	32765	32581	32775	32474	33391	32783	32823	32647	
5298	0	2485	5392	3827	8090	1407	0	32735	32633	32637	32615	32359	32745	32831	32795	
5299	0	2492	5421	3838	8068	1408	0	32676	32538	32698	32713	32802	32712	32817	32763	
5300	0	2480	5449	3822	8080	1409	0	32703	32646	32711	32715	33191	32787	32838	32903	
5301	0	2480	5452	3823	8046	1410	0	32703	32681	32647	32530	32182	32810	32647	32710	
5302	0	2450	5437	3831	8094	1411	0	32732	32487	32614	32713	33461	32751	32807	32863	
5303	0	2509	5444	3866	8046	1412	0	32709	32646	32565	32803	32135	32824	32845	32942	
5304	0	2487	5418	3849	8048	1413	0	32710	32540	32691	32807	32962	32795	32856	32658	
5305	0	2436	5400	3817	8020	1414	0	32703	32813	32715	32546	32964	32791	32681	32695	
5306	0	2484	5362	3862	8056	1415	0	32710	32868	32758	32460	32303	32786	32731	32858	
5307	0	2476	5437	3834	8053	1416	0	32714	32738	32734	32939	33379	32804	32799	32553	
5308	0	2480	5381	3836	8069	1417	0	32780	32807	32815	32959	32111	32871	32655	32620	
5309	0	2472	5434	3870	8033	1418	0	32750	32600	32860	32813	33015	32727	32632	32477	
5310	0	2472	5421	3829	8094	1419	0	32765	32757	32749	32583	32788	32749	32734	32375	
5311	0	2514	5402	3839	8056	1420	0	32793	32739	32837	32748	32463	32807	32731	32601	
5312	0	2485	5402	3824	8048	1421	0	32746	32771	32699	32789	33332	32751	32745	32647	
5313	0	2524	5396	3833	8112	1422	0	32833	32729	32709	32887	32005	32749	32671	32714	
5314	0	2506	5348	3813	8047	1423	0	32828	32759	32737	32665	33326	32759	32801	32527	
5315	0	2499	5407	3849	8038	1424	0	32768	32775	32573	32805	32575	32743	32767	32551	
5316	0	2445	5428	3833	8034	1425	0	32772	32627	32641	32884	32601	32809	32788	32691	
5317	0	2463	5412	3832	8022	1426	0	32783	32669	32573	33015	33247	32708	32735	32702	
5318	0	2511	5375	3883	8081	1427	0	32753	32468	32655	32798	32064	32624	32641	32604	
5319	0	2471	5384	3804	8050	1428	0	32758	32663	32655	32717	33264	32551	32571	32731	
5320	0	2533	5383	3822	8040	1429	0	32775	32623	32599	32863	32391	32577	32766	32747	
5321	0	2467	5422	3846	8099	1430	0	32804	32521	32656	32902	32767	32549	32669	32627	
5322	0	2441	5424	3827	8046	1431	0	32739	32587	32637	32975	33111	32655	32775	32769	
5323	0	2521	5462	3778	8039	1432	0	32761	32589	32701	32742	32259	32805	32673	32693	
5324	0	2513	5432	3861	8028	1433	0	32741	32756	32663	32558	33387	32960	32559	32589	
5325	0	2474	5421	3869	8036	1434	0	32815	32835	32753	32655	32127	33002	32723	32901	
5326	0	2513	5446	3822	8096	1435	0	32807	32775	32775	32804	32999	32879	32599	32738	
5327	0	2520	5424	3785	8036	1436	0	32734	32830	32879	32938	32852	32871	32598	32791	
5328	0	2466	5405	3801	8030	1437	0	32768	32729	32836	32666	32361	32760	32385	32485	
5329	0	2487	5413	3862	8011	1438	0	32782	32834	32727	32551	33287	32813	32509	32685	
5330	0	2501	5410	3872	8057	1439	0	32770	32759	32684	32625	32135	32889	32701	32869	
5331	0	2501	5417	3830	8036	1440	0	32743	32807	32655	32859	33179	32935	32447	32799	
5332	0	2520	5443	3850	8051	1441	0	32732	32756	32807	32726	32735	32955	32604	32669	
5333	0	2464	5439	3830	8043	1442	0	32694	32562	32865	32862	32439	32863	32928	32685	
