# OpenSignals Text File Format
# {"00:07:80:64:6D:DA": {"sensor": ["CUSTOM/0.5/1.0/V", "CUSTOM/0.5/1.0/V", "CUSTOM/0.5/1.0/V", "CUSTOM/0.5/1.0/V"], "device name": "Platform", "column": ["nSeq", "DI", "CH1", "CH2", "CH3", "CH4"], "sync interval": 2, "time": "14:36:14.232", "comments": "", "device connection": "BTH00:07:80:64:6D:DA", "channels": [1, 2, 3, 4], "date": "2017-6-29", "mode": 0, "digital IO": [0, 1], "firmware version": 772, "device": "biosignalsplux", "position": 0, "sampling rate": 1000, "label": ["CH1", "CH2", "CH3", "CH4"], "resolution": [16, 16, 16, 16], "special": [{}, {}, {}, {}]}, "00:07:80:3B:46:38": {"sensor": ["EMG", "EMG", "EMG", "EMG", "EMG", "EMG", "EMG", "EMG"], "device name": "EMGs", "column": ["nSeq", "DI", "X", "CH2", "CH3", "CH4", "CH5", "CH6", "CH7", "CH8"], "sync interval": 2, "time": "14:36:14.232", "comments": "", "device connection": "BTH00:07:80:3B:46:38", "channels": [1, 2, 3, 4, 5, 6, 7, 8], "date": "2017-6-29", "mode": 0, "digital IO": [0, 1], "firmware version": 772, "device": "biosignalsplux", "position": 1, "sampling rate": 1000, "label": ["X", "CH2", "CH3", "CH4", "CH5", "CH6", "CH7", "CH8"], "resolution": [16, 16, 16, 16, 16, 16, 16, 16], "special": [{}, {}, {}, {}, {}, {}, {}, {}]}}
# EndOfHeader
1501	0	4015	5232	1716	9039	0	0	32749	32843	32653	32873	32126	32686	32820	32733	
1502	0	4047	5218	1744	9032	1	0	32768	32927	32710	32941	33439	32711	32798	32711	
1503	0	4040	5244	1717	9044	2	0	32828	32711	32879	33031	32259	32743	32902	32756	
1504	0	4041	5220	1720	9037	3	0	32752	32706	32766	33065	33005	32667	33266	32983	
1505	0	4007	5254	1702	9032	4	0	32714	32775	32687	32931	32811	32887	32967	32711	
1506	0	4040	5219	1742	9001	5	0	32743	32686	32726	32903	32345	33055	32737	32734	
1507	0	4008	5240	1784	9018	6	0	32809	32757	32748	32863	33337	32903	32235	32319	
1508	0	4007	5204	1755	9011	7	0	32700	32548	32775	32710	32064	32966	32103	32468	
1509	0	4002	5204	1710	9000	8	0	32773	32717	32844	32663	33238	32730	32364	32535	
1510	0	4001	5290	1762	8974	9	0	32732	32766	32638	32783	32627	32873	32647	32919	
1511	0	3986	5242	1765	8940	10	0	32690	32549	32696	32807	32626	32610	32974	32803	
1512	0	4017	5267	1762	8954	11	0	32768	32723	32621	32879	33163	32863	32692	32821	
1513	0	4016	5288	1720	8952	12	0	32786	32607	32718	32812	32197	32965	32445	32558	
1514	0	4018	5273	1735	8970	13	0	32746	32430	32763	32685	33439	32619	32567	32361	
1515	0	3998	5309	1704	8954	14	0	32794	32599	32831	32599	32223	32699	32721	32535	
1516	0	3991	5315	1731	8958	15	0	32716	32598	32771	32516	32887	32647	31595	32632	
1517	0	4036	5312	1724	8900	16	0	32788	32751	32687	32682	32935	32691	30980	32662	
1518	0	4025	5276	1768	8940	17	0	32813	32588	32632	32705	32326	32872	31051	32640	
1519	0	3998	5322	1763	8931	18	0	32820	32738	32583	32813	33332	32815	31005	32621	
1520	0	3968	5281	1741	8868	19	0	32759	32693	32695	32846	32141	32632	31375	32832	
1521	0	4002	5283	1756	8896	20	0	32869	32863	32698	32795	33078	32586	32383	32794	
1522	0	3931	5322	1775	8872	21	0	32865	32968	32667	32815	32711	32434	34303	32927	
1523	0	3996	5332	1813	8900	22	0	32924	32748	32748	32678	32501	32767	35657	33014	
1524	0	3939	5330	1761	8866	23	0	32833	32925	32769	32589	33197	32722	35913	33201	
1525	0	3967	5310	1809	8860	24	0	32786	32879	32895	32541	32161	32780	35077	33223	
1526	0	3983	5304	1791	8881	25	0	32696	32612	32984	32687	33314	32583	33213	32519	
1527	0	3992	5314	1809	8856	26	0	32739	32743	32815	32663	32391	32699	32885	32272	
1528	0	3919	5348	1761	8796	27	0	32741	32724	32876	32738	32880	32839	33055	32442	
1529	0	3976	5292	1801	8859	28	0	32706	32431	32791	32759	33083	32639	32919	32491	
1530	0	3985	5354	1808	8811	29	0	32749	32553	32694	32788	32249	32725	32773	32463	
1531	0	3939	5366	1780	8825	30	0	32754	32487	32773	32764	33266	32669	33110	32342	
1532	0	3961	5353	1801	8773	31	0	32713	32687	32708	32727	32183	32671	33287	32508	
1533	0	3988	5349	1747	8812	32	0	32713	32599	32799	32681	33053	32583	32943	32558	
1534	0	3896	5344	1774	8776	33	0	32754	32454	32647	32562	32663	32783	32639	32709	
1535	0	3928	5337	1780	8780	34	0	32740	32576	32665	32605	32499	32868	32364	32576	
1536	0	3891	5346	1776	8755	35	0	32720	32583	32598	32743	33274	32827	32309	32615	
1537	0	3940	5365	1829	8774	36	0	32706	32402	32663	32701	32056	32891	32322	32786	
1538	0	3910	5373	1817	8732	37	0	32742	32622	32663	32735	33370	32854	32359	32784	
1539	0	3912	5364	1801	8741	38	0	32775	32706	32564	32755	32465	33013	32282	32607	
1540	0	3892	5332	1779	8747	39	0	32788	32603	32509	32788	32727	32979	32399	32773	
1541	0	3915	5329	1864	8690	40	0	32746	32861	32530	32775	33159	32935	32503	32813	
1542	0	3874	5387	1816	8728	41	0	32738	32866	32587	32764	32198	32750	32602	32687	
1543	0	3865	5374	1795	8724	42	0	32684	32700	32671	32753	33456	32667	32537	32559	
1544	0	3882	5360	1805	8712	43	0	32586	32775	32700	32691	32093	32715	32368	32624	
1545	0	3921	5394	1808	8684	44	0	32709	32751	32633	32614	33055	32857	31935	32563	
1546	0	3887	5379	1853	8685	45	0	32852	32831	32565	32532	32817	33034	31855	32742	
1547	0	3900	5346	1837	8616	46	0	32848	32712	32730	32737	32299	32857	32131	32653	
1548	0	3859	5424	1843	8605	47	0	32780	32751	32722	32783	33383	32695	32525	32549	
1549	0	3899	5410	1839	8662	48	0	32708	32731	32795	32734	32096	32692	32791	32615	
1550	0	3839	5414	1828	8590	49	0	32780	32703	32769	32791	33276	32711	33028	32559	
1551	0	3891	5421	1865	8603	50	0	32819	32569	32687	32743	32587	32869	32831	32647	
1552	0	3858	5425	1841	8592	51	0	32862	32736	32704	32775	32615	32956	32499	32742	
1553	0	3831	5429	1866	8597	52	0	32812	32634	32700	32883	33139	32883	32135	32636	
1554	0	3786	5433	1853	8580	53	0	32754	32500	32800	32724	32222	32914	32454	32870	
1555	0	3842	5407	1871	8579	54	0	32791	32619	32810	32623	33345	32892	33007	32892	
1556	0	3861	5464	1873	8522	55	0	32756	32668	32730	32607	32293	32815	33700	32801	
1557	0	3814	5452	1901	8551	56	0	32733	32549	32673	32673	32986	32646	33492	32807	
1558	0	3795	5473	1909	8546	57	0	32775	32738	32653	32885	32951	32582	33119	32797	
1559	0	3881	5484	1868	8519	58	0	32727	32724	32873	32841	32354	32671	33187	32710	
1560	0	3840	5456	1897	8529	59	0	32820	32679	32945	32846	33231	32669	32971	32735	
1561	0	3799	5454	1856	8497	60	0	32825	32815	32790	32851	32128	32716	32898	32564	
1562	0	3795	5446	1896	8456	61	0	32801	32647	32886	32823	33231	32762	33021	32711	
1563	0	3789	5468	1880	8480	62	0	32835	32899	32867	32903	32663	32927	32767	32645	
1564	0	3810	5452	1911	8496	63	0	32784	32788	32862	32765	32476	32705	32569	32663	
1565	0	3795	5438	1869	8453	64	0	32711	32767	32871	32527	33299	32983	32432	32757	
1566	0	3840	5447	1932	8440	65	0	32705	32783	32775	32483	32198	32716	32367	32367	
1567	0	3768	5515	1952	8456	66	0	32758	32698	32738	32629	33267	32348	32402	32551	
1568	0	3776	5484	1936	8445	67	0	32713	32445	32615	32663	32383	32243	32686	32525	
1569	0	3785	5506	1938	8428	68	0	32711	32654	32702	32708	32818	32289	32617	32525	
1570	0	3789	5524	1928	8436	69	0	32748	32663	32681	32783	32933	32429	32431	32303	
1571	0	3775	5478	1958	8384	70	0	32711	32532	32592	32686	32306	32557	32466	32470	
1572	0	3759	5501	1898	8386	71	0	32732	32591	32586	32663	33447	32680	32689	32516	
1573	0	3759	5534	1963	8382	72	0	32698	32567	32615	32495	32193	32830	32813	32569	
1574	0	3746	5521	1952	8403	73	0	32744	32658	32714	32497	32966	33202	32775	32782	
1575	0	3724	5527	1918	8386	74	0	32727	32588	32615	32644	32773	33431	32590	32853	
1576	0	3730	5524	1980	8396	75	0	32769	32398	32597	32797	32391	33018	32535	33062	
1577	0	3717	5523	1989	8393	76	0	32771	32564	32587	32879	33357	33095	32659	32929	
1578	0	3735	5524	1941	8388	77	0	32788	32567	32665	32903	31991	33399	32695	32930	
1579	0	3732	5493	1979	8332	78	0	32765	32839	32610	32903	33334	33423	32658	32900	
1580	0	3742	5526	1955	8350	79	0	32797	32835	32709	33014	32468	33151	32715	32933	
1581	0	3741	5609	1995	8336	80	0	32785	32756	32711	33038	32740	32958	32840	32775	
1582	0	3725	5604	2054	8326	81	0	32775	32811	32708	33012	33079	32610	32819	32924	
1583	0	3735	5556	2008	8284	82	0	32720	32703	32773	32709	32225	32683	32653	32718	
1584	0	3721	5614	2031	8293	83	0	32719	32852	32660	32591	33407	32607	32647	32605	
1585	0	3736	5597	2027	8291	84	0	32775	32773	32690	32623	32279	32747	32663	32813	
1586	0	3681	5624	2080	8272	85	0	32773	32819	32638	32638	32913	32588	32641	32837	
1587	0	3678	5588	2052	8310	86	0	32764	32695	32519	32739	32916	32655	32518	32662	
1588	0	3726	5618	2040	8260	87	0	32810	32725	32607	33014	32381	32561	32186	32314	
1589	0	3695	5592	2039	8236	88	0	32769	32775	32701	32739	33223	32551	31894	32199	
1590	0	3681	5596	2109	8235	89	0	32799	32635	32763	32841	32060	32687	32404	32295	
1591	0	3706	5620	2030	8213	90	0	32821	32723	32813	32865	33250	32558	32957	32567	
1592	0	3660	5637	2085	8233	91	0	32791	32695	32919	32851	32487	32499	32327	32387	
1593	0	3685	5654	2055	8227	92	0	32760	32428	32945	32948	32644	32527	31975	32367	
1594	0	3681	5631	2081	8227	93	0	32815	32598	32826	32845	33255	32748	32247	32343	
1595	0	3654	5645	2122	8172	94	0	32772	32583	32805	32728	32066	32885	32116	32283	
1596	0	3687	5682	2119	8204	95	0	32773	32403	32678	32679	33459	33095	32131	32574	
1597	0	3626	5618	2099	8209	96	0	32759	32683	32698	32563	32255	33135	33098	32852	
1598	0	3632	5673	2096	8142	97	0	32703	32671	32637	32742	32916	32933	33711	32919	
1599	0	3662	5687	2153	8100	98	0	32713	32711	32577	32738	32998	32677	33611	32903	
1600	0	3616	5704	2146	8135	99	0	32809	32783	32619	32813	32258	32676	32801	32582	
1601	0	3630	5697	2161	8099	100	0	32820	32818	32508	32789	33426	32578	33703	32802	
1602	0	3589	5726	2133	8136	101	0	32781	32788	32709	32634	32146	32549	34774	32890	
1603	0	3592	5742	2120	8083	102	0	32710	32727	32654	32751	33170	32647	34230	32887	
1604	0	3598	5732	2220	8096	103	0	32717	32769	32820	32663	32643	32807	33521	32737	
1605	0	3609	5734	2193	8064	104	0	32726	32676	32713	32713	32482	32911	33115	32817	
1606	0	3648	5731	2196	8072	105	0	32743	32613	32714	32766	33271	32902	32863	32679	
1607	0	3613	5728	2234	8092	106	0	32774	32658	32742	32775	32166	32692	32767	32669	
1608	0	3588	5750	2180	8043	107	0	32774	32559	32750	32690	33401	32655	32469	32806	
1609	0	3650	5777	2217	8014	108	0	32793	32791	32909	32694	32230	32647	32941	32684	
1610	0	3560	5785	2193	8021	109	0	32748	32748	32828	32725	32873	32578	33074	32810	
1611	0	3616	5795	2253	8088	110	0	32751	32549	32743	32703	33039	32690	32495	32692	
1612	0	3562	5757	2249	8034	111	0	32736	32708	32812	32617	32155	32748	31913	32617	
1613	0	3571	5805	2196	8039	112	0	32754	32554	32740	32535	33422	32668	32094	32575	
1614	0	3615	5785	2283	7991	113	0	32815	32511	32799	32551	32087	32700	32402	32713	
1615	0	3589	5832	2222	7987	114	0	32746	32599	32686	32683	33135	32643	32529	32647	
1616	0	3505	5824	2297	7988	115	0	32788	32524	32547	32679	32743	32621	32527	32799	
1617	0	3549	5800	2294	7958	116	0	32710	32462	32687	32701	32543	32562	32324	32617	
1618	0	3590	5808	2323	7960	117	0	32722	32615	32694	32711	33313	32638	32530	32772	
1619	0	3550	5821	2312	7966	118	0	32762	32756	32642	32715	32090	32713	32477	32867	
1620	0	3491	5806	2316	7954	119	0	32737	32711	32719	32695	33251	32836	32563	32493	
1621	0	3481	5849	2322	7919	120	0	32775	32790	32796	32711	32447	32871	32481	32547	
1622	0	3534	5832	2351	7904	121	0	32708	32653	32619	32762	32720	33003	32637	32575	
1623	0	3489	5852	2308	7921	122	0	32736	32911	32668	32711	33079	32990	32685	32922	
1624	0	3507	5891	2305	7946	123	0	32692	32848	32672	32694	32141	33510	32725	32592	
1625	0	3536	5843	2366	7868	124	0	32708	32631	32694	32615	33423	33247	32743	32632	
1626	0	3472	5902	2365	7846	125	0	32737	32660	32597	32825	32157	32991	32678	32749	
1627	0	3498	5894	2375	7913	126	0	32702	32532	32646	32957	33051	32839	32751	32527	
1628	0	3505	5896	2369	7880	127	0	32756	32775	32724	32911	32719	33029	32722	32487	
1629	0	3474	5875	2375	7833	128	0	32839	32822	32622	32841	32428	32879	32598	32350	
1630	0	3420	5942	2383	7860	129	0	32826	32751	32617	32743	33357	32730	32647	32191	
1631	0	3472	5896	2369	7841	130	0	32814	32724	32783	32631	32167	32679	32724	32371	
1632	0	3448	5930	2425	7845	131	0	32812	32584	32844	32630	33159	32679	32829	32529	
1633	0	3444	5924	2454	7791	132	0	32805	32706	32747	32823	32591	32662	32787	32511	
1634	0	3420	5955	2416	7829	133	0	32754	32663	32706	32925	32617	32626	32663	32799	
1635	0	3428	5892	2432	7806	134	0	32721	32401	32665	32935	33275	32633	32534	32727	
1636	0	3490	5928	2426	7804	135	0	32755	32564	32735	32902	32109	32684	32799	32711	
1637	0	3461	5912	2462	7793	136	0	32743	32524	32733	32971	33415	32671	32845	32647	
1638	0	3467	5974	2460	7771	137	0	32820	32671	32615	33058	32283	32708	32663	32705	
1639	0	3409	5954	2455	7792	138	0	32802	32775	32715	33007	32908	32639	32691	32797	
1640	0	3475	5976	2496	7763	139	0	32808	32810	32809	33021	32847	32671	32913	32713	
1641	0	3432	6006	2526	7760	140	0	32732	32820	32669	32991	32319	32602	32991	32750	
1642	0	3385	5980	2480	7763	141	0	32725	32661	32692	32923	33396	32717	32590	32549	
1643	0	3438	6018	2531	7721	142	0	32684	32834	32647	32793	32146	32684	32510	32599	
1644	0	3420	5955	2517	7696	143	0	32768	32799	32727	32695	33080	32763	32467	32655	
1645	0	3416	5986	2566	7725	144	0	32822	32587	32763	32653	32690	32706	32519	32698	
1646	0	3366	5977	2546	7677	145	0	32796	32794	32713	32790	32513	32845	32455	32752	
1647	0	3415	6026	2546	7698	146	0	32781	32775	32847	32715	33231	32855	32319	32647	
1648	0	3371	6038	2569	7682	147	0	32717	32775	32804	32713	32048	32938	32402	32756	
1649	0	3411	6031	2587	7705	148	0	32701	32669	32659	32576	33399	32775	32593	32711	
1650	0	3350	6044	2617	7660	149	0	32781	32595	32647	32543	32452	32935	32763	32715	
1651	0	3353	6035	2579	7643	150	0	32805	32750	32550	32712	32763	32861	33020	32775	
1652	0	3406	6048	2588	7628	151	0	32797	32541	32455	32663	33147	32839	33085	32747	
1653	0	3402	6087	2600	7701	152	0	32740	32572	32440	32630	32170	32742	32718	32771	
1654	0	3369	6073	2616	7645	153	0	32754	32423	32537	32647	33287	32613	32628	32647	
1655	0	3322	6030	2625	7636	154	0	32742	32630	32601	32660	32241	32551	32932	32608	
1656	0	3356	6091	2673	7636	155	0	32749	32610	32626	32715	33093	32495	33154	32834	
1657	0	3329	6074	2649	7624	156	0	32786	32607	32775	32647	32807	32667	32646	32767	
1658	0	3343	6106	2694	7626	157	0	32800	32715	32989	32733	32269	32661	32625	32622	
1659	0	3355	6101	2655	7636	158	0	32830	32614	32965	32703	33365	32903	33254	32925	
1660	0	3333	6139	2713	7618	159	0	32760	32739	33106	32636	32105	33102	33383	32941	
1661	0	3309	6058	2660	7586	160	0	32657	32560	32991	32612	33251	32949	32591	32537	
1662	0	3304	6118	2731	7568	161	0	32636	32775	32834	32772	32567	32871	32175	32551	
1663	0	3289	6144	2690	7616	162	0	32640	32598	32912	32678	32537	32723	32045	32173	
1664	0	3297	6160	2693	7525	163	0	32620	32700	32898	32619	33261	32809	32348	32391	
1665	0	3331	6147	2712	7560	164	0	32700	32772	32730	32604	32138	32862	32647	32390	
1666	0	3321	6156	2764	7561	165	0	32810	32629	32717	32558	33446	32698	32815	32726	
1667	0	3299	6146	2741	7552	166	0	32793	32679	32554	32767	32191	32793	33067	32830	
1668	0	3318	6136	2786	7522	167	0	32790	32787	32684	32839	32958	32804	33540	33023	
1669	0	3329	6177	2724	7550	168	0	32769	32711	32611	32829	32969	32693	33750	32821	
1670	0	3269	6131	2763	7551	169	0	32769	32712	32635	32722	32274	32475	33128	32604	
1671	0	3315	6184	2756	7510	170	0	32756	32647	32782	32493	33295	32487	32483	32770	
1672	0	3279	6168	2785	7472	171	0	32713	32735	32775	32499	32150	32629	32429	32696	
1673	0	3240	6234	2797	7470	172	0	32729	32606	32966	32471	33186	32638	32361	32809	
1674	0	3287	6162	2868	7492	173	0	32758	32417	32932	32647	32684	32791	32647	32615	
1675	0	3248	6202	2756	7469	174	0	32828	32619	32806	32742	32551	32833	32991	32724	
1676	0	3265	6192	2798	7447	175	0	32810	32563	32694	32709	33287	32865	32167	32694	
1677	0	3261	6216	2731	7477	176	0	32847	32415	32543	32783	32155	32683	31884	32615	
1678	0	3266	6180	2775	7392	177	0	32918	32614	32590	32834	33380	32673	32314	32326	
1679	0	3254	6204	2813	7390	178	0	32882	32530	32563	32881	32301	32644	32481	32527	
1680	0	3205	6222	2787	7448	179	0	32967	32750	32379	32808	32815	32715	32437	32503	
1681	0	3236	6264	2790	7406	180	0	33022	32854	32423	32915	33069	32727	32125	32631	
1682	0	3236	6309	2826	7410	181	0	32986	32663	32471	32838	32263	32736	32081	32553	
1683	0	3209	6264	2830	7394	182	0	32903	32775	32440	32851	33337	32731	32591	32630	
1684	0	3204	6232	2837	7381	183	0	32928	32791	32541	32927	32220	32713	32983	32953	
1685	0	3214	6262	2862	7392	184	0	32812	32550	32513	32871	33026	32716	32988	32714	
1686	0	3174	6242	2830	7403	185	0	32788	32475	32589	32638	32787	32743	32861	32813	
1687	0	3205	6290	2834	7366	186	0	32818	32404	32578	32516	32335	32937	32794	32734	
1688	0	3184	6230	2881	7381	187	0	32840	32387	32439	32736	33367	33238	32719	32843	
1689	0	3213	6277	2863	7323	188	0	32823	32311	32439	32678	32142	32941	32516	32391	
1690	0	3169	6296	2862	7325	189	0	32836	32381	32326	32615	33184	32818	32605	32751	
1691	0	3177	6255	2873	7336	190	0	32805	32171	32364	32655	32517	33043	32718	32667	
1692	0	3142	6316	2848	7357	191	0	32743	32263	32390	32588	32684	33017	32670	32412	
1693	0	3165	6338	2903	7280	192	0	32646	32052	32391	32421	33049	32871	32669	32406	
1694	0	3141	6283	2888	7300	193	0	32610	32018	32367	32258	32230	32927	32987	33092	
1695	0	3188	6330	2943	7323	194	0	32515	32025	32245	32279	33391	32812	33263	33159	
1696	0	3144	6296	2891	7300	195	0	32557	31953	32429	32538	32157	32887	33023	32979	
1697	0	3149	6284	2892	7293	196	0	32501	32151	32530	32588	33054	32797	33155	32971	
1698	0	3106	6312	2934	7268	197	0	32511	32286	32805	32714	32847	32815	32842	32927	
1699	0	3106	6295	2948	7236	198	0	32460	32189	32818	32829	32270	32981	32686	32957	
1700	0	3110	6310	2919	7257	199	0	32484	32549	32742	32923	33372	32932	32587	32705	
1701	0	3089	6325	2908	7288	200	0	32435	32642	32835	33045	32067	32991	32503	32769	
1702	0	3134	6326	2928	7255	201	0	32431	32610	32803	33060	33235	32899	32594	32761	
1703	0	3124	6332	2928	7234	202	0	32535	32845	32995	32977	32579	32846	32953	32735	
1704	0	3089	6339	2975	7224	203	0	32574	32864	33008	32844	32641	32647	33174	32926	
1705	0	3103	6352	2950	7195	204	0	32604	32711	33206	32951	33191	32806	33083	32641	
1706	0	3065	6285	2970	7201	205	0	32530	32971	33354	33209	32252	32828	33227	32706	
1707	0	3084	6323	3021	7208	206	0	32395	32989	33576	33212	33351	32647	32899	32531	
1708	0	3139	6366	2966	7165	207	0	32368	32771	33707	33396	32159	32385	32647	32258	
1709	0	3066	6365	2972	7172	208	0	32276	32931	33560	33504	32971	32423	32563	32407	
1710	0	3070	6361	2999	7156	209	0	32284	32962	33658	33364	32911	32575	33229	32643	
1711	0	3033	6300	2976	7157	210	0	32268	32754	33506	33277	32365	32647	33521	32830	
1712	0	3055	6382	2987	7155	211	0	32289	32903	33519	33107	33245	32588	33383	32788	
1713	0	3063	6348	3040	7156	212	0	32351	32884	33447	33227	32123	32556	33212	32685	
1714	0	3032	6372	3030	7145	213	0	32484	32794	33215	33076	33238	32788	33516	32743	
1715	0	3065	6395	3010	7080	214	0	32757	32983	32919	33050	32639	32679	33539	32532	
1716	0	3044	6323	3022	7110	215	0	32890	33007	32748	32802	32609	32600	33191	32518	
1717	0	3033	6382	2976	7120	216	0	33069	33113	32576	32598	33127	32611	33015	32459	
1718	0	2993	6360	3012	7096	217	0	33170	32991	32527	32708	32177	32595	32528	32327	
1719	0	3028	6360	3026	7107	218	0	33272	33307	32482	32660	33423	32729	32237	32383	
1720	0	3061	6403	3031	7107	219	0	33398	33299	32432	32583	32223	32876	32263	32503	
1721	0	3011	6378	3061	7120	220	0	33415	33159	32474	32595	32871	32878	32094	32498	
1722	0	3029	6378	3073	7079	221	0	33384	33248	32434	32313	32914	32807	31879	32527	
1723	0	3038	6400	3062	7108	222	0	33370	33268	32557	32274	32306	32676	31471	32219	
1724	0	3040	6396	3066	7067	223	0	33261	33248	32513	32343	33325	32551	31593	32398	
1725	0	3007	6398	3087	7020	224	0	33197	33093	32562	32391	32177	32474	32198	32340	
1726	0	2982	6419	3079	7069	225	0	33148	33100	32553	32418	33018	32653	32418	32570	
1727	0	3046	6408	3053	7073	226	0	33029	33074	32503	32498	32726	32524	32902	32397	
1728	0	2981	6408	3064	7042	227	0	32995	32910	32610	32585	32566	32551	33058	32489	
1729	0	3006	6396	3065	7044	228	0	32962	32903	32527	32639	33179	32660	33330	32535	
1730	0	2941	6454	3102	7052	229	0	32934	32987	32638	32571	32140	32656	33431	32604	
1731	0	3018	6439	3100	7042	230	0	32873	32754	32563	32471	33306	32834	33193	32630	
1732	0	2973	6434	3117	7006	231	0	32903	32879	32620	32601	32435	33183	32682	32735	
1733	0	2943	6464	3121	7040	232	0	32860	32733	32571	32591	32814	33189	32278	32431	
1734	0	2984	6435	3120	6964	233	0	32878	32683	32542	32663	33047	32887	32391	32607	
1735	0	2953	6466	3114	6969	234	0	32740	32698	32577	32646	32276	32605	32415	32679	
1736	0	2965	6500	3127	6961	235	0	32697	32655	32481	32629	33415	32725	32453	32705	
1737	0	2995	6470	3136	6968	236	0	32735	32433	32539	32739	32187	32578	32287	32590	
1738	0	3017	6472	3097	6989	237	0	32756	32766	32481	32822	32984	32829	32500	32811	
1739	0	2940	6492	3154	6938	238	0	32749	32731	32571	32879	32804	32771	32751	32811	
1740	0	2947	6453	3138	6997	239	0	32710	32568	32612	32807	32503	32971	32577	32852	
1741	0	2941	6473	3156	6978	240	0	32676	32803	32583	32731	33327	33055	32623	32594	
1742	0	2916	6452	3170	6920	241	0	32659	32735	32635	32854	32111	32916	32711	32709	
1743	0	2945	6496	3168	6900	242	0	32592	32785	32722	32824	33212	32937	32793	32804	
1744	0	2928	6469	3162	6912	243	0	32617	32579	32727	32876	32447	32791	32863	32866	
1745	0	2924	6488	3229	6920	244	0	32660	32742	32696	32812	32775	32646	33056	32807	
1746	0	2905	6549	3193	6936	245	0	32647	32767	32749	32570	32991	32759	32810	32579	
1747	0	2944	6476	3156	6908	246	0	32636	32436	32682	32627	32270	32862	32570	32775	
1748	0	2937	6504	3194	6877	247	0	32719	32623	32691	32615	33395	33077	32591	32719	
1749	0	2910	6538	3232	6882	248	0	32837	32727	32665	32583	32131	33024	32141	32647	
1750	0	2904	6496	3201	6859	249	0	32847	32682	32615	32601	33069	32727	32258	32674	
1751	0	2979	6498	3224	6905	250	0	32850	32647	32774	32709	32831	32671	32718	32763	
1752	0	2941	6446	3258	6900	251	0	32760	32703	32674	32695	32317	32484	32639	32695	
1753	0	2936	6508	3228	6854	252	0	32707	32485	32719	32798	33370	32391	32946	32719	
1754	0	2915	6550	3263	6857	253	0	32690	32637	32687	32716	32071	32481	32844	32843	
1755	0	2919	6516	3237	6860	254	0	32710	32608	32837	32602	33181	32535	32839	32869	
1756	0	2934	6544	3265	6863	255	0	32703	32556	32722	32607	32509	32822	32635	32587	
1757	0	2894	6551	3229	6872	256	0	32701	32636	32732	32775	32628	33006	32260	32543	
1758	0	2920	6531	3281	6856	257	0	32699	32655	32727	32841	33055	33187	32470	32557	
1759	0	2894	6547	3256	6856	258	0	32728	32761	32729	32971	32246	33220	32951	32797	
1760	0	2878	6576	3270	6845	259	0	32724	32583	32767	32997	33391	33117	33133	33059	
1761	0	2940	6565	3304	6813	260	0	32710	32815	32671	32988	32135	32898	33170	32898	
1762	0	2844	6548	3284	6864	261	0	32658	32800	32639	32774	33087	32723	33086	32745	
1763	0	2880	6532	3264	6807	262	0	32699	32786	32767	32847	32900	32699	33047	32676	
1764	0	2881	6532	3272	6820	263	0	32692	32608	32681	32822	32295	32645	33046	32735	
1765	0	2845	6573	3364	6820	264	0	32724	32826	32717	32784	33333	32663	33195	32803	
1766	0	2890	6569	3267	6808	265	0	32710	32698	32751	32799	32135	32695	32839	32690	
1767	0	2852	6546	3331	6796	266	0	32773	32653	32767	32806	33151	32679	32596	32551	
1768	0	2856	6589	3356	6798	267	0	32830	32759	32615	32658	32571	32832	32465	32500	
1769	0	2886	6554	3305	6781	268	0	32717	32827	32632	32608	32641	32974	31930	32691	
1770	0	2848	6593	3338	6792	269	0	32685	32591	32571	32577	33270	32949	31983	32583	
1771	0	2840	6569	3378	6830	270	0	32773	32647	32674	32549	32076	32689	32106	32485	
1772	0	2841	6556	3374	6762	271	0	32815	32553	32596	32664	33437	32436	32329	32407	
1773	0	2854	6574	3367	6784	272	0	32871	32692	32719	32605	32303	32641	32964	32796	
1774	0	2876	6612	3362	6757	273	0	32856	32655	32807	32639	32967	32716	33088	32759	
1775	0	2848	6606	3372	6787	274	0	32853	32511	32823	32791	32819	32878	33010	32849	
1776	0	2834	6614	3351	6770	275	0	32756	32624	32870	32759	32324	32799	32831	32580	
1777	0	2852	6627	3386	6742	276	0	32736	32669	32786	32790	33361	32711	33071	32755	
1778	0	2877	6636	3360	6739	277	0	32715	32569	32847	32749	32140	32702	33693	32743	
1779	0	2901	6562	3424	6765	278	0	32754	32694	32852	32692	33097	32679	33303	32775	
1780	0	2863	6610	3367	6749	279	0	32709	32822	32875	32604	32668	32723	32159	32555	
1781	0	2834	6648	3390	6776	280	0	32749	32729	32837	32666	32538	32626	31824	32599	
1782	0	2828	6600	3406	6758	281	0	32697	32749	32735	32747	33319	32633	32661	32583	
1783	0	2853	6612	3444	6749	282	0	32718	32614	32809	32816	32052	32671	32811	32736	
1784	0	2812	6649	3421	6761	283	0	32765	32775	32823	32759	33287	32853	32695	32527	
1785	0	2831	6614	3415	6766	284	0	32787	32631	32727	32719	32380	32735	32470	32735	
1786	0	2831	6619	3510	6707	285	0	32783	32673	32640	32736	32807	32791	32623	32692	
1787	0	2838	6692	3399	6760	286	0	32753	32775	32669	32762	32975	32813	32978	32898	
1788	0	2849	6640	3484	6705	287	0	32772	32733	32468	32706	32175	32909	32930	32647	
1789	0	2873	6654	3412	6733	288	0	32742	32764	32642	32694	33431	32819	32543	32587	
1790	0	2837	6626	3451	6709	289	0	32816	32563	32565	32681	32190	32786	32646	32587	
1791	0	2857	6666	3460	6704	290	0	32816	32726	32421	32751	33187	32687	32799	32716	
1792	0	2802	6696	3430	6701	291	0	32775	32757	32519	32803	32623	32683	32903	32719	
1793	0	2852	6678	3502	6681	292	0	32719	32652	32483	32785	32504	32706	33223	32551	
1794	0	2857	6647	3464	6696	293	0	32645	32629	32530	32734	33327	32850	33527	32717	
1795	0	2792	6675	3462	6693	294	0	32727	32419	32669	32743	32146	32843	33473	32699	
1796	0	2804	6691	3455	6700	295	0	32747	32577	32605	32759	33284	32847	32371	32621	
1797	0	2774	6642	3501	6704	296	0	32799	32497	32697	32803	32365	32585	30895	32617	
1798	0	2787	6656	3511	6676	297	0	32879	32670	32774	32810	32789	32655	31346	32625	
1799	0	2810	6697	3520	6640	298	0	32826	32607	32911	32677	33111	32598	32468	32627	
1800	0	2824	6663	3478	6688	299	0	32822	32709	32903	32684	32274	32703	32867	32698	
1801	0	2788	6684	3443	6647	300	0	32760	32775	32929	32501	33277	32754	32983	32611	
1802	0	2802	6660	3500	6678	301	0	32725	32634	32833	32495	32245	32811	33206	32576	
1803	0	2781	6644	3472	6656	302	0	32732	32738	32871	32486	33014	32785	33423	32587	
1804	0	2800	6682	3490	6644	303	0	32751	32756	32807	32716	32739	32719	33477	32831	
1805	0	2769	6722	3520	6629	304	0	32732	32642	32843	32811	32391	32728	32986	32838	
1806	0	2820	6744	3514	6589	305	0	32732	32708	32764	32869	33335	32755	32527	32646	
1807	0	2781	6710	3522	6651	306	0	32729	32503	32757	32967	32122	32872	32240	32623	
1808	0	2758	6708	3547	6596	307	0	32726	32653	32834	32959	33142	32870	32025	32504	
1809	0	2795	6728	3494	6622	308	0	32726	32711	32709	33051	32562	32901	32308	32567	
1810	0	2697	6694	3586	6629	309	0	32766	32640	32488	32945	32633	32877	32547	32733	
1811	0	2751	6705	3513	6641	310	0	32742	32677	32535	32835	33223	32947	32548	32573	
1812	0	2747	6695	3573	6568	311	0	32724	32722	32426	32716	32233	32874	32989	32643	
1813	0	2762	6755	3574	6604	312	0	32688	32620	32525	32626	33435	32703	32937	32644	
1814	0	2770	6744	3546	6598	313	0	32614	32685	32593	32583	32300	32662	32553	32620	
1815	0	2787	6777	3618	6619	314	0	32777	32717	32698	32792	32859	32647	32821	32694	
1816	0	2784	6716	3539	6580	315	0	32823	32647	32663	32791	32923	32815	33079	32829	
1817	0	2750	6728	3571	6579	316	0	32886	32647	32676	32635	32351	32882	33077	32855	
1818	0	2746	6750	3592	6596	317	0	32812	32521	32757	32685	33354	32786	32371	32383	
1819	0	2747	6756	3536	6585	318	0	32902	32751	32677	32647	32143	32719	32452	32641	
1820	0	2791	6766	3545	6561	319	0	32855	32718	32737	32748	33139	32985	32786	32739	
1821	0	2788	6722	3584	6577	320	0	32715	32540	32711	32711	32621	32662	32373	32758	
1822	0	2718	6712	3594	6551	321	0	32781	32754	32642	32617	32600	32557	32835	32665	
1823	0	2706	6750	3578	6539	322	0	32797	32803	32659	32542	33285	32743	33651	32709	
1824	0	2750	6735	3541	6516	323	0	32733	32564	32671	32780	32086	32745	33389	32830	
1825	0	2763	6738	3596	6507	324	0	32740	32811	32676	32940	33425	32879	33105	32761	
1826	0	2721	6725	3593	6488	325	0	32713	32749	32692	32903	32249	32759	32582	32762	
1827	0	2731	6778	3562	6592	326	0	32767	32559	32614	32935	32858	32757	32349	32807	
1828	0	2719	6749	3618	6532	327	0	32767	32735	32655	32879	32859	32727	32213	32494	
1829	0	2726	6731	3594	6568	328	0	32765	32718	32655	32854	32316	32766	32466	32563	
1830	0	2759	6715	3638	6521	329	0	32777	32590	32773	32633	33431	32730	32566	32683	
1831	0	2711	6761	3614	6502	330	0	32782	32587	32695	32559	32006	32781	32889	32658	
1832	0	2712	6732	3598	6507	331	0	32812	32636	32775	32750	33247	32694	33283	32755	
1833	0	2724	6693	3617	6525	332	0	32742	32577	32783	32764	32667	32806	33343	32549	
1834	0	2719	6763	3648	6521	333	0	32736	32679	32669	32764	32563	32743	33236	32674	
1835	0	2692	6781	3588	6522	334	0	32727	32582	32620	32854	33245	32791	33047	32689	
1836	0	2706	6690	3678	6520	335	0	32764	32367	32571	32806	32062	32720	32903	32692	
1837	0	2724	6792	3621	6505	336	0	32747	32626	32666	32783	33405	32755	32591	32455	
1838	0	2702	6792	3690	6515	337	0	32772	32687	32755	32709	32326	32751	32293	32756	
1839	0	2683	6815	3597	6470	338	0	32751	32678	32695	32790	32861	32761	32241	32708	
1840	0	2678	6817	3607	6492	339	0	32825	32690	32759	32743	32951	32914	32271	32793	
1841	0	2699	6774	3654	6496	340	0	32719	32644	32796	32633	32293	32871	32413	32598	
1842	0	2688	6779	3698	6468	341	0	32751	32802	32791	32591	33429	32935	32557	32647	
1843	0	2758	6734	3694	6477	342	0	32734	32838	32759	32567	32183	32895	32704	32672	
1844	0	2695	6822	3644	6512	343	0	32748	32683	32679	32824	32962	32801	32615	32590	
1845	0	2691	6738	3674	6492	344	0	32732	32683	32643	32750	32791	32756	32534	32586	
1846	0	2641	6810	3654	6480	345	0	32698	32679	32742	32766	32402	32738	32116	32582	
1847	0	2661	6773	3689	6453	346	0	32692	32695	32743	32758	33375	32775	32066	32379	
1848	0	2706	6802	3660	6449	347	0	32719	32625	32629	32657	31997	32705	32132	32663	
1849	0	2710	6797	3673	6491	348	0	32797	32583	32732	32587	33383	32763	32289	32700	
1850	0	2675	6822	3664	6448	349	0	32834	32687	32815	32619	32455	32775	32455	32859	
1851	0	2707	6796	3765	6458	350	0	32890	32705	32962	32655	32814	32805	32481	32725	
1852	0	2706	6796	3654	6488	351	0	32835	32717	32982	32635	33055	32887	32041	32791	
1853	0	2667	6778	3686	6428	352	0	32788	32702	32977	32743	32263	32589	32129	32755	
1854	0	2688	6854	3688	6456	353	0	32710	32567	32898	32825	33396	32667	33077	32693	
1855	0	2646	6825	3716	6444	354	0	32726	32663	32757	32819	32244	32759	33617	32876	
1856	0	2682	6815	3712	6457	355	0	32769	32736	32868	32854	32919	32647	33668	32640	
1857	0	2696	6822	3701	6402	356	0	32791	32543	32750	32743	32821	32615	34069	32787	
1858	0	2699	6785	3724	6467	357	0	32702	32752	32756	32641	32445	32642	34235	32738	
1859	0	2662	6848	3736	6450	358	0	32698	32692	32685	32587	33217	32708	33959	32828	
1860	0	2661	6814	3743	6472	359	0	32636	32570	32603	32575	32023	32796	33380	32598	
1861	0	2641	6807	3719	6426	360	0	32706	32679	32579	32706	33311	32807	32704	32668	
1862	0	2713	6792	3741	6441	361	0	32729	32807	32525	32762	32538	32839	32215	32603	
1863	0	2658	6839	3780	6447	362	0	32840	32685	32576	32827	32601	32859	31958	32623	
1864	0	2684	6822	3746	6416	363	0	32802	32749	32510	32839	33127	32695	32091	32615	
1865	0	2720	6852	3743	6414	364	0	32816	32647	32486	32871	32220	32772	31948	32681	
1866	0	2710	6822	3722	6456	365	0	32821	32751	32613	32873	33431	32762	32263	32623	
1867	0	2686	6793	3798	6433	366	0	32823	32742	32687	32762	32135	32647	32823	32684	
1868	0	2656	6819	3750	6431	367	0	32824	32613	32677	32627	32975	32793	32999	32757	
1869	0	2677	6836	3732	6403	368	0	32717	32775	32749	32567	32967	32871	33115	32535	
1870	0	2645	6824	3812	6434	369	0	32685	32699	32773	32735	32308	32978	33255	32734	
1871	0	2678	6861	3768	6441	370	0	32764	32584	32846	32769	33363	32867	33258	32683	
1872	0	2641	6867	3772	6428	371	0	32787	32723	32705	32767	32025	32911	33324	32873	
1873	0	2649	6850	3789	6428	372	0	32812	32709	32612	32806	33207	32823	33254	32605	
1874	0	2640	6841	3789	6424	373	0	32846	32612	32705	32597	32685	32690	32913	32655	
1875	0	2690	6884	3811	6380	374	0	32754	32674	32801	32512	32519	32755	32304	32495	
1876	0	2668	6896	3793	6397	375	0	32743	32682	32826	32532	33167	32555	32301	32615	
1877	0	2635	6865	3798	6416	376	0	32711	32483	32742	32733	32181	32756	32431	32504	
1878	0	2643	6864	3797	6432	377	0	32754	32707	32603	32769	33404	32755	32599	32597	
1879	0	2688	6909	3780	6394	378	0	32741	32685	32687	32879	32251	32677	32601	32476	
1880	0	2686	6860	3801	6393	379	0	32780	32812	32589	32847	32875	32783	32334	32712	
1881	0	2678	6864	3869	6414	380	0	32761	32655	32647	32703	33031	32758	32333	32643	
1882	0	2600	6918	3792	6390	381	0	32717	32764	32647	32592	32167	32769	32532	32707	
1883	0	2629	6907	3817	6360	382	0	32713	32859	32729	32679	33422	32839	32554	32751	
1884	0	2693	6892	3840	6421	383	0	32684	32647	32746	32700	32119	32827	32483	32594	
1885	0	2663	6878	3870	6401	384	0	32630	32668	32827	32814	33025	32853	32371	32585	
1886	0	2665	6881	3905	6410	385	0	32748	32665	32707	32659	32775	32844	32402	32685	
1887	0	2624	6926	3830	6362	386	0	32764	32495	32775	32736	32433	32822	32586	32662	
1888	0	2664	6887	3843	6386	387	0	32753	32705	32799	32767	33301	32851	32831	32677	
1889	0	2636	6913	3917	6406	388	0	32715	32734	32663	32767	32002	32865	33099	32786	
1890	0	2656	6908	3858	6402	389	0	32713	32598	32539	32763	33379	32811	33121	32645	
1891	0	2665	6892	3862	6336	390	0	32788	32658	32487	32555	32473	32807	32391	32606	
1892	0	2650	6928	3866	6352	391	0	32805	32789	32709	32766	32642	32743	32159	32743	
1893	0	2672	6908	3910	6364	392	0	32812	32538	32786	32767	33143	32623	32175	32703	
1894	0	2627	6887	3864	6387	393	0	32806	32652	32745	32888	32284	32647	32756	32615	
1895	0	2634	6920	3850	6328	394	0	32706	32615	32733	32823	33303	32605	32711	32663	
1896	0	2652	6917	3875	6363	395	0	32759	32707	32811	32629	32207	32773	32665	32726	
1897	0	2606	6932	3877	6308	396	0	32733	32573	32749	32798	33137	32794	32677	32670	
1898	0	2631	6882	3860	6347	397	0	32767	32738	32863	32807	32679	32775	33036	32615	
1899	0	2611	6869	3880	6376	398	0	32749	32756	32812	32866	32441	32897	33047	32655	
1900	0	2624	6896	3868	6359	399	0	32779	32689	32871	32720	33358	32826	32813	32621	
1901	0	2620	6900	3931	6340	400	0	32793	32721	32900	32740	32006	32810	32835	32635	
1902	0	2622	6846	3893	6352	401	0	32734	32769	32943	32863	33326	32818	32903	32629	
1903	0	2632	6913	3937	6364	402	0	32735	32845	32775	32932	32484	32757	33287	32685	
1904	0	2603	6933	3870	6310	403	0	32781	32663	32677	32919	32623	32829	33103	32615	
1905	0	2612	6903	3882	6316	404	0	32727	32707	32627	32691	33159	32826	32640	32471	
1906	0	2610	6910	3899	6322	405	0	32842	32743	32617	32790	32258	32813	32735	32587	
1907	0	2617	6929	3907	6340	406	0	32806	32593	32541	32756	33278	32707	33067	32751	
1908	0	2596	6910	3877	6289	407	0	32778	32597	32635	32799	32231	32799	33018	32738	
1909	0	2598	6931	3886	6339	408	0	32770	32627	32575	32694	33093	32751	32726	32680	
1910	0	2630	6884	3944	6308	409	0	32759	32561	32671	32567	32717	32847	32767	32415	
1911	0	2568	6922	3898	6299	410	0	32711	32741	32724	32593	32404	32685	33271	32698	
1912	0	2622	6938	3889	6300	411	0	32733	32678	32735	32729	33311	32756	33195	32721	
1913	0	2569	6947	3901	6320	412	0	32797	32598	32686	32758	31992	32775	32700	32602	
1914	0	2597	6941	3909	6296	413	0	32724	32512	32725	32856	33308	32683	31852	32639	
1915	0	2586	6952	3913	6304	414	0	32709	32671	32695	32647	32519	32647	31623	32775	
1916	0	2558	6976	3942	6289	415	0	32704	32615	32711	32497	32726	32754	31951	32604	
1917	0	2599	6951	3903	6329	416	0	32692	32567	32645	32647	33131	32767	31877	32659	
1918	0	2585	6939	3934	6271	417	0	32716	32679	32788	32705	32218	32671	32015	32663	
1919	0	2585	6941	3972	6309	418	0	32743	32647	32710	32789	33309	32693	32726	32775	
1920	0	2604	6908	3944	6275	419	0	32838	32647	32791	32807	32261	32729	32840	32717	
1921	0	2593	6952	3960	6287	420	0	32760	32795	32767	32858	33031	32641	33085	32601	
1922	0	2556	6916	3914	6252	421	0	32747	32823	32826	32763	32799	32699	33103	32751	
1923	0	2559	6958	4001	6259	422	0	32740	32588	32818	32596	32370	32759	32726	32718	
1924	0	2569	6913	3916	6288	423	0	32762	32829	32726	32525	33279	32876	32757	32719	
1925	0	2620	6946	3934	6294	424	0	32743	32793	32691	32663	32083	32866	32944	32747	
1926	0	2557	6894	3942	6310	425	0	32789	32587	32639	32687	33102	32726	33445	32530	
1927	0	2582	6924	3903	6295	426	0	32722	32687	32639	32698	32627	32747	33711	32633	
1928	0	2544	6916	3918	6294	427	0	32712	32537	32604	32758	32607	32735	32959	32580	
1929	0	2603	6908	3916	6294	428	0	32755	32775	32641	32685	33303	32802	32635	32667	
1930	0	2595	6949	3932	6304	429	0	32740	32727	32711	32673	32086	32695	32956	32775	
1931	0	2551	6884	3921	6237	430	0	32782	32627	32628	32633	33431	32749	32931	32663	
1932	0	2606	6952	3980	6314	431	0	32825	32743	32703	32645	32331	32809	32743	32721	
1933	0	2541	6965	3928	6290	432	0	32790	32695	32695	32846	32802	32816	32485	32770	
1934	0	2589	6947	3989	6276	433	0	32698	32459	32719	32861	33021	32790	32114	32589	
1935	0	2534	6928	3955	6314	434	0	32773	32582	32534	32894	32319	32830	32059	32657	
1936	0	2557	6950	4011	6297	435	0	32749	32622	32583	32950	33285	32790	32135	32667	
1937	0	2587	6924	3960	6280	436	0	32737	32463	32615	32855	32146	32783	32208	32642	
1938	0	2592	6900	4004	6264	437	0	32684	32590	32658	32739	33144	32758	32583	32638	
1939	0	2560	6916	4026	6298	438	0	32703	32795	32567	32647	32708	32803	32903	32685	
1940	0	2572	6964	3984	6305	439	0	32746	32751	32680	32835	32441	32751	33399	32705	
1941	0	2538	6963	3983	6275	440	0	32695	32596	32731	32837	33303	32775	33405	32635	
1942	0	2539	6978	4006	6290	441	0	32820	32826	32802	32878	32183	32781	33119	32739	
1943	0	2521	6960	3997	6294	442	0	32796	32782	32785	32887	33260	32765	33245	32655	
1944	0	2524	6973	4038	6279	443	0	32811	32647	32622	32903	32421	32788	33495	32748	
1945	0	2533	6970	3977	6276	444	0	32840	32772	32720	32754	32806	32885	33500	32773	
1946	0	2568	6960	4046	6306	445	0	32798	32711	32716	32581	33015	32807	33019	32749	
1947	0	2549	6947	4012	6334	446	0	32818	32790	32781	32743	32295	32799	32566	32708	
1948	0	2533	6934	4018	6264	447	0	32855	32581	32725	32815	33413	32812	33031	32787	
1949	0	2474	6936	3993	6264	448	0	32863	32669	32847	32773	32029	32749	32961	32564	
1950	0	2514	6918	4014	6270	449	0	32769	32646	32899	32677	33149	32634	32135	32516	
1951	0	2550	6964	4064	6302	450	0	32749	32759	32911	32519	32743	32683	31849	32537	
1952	0	2572	6963	4001	6312	451	0	32717	32511	32780	32607	32390	32695	31605	32543	
1953	0	2485	6984	4014	6258	452	0	32689	32700	32733	32647	33330	32739	31839	32730	
1954	0	2577	6926	4029	6294	453	0	32691	32596	32614	32705	32170	32775	32718	32585	
1955	0	2554	6968	4088	6273	454	0	32720	32619	32635	32789	33258	32699	32850	32708	
1956	0	2545	6984	4024	6304	455	0	32754	32534	32560	32571	32401	32695	32607	32710	
1957	0	2529	6925	4055	6296	456	0	32775	32706	32588	32617	32845	32671	32447	32716	
1958	0	2527	6944	4086	6238	457	0	32769	32695	32547	32708	32982	32659	32307	32583	
1959	0	2546	6978	4048	6342	458	0	32789	32596	32711	32701	32284	32693	32371	32730	
1960	0	2562	6958	4011	6248	459	0	32788	32819	32741	32762	33436	32746	32513	32550	
1961	0	2526	7008	4017	6276	460	0	32808	32883	32869	32873	32179	32791	32296	32637	
1962	0	2528	6976	4058	6310	461	0	32788	32822	32829	32762	32999	32839	32477	32678	
1963	0	2536	6971	4078	6244	462	0	32759	32823	32850	32697	32646	32959	32867	32707	
1964	0	2525	6959	4083	6234	463	0	32714	32566	32754	32763	32459	32911	32993	32754	
1965	0	2511	6927	4004	6276	464	0	32703	32655	32813	32815	33327	32983	33093	32743	
1966	0	2499	6942	4085	6266	465	0	32696	32694	32662	32872	32132	32919	33133	32749	
1967	0	2492	6992	4072	6247	466	0	32708	32541	32655	32980	33206	32899	33204	32775	
1968	0	2512	6978	4089	6264	467	0	32736	32613	32615	32807	32513	32743	33474	32587	
1969	0	2526	6968	4068	6270	468	0	32753	32673	32583	32685	32751	32742	33164	32711	
1970	0	2506	6961	4046	6284	469	0	32750	32711	32642	32700	33199	32839	32551	32686	
1971	0	2500	6973	4080	6260	470	0	32781	32750	32573	32653	32100	32640	32542	32570	
1972	0	2493	6992	4050	6249	471	0	32812	32596	32677	32599	33460	32725	32445	32551	
1973	0	2506	6996	4049	6224	472	0	32826	32775	32735	32593	32215	32713	32597	32621	
1974	0	2488	6989	4085	6228	473	0	32810	32686	32751	32711	33071	32847	32791	32610	
1975	0	2556	6985	4074	6222	474	0	32739	32473	32858	32835	32733	32883	32519	32661	
1976	0	2496	7008	4101	6236	475	0	32681	32678	32701	32795	32407	32894	32356	32595	
1977	0	2518	6969	4088	6224	476	0	32653	32710	32702	32809	33283	32750	32565	32569	
1978	0	2473	6955	4108	6267	477	0	32691	32575	32575	32960	32096	32685	33039	32769	
1979	0	2485	7016	4067	6260	478	0	32764	32712	32510	32911	33137	32713	32434	32686	
1980	0	2518	6990	4120	6195	479	0	32736	32607	32660	32784	32567	32625	32102	32751	
1981	0	2496	6976	4077	6244	480	0	32736	32708	32850	32708	32660	32873	32557	32859	
1982	0	2501	6976	4106	6237	481	0	32679	32807	32863	32699	33229	32735	32443	32709	
1983	0	2512	6956	4090	6212	482	0	32727	32749	32878	32820	32085	32676	33302	32708	
1984	0	2501	6985	4124	6204	483	0	32752	32700	32743	32567	33415	32719	33973	32814	
1985	0	2481	6947	4067	6274	484	0	32815	32523	32745	32585	32319	32821	34017	32918	
1986	0	2469	6969	4098	6212	485	0	32825	32687	32772	32617	32871	32722	33647	32647	
1987	0	2480	6979	4150	6184	486	0	32783	32751	32775	32487	32956	32843	33005	32719	
1988	0	2506	6945	4060	6180	487	0	32736	32709	32836	32518	32214	32741	32484	32583	
1989	0	2492	6963	4071	6212	488	0	32797	32773	32700	32482	33428	32711	32147	32529	
1990	0	2448	6962	4084	6241	489	0	32783	32583	32668	32583	32100	32705	32214	32439	
1991	0	2548	6944	4099	6209	490	0	32788	32663	32590	32753	33201	32825	32175	32635	
1992	0	2487	6964	4139	6213	491	0	32786	32583	32507	32685	32647	32703	32109	32627	
1993	0	2501	6999	4132	6257	492	0	32749	32752	32564	32741	32417	32935	32159	32524	
1994	0	2457	6987	4104	6237	493	0	32761	32739	32625	32845	33342	32767	32099	32663	
1995	0	2427	6981	4106	6195	494	0	32846	32681	32521	32914	32135	32749	32345	32687	
1996	0	2481	6921	4090	6221	495	0	32824	32679	32597	32822	33399	32775	32767	32687	
1997	0	2485	6980	4110	6235	496	0	32796	32711	32535	32817	32427	32745	32805	32694	
1998	0	2440	6939	4134	6264	497	0	32793	32624	32661	32847	32833	32820	32874	32727	
1999	0	2500	6976	4068	6248	498	0	32718	32710	32703	32837	33109	32759	32789	32589	
2000	0	2476	6968	4079	6242	499	0	32740	32791	32740	32747	32118	32767	32512	32617	
2001	0	2468	6915	4126	6240	500	0	32779	32698	32735	32658	33431	32709	32415	32695	
2002	0	2468	6995	4128	6201	501	0	32752	32839	32748	32525	32219	32799	32591	32694	
2003	0	2490	6962	4140	6226	502	0	32772	32832	32726	32760	32943	32793	32733	32727	
2004	0	2433	6936	4142	6246	503	0	32775	32751	32692	32765	32839	32813	32871	32743	
2005	0	2495	7002	4108	6236	504	0	32799	32710	32598	32807	32452	32786	33110	32557	
2006	0	2462	6977	4131	6233	505	0	32710	32659	32629	32852	33222	32811	33191	32594	
2007	0	2406	6950	4140	6268	506	0	32714	32646	32711	32742	32144	32749	33243	32710	
2008	0	2443	6921	4146	6195	507	0	32794	32684	32786	32655	33269	32826	33159	32719	
2009	0	2463	6969	4132	6240	508	0	32775	32620	32753	32556	32460	32785	32814	32756	
2010	0	2456	6937	4126	6238	509	0	32758	32710	32745	32506	32725	32758	32423	32522	
2011	0	2484	6967	4109	6241	510	0	32753	32615	32719	32590	33142	32759	32445	32641	
2012	0	2471	6944	4163	6224	511	0	32782	32688	32847	32637	32239	32763	32858	32652	
2013	0	2476	6915	4101	6244	512	0	32781	32703	32791	32690	33300	32775	32587	32743	
2014	0	2436	6944	4140	6209	513	0	32679	32463	32807	32757	32282	32887	32149	32614	
2015	0	2433	6957	4131	6246	514	0	32827	32639	32751	32733	32937	32772	32462	32623	
2016	0	2428	6933	4096	6219	515	0	32804	32501	32860	32610	32950	32845	32440	32707	
2017	0	2457	6934	4132	6230	516	0	32799	32696	32828	32558	32342	32839	32470	32653	
2018	0	2498	6939	4125	6276	517	0	32731	32725	32699	32612	33223	32773	32813	32733	
2019	0	2429	6960	4146	6270	518	0	32723	32621	32815	32580	32143	32745	32890	32603	
2020	0	2434	6960	4171	6235	519	0	32797	32790	32738	32788	33185	32685	33063	32691	
2021	0	2465	6988	4104	6256	520	0	32795	32855	32727	32879	32535	32721	33183	32775	
2022	0	2426	6959	4150	6265	521	0	32816	32679	32748	32894	32660	32694	33231	32709	
2023	0	2425	6980	4174	6271	522	0	32765	32795	32717	32935	33276	32722	33029	32791	
2024	0	2447	6968	4141	6249	523	0	32726	32807	32710	32918	32119	32756	32674	32479	
2025	0	2443	6929	4178	6248	524	0	32744	32513	32623	32743	33311	32733	32281	32450	
2026	0	2425	6949	4148	6254	525	0	32837	32735	32806	32631	32339	32690	31959	32578	
2027	0	2491	6944	4173	6234	526	0	32788	32679	32760	32699	32881	32833	31650	32525	
2028	0	2456	6928	4158	6291	527	0	32757	32615	32818	32709	33015	32766	31395	32594	
2029	0	2464	6961	4196	6239	528	0	32775	32729	32815	32743	32181	32772	31623	32662	
2030	0	2490	6952	4157	6276	529	0	32742	32641	32747	32849	33402	32687	31989	32667	
2031	0	2440	6965	4171	6269	530	0	32713	32765	32732	32815	32140	32858	32255	32521	
2032	0	2459	6945	4190	6250	531	0	32753	32572	32738	32602	33047	32854	32769	32747	
2033	0	2434	6952	4123	6284	532	0	32710	32751	32756	32791	32671	32735	33415	32730	
2034	0	2424	6946	4147	6275	533	0	32696	32667	32589	32950	32583	32948	33755	32746	
2035	0	2468	6899	4159	6286	534	0	32773	32583	32562	32916	33157	32854	33693	32871	
2036	0	2454	6946	4168	6230	535	0	32738	32669	32462	32900	32182	32767	33926	32911	
2037	0	2460	6943	4208	6261	536	0	32679	32662	32451	32935	33354	32845	33871	32861	
2038	0	2468	6937	4166	6240	537	0	32690	32503	32471	32935	32406	32863	33901	32835	
2039	0	2423	6944	4188	6297	538	0	32700	32710	32466	32847	32762	32823	33991	32598	
2040	0	2472	6898	4119	6282	539	0	32753	32688	32566	32847	32937	32419	33574	32647	
2041	0	2461	6921	4193	6283	540	0	32785	32727	32670	32790	32301	32621	33068	32632	
2042	0	2442	6950	4195	6272	541	0	32839	32783	32923	32658	33383	32703	32676	32591	
2043	0	2454	6949	4183	6308	542	0	32871	32879	32869	32535	32047	32815	32146	32712	
2044	0	2484	6936	4185	6292	543	0	32804	32742	32925	32541	33060	32916	31791	32639	
2045	0	2460	6926	4210	6308	544	0	32700	32647	32893	32492	32791	32871	32391	32775	
2046	0	2441	6920	4132	6285	545	0	32735	32756	32733	32599	32501	32836	32233	32569	
2047	0	2455	6926	4176	6316	546	0	32752	32595	32662	32708	33167	32726	31750	32483	
2048	0	2404	6908	4180	6296	547	0	32772	32701	32575	32747	32143	32617	32421	32622	
2049	0	2454	6924	4215	6271	548	0	32753	32755	32647	32678	33351	32626	32444	32670	
2050	0	2418	6928	4203	6306	549	0	32795	32567	32599	32579	32351	32615	32315	32663	
2051	0	2486	6957	4190	6292	550	0	32750	32712	32729	32477	32789	32596	32893	32759	
2052	0	2416	6944	4271	6292	551	0	32796	32679	32629	32524	33127	32703	33091	32765	
2053	0	2416	6912	4217	6290	552	0	32716	32477	32588	32658	32279	32816	32745	32548	
2054	0	2442	6975	4208	6316	553	0	32752	32612	32455	32773	33287	32730	33075	32682	
2055	0	2418	6899	4188	6272	554	0	32745	32635	32617	32863	32239	32820	33001	32764	
2056	0	2448	6876	4193	6308	555	0	32796	32496	32710	32815	33020	32804	32546	32755	
2057	0	2480	6880	4220	6370	556	0	32802	32717	32705	32804	32877	32814	32571	32591	
2058	0	2425	6912	4182	6309	557	0	32742	32667	32769	32890	32295	32793	32933	32558	
2059	0	2425	6918	4193	6314	558	0	32719	32727	32834	32879	33367	32814	33006	32658	
2060	0	2416	6918	4205	6331	559	0	32749	32549	32871	32764	32151	32848	32807	32650	
2061	0	2469	6868	4184	6340	560	0	32780	32771	32783	32721	33157	32797	32694	32676	
2062	0	2418	6906	4165	6334	561	0	32728	32815	32870	32703	32549	32869	32463	32529	
2063	0	2462	6911	4167	6332	562	0	32783	32759	32966	32673	32691	32750	31994	32662	
2064	0	2416	6906	4201	6366	563	0	32706	32739	32903	32809	33247	32751	32291	32671	
2065	0	2427	6886	4208	6307	564	0	32784	32799	32806	32817	32132	32895	32700	32671	
2066	0	2452	6908	4206	6341	565	0	32817	32590	32773	32726	33447	32719	32767	32767	
2067	0	2442	6908	4233	6348	566	0	32835	32727	32766	32671	32204	32895	32739	32607	
2068	0	2451	6881	4186	6344	567	0	32778	32739	32694	32782	33023	32729	32818	32749	
2069	0	2448	6893	4186	6334	568	0	32759	32610	32671	32783	32789	32755	32862	32647	
2070	0	2444	6867	4219	6344	569	0	32688	32722	32509	32614	32345	32801	32692	32756	
2071	0	2436	6908	4138	6352	570	0	32708	32739	32615	32565	33399	32739	32660	32755	
2072	0	2432	6890	4186	6370	571	0	32718	32548	32514	32811	32041	32772	32594	32810	
2073	0	2414	6821	4230	6320	572	0	32713	32746	32551	32758	33300	32812	32508	32535	
2074	0	2459	6879	4206	6372	573	0	32748	32647	32483	32775	32591	32748	32588	32615	
2075	0	2424	6850	4229	6339	574	0	32793	32480	32568	32759	32535	32759	32646	32689	
2076	0	2389	6856	4191	6324	575	0	32806	32671	32623	32823	33239	32754	32815	32759	
2077	0	2415	6904	4201	6348	576	0	32834	32644	32607	32758	32146	32659	32914	32775	
2078	0	2448	6860	4190	6343	577	0	32764	32530	32599	32742	33331	32766	33245	32570	
2079	0	2421	6866	4187	6343	578	0	32793	32783	32647	32647	32319	32757	32903	32740	
2080	0	2450	6865	4165	6382	579	0	32743	32749	32624	32575	32901	32735	32887	32654	
2081	0	2436	6893	4200	6317	580	0	32754	32591	32759	32673	32935	32871	32903	32723	
2082	0	2477	6850	4223	6337	581	0	32682	32756	32717	32714	32338	32861	32807	32685	
2083	0	2434	6829	4162	6376	582	0	32711	32772	32809	32799	33393	32893	32687	32771	
2084	0	2404	6872	4225	6397	583	0	32775	32794	32647	32541	32022	32740	32311	32796	
2085	0	2437	6884	4189	6341	584	0	32758	32740	32742	32444	33193	32717	32134	32629	
2086	0	2458	6866	4195	6381	585	0	32781	32534	32746	32807	32497	32751	32411	32561	
2087	0	2423	6863	4146	6377	586	0	32770	32727	32959	32894	32647	32695	32805	32615	
2088	0	2447	6852	4204	6418	587	0	32762	32739	32866	32895	33187	32775	32979	32751	
2089	0	2437	6847	4161	6373	588	0	32772	32549	32835	32869	32138	32813	32886	32726	
2090	0	2483	6849	4156	6409	589	0	32687	32647	32713	32717	33431	32756	32759	32695	
2091	0	2387	6833	4181	6358	590	0	32735	32694	32727	32559	32307	32745	33107	32759	
2092	0	2419	6824	4203	6389	591	0	32712	32554	32694	32534	32948	32752	33033	32662	
2093	0	2408	6811	4148	6402	592	0	32709	32583	32765	32482	32855	32716	32887	32627	
2094	0	2456	6836	4188	6350	593	0	32704	32617	32574	32564	32321	32775	33005	32782	
2095	0	2444	6820	4208	6395	594	0	32792	32647	32617	32613	33415	32751	32749	32791	
2096	0	2433	6798	4194	6362	595	0	32746	32460	32636	32643	32047	32722	32505	32727	
2097	0	2441	6785	4196	6365	596	0	32761	32633	32670	32823	33220	32663	32507	32823	
2098	0	2419	6852	4189	6376	597	0	32821	32727	32563	32846	32695	32538	32549	32582	
2099	0	2411	6752	4174	6371	598	0	32825	32564	32699	32782	32599	32601	32631	32671	
2100	0	2463	6817	4184	6422	599	0	32822	32799	32607	32765	33238	32623	32695	32638	
2101	0	2393	6808	4165	6413	600	0	32801	32903	32631	32716	32170	32592	32959	32661	
2102	0	2392	6805	4244	6380	601	0	32816	32765	32793	32791	33375	32783	32887	32549	
2103	0	2448	6861	4187	6400	602	0	32764	32743	32845	32759	32439	32843	32556	32633	
2104	0	2410	6788	4175	6397	603	0	32743	32578	32722	32655	32692	33085	32605	32516	
2105	0	2430	6819	4128	6416	604	0	32782	32743	32671	32711	32999	33091	32681	32666	
2106	0	2425	6764	4214	6434	605	0	32679	32703	32589	32791	32209	33143	32726	32738	
2107	0	2425	6836	4221	6416	606	0	32637	32647	32796	32875	33385	33087	32579	32695	
2108	0	2365	6824	4200	6430	607	0	32614	32646	32797	32807	32177	32930	32602	32633	
2109	0	2404	6788	4226	6405	608	0	32600	32669	32852	32708	33059	32799	32765	32663	
2110	0	2445	6761	4197	6420	609	0	32784	32775	32730	32636	32798	32733	32701	32673	
2111	0	2350	6766	4211	6424	610	0	32751	32647	32681	32558	32335	32644	32258	32775	
2112	0	2408	6728	4196	6425	611	0	32716	32615	32690	32477	33355	32637	32247	32556	
2113	0	2389	6814	4141	6412	612	0	32738	32506	32788	32621	32056	32683	32471	32764	
2114	0	2451	6776	4200	6434	613	0	32852	32692	32786	32762	33278	32738	32479	32647	
2115	0	2401	6788	4224	6388	614	0	32845	32735	32836	32791	32475	32783	32583	32711	
2116	0	2426	6784	4188	6440	615	0	32820	32567	32787	32767	32682	32747	32653	32582	
2117	0	2444	6770	4197	6404	616	0	32782	32708	32799	32711	33076	32775	32527	32641	
2118	0	2429	6729	4218	6431	617	0	32775	32687	32734	32787	32263	32740	32463	32695	
2119	0	2398	6759	4201	6470	618	0	32802	32640	32790	32903	33359	32815	32431	32737	
2120	0	2460	6760	4195	6446	619	0	32813	32817	32738	32881	32195	32743	32557	32622	
2121	0	2420	6737	4184	6417	620	0	32767	32832	32767	32903	33064	32724	32633	32623	
2122	0	2434	6812	4180	6459	621	0	32734	32705	32621	33191	32875	32866	32706	32663	
2123	0	2422	6778	4191	6460	622	0	32740	32772	32683	33238	32271	32791	32775	32769	
2124	0	2398	6762	4150	6468	623	0	32824	32851	32647	33149	33246	32807	33011	32701	
2125	0	2400	6771	4189	6473	624	0	32731	32773	32731	33149	31979	32773	33380	32687	
2126	0	2414	6732	4171	6441	625	0	32704	32692	32583	32898	33333	32763	33799	32591	
2127	0	2457	6777	4236	6417	626	0	32735	32663	32740	32711	32516	32837	33575	32594	
2128	0	2404	6753	4241	6466	627	0	32720	32712	32715	32697	32612	32718	33055	32559	
2129	0	2428	6756	4172	6464	628	0	32798	32727	32742	32775	33177	32619	32989	32579	
2130	0	2414	6758	4197	6520	629	0	32840	32754	32623	32816	32183	32558	32727	32717	
2131	0	2449	6744	4209	6465	630	0	32708	32483	32687	32690	33449	32619	31684	32753	
2132	0	2477	6728	4253	6470	631	0	32635	32615	32731	32566	32167	32690	31736	32585	
2133	0	2417	6782	4243	6489	632	0	32666	32669	32848	32553	33063	32691	32758	32771	
2134	0	2432	6767	4258	6428	633	0	32735	32541	32772	32479	32723	32899	33093	32819	
2135	0	2436	6747	4207	6490	634	0	32740	32591	32492	32593	32398	32870	33060	32884	
2136	0	2434	6750	4199	6532	635	0	32775	32533	32449	32572	33370	32711	32931	32647	
2137	0	2439	6696	4219	6522	636	0	32782	32599	32471	32459	31967	32897	33007	32694	
2138	0	2414	6721	4201	6525	637	0	32756	32607	32573	32454	33331	32827	32807	32427	
2139	0	2447	6772	4204	6532	638	0	32787	32764	32511	32552	32583	32710	32839	32441	
2140	0	2401	6720	4221	6484	639	0	32749	32636	32584	32479	32560	32788	32532	32420	
2141	0	2441	6702	4183	6464	640	0	32775	32839	32594	32367	33247	32719	32327	32431	
2142	0	2441	6712	4233	6504	641	0	32765	32860	32701	32584	32230	32750	32340	32705	
2143	0	2418	6728	4222	6510	642	0	32827	32681	32709	32599	33292	32839	32846	32749	
2144	0	2436	6736	4203	6496	643	0	32794	32772	32679	32702	32297	32825	33342	32880	
2145	0	2426	6690	4260	6517	644	0	32765	32762	32839	32787	32962	32742	32903	32647	
2146	0	2449	6729	4176	6508	645	0	32753	32565	32762	32771	32825	32731	32891	32710	
2147	0	2488	6730	4224	6549	646	0	32778	32774	32783	32731	32228	32766	32986	32710	
2148	0	2458	6678	4214	6507	647	0	32789	32669	32962	32711	33339	32801	33001	32657	
2149	0	2376	6746	4204	6544	648	0	32769	32583	32892	32613	32123	32746	32900	32712	
2150	0	2438	6737	4202	6519	649	0	32791	32615	32912	32562	33247	32762	32728	32867	
2151	0	2460	6712	4206	6503	650	0	32792	32707	32979	32690	32591	32759	32935	32879	
2152	0	2431	6730	4208	6524	651	0	32831	32653	32850	32671	32468	32683	33487	32826	
2153	0	2443	6701	4194	6546	652	0	32775	32519	32821	32791	33287	32636	33621	32681	
2154	0	2456	6685	4219	6547	653	0	32762	32525	32721	32844	32124	32747	33043	32607	
2155	0	2397	6700	4234	6524	654	0	32775	32573	32515	32791	33348	32727	32502	32565	
2156	0	2480	6702	4189	6563	655	0	32768	32615	32559	32762	32346	32850	32431	32647	
2157	0	2395	6698	4173	6525	656	0	32708	32486	32503	32756	32875	32910	32233	32640	
2158	0	2447	6685	4218	6555	657	0	32716	32643	32583	32967	33049	32821	32285	32591	
2159	0	2422	6618	4178	6498	658	0	32762	32761	32605	32918	32295	32847	32305	32617	
2160	0	2458	6661	4173	6557	659	0	32732	32607	32695	32967	33335	32967	32387	32635	
2161	0	2497	6643	4205	6548	660	0	32799	32863	32722	33015	32080	32826	32518	32469	
2162	0	2435	6712	4224	6594	661	0	32780	32834	32763	32865	33185	32815	32511	32599	
2163	0	2450	6686	4215	6531	662	0	32732	32806	32903	32647	32674	32775	32059	32635	
2164	0	2481	6668	4205	6572	663	0	32812	32898	32758	32631	32569	32729	31943	32731	
2165	0	2474	6668	4252	6568	664	0	32844	32868	32895	32854	33156	32788	32455	32545	
2166	0	2414	6672	4210	6613	665	0	32816	32655	32816	32835	32171	32766	32794	32706	
2167	0	2416	6646	4222	6592	666	0	32766	32737	32807	32687	33399	32785	32834	32687	
2168	0	2482	6653	4223	6590	667	0	32686	32767	32839	32727	32273	32836	32743	32687	
2169	0	2452	6652	4218	6548	668	0	32702	32585	32829	32608	32878	32751	32667	32836	
2170	0	2437	6638	4191	6517	669	0	32708	32715	32742	32515	33042	32738	32694	32655	
2171	0	2446	6606	4196	6566	670	0	32697	32673	32767	32672	32165	32756	32621	32714	
2172	0	2395	6677	4197	6531	671	0	32750	32559	32722	32671	33428	32725	32233	32571	
2173	0	2446	6638	4204	6549	672	0	32771	32643	32615	32647	32106	32773	32433	32722	
2174	0	2474	6601	4193	6577	673	0	32775	32685	32751	32743	33077	32695	32692	32575	
2175	0	2465	6629	4183	6575	674	0	32760	32532	32559	32772	32773	32735	32799	32567	
2176	0	2449	6640	4196	6578	675	0	32749	32636	32604	32707	32487	32796	32590	32679	
2177	0	2447	6632	4200	6565	676	0	32729	32663	32557	32583	33353	32749	32491	32682	
2178	0	2444	6620	4151	6611	677	0	32688	32541	32631	32588	32041	32765	32612	32718	
2179	0	2462	6633	4194	6564	678	0	32712	32667	32682	32549	33346	32740	32691	32751	
2180	0	2436	6596	4156	6596	679	0	32710	32797	32534	32719	32453	32725	32762	32581	
2181	0	2452	6602	4249	6559	680	0	32764	32725	32620	32846	32647	32870	32799	32630	
2182	0	2463	6596	4203	6626	681	0	32775	32791	32591	32893	33121	32759	32975	32735	
2183	0	2487	6586	4227	6623	682	0	32806	32708	32748	32914	32242	32773	32985	32719	
2184	0	2428	6620	4211	6586	683	0	32812	32836	32711	32903	33447	32739	32898	32636	
2185	0	2470	6560	4226	6615	684	0	32766	32862	32751	32794	32067	32794	32955	32583	
2186	0	2517	6638	4226	6626	685	0	32810	32642	32744	32657	33129	32767	32862	32817	
2187	0	2420	6587	4215	6580	686	0	32850	32800	32694	32583	32727	32755	32811	32655	
2188	0	2472	6625	4124	6592	687	0	32780	32785	32743	32447	32412	32825	32774	32646	
2189	0	2480	6582	4132	6640	688	0	32734	32450	32694	32559	33339	32727	32627	32732	
2190	0	2490	6596	4176	6604	689	0	32760	32669	32831	32754	32090	32559	33026	32693	
2191	0	2442	6597	4168	6580	690	0	32678	32697	32820	32766	33355	32775	33031	32639	
2192	0	2463	6572	4164	6600	691	0	32766	32555	32811	32833	32345	32791	32711	32687	
2193	0	2458	6555	4178	6630	692	0	32771	32614	32743	32866	32775	32751	32655	32643	
2194	0	2435	6567	4196	6634	693	0	32708	32623	32701	32802	33127	32670	32591	32606	
2195	0	2424	6593	4194	6646	694	0	32760	32644	32829	32751	32198	32748	32708	32493	
2196	0	2472	6560	4184	6609	695	0	32727	32569	32715	32471	33431	32807	32727	32575	
2197	0	2439	6560	4128	6576	696	0	32678	32663	32775	32215	32166	32706	32816	32678	
2198	0	2499	6545	4166	6640	697	0	32667	32615	32708	32409	33083	32771	32730	32732	
2199	0	2474	6577	4146	6625	698	0	32673	32647	32660	32742	32723	32691	32850	32775	
2200	0	2429	6524	4195	6660	699	0	32782	32821	32694	32842	32432	32519	32918	32639	
2201	0	2480	6538	4128	6628	700	0	32739	32703	32644	32975	33295	32547	32847	32703	
2202	0	2489	6517	4152	6663	701	0	32729	32887	32668	32959	32114	32615	32878	32641	
2203	0	2513	6533	4141	6648	702	0	32786	32879	32604	33187	33147	32668	32863	32681	
2204	0	2489	6533	4134	6628	703	0	32901	32695	32742	33135	32559	32703	32584	32775	
2205	0	2432	6554	4139	6656	704	0	32859	32773	32792	33126	32626	33007	32266	32639	
2206	0	2501	6592	4157	6640	705	0	32839	32687	32543	33066	33245	33139	32311	32829	
2207	0	2478	6510	4157	6617	706	0	32854	32783	32724	33021	32132	33100	32151	32629	
2208	0	2509	6549	4135	6632	707	0	32828	32856	32768	32911	33426	33106	32263	32708	
2209	0	2470	6532	4124	6696	708	0	32768	32595	32836	33086	32214	32983	32389	32756	
2210	0	2474	6523	4161	6704	709	0	32772	32715	32823	33134	33000	33009	32496	32599	
2211	0	2457	6498	4132	6638	710	0	32762	32637	32671	32961	32834	32895	32349	32583	
2212	0	2468	6510	4113	6653	711	0	32798	32682	32745	32931	32356	32793	32257	32485	
2213	0	2468	6530	4110	6664	712	0	32809	32634	32607	32687	33428	32797	32203	32512	
2214	0	2484	6526	4148	6690	713	0	32863	32717	32621	32487	32015	32844	31975	32603	
2215	0	2509	6537	4185	6684	714	0	32871	32695	32633	32570	33250	32566	32497	32545	
2216	0	2444	6520	4101	6676	715	0	32876	32761	32694	32551	32610	32583	33347	32647	
2217	0	2480	6514	4177	6697	716	0	32880	32763	32526	32533	32460	32671	33196	32751	
2218	0	2474	6521	4114	6713	717	0	32922	32655	32539	32511	33297	32615	33255	32707	
2219	0	2469	6504	4124	6685	718	0	33037	32862	32389	32330	32141	32510	34165	32827	
2220	0	2482	6508	4107	6697	719	0	33062	32871	32431	32317	33407	32485	34013	32711	
2221	0	2486	6502	4178	6711	720	0	32937	32671	32486	32457	32263	32788	33154	32747	
2222	0	2449	6508	4152	6704	721	0	32833	32786	32611	32716	32873	32791	32763	32843	
2223	0	2493	6508	4158	6732	722	0	32748	32677	32691	32691	32966	32751	32875	32819	
2224	0	2471	6474	4141	6665	723	0	32784	32543	32685	32600	32305	32903	32720	32800	
2225	0	2544	6486	4118	6677	724	0	32766	32535	32605	32383	33403	32867	32387	32899	
2226	0	2532	6517	4105	6703	725	0	32804	32509	32501	32255	32162	32688	32423	32608	
2227	0	2505	6470	4170	6689	726	0	32709	32307	32527	32287	33090	32898	32367	32771	
2228	0	2480	6488	4138	6722	727	0	32661	32346	32515	32255	32607	32879	32468	32834	
2229	0	2529	6506	4135	6733	728	0	32600	32361	32423	32416	32445	32973	32564	32914	
2230	0	2496	6478	4065	6696	729	0	32576	32071	32546	32412	33201	32965	32592	32740	
2231	0	2492	6493	4164	6706	730	0	32548	32222	32391	32470	32134	32807	32615	32800	
2232	0	2480	6457	4134	6745	731	0	32554	32306	32423	32570	33261	32839	32669	32871	
2233	0	2506	6472	4114	6728	732	0	32577	32135	32411	32694	32319	32866	32759	32852	
2234	0	2521	6445	4124	6724	733	0	32454	32250	32502	32614	32817	32886	32674	32803	
2235	0	2534	6485	4115	6740	734	0	32417	32191	32391	32495	33021	32775	32694	32881	
2236	0	2515	6441	4075	6724	735	0	32388	32161	32629	32517	32161	32801	32703	32838	
2237	0	2531	6436	4080	6728	736	0	32432	32497	32588	32759	33415	32940	32851	32715	
2238	0	2500	6492	4121	6765	737	0	32539	32549	32615	32855	32178	33007	32959	32886	
2239	0	2506	6428	4100	6752	738	0	32572	32560	32710	32946	32993	32918	32886	32795	
2240	0	2501	6437	4080	6739	739	0	32504	32805	32931	33058	32695	32903	33047	32811	
2241	0	2512	6408	4070	6758	740	0	32574	32881	33035	33221	32415	32850	32962	32815	
2242	0	2532	6448	4073	6754	741	0	32668	32815	33083	33243	33350	32730	32851	32591	
2243	0	2483	6436	4091	6764	742	0	32617	33101	33263	33276	31998	32740	32909	32735	
2244	0	2524	6462	4132	6748	743	0	32543	32989	33287	33181	33362	32629	32947	32739	
2245	0	2548	6420	4105	6778	744	0	32342	32748	33463	33179	32463	32647	33147	32679	
2246	0	2536	6456	4101	6724	745	0	32233	32856	33557	33447	32629	32674	33201	32658	
2247	0	2564	6422	4073	6754	746	0	32271	32764	33719	33485	33175	32574	33188	32733	
2248	0	2515	6418	4092	6721	747	0	32381	32854	33569	33494	32226	32711	33113	32567	
2249	0	2473	6432	4101	6767	748	0	32432	32730	33549	33359	33281	32739	32998	32526	
2250	0	2542	6404	4052	6800	749	0	32515	32866	33494	33181	32231	32646	32908	32447	
2251	0	2528	6448	4110	6744	750	0	32705	32903	33330	32796	33067	32553	32871	32524	
2252	0	2534	6394	4068	6800	751	0	32949	32903	33019	32735	32679	32469	32804	32527	
2253	0	2525	6402	4094	6791	752	0	33108	32932	32850	32668	32438	32647	32489	32375	
2254	0	2500	6369	4069	6736	753	0	33236	33129	32687	32689	33379	32703	32328	32439	
2255	0	2514	6394	4066	6770	754	0	33263	33071	32727	32775	32020	32617	32308	32420	
2256	0	2497	6390	4109	6779	755	0	33250	32903	32604	32573	33308	32636	32413	32385	
2257	0	2510	6402	4096	6804	756	0	33253	32962	32535	32378	32535	32751	32453	32309	
2258	0	2552	6375	4042	6769	757	0	33254	32956	32352	32339	32607	32722	32293	32503	
2259	0	2548	6393	4070	6802	758	0	33196	33063	32423	32518	33213	32719	32551	32457	
2260	0	2534	6364	4094	6765	759	0	33189	33076	32452	32625	32242	32696	32708	32455	
2261	0	2508	6372	4080	6776	760	0	33095	33130	32638	32673	33287	32530	32716	32349	
2262	0	2550	6366	4020	6796	761	0	33095	33117	32751	32791	32255	32535	32426	32220	
2263	0	2514	6351	4052	6773	762	0	33048	32871	32806	32491	33058	32734	32301	32322	
2264	0	2564	6344	4050	6832	763	0	33012	33007	32743	32391	32721	32975	32171	32603	
2265	0	2580	6363	4109	6817	764	0	32964	32911	32699	32614	32391	32868	32089	32610	
2266	0	2566	6315	4083	6777	765	0	32940	32923	32673	32679	33372	32838	32135	32610	
2267	0	2500	6344	4053	6788	766	0	32969	32808	32587	32698	31983	32654	32372	32711	
2268	0	2558	6325	4034	6808	767	0	32879	32743	32647	32716	33319	32762	32637	32505	
2269	0	2592	6376	4034	6829	768	0	32799	32553	32583	32698	32479	32687	32551	32623	
2270	0	2606	6335	4026	6826	769	0	32787	32745	32575	32683	32668	32742	32647	32600	
2271	0	2510	6333	4072	6809	770	0	32792	32623	32447	32669	33110	32823	32742	32687	
2272	0	2562	6327	4034	6825	771	0	32796	32555	32335	32726	32215	32824	32810	32759	
2273	0	2581	6355	4007	6818	772	0	32751	32567	32415	32765	33396	32823	32677	32679	
2274	0	2592	6315	4021	6838	773	0	32769	32463	32383	32914	32182	32811	32796	32797	
2275	0	2594	6288	3974	6823	774	0	32723	32404	32504	32935	32974	32762	32682	32759	
2276	0	2568	6268	4023	6858	775	0	32804	32350	32457	32780	32964	32677	32759	32839	
2277	0	2593	6280	3998	6836	776	0	32736	32554	32624	32712	32195	32718	32812	32994	
2278	0	2570	6305	3989	6794	777	0	32748	32491	32709	32763	33396	32799	32735	32567	
2279	0	2586	6309	4006	6847	778	0	32654	32445	32894	32709	32171	32834	32719	32570	
2280	0	2567	6307	4024	6896	779	0	32626	32588	32817	32697	33107	32826	32633	32647	
2281	0	2567	6276	3963	6869	780	0	32626	32599	32805	32787	32659	32939	32751	32715	
2282	0	2542	6281	4005	6863	781	0	32608	32520	32686	32889	32559	32879	32897	32807	
2283	0	2615	6316	3976	6862	782	0	32612	32603	32739	32893	33135	32833	32991	32783	
2284	0	2552	6300	3974	6848	783	0	32652	32609	32708	32799	32192	32836	33021	32827	
2285	0	2582	6244	3994	6842	784	0	32621	32623	32623	32613	33447	32826	32927	32679	
2286	0	2621	6314	3974	6841	785	0	32692	32543	32551	32620	32203	32773	32807	32635	
2287	0	2574	6264	4029	6848	786	0	32718	32559	32559	32643	32923	32809	32545	32677	
2288	0	2558	6276	3994	6842	787	0	32734	32640	32687	32748	32983	32679	32709	32647	
2289	0	2592	6266	3992	6866	788	0	32743	32551	32536	32761	32221	32692	32746	32841	
2290	0	2569	6256	4002	6857	789	0	32724	32567	32623	32703	33271	32629	32671	32945	
2291	0	2589	6253	4010	6856	790	0	32719	32463	32613	32674	32167	32903	32093	32789	
2292	0	2605	6245	4000	6884	791	0	32735	32586	32657	32671	33124	32918	31943	32644	
2293	0	2597	6269	3941	6913	792	0	32784	32663	32684	32589	32631	32903	31981	32507	
2294	0	2592	6275	3978	6928	793	0	32751	32450	32599	32615	32540	32937	32199	32363	
2295	0	2625	6251	4031	6834	794	0	32724	32479	32655	32685	33319	32817	32655	32555	
2296	0	2616	6243	3970	6898	795	0	32723	32423	32660	32623	32020	32710	33084	32623	
2297	0	2624	6265	3956	6871	796	0	32742	32553	32678	32453	33397	32684	32937	32525	
2298	0	2603	6276	3916	6880	797	0	32727	32451	32706	32647	32415	32663	32559	32474	
2299	0	2596	6238	3955	6901	798	0	32793	32703	32726	32791	32737	32631	32429	32493	
2300	0	2601	6248	3936	6911	799	0	32775	32711	32749	32805	33027	32670	32577	32502	
2301	0	2586	6244	3939	6905	800	0	32784	32898	32829	32918	32287	32602	32843	32610	
2302	0	2583	6224	3972	6910	801	0	32709	32718	32758	32808	33255	32675	33341	32787	
2303	0	2618	6224	3956	6900	802	0	32764	32950	32813	32635	32164	32629	33500	32969	
2304	0	2585	6224	3966	6917	803	0	32723	32886	32775	32564	33207	32527	33829	33103	
2305	0	2606	6206	3964	6910	804	0	32792	32879	32837	32731	32583	32693	34111	33207	
2306	0	2625	6235	3969	6928	805	0	32755	32678	32719	32708	32529	32804	33479	32747	
2307	0	2584	6235	3973	6904	806	0	32716	32710	32842	32683	33296	32810	32679	32788	
2308	0	2590	6288	3916	6932	807	0	32662	32775	32806	32698	32031	33021	32675	32708	
2309	0	2627	6180	3951	6898	808	0	32662	32633	32849	32769	33367	33158	32516	32775	
2310	0	2610	6205	3963	6933	809	0	32749	32583	32823	32802	32402	33215	32175	32666	
2311	0	2623	6228	3965	6914	810	0	32745	32588	32775	32689	32844	33039	32159	32689	
2312	0	2611	6204	3946	6901	811	0	32764	32506	32690	32642	32973	32982	32251	32658	
2313	0	2648	6232	3929	6948	812	0	32717	32454	32603	32554	32297	32918	32333	32481	
2314	0	2595	6218	3941	6914	813	0	32682	32484	32629	32533	33364	32690	32352	32431	
2315	0	2638	6184	3982	7011	814	0	32780	32241	32527	32690	32083	32724	32594	32567	
2316	0	2639	6226	3954	6980	815	0	32732	32476	32567	32694	33143	32599	32988	32716	
2317	0	2622	6198	3921	6932	816	0	32817	32562	32487	32821	32787	32597	33318	32741	
2318	0	2617	6186	3925	6947	817	0	32748	32646	32644	32784	32366	32582	33228	32758	
2319	0	2629	6204	3944	6953	818	0	32713	32579	32559	32612	33295	32658	33170	32715	
2320	0	2687	6164	3974	6971	819	0	32704	32855	32662	32528	32148	32914	33031	32594	
2321	0	2621	6165	3940	6999	820	0	32796	32882	32653	32738	33200	33063	32966	32783	
2322	0	2625	6204	3943	6992	821	0	32816	32807	32733	32859	32473	32838	32544	32623	
2323	0	2640	6163	3911	6978	822	0	32769	32852	32658	32854	32806	32743	32461	32518	
2324	0	2632	6153	4011	6966	823	0	32749	32915	32751	32982	33111	32711	32535	32553	
2325	0	2651	6160	3933	6949	824	0	32800	32760	32663	32887	32225	32719	32637	32713	
2326	0	2618	6187	3915	6973	825	0	32810	32775	32797	32827	33415	32749	32660	32757	
2327	0	2652	6146	3948	6984	826	0	32708	32727	32835	32775	32150	32742	32594	32726	
2328	0	2634	6181	3971	6999	827	0	32726	32658	32807	32871	32987	32723	32548	32711	
2329	0	2662	6145	3984	7010	828	0	32773	32592	32819	32626	32749	32717	32519	32749	
2330	0	2636	6177	3955	6979	829	0	32844	32784	32718	32621	32519	32737	32606	32713	
2331	0	2676	6160	3971	7004	830	0	32791	32700	32775	32594	33191	32714	32481	32775	
2332	0	2658	6169	3908	6999	831	0	32785	32663	32755	32621	32126	32742	32631	32790	
2333	0	2711	6138	3953	6991	832	0	32751	32431	32833	32607	33379	32722	32605	32630	
2334	0	2672	6177	3952	7000	833	0	32848	32523	32765	32694	32332	32765	32599	32514	
2335	0	2689	6121	3931	7004	834	0	32721	32423	32759	32751	32801	32757	32741	32775	
2336	0	2672	6174	3908	7028	835	0	32692	32283	32773	32767	33135	32709	32731	32657	
2337	0	2664	6108	3941	7024	836	0	32728	32335	32742	32623	32117	32679	32671	32635	
2338	0	2610	6187	3954	6979	837	0	32681	32445	32803	32723	33447	32852	32724	32603	
2339	0	2707	6146	3938	7036	838	0	32714	32679	32799	32694	32130	32775	32801	32590	
2340	0	2671	6144	3940	7025	839	0	32682	32639	32750	32719	33069	32850	32673	32703	
2341	0	2672	6168	3898	7024	840	0	32671	32959	32598	32990	32809	32733	32684	32643	
2342	0	2686	6156	3914	7029	841	0	32664	32953	32685	33115	32433	32684	32678	32617	
2343	0	2637	6127	3931	7016	842	0	32688	32871	32605	33095	33335	32755	32613	32669	
2344	0	2695	6180	3889	7022	843	0	32749	32957	32399	33127	32048	32708	32742	32429	
2345	0	2706	6132	3939	7030	844	0	32756	32986	32581	33068	33199	32783	32754	32660	
2346	0	2687	6132	3952	7032	845	0	32754	32679	32601	32943	32519	32783	32671	32666	
2347	0	2681	6128	3918	7018	846	0	32902	32858	32670	32825	32682	32799	32613	32758	
2348	0	2704	6130	3895	7028	847	0	32901	32835	32660	32735	33217	32766	32628	32575	
2349	0	2691	6146	3949	7075	848	0	32807	32623	32665	32632	32160	32756	32711	32713	
2350	0	2667	6139	3920	7074	849	0	32848	32703	32941	32423	33425	32733	32771	32735	
2351	0	2700	6158	3923	7076	850	0	32823	32803	32903	32273	32258	32829	32775	32882	
2352	0	2722	6127	3859	7057	851	0	32764	32562	32890	32228	33057	32834	32711	32666	
2353	0	2667	6148	3954	7080	852	0	32729	32567	32867	32123	32772	32773	32806	32799	
2354	0	2680	6140	3925	7080	853	0	32741	32532	32727	32252	32378	32791	32815	32709	
2355	0	2685	6120	3936	7051	854	0	32723	32367	32769	32561	33343	32751	32774	32836	
2356	0	2710	6121	3873	7055	855	0	32679	32450	32671	32639	32142	32742	32840	32622	
2357	0	2713	6148	3854	7064	856	0	32722	32370	32525	32743	33129	32726	32815	32609	
2358	0	2692	6139	3862	7065	857	0	32775	32628	32701	32855	32607	32773	32785	32661	
2359	0	2701	6152	3886	7073	858	0	32751	32585	32691	33003	32605	32711	32711	32567	
2360	0	2727	6100	3952	7058	859	0	32689	32573	32775	33087	33275	32773	32754	32667	
2361	0	2723	6083	3827	7074	860	0	32692	32879	32916	33116	32084	32769	32757	32684	
2362	0	2693	6083	3874	7116	861	0	32711	32964	32849	32979	33434	32860	32583	32667	
2363	0	2720	6137	3858	7105	862	0	32723	32879	32873	32889	32295	32789	32528	32589	
2364	0	2709	6128	3895	7075	863	0	32711	32963	32685	32827	32982	32724	32564	32658	
2365	0	2756	6082	3899	7112	864	0	32781	32902	32677	32739	32837	32738	32671	32655	
2366	0	2733	6072	3896	7137	865	0	32780	32662	32588	32698	32338	32724	32519	32621	
2367	0	2680	6075	3868	7073	866	0	32797	32783	32617	32877	33407	32786	32567	32665	
2368	0	2701	6089	3907	7101	867	0	32827	32711	32621	32877	32007	32784	32647	32569	
2369	0	2737	6102	3895	7106	868	0	32829	32598	32679	32903	33239	32791	32642	32585	
2370	0	2721	6067	3831	7108	869	0	32775	32732	32786	32847	32639	32711	32615	32753	
2371	0	2736	6076	3876	7148	870	0	32794	32751	32790	32742	32527	32830	32850	32782	
2372	0	2758	6067	3925	7063	871	0	32782	32621	32796	32767	33311	32830	32711	32583	
2373	0	2743	6060	3868	7063	872	0	32802	32645	32753	32784	32098	32770	32721	32524	
2374	0	2721	6078	3825	7144	873	0	32825	32602	32729	32558	33391	32810	32756	32641	
2375	0	2714	6073	3880	7112	874	0	32825	32351	32701	32439	32367	32775	32719	32635	
2376	0	2752	6068	3843	7126	875	0	32769	32391	32700	32679	32894	32749	32766	32700	
2377	0	2758	6077	3846	7140	876	0	32714	32512	32613	32759	33026	32747	32745	32655	
2378	0	2737	6099	3888	7098	877	0	32698	32698	32563	32748	32218	32730	32717	32683	
2379	0	2718	6030	3828	7092	878	0	32765	32655	32609	32679	33415	32727	32742	32615	
2380	0	2773	6117	3880	7155	879	0	32745	32735	32501	32623	32126	32759	32725	32704	
2381	0	2808	6057	3846	7170	880	0	32743	32925	32585	32606	33140	32847	32885	32723	
2382	0	2706	6052	3845	7119	881	0	32775	32830	32605	32642	32718	32871	32871	32683	
2383	0	2796	6088	3862	7169	882	0	32672	32991	32773	32875	32487	32807	32877	32751	
2384	0	2748	6069	3840	7130	883	0	32728	32942	32733	32839	33263	32727	32847	32583	
2385	0	2742	6057	3870	7137	884	0	32722	32738	32735	32791	32146	32737	32850	32543	
2386	0	2713	6053	3851	7120	885	0	32760	32690	32544	32710	33362	32763	32831	32647	
2387	0	2796	6052	3844	7192	886	0	32745	32759	32621	32587	32291	32771	32727	32745	
2388	0	2780	6050	3895	7154	887	0	32775	32815	32578	32609	32839	32914	32660	32655	
2389	0	2813	6057	3805	7181	888	0	32797	32627	32661	32803	33069	32767	32687	32702	
2390	0	2779	6053	3813	7126	889	0	32804	32638	32818	32730	32205	32738	32781	32836	
2391	0	2785	6093	3786	7172	890	0	32838	32647	32825	32795	33431	32835	32743	32615	
2392	0	2778	6038	3825	7158	891	0	32817	32615	32814	32881	32135	32818	32678	32758	
2393	0	2772	6055	3800	7152	892	0	32678	32426	32727	32837	33095	32711	32695	32647	
2394	0	2812	6041	3836	7162	893	0	32713	32495	32738	32756	32661	32667	32685	32731	
2395	0	2811	6013	3781	7141	894	0	32724	32407	32718	32724	32464	32775	32719	32566	
2396	0	2769	6062	3809	7218	895	0	32762	32543	32582	32721	33332	32745	32681	32740	
2397	0	2784	6054	3836	7164	896	0	32732	32548	32726	32759	32157	32807	32622	32653	
2398	0	2792	6112	3815	7176	897	0	32660	32495	32642	32663	33199	32591	32383	32605	
2399	0	2803	6014	3810	7162	898	0	32710	32655	32495	32599	32503	32727	32671	32411	
2400	0	2718	6020	3835	7167	899	0	32826	32681	32607	32671	32717	32724	32871	32594	
2401	0	2770	6104	3818	7151	900	0	32791	32924	32716	32723	33204	32868	32769	32684	
2402	0	2786	6059	3757	7153	901	0	32786	32968	32801	32588	32086	32783	32911	32668	
2403	0	2812	6083	3776	7204	902	0	32785	32860	32940	32679	33453	32767	32943	32683	
2404	0	2751	6061	3823	7161	903	0	32767	32988	32843	32687	32181	32793	32871	32639	
2405	0	2812	6029	3822	7196	904	0	32800	32843	32887	32774	33036	32500	32867	32742	
2406	0	2758	6081	3776	7204	905	0	32806	32628	32774	32841	32815	32538	32751	32713	
2407	0	2758	6051	3878	7151	906	0	32719	32748	32836	33013	32350	32644	32478	32447	
2408	0	2778	6058	3731	7222	907	0	32762	32847	32655	32771	33238	32773	32243	32694	
2409	0	2836	6064	3775	7205	908	0	32823	32815	32743	32718	32135	32902	32054	32730	
2410	0	2768	6057	3749	7216	909	0	32784	32595	32681	32639	33254	32775	32250	32813	
2411	0	2820	6041	3783	7184	910	0	32742	32615	32798	32732	32427	32749	32590	33046	
2412	0	2791	6086	3764	7242	911	0	32755	32611	32839	32786	32686	33005	32589	32747	
2413	0	2818	6061	3727	7236	912	0	32652	32447	32757	32783	33171	32955	32439	32535	
2414	0	2814	6012	3767	7192	913	0	32660	32551	32737	32783	32215	33089	32791	32623	
2415	0	2815	6048	3764	7212	914	0	32738	32555	32674	32735	33285	33087	33069	32631	
2416	0	2820	6073	3726	7196	915	0	32731	32359	32687	32579	32287	32919	33158	32734	
2417	0	2824	6010	3736	7234	916	0	32802	32591	32587	32539	33028	32788	33313	32803	
2418	0	2853	6084	3698	7187	917	0	32766	32499	32645	32707	32762	32706	33371	32623	
2419	0	2846	6035	3801	7208	918	0	32788	32559	32790	32791	32362	32761	33255	32674	
2420	0	2851	6064	3724	7181	919	0	32772	32739	32702	32847	33362	32719	32807	32646	
2421	0	2861	6039	3728	7221	920	0	32687	32812	32827	32911	32017	32660	32877	32658	
2422	0	2845	6087	3732	7238	921	0	32746	32773	32735	32965	33287	32807	33017	32436	
2423	0	2851	6052	3697	7208	922	0	32756	32961	32645	32915	32621	32751	32834	32601	
2424	0	2815	6002	3740	7214	923	0	32745	32951	32613	32916	32647	32813	32679	32663	
2425	0	2872	6040	3751	7212	924	0	32757	32934	32685	32861	33210	32739	32123	32482	
2426	0	2850	6075	3704	7256	925	0	32724	32850	32799	32670	32194	32740	32034	32439	
2427	0	2839	5998	3704	7242	926	0	32782	32683	32741	32596	33335	32682	32435	32527	
2428	0	2828	6098	3695	7190	927	0	32751	32797	32574	32546	32307	32699	32759	32674	
2429	0	2871	6010	3689	7239	928	0	32780	32766	32614	32613	32765	32647	32970	32559	
2430	0	2844	6006	3674	7221	929	0	32722	32551	32639	32687	33005	32645	32933	32762	
2431	0	2839	6027	3672	7238	930	0	32732	32651	32676	32676	32307	32744	32823	32841	
2432	0	2864	6050	3699	7229	931	0	32709	32673	32647	32719	33251	32722	32783	32985	
2433	0	2879	6051	3653	7204	932	0	32710	32439	32671	32807	32135	32712	32822	33001	
2434	0	2916	6039	3682	7224	933	0	32784	32589	32661	32773	33223	32727	32775	32795	
2435	0	2868	6038	3650	7266	934	0	32748	32535	32571	32767	32563	32775	32647	32743	
2436	0	2881	6040	3656	7233	935	0	32816	32445	32578	32638	32560	32714	32663	32663	
2437	0	2884	6036	3652	7272	936	0	32852	32519	32698	32583	33279	32748	32583	32759	
2438	0	2835	6036	3685	7305	937	0	32831	32642	32661	32582	32151	32775	32601	32751	
2439	0	2874	6024	3620	7283	938	0	32784	32585	32940	32751	33239	32770	32679	32663	
2440	0	2965	5994	3662	7266	939	0	32737	32643	32994	32804	32402	32751	32716	32711	
2441	0	2907	6016	3624	7250	940	0	32651	32708	33062	32916	32851	32762	32631	32535	
2442	0	2944	6007	3605	7254	941	0	32726	32923	32871	32925	32935	32774	32718	32654	
2443	0	2912	6040	3625	7251	942	0	32729	32932	32799	32927	32295	32751	32652	32573	
2444	0	2860	6001	3618	7258	943	0	32700	32698	32871	32853	33429	32676	32644	32503	
2445	0	2886	6042	3624	7258	944	0	32712	32819	32903	32785	32151	32536	32640	32683	
2446	0	2930	6014	3626	7263	945	0	32811	32658	32789	32769	33112	32663	32647	32731	
2447	0	2920	5993	3603	7245	946	0	32802	32839	32765	32687	32631	32919	32533	32475	
2448	0	2896	6051	3603	7275	947	0	32786	32810	32848	32730	32474	33137	32482	32590	
2449	0	2890	6024	3631	7280	948	0	32735	32719	32743	32727	33239	32946	32409	32522	
2450	0	2923	6008	3610	7240	949	0	32706	32646	32814	32644	32088	33024	32439	32742	
2451	0	2892	5961	3564	7268	950	0	32752	32668	32601	32596	33344	33021	32971	32623	
2452	0	2935	6024	3565	7277	951	0	32748	32571	32559	32775	32487	32933	33111	32423	
2453	0	2936	6009	3574	7275	952	0	32764	32679	32475	32760	32642	32775	32979	32420	
2454	0	2931	5975	3545	7270	953	0	32775	32559	32566	32695	33183	32722	32822	32596	
2455	0	2932	6000	3584	7277	954	0	32735	32332	32506	32802	32276	32786	32943	32811	
2456	0	2875	6020	3540	7260	955	0	32764	32471	32566	32591	33453	32601	33014	32991	
2457	0	2987	6024	3559	7292	956	0	32722	32461	32581	32623	32173	32615	33023	32986	
2458	0	2933	6006	3564	7299	957	0	32647	32601	32570	32819	32951	32702	33150	32959	
2459	0	2954	6024	3521	7278	958	0	32682	32491	32621	32853	32837	32706	33250	32871	
2460	0	2960	6001	3504	7279	959	0	32681	32714	32612	32903	32407	32765	32957	32748	
2461	0	2929	5990	3559	7270	960	0	32675	32781	32732	32923	33355	32711	32827	32647	
2462	0	2923	5956	3554	7268	961	0	32740	33031	32763	32865	31996	32692	32788	32598	
2463	0	2946	6010	3561	7310	962	0	32758	33050	32805	32875	33319	32749	32551	32351	
2464	0	2960	5967	3515	7273	963	0	32748	32919	32934	32869	32471	32722	32547	32636	
2465	0	2980	5960	3544	7241	964	0	32827	32953	32839	32844	32703	32784	32538	32610	
2466	0	2985	5984	3492	7266	965	0	32823	32753	32893	32804	33077	32711	32466	32799	
2467	0	2979	5977	3515	7268	966	0	32823	32834	32850	32523	32222	32687	32489	32839	
2468	0	3014	5998	3529	7260	967	0	32818	32718	32838	32506	33460	32791	32633	32623	
2469	0	3022	6008	3504	7247	968	0	32805	32645	32804	32635	32134	32754	32612	32647	
2470	0	3008	5977	3468	7306	969	0	32710	32678	32663	32711	32978	32747	32599	32583	
2471	0	3000	6038	3493	7284	970	0	32711	32687	32647	32794	32946	32711	32679	32628	
2472	0	2956	5987	3472	7271	971	0	32749	32512	32589	32925	32247	32855	32671	32466	
2473	0	3017	5972	3504	7268	972	0	32744	32623	32599	32839	33359	32821	32667	32417	
2474	0	3026	6009	3509	7290	973	0	32775	32479	32608	32711	32097	32714	32663	32577	
2475	0	3013	5940	3488	7298	974	0	32790	32555	32609	32558	33279	32790	32694	32655	
2476	0	2992	6017	3452	7243	975	0	32861	32343	32518	32683	32546	32686	32630	32644	
2477	0	2994	5964	3465	7336	976	0	32761	32551	32588	32706	32585	32686	32647	32754	
2478	0	3057	5988	3477	7301	977	0	32723	32542	32606	32731	33255	32716	32721	32713	
2479	0	3030	5980	3469	7211	978	0	32743	32597	32496	32860	32169	32696	32679	32726	
2480	0	3026	5969	3386	7302	979	0	32754	32775	32583	32839	33383	32903	32775	32731	
2481	0	3046	5965	3410	7300	980	0	32720	32839	32597	32681	32322	32775	32797	32599	
2482	0	3035	5983	3408	7308	981	0	32772	32954	32745	32844	32910	32702	32825	32769	
2483	0	3077	6044	3477	7309	982	0	32835	32941	32852	32791	32869	32647	32775	32519	
2484	0	3031	6013	3417	7309	983	0	32736	32909	32900	32829	32315	32390	32820	32612	
2485	0	3048	5969	3421	7304	984	0	32758	32895	32867	32876	33339	32391	32794	32847	
2486	0	3034	5976	3414	7330	985	0	32836	32699	32887	32811	32000	32962	32676	32751	
2487	0	3090	5967	3396	7306	986	0	32775	32742	32877	32655	33265	33095	32784	32971	
2488	0	3050	5988	3408	7296	987	0	32722	32742	32867	32639	32669	33092	32839	32903	
2489	0	3053	5954	3373	7284	988	0	32751	32785	32690	32799	32524	32847	32707	32562	
2490	0	3073	5935	3378	7268	989	0	32786	32643	32727	32695	33189	32583	32533	32421	
2491	0	3074	6019	3348	7328	990	0	32749	32607	32607	32712	32077	32658	32470	32530	
2492	0	3092	5992	3370	7312	991	0	32782	32711	32660	32749	33423	33251	32454	32643	
2493	0	3079	5921	3356	7299	992	0	32770	32543	32711	32765	32287	33167	32475	32709	
2494	0	3139	5958	3392	7290	993	0	32748	32479	32655	32851	32935	32843	32571	32461	
2495	0	3132	5957	3356	7354	994	0	32775	32450	32770	32859	32895	32663	32503	32390	
2496	0	3137	5943	3357	7310	995	0	32742	32297	32627	32848	32286	32759	32421	32377	
2497	0	3070	5956	3353	7316	996	0	32764	32575	32660	32773	33439	32819	32708	32499	
2498	0	3102	5936	3337	7337	997	0	32742	32553	32700	32739	32015	32930	32868	32647	
2499	0	3144	5958	3338	7314	998	0	32692	32391	32675	32647	33181	32705	33067	32579	
2500	0	3130	5923	3294	7361	999	0	32718	32751	32711	32645	32681	32611	33047	32754	
2501	0	3132	5941	3308	7334	1000	0	32695	32961	32717	32647	32439	32612	33040	32988	
2502	0	3172	5952	3316	7309	1001	0	32751	32807	32771	32659	33316	32647	32982	32848	
2503	0	3176	5952	3336	7299	1002	0	32753	33005	32659	32543	32088	32734	32858	32805	
2504	0	3146	5953	3320	7316	1003	0	32754	32946	32714	32549	33371	32635	32711	32946	
2505	0	3143	5921	3288	7314	1004	0	32816	32711	32701	32503	32407	32748	32455	32658	
2506	0	3121	5918	3316	7344	1005	0	32743	32739	32665	32477	32826	32678	32495	32718	
2507	0	3116	5943	3288	7342	1006	0	32795	32655	32751	32431	33089	32799	32647	32687	
2508	0	3177	5945	3251	7365	1007	0	32740	32717	32734	32630	32135	32716	32711	32652	
2509	0	3146	5919	3232	7321	1008	0	32796	32613	32748	32695	33430	32730	32951	32679	
2510	0	3122	5935	3268	7356	1009	0	32746	32519	32764	32699	32165	32736	32876	32497	
2511	0	3153	5985	3257	7310	1010	0	32740	32644	32764	32755	33146	32775	32699	32577	
2512	0	3154	5929	3268	7334	1011	0	32762	32631	32823	32726	32659	32791	32767	32639	
2513	0	3186	5893	3284	7318	1012	0	32796	32462	32748	32751	32479	32706	32695	32721	
2514	0	3141	5935	3289	7371	1013	0	32741	32535	32694	32807	33267	32810	32654	32727	
2515	0	3188	5964	3246	7332	1014	0	32790	32439	32591	32663	32101	32662	32636	32703	
2516	0	3154	5907	3204	7370	1015	0	32860	32287	32523	32509	33351	32727	32532	32748	
2517	0	3188	5922	3208	7372	1016	0	32827	32487	32647	32524	32434	32727	32620	32483	
2518	0	3197	5929	3183	7357	1017	0	32737	32553	32605	32711	32750	32725	32678	32626	
2519	0	3190	5936	3206	7334	1018	0	32749	32519	32708	32503	33047	32791	32823	32729	
2520	0	3166	5879	3164	7398	1019	0	32798	32855	32836	32736	32227	32711	32811	32711	
2521	0	3167	5868	3160	7333	1020	0	32766	32915	32703	32826	33415	32772	32923	32773	
2522	0	3220	5904	3206	7392	1021	0	32636	32870	32753	32973	32151	32735	32772	32744	
2523	0	3196	5893	3236	7377	1022	0	32718	32914	32745	33012	33019	32835	32767	32775	
2524	0	3156	5884	3186	7352	1023	0	32768	32749	32811	33091	32859	32715	32799	32791	
2525	0	3194	5912	3259	7385	1024	0	32808	32850	32705	32960	32378	32781	32804	32621	
2526	0	3204	5910	3176	7340	1025	0	32878	32839	32558	32783	33215	32789	32661	32718	
2527	0	3205	5855	3233	7348	1026	0	32854	32621	32583	32810	32114	32836	32644	32762	
2528	0	3181	5850	3198	7399	1027	0	32793	32639	32556	32807	33292	32790	32573	32647	
2529	0	3231	5916	3197	7385	1028	0	32747	32699	32707	32747	32439	32747	32669	32671	
2530	0	3184	5909	3156	7321	1029	0	32768	32644	32679	32798	32661	32743	32724	32647	
2531	0	3218	5864	3228	7394	1030	0	32760	32695	32631	32854	33195	32795	32663	32601	
2532	0	3215	5897	3183	7400	1031	0	32809	32480	32673	32684	32196	32784	32586	32548	
2533	0	3235	5920	3167	7376	1032	0	32790	32574	32638	32567	33259	32751	32666	32566	
2534	0	3241	5865	3165	7425	1033	0	32700	32327	32492	32605	32339	32773	32706	32756	
2535	0	3186	5868	3165	7396	1034	0	32721	32354	32587	32573	32868	32716	32742	32617	
2536	0	3216	5872	3165	7363	1035	0	32714	32391	32489	32455	32853	32727	32671	32581	
2537	0	3214	5882	3205	7406	1036	0	32722	32506	32704	32660	32321	32693	32647	32582	
2538	0	3239	5902	3196	7398	1037	0	32809	32473	32715	32743	33437	32662	32615	32658	
2539	0	3228	5892	3183	7436	1038	0	32809	32674	32749	32749	32007	32720	32816	32742	
2540	0	3254	5917	3152	7450	1039	0	32802	32637	32858	32825	33215	32763	32814	32562	
2541	0	3243	5859	3152	7430	1040	0	32677	32903	32861	32935	32655	32775	32775	32683	
2542	0	3259	5872	3167	7441	1041	0	32678	33065	32877	32961	32535	32750	32827	32645	
2543	0	3179	5911	3191	7400	1042	0	32740	32867	32895	33050	33185	32863	32639	32640	
2544	0	3213	5887	3154	7428	1043	0	32742	32924	32775	33098	32167	32769	32711	32681	
2545	0	3298	5882	3184	7452	1044	0	32754	32775	32775	33090	33379	32854	32647	32595	
2546	0	3256	5856	3164	7430	1045	0	32739	32898	32839	33045	32339	32810	32691	32743	
2547	0	3284	5889	3176	7421	1046	0	32814	32896	32625	32974	32735	32842	32706	32667	
2548	0	3233	5852	3165	7464	1047	0	32828	32733	32671	32867	33114	32775	32759	32655	
2549	0	3256	5885	3163	7455	1048	0	32744	32683	32732	32703	32314	32820	32784	32729	
2550	0	3245	5819	3114	7468	1049	0	32745	32787	32847	32615	33276	32823	32767	32807	
2551	0	3225	5869	3186	7472	1050	0	32813	32711	32866	32519	32211	32838	32742	32530	
2552	0	3236	5847	3128	7457	1051	0	32760	32729	32859	32513	33052	32690	32658	32711	
2553	0	3249	5879	3130	7412	1052	0	32749	32467	32847	32511	32818	32727	32557	32615	
2554	0	3264	5844	3158	7432	1053	0	32770	32479	32551	32473	32308	32705	32559	32702	
2555	0	3272	5856	3147	7435	1054	0	32803	32487	32326	32711	33327	32749	32583	32735	
2556	0	3217	5874	3140	7486	1055	0	32817	32279	32411	32676	32174	32826	32592	32713	
2557	0	3236	5889	3152	7446	1056	0	32700	32441	32359	32638	33184	32709	32675	32799	
2558	0	3237	5872	3101	7468	1057	0	32708	32615	32507	32719	32495	32815	32550	32607	
2559	0	3228	5861	3157	7482	1058	0	32709	32559	32477	32863	32731	32788	32557	32525	
2560	0	3254	5890	3129	7462	1059	0	32754	32822	32387	32785	33031	32687	32679	32623	
2561	0	3268	5858	3145	7460	1060	0	32775	32903	32566	32679	32245	32696	32935	32715	
2562	0	3271	5908	3152	7477	1061	0	32738	32870	32589	32594	33383	32621	33181	32691	
2563	0	3220	5889	3140	7515	1062	0	32833	33083	32812	32575	32215	32832	33223	32628	
2564	0	3229	5842	3159	7452	1063	0	32822	32960	32961	32679	32886	32815	33023	32783	
2565	0	3252	5858	3155	7447	1064	0	32854	32647	32955	32722	32897	32813	32903	32737	
2566	0	3271	5850	3142	7490	1065	0	32756	32824	33020	32783	32391	32732	32615	32502	
2567	0	3244	5880	3142	7471	1066	0	32724	32783	33001	32762	33212	32694	32439	32471	
2568	0	3273	5813	3117	7486	1067	0	32697	32809	33065	32653	32121	32967	32690	32631	
2569	0	3250	5878	3148	7498	1068	0	32734	32587	32963	32499	33323	33020	32743	32786	
2570	0	3254	5896	3160	7479	1069	0	32791	32718	33079	32643	32448	32675	32931	32679	
2571	0	3286	5878	3176	7447	1070	0	32769	32662	32997	32730	32677	32645	32816	32710	
2572	0	3300	5844	3205	7516	1071	0	32711	32731	32983	32762	33191	32775	32847	32794	
2573	0	3283	5814	3201	7468	1072	0	32720	32499	32895	32800	32117	32791	32820	32762	
2574	0	3260	5856	3115	7447	1073	0	32695	32578	32826	32782	33436	32790	32727	32791	
2575	0	3256	5893	3204	7490	1074	0	32781	32565	32698	32695	32228	32780	32550	32676	
2576	0	3244	5868	3170	7470	1075	0	32822	32361	32530	32505	32917	32623	32452	32537	
2577	0	3264	5801	3129	7506	1076	0	32647	32487	32535	32487	32930	32685	32598	32597	
2578	0	3270	5814	3128	7488	1077	0	32778	32548	32386	32528	32374	32869	32599	32660	
2579	0	3272	5812	3170	7486	1078	0	32782	32739	32407	32655	33412	32970	32679	32818	
2580	0	3236	5826	3118	7479	1079	0	32778	32815	32415	32647	31987	32850	32835	32599	
2581	0	3278	5815	3166	7521	1080	0	32707	32781	32483	32717	33261	32827	32791	32514	
2582	0	3251	5849	3157	7552	1081	0	32720	33106	32529	32898	32534	32815	32742	32694	
2583	0	3274	5869	3169	7496	1082	0	32807	33030	32533	32879	32607	32653	32700	32637	
2584	0	3242	5838	3170	7504	1083	0	32764	32739	32673	32931	33159	32711	32638	32621	
2585	0	3246	5832	3139	7560	1084	0	32798	32889	32641	32728	32159	32642	32575	32676	
2586	0	3268	5856	3182	7572	1085	0	32842	32834	32753	32575	33306	32599	32615	32674	
2587	0	3254	5873	3172	7558	1086	0	32799	32871	32758	32815	32325	32758	32593	32694	
2588	0	3275	5862	3133	7516	1087	0	32781	32739	32846	32807	32887	32647	32708	32615	
2589	0	3251	5827	3199	7516	1088	0	32683	32750	32831	32839	32911	32791	32769	32735	
2590	0	3232	5821	3184	7486	1089	0	32762	32615	32647	32932	32311	32726	32817	32912	
2591	0	3216	5798	3149	7512	1090	0	32732	32612	32701	33005	33327	32569	32670	32789	
2592	0	3276	5867	3177	7516	1091	0	32810	32695	32748	32941	32051	32766	32628	32706	
2593	0	3254	5841	3198	7542	1092	0	32811	32668	32825	32751	33246	32775	32608	32674	
2594	0	3268	5839	3150	7525	1093	0	32742	32423	32709	32796	32574	32782	32703	32679	
2595	0	3234	5820	3160	7516	1094	0	32694	32441	32722	32815	32517	32917	32890	32935	
2596	0	3222	5828	3169	7530	1095	0	32749	32501	32632	32751	33287	32951	32834	32832	
2597	0	3279	5816	3181	7477	1096	0	32708	32423	32682	32676	32188	32994	32647	32444	
2598	0	3244	5820	3198	7497	1097	0	32736	32615	32675	32743	33325	32916	32610	32479	
2599	0	3254	5867	3164	7492	1098	0	32733	32719	32735	32799	32375	32895	32629	32569	
2600	0	3246	5848	3172	7518	1099	0	32753	32718	32774	32855	32858	32898	32717	32511	
2601	0	3278	5835	3173	7539	1100	0	32775	32850	32663	32813	33036	32996	32742	32571	
2602	0	3270	5848	3132	7520	1101	0	32694	33004	32746	32762	32195	33221	32673	32604	
2603	0	3238	5820	3176	7554	1102	0	32728	32927	32715	32911	33355	32902	32719	32399	
2604	0	3271	5841	3168	7568	1103	0	32783	32971	32751	32823	32155	32753	32732	32534	
2605	0	3288	5825	3171	7548	1104	0	32790	32863	32739	32798	33074	32722	32647	32482	
2606	0	3245	5818	3171	7543	1105	0	32741	32875	32946	32842	32677	32667	32584	32547	
2607	0	3244	5824	3176	7566	1106	0	32800	32639	32842	32726	32605	32678	32715	32746	
2608	0	3256	5816	3226	7600	1107	0	32775	32731	32815	32535	33137	32677	32747	32791	
2609	0	3248	5811	3181	7576	1108	0	32762	32693	32678	32679	32170	32605	32759	32702	
2610	0	3237	5828	3226	7561	1109	0	32762	32665	32675	32735	33429	32639	32771	32897	
2611	0	3248	5842	3180	7591	1110	0	32730	32596	32591	32749	32362	32775	32903	32893	
2612	0	3254	5848	3209	7563	1111	0	32764	32687	32604	32708	32847	32705	32771	32831	
2613	0	3262	5804	3215	7585	1112	0	32814	32577	32543	32535	32935	32421	32826	32882	
2614	0	3230	5811	3201	7582	1113	0	32794	32536	32629	32460	32324	32525	32835	32626	
2615	0	3284	5838	3122	7600	1114	0	32790	32408	32607	32671	33335	32722	32763	32491	
2616	0	3256	5767	3192	7547	1115	0	32775	32405	32682	32692	32042	32614	32742	32490	
2617	0	3268	5835	3186	7560	1116	0	32754	32471	32626	32711	33239	32684	32719	32567	
2618	0	3268	5815	3202	7540	1117	0	32786	32357	32604	32737	32634	32475	32372	32470	
2619	0	3224	5814	3152	7584	1118	0	32751	32663	32663	32885	32457	32442	32501	32466	
2620	0	3228	5823	3148	7613	1119	0	32673	32775	32579	32771	33287	32831	32699	32538	
2621	0	3256	5835	3185	7547	1120	0	32615	32703	32620	32665	32105	33140	32852	32722	
2622	0	3283	5827	3200	7560	1121	0	32732	32903	32690	32671	33284	33472	32889	32814	
2623	0	3223	5826	3185	7554	1122	0	32729	32903	32711	32571	32384	33093	32871	32564	
2624	0	3253	5828	3203	7580	1123	0	32769	32883	32803	32790	32898	32775	32775	32624	
2625	0	3254	5813	3184	7563	1124	0	32737	32706	32903	32743	32895	32924	32719	32801	
2626	0	3236	5856	3168	7582	1125	0	32815	32873	32834	32723	32292	32911	32743	32932	
2627	0	3254	5809	3228	7595	1126	0	32857	32847	32869	32739	33450	32619	32687	33005	
2628	0	3280	5804	3194	7565	1127	0	32782	32639	32839	32809	32039	32723	32647	33066	
2629	0	3298	5798	3160	7640	1128	0	32817	32743	32769	32764	33119	32875	32679	33030	
2630	0	3214	5820	3204	7557	1129	0	32829	32727	32686	32581	32610	32917	32675	32747	
2631	0	3266	5818	3160	7612	1130	0	32872	32749	32790	32840	32487	32860	32668	32563	
2632	0	3277	5745	3181	7608	1131	0	32823	32673	32683	32861	33252	32871	32692	32623	
2633	0	3236	5796	3238	7586	1132	0	32703	32615	32655	32821	32074	32765	32775	32494	
2634	0	3257	5800	3178	7602	1133	0	32726	32446	32657	32687	33359	32683	32867	32437	
2635	0	3235	5814	3180	7592	1134	0	32726	32423	32663	32531	32438	32647	32710	32465	
2636	0	3204	5786	3210	7589	1135	0	32694	32320	32527	32305	32647	32647	32706	32563	
2637	0	3216	5778	3215	7585	1136	0	32696	32307	32574	32519	33147	32591	32762	32695	
2638	0	3210	5776	3179	7632	1137	0	32713	32548	32516	32537	32279	32655	32795	32609	
2639	0	3223	5794	3208	7634	1138	0	32740	32639	32559	32647	33415	32623	32838	32684	
2640	0	3270	5750	3203	7584	1139	0	32686	32585	32553	32775	32203	32693	32717	32784	
2641	0	3214	5788	3177	7616	1140	0	32669	32928	32687	32910	33108	32819	32713	32615	
2642	0	3208	5776	3197	7594	1141	0	32708	32948	32695	33107	32821	32805	32687	32555	
2643	0	3254	5779	3163	7614	1142	0	32824	32912	32845	33151	32422	32767	32710	32549	
2644	0	3234	5797	3178	7588	1143	0	32800	32969	32775	33115	33351	32791	32754	32612	
2645	0	3171	5757	3136	7595	1144	0	32802	32903	32851	32935	32005	32747	32664	32695	
2646	0	3227	5774	3209	7605	1145	0	32754	32868	32858	32807	33267	32836	32725	32685	
2647	0	3218	5784	3135	7632	1146	0	32774	32627	32795	32949	32525	32692	32762	32684	
2648	0	3216	5794	3163	7651	1147	0	32753	32784	32797	32813	32633	32729	32636	32672	
2649	0	3220	5772	3211	7632	1148	0	32774	32727	32694	32663	33198	32767	32659	32647	
2650	0	3220	5776	3165	7643	1149	0	32836	32773	32662	32727	32260	32748	32652	32743	
2651	0	3209	5776	3199	7563	1150	0	32752	32556	32630	32631	33348	32693	32612	32684	
2652	0	3269	5761	3193	7624	1151	0	32722	32759	32732	32583	32223	32747	32697	32732	
2653	0	3244	5805	3195	7605	1152	0	32716	32604	32690	32489	33086	32751	32713	32604	
2654	0	3202	5772	3197	7631	1153	0	32730	32455	32703	32567	32700	32799	32685	32597	
2655	0	3236	5759	3199	7648	1154	0	32730	32404	32670	32605	32432	32750	32646	32689	
2656	0	3221	5750	3172	7629	1155	0	32824	32453	32879	32639	33357	32751	32655	32682	
2657	0	3221	5764	3175	7660	1156	0	32836	32567	32749	32653	32007	32751	32766	32668	
2658	0	3208	5740	3147	7638	1157	0	32742	32484	32749	32653	33267	32766	32711	32658	
2659	0	3203	5814	3212	7632	1158	0	32791	32589	32758	32571	32438	32761	32663	32639	
2660	0	3192	5766	3170	7636	1159	0	32700	32831	32839	32758	32773	32756	32703	32647	
2661	0	3170	5824	3191	7626	1160	0	32685	32814	32921	32882	33165	32715	32679	32565	
2662	0	3205	5762	3144	7650	1161	0	32726	33005	32787	32929	32116	32733	32710	32644	
2663	0	3194	5764	3166	7593	1162	0	32775	32845	32903	32955	33396	32775	32723	32727	
2664	0	3200	5732	3226	7652	1163	0	32735	33005	32781	32876	32212	32773	32732	32786	
2665	0	3209	5756	3237	7640	1164	0	32711	32930	32780	32953	32899	32739	32775	32575	
2666	0	3195	5706	3225	7620	1165	0	32743	32647	32647	32903	32894	32809	32839	32638	
2667	0	3204	5750	3185	7668	1166	0	32774	32804	32571	33087	32373	32716	32806	32766	
2668	0	3166	5773	3189	7645	1167	0	32706	32807	32515	32967	33332	32807	32809	32695	
2669	0	3161	5728	3201	7648	1168	0	32715	32775	32558	33079	32001	32717	32662	32753	
2670	0	3204	5723	3155	7664	1169	0	32754	32762	32546	32937	33287	32807	32775	32631	
2671	0	3178	5772	3193	7632	1170	0	32829	32666	32642	32799	32615	32679	32775	32535	
2672	0	3152	5769	3204	7606	1171	0	32772	32660	32485	32799	32514	32770	32700	32553	
2673	0	3177	5755	3155	7672	1172	0	32804	32579	32575	32723	33275	32819	32711	32535	
2674	0	3204	5760	3184	7655	1173	0	32766	32237	32647	32672	32183	32839	32647	32680	
2675	0	3158	5800	3150	7664	1174	0	32774	32487	32727	32692	33447	32775	32599	32852	
2676	0	3178	5759	3188	7632	1175	0	32745	32461	32699	32759	32223	32785	32725	32852	
2677	0	3189	5766	3204	7642	1176	0	32708	32301	32562	32671	32933	32850	32709	32769	
2678	0	3206	5725	3217	7649	1177	0	32700	32535	32591	32595	33001	32694	32767	32709	
2679	0	3205	5743	3182	7660	1178	0	32685	32756	32582	32522	32186	32783	32763	32595	
2680	0	3145	5752	3161	7670	1179	0	32790	32647	32720	32485	33415	32799	32633	32541	
2681	0	3204	5728	3175	7628	1180	0	32810	32903	32686	32464	32101	32715	32631	32679	
2682	0	3164	5674	3176	7652	1181	0	32815	32911	32812	32515	33217	32783	32801	32679	
2683	0	3204	5729	3162	7682	1182	0	32808	33045	32839	32583	32564	32697	32839	32738	
2684	0	3196	5708	3171	7676	1183	0	32808	32924	32881	32578	32557	32786	32725	32635	
2685	0	3173	5690	3141	7714	1184	0	32839	32783	32839	32635	33287	32767	32770	32591	
2686	0	3167	5722	3168	7688	1185	0	32788	32854	32751	32687	32039	32813	32707	32620	
2687	0	3156	5697	3177	7663	1186	0	32719	32809	32705	32710	33359	32759	32684	32695	
2688	0	3154	5762	3194	7684	1187	0	32708	32559	32718	32695	32420	32890	32791	32626	
2689	0	3193	5730	3184	7664	1188	0	32775	32661	32599	32630	32785	32770	32775	32698	
2690	0	3172	5704	3197	7655	1189	0	32732	32603	32700	32620	33090	32813	32707	32532	
2691	0	3197	5744	3231	7668	1190	0	32738	32661	32713	32562	32150	32854	32647	32690	
2692	0	3197	5750	3210	7669	1191	0	32770	32640	32831	32657	33444	32766	32685	32709	
2693	0	3181	5706	3185	7712	1192	0	32755	32487	32841	32731	32229	32804	32690	32756	
2694	0	3137	5694	3128	7678	1193	0	32764	32418	32764	32746	32969	32754	32688	32647	
2695	0	3159	5724	3175	7696	1194	0	32753	32423	32704	32738	32839	32785	32678	32687	
2696	0	3196	5766	3157	7702	1195	0	32694	32301	32614	32676	32391	32787	32703	32628	
2697	0	3128	5730	3128	7688	1196	0	32718	32431	32671	32711	33346	32734	32713	32575	
2698	0	3182	5712	3172	7720	1197	0	32730	32551	32503	32590	32121	32774	32607	32598	
2699	0	3203	5724	3174	7703	1198	0	32684	32601	32596	32739	33311	32731	32647	32671	
2700	0	3196	5728	3157	7673	1199	0	32745	32607	32721	32764	32503	32839	32723	32733	
2701	0	3224	5735	3129	7672	1200	0	32730	32773	32761	32758	32622	32683	32796	32662	
2702	0	3167	5751	3164	7681	1201	0	32759	32845	32844	32694	33167	32829	32749	32598	
2703	0	3172	5691	3197	7693	1202	0	32775	32962	32772	32677	32221	32764	32938	32553	
2704	0	3158	5725	3148	7673	1203	0	32775	32871	32850	32635	33357	32711	32830	32679	
2705	0	3159	5715	3178	7700	1204	0	32764	32935	32563	32759	32239	32825	32684	32652	
2706	0	3184	5692	3156	7727	1205	0	32784	32668	32695	32729	33019	32730	32621	32658	
2707	0	3202	5696	3150	7696	1206	0	32725	32807	32687	32775	32775	32839	32711	32638	
2708	0	3168	5714	3121	7733	1207	0	32712	32726	32647	32647	32413	32789	32822	32647	
2709	0	3158	5713	3108	7709	1208	0	32735	32588	32673	32735	33311	32759	32845	32767	
2710	0	3152	5720	3218	7728	1209	0	32745	32670	32783	32848	31983	32817	32634	32847	
2711	0	3144	5664	3136	7727	1210	0	32790	32654	32743	32887	33329	32710	32658	32711	
2712	0	3168	5721	3148	7741	1211	0	32833	32711	32727	32903	32461	32743	32661	32491	
2713	0	3184	5669	3142	7708	1212	0	32804	32578	32671	32881	32730	32740	32631	32602	
2714	0	3181	5657	3133	7748	1213	0	32761	32433	32681	32662	33159	32607	32605	32711	
2715	0	3184	5681	3146	7752	1214	0	32812	32438	32623	32549	32229	32743	32614	32694	
2716	0	3177	5729	3204	7757	1215	0	32798	32236	32535	32519	33439	32706	32758	32621	
2717	0	3149	5677	3184	7735	1216	0	32721	32399	32741	32379	32263	32841	32713	32693	
2718	0	3175	5730	3133	7784	1217	0	32684	32356	32737	32579	32844	32854	32679	32502	
2719	0	3163	5712	3191	7757	1218	0	32820	32675	32743	32662	32986	32865	32694	32483	
2720	0	3171	5670	3148	7758	1219	0	32772	32716	32866	32734	32380	32793	32698	32567	
2721	0	3185	5714	3147	7722	1220	0	32849	32903	32841	32845	33250	32749	32719	32655	
2722	0	3175	5713	3138	7744	1221	0	32798	32819	32867	32870	32134	32794	32804	32612	
2723	0	3205	5680	3201	7704	1222	0	32758	32903	32823	32847	33155	32751	32795	32631	
2724	0	3183	5691	3108	7738	1223	0	32646	32799	32894	32769	32671	32767	32839	32672	
2725	0	3181	5654	3132	7792	1224	0	32709	32881	32859	32655	32445	32678	32687	32585	
2726	0	3181	5677	3164	7760	1225	0	32780	32751	32688	32647	33287	32817	32647	32738	
2727	0	3117	5687	3162	7722	1226	0	32783	32679	32630	32782	32100	32756	32712	32903	
2728	0	3182	5700	3131	7784	1227	0	32758	32785	32640	32788	33366	32719	32811	32761	
2729	0	3186	5653	3155	7760	1228	0	32827	32710	32703	32847	32386	32895	32772	32655	
2730	0	3150	5670	3133	7749	1229	0	32793	32728	32631	32805	32845	32759	32674	32844	
2731	0	3206	5686	3186	7805	1230	0	32820	32663	32735	32758	33095	32818	32623	32676	
2732	0	3207	5705	3155	7755	1231	0	32756	32634	32744	32732	32164	32768	32623	32841	
2733	0	3180	5710	3146	7744	1232	0	32742	32465	32586	32573	33434	32854	32694	32775	
2734	0	3139	5658	3148	7755	1233	0	32783	32519	32670	32647	32105	32732	32715	32737	
2735	0	3174	5649	3110	7777	1234	0	32768	32459	32698	32677	33142	32757	32722	32641	
2736	0	3140	5668	3165	7753	1235	0	32709	32255	32543	32687	32739	32759	32735	32510	
2737	0	3131	5675	3130	7758	1236	0	32706	32525	32535	32796	32502	32711	32584	32647	
2738	0	3212	5684	3137	7811	1237	0	32775	32647	32510	32797	33347	32732	32711	32627	
2739	0	3188	5638	3090	7780	1238	0	32768	32443	32694	32825	32041	32672	32796	32698	
2740	0	3172	5654	3192	7802	1239	0	32788	32813	32707	32787	33383	32757	32700	32564	
2741	0	3120	5656	3112	7780	1240	0	32766	32987	32879	32761	32400	32884	32701	32415	
2742	0	3171	5661	3122	7794	1241	0	32798	32834	32881	32719	32751	32820	32615	32594	
2743	0	3165	5656	3088	7776	1242	0	32794	33122	32831	32647	33119	32753	32683	32645	
2744	0	3182	5634	3104	7750	1243	0	32808	32994	32890	32583	32246	32679	32726	32708	
2745	0	3216	5660	3137	7779	1244	0	32812	32770	32647	32679	33455	32719	32724	32775	
2746	0	3140	5657	3155	7760	1245	0	32794	32844	32609	32717	32090	32678	32696	32584	
2747	0	3143	5640	3134	7751	1246	0	32927	32830	32581	32674	33106	32734	32675	32700	
2748	0	3147	5624	3092	7778	1247	0	32848	32717	32599	32684	32831	32683	32643	32793	
2749	0	3139	5612	3180	7824	1248	0	32874	32780	32493	32659	32320	32601	32681	32885	
2750	0	3154	5603	3143	7779	1249	0	32909	32819	32547	32375	33351	32679	32675	32813	
2751	0	3163	5613	3102	7775	1250	0	32956	32719	32511	32295	32134	32855	32497	32647	
2752	0	3134	5623	3118	7828	1251	0	32993	32662	32581	32300	33191	32988	32419	32527	
2753	0	3154	5664	3077	7768	1252	0	32903	32655	32487	32335	32517	32977	32434	32282	
2754	0	3160	5654	3151	7841	1253	0	32884	32479	32646	32466	32684	32871	32479	32356	
2755	0	3182	5604	3113	7811	1254	0	32916	32317	32623	32505	33117	32811	32615	32476	
2756	0	3154	5616	3095	7797	1255	0	32823	32308	32711	32580	32237	32935	32766	32762	
2757	0	3171	5658	3138	7862	1256	0	32784	32327	32534	32647	33351	32893	32719	32703	
2758	0	3147	5634	3123	7855	1257	0	32743	32353	32517	32671	32191	32860	32775	32684	
2759	0	3203	5613	3134	7878	1258	0	32730	32443	32254	32508	33058	32815	32723	32686	
2760	0	3153	5618	3152	7794	1259	0	32586	32223	32233	32641	32799	32757	32657	32775	
2761	0	3134	5626	3128	7810	1260	0	32552	32512	32295	32927	32398	33043	32764	33029	
2762	0	3142	5646	3108	7805	1261	0	32543	32591	32479	33033	33363	33052	32805	33105	
2763	0	3153	5626	3155	7825	1262	0	32554	32519	32390	33039	32110	32972	32903	33021	
2764	0	3180	5650	3130	7801	1263	0	32596	32609	32599	33156	33322	32807	32832	32861	
2765	0	3204	5607	3142	7824	1264	0	32644	32671	32603	32985	32423	32807	32813	32759	
2766	0	3142	5648	3127	7776	1265	0	32654	32599	32775	32757	32712	32864	32852	32751	
2767	0	3142	5603	3118	7804	1266	0	32559	32619	32820	32939	33235	32789	32831	32847	
2768	0	3174	5669	3103	7856	1267	0	32463	32327	32979	33093	32165	32806	32973	32891	
2769	0	3149	5644	3136	7840	1268	0	32450	32522	32928	32943	33405	32771	33057	32951	
2770	0	3141	5606	3129	7851	1269	0	32475	32535	32939	32871	32279	32666	32935	33027	
2771	0	3183	5649	3155	7832	1270	0	32508	32647	32805	32698	32893	32610	32982	33011	
2772	0	3193	5601	3128	7862	1271	0	32583	32455	32799	32685	32923	32711	32967	32759	
2773	0	3133	5656	3141	7893	1272	0	32596	32625	32825	32833	32335	32647	32943	32660	
2774	0	3168	5626	3125	7832	1273	0	32645	32599	32909	32814	33395	32775	32935	32623	
2775	0	3142	5604	3107	7878	1274	0	32605	32479	32800	32898	32013	32771	32900	32519	
2776	0	3137	5610	3120	7830	1275	0	32486	32457	32929	32986	33287	32759	32983	32543	
2777	0	3178	5628	3111	7828	1276	0	32408	32524	33037	33135	32607	32927	33113	32559	
2778	0	3160	5601	3104	7892	1277	0	32364	32644	33217	33037	32521	32903	33185	32574	
2779	0	3184	5646	3185	7824	1278	0	32309	32470	33409	32939	33247	32959	33263	32587	
2780	0	3140	5616	3089	7862	1279	0	32338	32782	33447	33018	32152	32863	33156	32678	
2781	0	3166	5554	3100	7885	1280	0	32400	32986	33439	33117	33415	32695	33121	32786	
2782	0	3144	5578	3155	7868	1281	0	32508	32947	33326	33179	32159	32675	32973	32594	
2783	0	3194	5654	3102	7885	1282	0	32653	33228	33307	33185	32978	32583	32943	32388	
2784	0	3173	5584	3105	7884	1283	0	32876	33167	33141	33159	32975	32574	32727	32458	
2785	0	3158	5577	3149	7883	1284	0	32992	33277	33062	33062	32236	32658	32559	32397	
2786	0	3172	5569	3140	7866	1285	0	33104	33203	32799	32787	33346	32591	32498	32355	
2787	0	3172	5604	3165	7839	1286	0	33260	33035	32679	32634	32044	32535	32400	32349	
2788	0	3150	5604	3102	7893	1287	0	33281	33204	32528	32526	33119	32647	32402	32263	
2789	0	3181	5615	3126	7854	1288	0	33392	33179	32527	32647	32626	32586	32306	32399	
2790	0	3197	5644	3168	7897	1289	0	33250	33038	32559	32507	32637	32638	32263	32353	
2791	0	3154	5592	3172	7868	1290	0	33234	32995	32671	32509	33207	32577	32172	32387	
2792	0	3150	5628	3114	7908	1291	0	33135	32948	32594	32566	32209	32586	32279	32559	
2793	0	3171	5584	3122	7884	1292	0	33159	32807	32474	32601	33431	32695	32275	32548	
2794	0	3152	5620	3118	7872	1293	0	33078	32695	32413	32458	32333	32710	32280	32588	
2795	0	3172	5609	3140	7878	1294	0	33087	32701	32279	32350	32865	32628	32399	32564	
2796	0	3140	5540	3139	7876	1295	0	32979	32579	32335	32475	32926	32644	32500	32685	
2797	0	3142	5576	3119	7885	1296	0	32944	32632	32423	32516	32352	32663	32547	32566	
2798	0	3167	5567	3125	7883	1297	0	32962	32535	32473	32467	33271	32722	32594	32439	
2799	0	3137	5559	3118	7866	1298	0	32933	32709	32597	32525	32126	32783	32647	32624	
2800	0	3140	5618	3132	7909	1299	0	32815	32788	32677	32578	33271	32839	32559	32666	
2801	0	3203	5587	3165	7876	1300	0	32836	32933	32647	32487	32501	32769	32679	32681	
2802	0	3142	5618	3151	7945	1301	0	32743	32898	32703	32519	32636	32859	32641	32641	
2803	0	3177	5594	3120	7923	1302	0	32775	32924	32699	32643	33207	32827	32723	32665	
2804	0	3163	5600	3150	7933	1303	0	32726	32959	32709	32728	32146	32861	32723	32754	
2805	0	3140	5572	3133	7865	1304	0	32714	32606	32564	32775	33415	32753	32719	32767	
2806	0	3173	5593	3124	7931	1305	0	32710	32863	32656	32809	32326	32765	32686	32796	
2807	0	3141	5595	3137	7893	1306	0	32728	32666	32615	32884	32933	32839	32735	32623	
2808	0	3187	5603	3096	7900	1307	0	32732	32703	32751	32835	33001	32835	32751	32890	
2809	0	3169	5604	3161	7912	1308	0	32702	32686	32718	32908	32329	32752	32828	32876	
2810	0	3152	5570	3108	7974	1309	0	32663	32434	32637	32871	33247	32641	32863	32854	
2811	0	3132	5582	3130	7914	1310	0	32673	32607	32660	32887	32155	32880	32887	32663	
2812	0	3140	5579	3120	7896	1311	0	32684	32525	32669	32711	33143	32842	32743	32597	
2813	0	3174	5571	3124	7965	1312	0	32751	32325	32558	32575	32683	32775	32775	32732	
2814	0	3180	5570	3144	7892	1313	0	32692	32455	32578	32732	32451	32727	32887	32773	
2815	0	3176	5539	3166	7928	1314	0	32727	32367	32480	32875	33287	32613	32877	32775	
2816	0	3166	5600	3107	7896	1315	0	32730	32302	32708	32702	32197	32637	32846	32818	
2817	0	3171	5594	3194	7920	1316	0	32688	32391	32610	32701	33255	32733	32720	32669	
2818	0	3128	5578	3140	7924	1317	0	32610	32431	32687	32799	32370	32721	32773	32571	
2819	0	3163	5524	3134	7923	1318	0	32704	32647	32713	32783	32887	32635	32517	32677	
2820	0	3143	5627	3131	7925	1319	0	32709	32562	32759	32742	32903	32719	32407	32775	
2821	0	3139	5551	3167	7900	1320	0	32754	32893	32771	32812	32295	32866	32681	32879	
2822	0	3161	5604	3108	7932	1321	0	32715	32962	32888	32833	33331	33050	32903	32803	
2823	0	3182	5598	3128	7918	1322	0	32737	32798	32863	32995	32103	33308	32837	32754	
2824	0	3160	5569	3141	7925	1323	0	32709	32945	32790	32759	33159	33206	32695	32564	
2825	0	3110	5579	3117	7940	1324	0	32742	32823	32757	32557	32643	32914	32631	32631	
2826	0	3172	5540	3123	7920	1325	0	32757	32684	32639	32588	32484	32855	32647	32631	
2827	0	3185	5582	3110	7901	1326	0	32692	32757	32615	32711	33175	32809	32640	32715	
2828	0	3141	5544	3088	7937	1327	0	32702	32674	32508	32741	32135	32758	32617	32789	
2829	0	3151	5556	3100	7926	1328	0	32805	32737	32555	32757	33407	32755	32679	32773	
2830	0	3137	5550	3083	7910	1329	0	32786	32513	32555	32715	32311	32793	32838	32742	
2831	0	3206	5566	3099	7916	1330	0	32820	32735	32725	32588	32804	32717	32711	32669	
2832	0	3121	5584	3085	7924	1331	0	32848	32711	32775	32477	33071	32769	32671	32655	
2833	0	3164	5564	3115	7914	1332	0	32724	32442	32736	32456	32295	32732	32580	32763	
2834	0	3159	5549	3110	7896	1333	0	32725	32455	32790	32434	33315	32751	32815	32615	
2835	0	3153	5589	3072	7899	1334	0	32751	32454	32750	32387	32231	32741	32865	32552	
2836	0	3149	5567	3095	7929	1335	0	32773	32229	32807	32634	33041	32689	32958	32572	
2837	0	3108	5592	3122	7945	1336	0	32742	32479	32764	32707	32739	32763	33031	32743	
2838	0	3140	5501	3120	7944	1337	0	32712	32514	32795	32767	32449	32711	33002	32722	
2839	0	3122	5524	3129	7916	1338	0	32711	32534	32699	32839	33352	32831	32883	32735	
2840	0	3144	5560	3120	7950	1339	0	32745	32807	32703	32845	32135	32767	32841	32771	
2841	0	3126	5548	3066	7944	1340	0	32724	32917	32674	32832	33177	32719	32919	32802	
2842	0	3110	5540	3093	7946	1341	0	32765	33030	32594	32769	32535	32771	32803	32563	
2843	0	3123	5566	3131	7909	1342	0	32738	33053	32767	32766	32710	32757	32775	32686	
2844	0	3142	5565	3096	7936	1343	0	32720	32887	32645	32642	33236	32818	32720	32679	
2845	0	3173	5548	3134	7917	1344	0	32754	32859	32714	32666	32112	32769	32445	32623	
2846	0	3118	5528	3130	7971	1345	0	32809	32847	32676	32609	33445	32793	32519	32715	
2847	0	3141	5528	3071	7954	1346	0	32841	32739	32647	32655	32183	32786	32628	32780	
2848	0	3121	5560	3102	7972	1347	0	32810	32707	32703	32514	33017	32759	32678	32514	
2849	0	3116	5512	3108	7974	1348	0	32727	32575	32677	32571	32895	32775	32662	32599	
2850	0	3099	5578	3067	7993	1349	0	32720	32599	32795	32621	32388	32715	32707	32696	
2851	0	3122	5539	3100	7949	1350	0	32746	32660	32877	32692	33339	32830	32647	32735	
2852	0	3139	5573	3161	7950	1351	0	32727	32527	32903	32631	32105	32743	32621	32644	
2853	0	3129	5544	3090	7976	1352	0	32779	32598	32660	32662	33178	32783	32671	32667	
2854	0	3152	5552	3064	7926	1353	0	32704	32498	32699	32787	32547	32743	32619	32695	
2855	0	3121	5528	3113	7943	1354	0	32716	32360	32636	32829	32679	32719	32727	32676	
2856	0	3131	5521	3076	7924	1355	0	32732	32367	32591	32797	33115	32771	32699	32759	
2857	0	3140	5534	3122	7938	1356	0	32672	32436	32564	32793	32220	32775	32763	32722	
2858	0	3135	5564	3116	7944	1357	0	32703	32642	32647	32913	33355	32743	32775	32627	
2859	0	3130	5540	3130	7945	1358	0	32769	32502	32623	33055	32204	32890	32762	32644	
2860	0	3103	5549	3094	7980	1359	0	32703	32825	32745	32809	32959	32787	32766	32564	
2861	0	3150	5540	3079	7986	1360	0	32725	32999	32771	32749	32951	32765	32753	32726	
2862	0	3125	5572	3100	7952	1361	0	32750	32884	32626	32665	32283	32848	32839	32717	
2863	0	3106	5501	3088	7972	1362	0	32785	33068	32837	32710	33405	32876	32813	32736	
2864	0	3120	5513	3121	7960	1363	0	32814	32982	32903	32671	31995	32744	32681	32658	
2865	0	3120	5580	3072	7987	1364	0	32780	32827	32993	32838	33227	32698	32643	32517	
2866	0	3164	5530	3125	7979	1365	0	32736	32747	33027	32819	32668	32633	32690	32566	
2867	0	3101	5537	3141	7928	1366	0	32735	32623	32775	32832	32507	32745	32551	32663	
2868	0	3150	5513	3088	7996	1367	0	32708	32789	32775	32809	33238	32708	32623	32671	
2869	0	3100	5574	3141	7981	1368	0	32807	32751	32580	32826	32162	32793	32567	32669	
2870	0	3140	5561	3140	7941	1369	0	32764	32665	32692	32869	33394	32826	32457	32786	
2871	0	3130	5536	3129	7938	1370	0	32827	32711	32733	32767	32391	32726	32479	32588	
2872	0	3108	5516	3128	7965	1371	0	32789	32686	32598	32667	32791	32817	32537	32508	
2873	0	3098	5522	3134	7982	1372	0	32757	32559	32583	32647	32927	32759	32789	32721	
2874	0	3109	5568	3141	7991	1373	0	32725	32514	32532	32661	32299	32782	32845	32640	
2875	0	3124	5495	3077	8019	1374	0	32730	32463	32566	32654	33353	32727	32913	32705	
2876	0	3128	5545	3104	7979	1375	0	32775	32231	32479	32637	32206	32798	32825	32600	
2877	0	3189	5537	3152	7989	1376	0	32780	32501	32535	32679	32987	32687	33078	32617	
2878	0	3102	5540	3127	7963	1377	0	32801	32597	32599	32751	32815	32715	33159	32775	
2879	0	3149	5548	3118	8011	1378	0	32735	32489	32656	32828	32463	32676	33142	32711	
2880	0	3112	5545	3115	8009	1379	0	32810	32801	32772	32775	33357	32775	32989	32822	
2881	0	3076	5544	3128	7960	1380	0	32804	32895	32798	32800	31998	32922	32845	32631	
2882	0	3132	5544	3120	7972	1381	0	32761	32959	32763	32799	33354	32839	32720	32573	
2883	0	3073	5538	3141	7976	1382	0	32756	33107	32818	32794	32401	32903	32659	32679	
2884	0	3101	5506	3147	8011	1383	0	32721	32941	32719	32687	32771	32703	32295	32647	
2885	0	3080	5539	3157	8001	1384	0	32700	32721	32886	32703	33025	32564	32260	32631	
2886	0	3111	5550	3119	7986	1385	0	32728	32818	32934	32534	32269	32644	32391	32600	
2887	0	3113	5514	3076	8004	1386	0	32828	32795	32804	32519	33357	32733	32632	32571	
2888	0	3120	5532	3115	8002	1387	0	32816	32647	32918	32607	32205	32735	32638	32472	
2889	0	3090	5500	3088	7980	1388	0	32774	32728	32723	32631	32920	32587	32711	32663	
2890	0	3116	5482	3092	8032	1389	0	32814	32711	32589	32731	32847	32804	32731	32726	
2891	0	3131	5498	3147	7960	1390	0	32800	32622	32550	32772	32441	32890	32681	32644	
2892	0	3133	5548	3147	7992	1391	0	32830	32711	32599	32733	33198	32887	32775	32625	
2893	0	3086	5494	3111	7985	1392	0	32812	32621	32647	32627	32134	32839	32718	32784	
2894	0	3110	5517	3104	8004	1393	0	32724	32493	32641	32752	33281	32917	32739	32679	
2895	0	3100	5541	3091	8016	1394	0	32751	32287	32517	32722	32443	32933	32647	32659	
2896	0	3115	5498	3140	7966	1395	0	32724	32525	32557	32751	32719	32825	32720	32782	
2897	0	3061	5516	3189	8006	1396	0	32801	32511	32661	32875	33234	32723	33023	32815	
2898	0	3122	5482	3121	8015	1397	0	32732	32439	32644	32887	32233	32713	33191	32820	
2899	0	3107	5453	3106	8006	1398	0	32740	32679	32743	32915	33366	32797	33037	32711	
2900	0	3101	5520	3102	8041	1399	0	32775	32749	32559	32833	32263	32772	32729	32534	
2901	0	3074	5501	3114	8004	1400	0	32757	32695	32775	32764	32989	32722	32798	32735	
2902	0	3103	5507	3126	7998	1401	0	32679	32965	32788	32735	32863	32751	32914	32647	
2903	0	3141	5497	3093	8002	1402	0	32726	32980	32846	32670	32236	32695	32806	32615	
2904	0	3038	5488	3157	8020	1403	0	32738	32766	32839	32783	33383	32775	32717	32641	
2905	0	3106	5513	3141	8021	1404	0	32772	32871	32738	32659	32134	32775	32577	32492	
2906	0	3100	5480	3096	8008	1405	0	32780	32855	32783	32662	33260	32799	32460	32610	
2907	0	3106	5491	3126	8026	1406	0	32708	32635	32775	32655	32487	32757	32562	32647	
2908	0	3044	5528	3151	8017	1407	0	32807	32759	32680	32690	32497	32773	32615	32664	
2909	0	3060	5502	3157	8014	1408	0	32730	32573	32727	32610	33285	32725	32558	32493	
2910	0	3092	5479	3129	7998	1409	0	32767	32713	32739	32632	32162	32799	32647	32617	
2911	0	3058	5490	3114	8015	1410	0	32780	32561	32703	32617	33362	32759	32455	32623	
2912	0	3034	5497	3106	7954	1411	0	32804	32727	32705	32641	32322	32727	32582	32602	
2913	0	3090	5506	3112	8012	1412	0	32712	32549	32682	32578	32883	32671	32711	32576	
2914	0	3093	5525	3114	8014	1413	0	32806	32317	32757	32675	33075	32783	32677	32861	
2915	0	3068	5505	3104	7992	1414	0	32766	32419	32647	32669	32219	32813	32716	32822	
2916	0	3081	5493	3170	8025	1415	0	32806	32379	32665	32620	33447	32766	32748	32613	
2917	0	3052	5471	3147	7995	1416	0	32809	32491	32615	32666	32045	32788	32639	32727	
2918	0	3085	5516	3126	8005	1417	0	32686	32532	32561	32681	33106	32751	32763	32629	
2919	0	3108	5476	3116	7986	1418	0	32741	32460	32534	32826	32795	32787	32811	32887	
2920	0	3052	5496	3084	8015	1419	0	32729	32665	32647	32914	32453	32772	32856	32919	
2921	0	3068	5461	3082	8016	1420	0	32748	32821	32747	32941	33223	32775	32762	32631	
2922	0	3115	5513	3160	8037	1421	0	32761	33010	32843	32895	32124	32860	32704	32567	
2923	0	3063	5478	3128	8012	1422	0	32720	32887	32841	32743	33337	32729	32611	32540	
2924	0	3109	5536	3173	7997	1423	0	32734	32971	32894	32871	32380	32835	32619	32564	
2925	0	3067	5486	3132	8018	1424	0	32773	32893	32896	32747	32714	32797	32660	32644	
2926	0	3072	5484	3140	8036	1425	0	32784	32679	32687	32730	33202	32762	32715	32754	
2927	0	3076	5473	3156	8010	1426	0	32797	32871	32671	32856	32093	32748	32595	32540	
2928	0	3032	5492	3150	8029	1427	0	32830	32775	32654	33095	33435	32679	32643	32574	
2929	0	3048	5430	3112	8002	1428	0	32803	32554	32681	33026	32211	32711	32816	32736	
2930	0	3080	5516	3136	8018	1429	0	32791	32677	32628	32841	32998	32710	32826	32605	
2931	0	3106	5488	3169	8031	1430	0	32720	32739	32543	32667	32811	32803	32973	32719	
2932	0	3096	5473	3176	8036	1431	0	32764	32539	32586	32647	32364	32775	32917	32729	
2933	0	3043	5499	3116	8084	1432	0	32734	32596	32647	32519	33307	32809	32738	32540	
2934	0	3098	5446	3158	8004	1433	0	32734	32439	32767	32487	32101	32722	32752	32698	
2935	0	3068	5491	3097	8052	1434	0	32752	32455	32775	32719	33129	32765	32647	32703	
2936	0	3053	5477	3188	8038	1435	0	32787	32443	32678	32738	32633	32706	32519	32692	
2937	0	3062	5506	3121	8015	1436	0	32687	32420	32769	32695	32634	32765	32623	32727	
2938	0	3082	5488	3154	8024	1437	0	32769	32453	32653	32751	33153	32717	32564	32727	
2939	0	3018	5554	3160	8044	1438	0	32751	32634	32855	32748	32203	32799	32647	32653	
2940	0	3079	5469	3104	8040	1439	0	32761	32629	32914	32863	33319	32796	32775	32589	
2941	0	3043	5468	3154	8062	1440	0	32717	32893	32891	32922	32387	32727	32971	32655	
2942	0	3066	5456	3170	8062	1441	0	32754	32999	32900	32822	32727	32735	33134	32701	
2943	0	3045	5490	3139	8018	1442	0	32695	32711	32840	32679	33065	32631	33133	32668	
