# OpenSignals Text File Format
# {"00:07:80:3B:46:38": {"sensor": ["CUSTOM/0.5/1.0/V", "CUSTOM/0.5/1.0/V", "CUSTOM/0.5/1.0/V", "CUSTOM/0.5/1.0/V", "CUSTOM/0.5/1.0/V", "CUSTOM/0.5/1.0/V", "CUSTOM/0.5/1.0/V", "CUSTOM/0.5/1.0/V"], "device name": "EMGs", "column": ["nSeq", "DI", "RA_L", "RA_R", "OE_L", "OE:R", "IL_L", "IL_R", "MF_L", "MF_R"], "sync interval": 2, "time": "16:11:15.517", "comments": "", "device connection": "BTH00:07:80:3B:46:38", "channels": [1, 2, 3, 4, 5, 6, 7, 8], "date": "2017-5-22", "mode": 0, "digital IO": [0, 1], "firmware version": 772, "device": "biosignalsplux", "position": 0, "sampling rate": 1000, "label": ["RA_L", "RA_R", "OE_L", "OE:R", "IL_L", "IL_R", "MF_L", "MF_R"], "resolution": [16, 16, 16, 16, 16, 16, 16, 16], "special": [{}, {}, {}, {}, {}, {}, {}, {}]}}
# EndOfHeader
0	0	32876	32751	32499	32799	32933	32764	32698	32647	
1	0	32855	32847	32743	32789	32909	32679	32678	32559	
2	0	32822	32679	32749	32691	32763	32756	32713	32485	
3	0	32719	32783	32571	32839	32775	32719	32698	32627	
4	0	32745	32823	32647	32759	32848	32571	32887	32640	
5	0	32802	32807	32590	32556	32962	32607	32871	32633	
6	0	32796	32823	32739	32670	32770	32609	32747	32565	
7	0	32658	32819	32745	32719	32935	32587	32823	32338	
8	0	32639	32941	32709	32575	32749	32618	32712	32617	
9	0	32463	32775	32695	32759	32676	32823	32445	32789	
10	0	32421	32991	32515	32691	32591	32682	32706	32733	
11	0	32408	32901	32615	32509	32623	32714	32706	32871	
12	0	32486	32998	32435	32682	32845	32679	32947	32823	
13	0	32462	32935	32553	32724	33044	32773	32875	32707	
14	0	32449	32903	32471	32559	33039	32671	32886	32757	
15	0	32519	33108	32606	32646	33059	32601	32950	32784	
16	0	32515	32767	32532	32646	32850	32666	32587	32711	
17	0	32516	32935	32620	32391	32609	32751	32576	32703	
18	0	32534	32855	32463	32679	32367	32826	32599	32731	
19	0	32545	32883	32717	32612	32519	32749	32679	32571	
20	0	32566	32877	32742	32479	32663	32719	32743	32715	
21	0	32620	32843	32567	32631	32823	32603	32700	32543	
22	0	32719	32713	32791	32561	32871	32634	32805	32668	
23	0	32713	32775	32762	32773	32939	32565	32695	32658	
24	0	32737	32607	32495	32789	32935	32534	32917	32711	
25	0	32743	32727	32647	32573	32699	32619	32858	32583	
26	0	32782	32838	32574	32701	32734	32711	32826	32495	
27	0	32758	32503	32671	32679	32639	32891	32717	32731	
28	0	32731	32844	32751	32575	32791	32715	32911	32756	
29	0	32695	32681	32511	32612	32775	32643	33260	32565	
30	0	32681	32885	32581	32467	32771	32643	33065	32786	
31	0	32637	32875	32677	32604	32825	32635	32965	32819	
32	0	32654	32919	32500	32458	32883	32707	32935	32851	
33	0	32681	32855	32686	32593	32860	32797	32887	32860	
34	0	32600	32903	32658	32559	32867	32740	32751	32809	
35	0	32690	32931	32543	32647	32660	32663	32763	32695	
36	0	32742	32863	32695	32662	32788	32481	33260	32775	
37	0	32679	32875	32647	32631	33051	32559	33126	32807	
38	0	32626	32980	32751	32775	32873	32705	32687	32783	
39	0	32709	32914	32727	32695	32743	32859	32671	32775	
40	0	32698	32919	32583	32595	32698	32747	32647	32583	
41	0	32647	32590	32663	32827	32822	32725	32707	32617	
42	0	32751	32743	32661	32765	32773	32719	32693	32628	
43	0	32771	32681	32735	32615	32754	32695	32647	32655	
44	0	32798	32758	32719	32727	32791	32717	32532	32743	
45	0	32815	32663	32823	32559	32734	32799	32571	32615	
46	0	32738	32790	32742	32647	32729	32737	32615	32634	
47	0	32713	32663	32581	32647	32694	32699	32647	32567	
48	0	32588	32709	32708	32554	32866	32596	32855	32456	
49	0	32775	32819	32510	32711	32911	32765	32647	32615	
50	0	32662	32823	32643	32675	32815	32773	32615	32581	
51	0	32655	32895	32636	32714	32892	32663	32637	32679	
52	0	32671	32845	32535	32679	32839	32706	32803	32507	
53	0	32660	32947	32591	32591	32781	32759	32741	32578	
54	0	32661	32875	32549	32659	32863	32767	32829	32612	
55	0	32756	32931	32624	32633	32727	32835	32682	32727	
56	0	32775	32877	32549	32735	32767	32724	32663	32806	
57	0	32784	32919	32516	32771	32759	32742	32615	32900	
58	0	32737	32661	32494	32623	32751	32735	32743	33095	
59	0	32848	32789	32518	32775	32773	32775	32629	33039	
60	0	32870	32583	32645	32763	32767	32767	32764	32987	
61	0	32859	32734	32706	32661	32843	32728	32834	32847	
62	0	32901	32653	32687	32799	32679	32647	32711	32609	
63	0	32894	32711	32771	32735	32821	32627	32647	32615	
64	0	32956	32797	32695	32739	32724	32587	32925	32541	
65	0	32937	32517	32701	32782	32729	32580	32893	32480	
66	0	32862	32802	32587	32731	32759	32607	32900	32527	
67	0	32790	32583	32599	32606	32735	32676	32751	32566	
68	0	32769	32703	32550	32647	32685	32639	32538	32619	
69	0	32774	32751	32679	32526	32721	32687	32487	32676	
70	0	32663	32775	32692	32685	32756	32742	32603	32829	
71	0	32599	32647	32571	32639	32766	32883	32535	33031	
72	0	32615	32785	32692	32673	32665	32929	32551	33045	
73	0	32652	32647	32693	32667	32681	32783	32553	32845	
74	0	32676	32822	32499	32559	32575	32727	32633	32729	
75	0	32727	32787	32690	32612	32671	32743	32821	32687	
76	0	32807	32831	32797	32479	32774	32887	32976	32570	
77	0	32746	32679	32662	32621	33047	32709	33123	32686	
78	0	32755	32775	32647	32708	33079	32669	33091	32583	
79	0	32742	32735	32479	32647	32839	32663	32871	32662	
80	0	32766	32860	32718	32748	32807	32549	32935	32535	
81	0	32780	32743	32695	32797	32745	32707	32875	32674	
82	0	32848	32855	32639	32743	32767	32619	32948	32629	
83	0	32826	32607	32738	32621	32963	32631	32877	32647	
84	0	32770	32807	32683	32809	32851	32724	32879	32543	
85	0	32813	32742	32518	32799	32887	32635	32635	32783	
86	0	32820	32766	32623	32827	32871	32671	32564	32825	
87	0	32803	32725	32550	32775	32692	32703	32439	32751	
88	0	32710	32759	32615	32642	32748	32637	32767	32748	
89	0	32647	32615	32533	32738	32687	32671	32834	32717	
90	0	32564	32687	32602	32689	32742	32775	32871	32767	
91	0	32557	32693	32533	32555	32743	32686	32871	32769	
92	0	32606	32817	32643	32710	32771	32735	32755	32551	
93	0	32640	32853	32567	32671	32715	32663	32805	32609	
94	0	32740	32600	32711	32435	32827	32751	32615	32647	
95	0	32782	32789	32773	32647	32723	32607	32605	32598	
96	0	32703	32695	32575	32690	32879	32571	32495	32687	
97	0	32775	32818	32647	32541	32837	32756	32647	32678	
98	0	32855	32703	32389	32647	32745	32647	32709	32808	
99	0	32903	32767	32646	32531	32839	32803	32693	32775	
100	0	32907	32567	32687	32687	32757	32754	32579	32951	
101	0	32958	32699	32539	32591	32739	32743	32606	32951	
102	0	32888	32607	32831	32731	32775	32775	32567	32838	
103	0	32911	32797	32721	32634	32732	32691	32855	32623	
104	0	32861	32762	32575	32791	32881	32623	32875	32644	
105	0	32836	32834	32747	32743	33101	32501	32979	32557	
106	0	32735	32807	32829	32742	32827	32695	32897	32713	
107	0	32658	32918	32661	32711	32751	32929	32589	32875	
108	0	32593	32806	32702	32655	32703	32903	32564	32875	
109	0	32622	32855	32647	32775	32645	32932	32615	32805	
110	0	32695	32815	32574	32661	32751	32811	32758	32823	
111	0	32699	32937	32613	32775	32705	32809	32623	32871	
112	0	32686	32727	32511	32759	32699	32845	32415	32749	
113	0	32680	32879	32555	32541	32671	32723	32667	32647	
114	0	32664	32667	32401	32647	32611	32783	32555	32450	
115	0	32720	32931	32607	32507	32861	32759	32775	32473	
116	0	32703	32762	32614	32643	32919	32739	32797	32435	
117	0	32688	32935	32519	32607	32814	32636	32788	32581	
118	0	32676	32827	32642	32695	32749	32659	32647	32578	
119	0	32727	32931	32571	32689	32733	32799	32751	32683	
120	0	32838	32775	32704	32615	32647	32807	32695	32703	
121	0	32868	32775	32775	32719	32727	32782	32775	32756	
122	0	32881	32750	32739	32566	32683	32661	32915	32675	
123	0	32805	32775	32858	32799	32731	32615	32787	32741	
124	0	32812	32804	32706	32791	32807	32596	32841	32713	
125	0	32868	32866	32767	32599	32775	32711	32929	32677	
126	0	32918	32615	32709	32775	32809	32753	32964	32595	
127	0	32852	32871	32633	32743	32871	32751	33027	32751	
128	0	32801	32823	32735	32604	32743	32738	32863	32726	
129	0	32775	32876	32679	32719	32945	32747	33067	32795	
130	0	32737	32828	32554	32643	32987	32671	32855	32751	
131	0	32661	32893	32607	32690	32699	32591	32887	32781	
132	0	32598	32749	32519	32623	32691	32743	32759	32719	
133	0	32658	32805	32646	32555	32839	32678	32767	32623	
134	0	32632	32927	32559	32583	32815	32727	32837	32629	
135	0	32686	32719	32598	32640	32931	32599	32789	32598	
136	0	32631	32903	32491	32550	32863	32641	32687	32743	
137	0	32622	32793	32592	32599	32767	32597	32603	32679	
138	0	32633	32967	32595	32431	32845	32621	32679	32676	
139	0	32583	32631	32463	32614	32883	32767	32659	32743	
140	0	32600	32775	32603	32685	32971	32749	32662	32815	
141	0	32735	32715	32543	32623	32914	32735	32757	32820	
142	0	32749	32798	32703	32754	32948	32685	32769	32679	
143	0	32833	32698	32623	32754	32862	32731	32633	32873	
144	0	32854	32751	32707	32614	32775	32845	32474	33067	
145	0	32925	32757	32689	32755	32765	32698	32586	32971	
146	0	32894	32791	32735	32685	32587	32749	32617	32807	
147	0	32871	32797	32787	32762	32591	32830	32683	32583	
148	0	32866	32845	32719	32739	32513	32839	32423	32731	
149	0	32827	32891	32771	32590	32639	32811	32647	32615	
150	0	32834	32725	32551	32659	32731	32799	32693	32626	
151	0	32775	32963	32666	32615	32615	32763	32681	32587	
152	0	32795	32642	32525	32495	32751	32679	32775	32570	
153	0	32742	32813	32626	32685	32607	32642	32711	32662	
154	0	32727	32614	32487	32607	32587	32637	32889	32500	
155	0	32798	32818	32715	32710	32594	32635	32942	32549	
156	0	32716	32583	32734	32742	32677	32591	33067	32485	
157	0	32675	32796	32640	32541	32735	32639	32955	32647	
158	0	32639	32599	32627	32723	32947	32679	32743	32646	
159	0	32766	32734	32583	32721	32996	32531	33023	32717	
160	0	32766	32707	32775	32590	32836	32647	32867	32805	
161	0	32868	32790	32694	32795	32687	32767	32759	32773	
162	0	32813	32658	32735	32807	32699	32871	32412	33012	
163	0	32807	32807	32641	32671	32447	32887	32361	32967	
164	0	32823	32815	32713	32757	32713	32661	33167	32837	
165	0	32803	32599	32686	32699	33031	32615	32925	32662	
166	0	32809	32718	32727	32687	32921	32755	32722	32579	
167	0	32760	32861	32613	32567	32721	32759	32591	32801	
168	0	32771	32757	32454	32751	32663	32788	32592	32847	
169	0	32805	32805	32571	32711	32670	32789	32847	32679	
170	0	32743	32709	32471	32553	32939	32630	32903	32543	
171	0	32740	32807	32625	32742	33095	32575	32967	32466	
172	0	32671	32679	32738	32676	32913	32573	32711	32637	
173	0	32700	32823	32743	32475	32786	32647	32507	32679	
174	0	32816	32783	32829	32631	32718	32619	32523	32581	
175	0	32743	32796	32775	32557	32677	32647	32445	32643	
176	0	32691	33007	32820	32455	32594	32762	32655	32705	
177	0	32626	32743	32747	32591	32597	32831	32675	32719	
178	0	32628	32902	32775	32562	32655	32806	32663	32712	
179	0	32654	32743	32775	32717	32881	32754	32919	32769	
180	0	32742	32827	32747	32626	32998	32622	33050	32631	
181	0	32786	32820	32787	32711	32943	32591	33109	32446	
182	0	32794	32564	32647	32807	32805	32719	32806	32507	
183	0	32841	32727	32759	32607	32539	32781	32391	32557	
184	0	32843	32489	32775	32751	32571	32917	32493	32687	
185	0	32855	32726	32699	32706	32611	32739	32579	32532	
186	0	32757	32589	32630	32538	32692	32575	32807	32679	
187	0	32745	32795	32517	32631	32827	32671	32945	32729	
188	0	32703	32559	32679	32550	32749	32747	32935	32847	
189	0	32676	32791	32743	32685	32863	32735	32927	32850	
190	0	32700	32647	32691	32711	32784	32797	32879	32955	
191	0	32626	32831	32769	32511	32749	32827	32775	32884	
192	0	32703	32703	32692	32607	32850	32738	32633	32785	
193	0	32652	32807	32757	32615	32887	32699	32727	32839	
194	0	32726	32887	32695	32630	32775	32703	32871	32823	
195	0	32810	32773	32708	32643	32795	32743	32983	32749	
196	0	32877	32887	32613	32621	32899	32693	32897	32703	
197	0	32893	32603	32533	32699	32859	32743	32620	32694	
198	0	32903	32810	32587	32715	32855	32756	32715	32775	
199	0	32931	32559	32559	32675	32788	32838	32831	32799	
200	0	32966	32707	32749	32867	32900	32775	32673	32647	
201	0	32918	32566	32818	32833	32711	32705	32671	32703	
202	0	32854	32739	32762	32708	32647	32705	32719	32707	
203	0	32871	32743	32723	32803	32587	32741	32891	32635	
204	0	32874	32705	32641	32727	32767	32659	32881	32683	
205	0	32877	32790	32749	32634	32727	32659	32761	32671	
206	0	32799	32701	32731	32724	32863	32687	32895	32583	
207	0	32759	32751	32647	32705	32854	32567	32791	32660	
208	0	32711	32827	32700	32717	32815	32694	32874	32701	
209	0	32573	32743	32583	32461	32817	32671	32887	32607	
210	0	32546	32850	32675	32647	32791	32663	32903	32765	
211	0	32533	32991	32743	32655	32903	32657	32805	32775	
212	0	32604	32590	32615	32463	32827	32663	32770	32967	
213	0	32610	32724	32675	32639	32810	32711	32785	32863	
214	0	32671	32804	32663	32531	32751	32715	32717	32694	
215	0	32790	32839	32631	32535	32825	32639	32935	32822	
216	0	32687	32815	32621	32519	32677	32671	32863	32767	
217	0	32679	32631	32610	32583	32699	32787	32801	32693	
218	0	32667	32810	32491	32615	32701	32803	32747	32745	
219	0	32687	32795	32615	32639	32715	32791	32735	32603	
220	0	32668	32703	32543	32749	32805	32796	32627	32583	
221	0	32749	32871	32775	32708	32885	32759	32751	32710	
222	0	32708	32849	32715	32759	32739	32795	32719	32879	
223	0	32701	32636	32773	32639	32821	32738	32555	32783	
224	0	32711	32773	32577	32775	32770	32747	32403	32871	
225	0	32772	32699	32647	32738	32902	32775	32503	32894	
226	0	32807	32795	32564	32685	32836	32788	32497	32815	
227	0	32819	32839	32647	32799	32823	32822	32498	32877	
228	0	32797	32667	32463	32795	32554	32869	32679	32820	
229	0	32830	32802	32686	32567	32679	32691	32903	32617	
230	0	32691	32919	32609	32738	32833	32447	33203	32578	
231	0	32658	32765	32676	32660	32775	32575	33153	32498	
232	0	32630	32902	32546	32655	32836	32683	32834	32662	
233	0	32720	32893	32519	32581	32795	32659	32919	32603	
234	0	32756	32807	32662	32615	32757	32707	32595	32839	
235	0	32775	32821	32583	32655	32503	32798	32287	32945	
236	0	32673	32799	32638	32635	32359	32879	32389	32690	
237	0	32722	32615	32549	32429	32559	32719	32699	32747	
238	0	32685	32803	32691	32643	32852	32615	32633	32735	
239	0	32716	32839	32533	32639	32923	32727	32711	32421	
240	0	32713	32731	32647	32644	32775	32834	32555	32495	
241	0	32797	32815	32647	32756	32687	32919	32999	32518	
242	0	32859	32756	32773	32759	32839	32839	32988	32655	
243	0	32876	32783	32805	32579	32763	32803	33011	32745	
244	0	32890	32500	32710	32812	32831	32882	32951	32559	
245	0	32902	32731	32759	32743	32775	32867	32839	32601	
246	0	32822	32646	32717	32743	32739	32787	32797	32604	
247	0	32844	32743	32751	32707	32807	32655	32746	32570	
248	0	32862	32851	32593	32638	32765	32667	32738	32579	
249	0	32823	32831	32641	32667	32742	32719	32692	32571	
250	0	32758	32901	32601	32759	32646	32679	32743	32647	
251	0	32738	32858	32531	32685	32725	32623	32841	32579	
252	0	32775	32951	32548	32518	32716	32695	32818	32711	
253	0	32719	32775	32467	32707	32705	32603	32917	32673	
254	0	32740	32884	32601	32671	32839	32629	32799	32748	
255	0	32764	32818	32617	32565	32862	32726	32858	32711	
256	0	32798	32919	32612	32754	32871	32750	32703	32549	
257	0	32782	32615	32671	32655	32819	32647	32903	32647	
258	0	32788	32743	32507	32710	32871	32636	32775	32839	
259	0	32796	32739	32705	32673	32775	32669	32795	32743	
260	0	32884	32811	32603	32775	32889	32626	32719	32890	
261	0	32935	32895	32703	32805	32891	32698	32607	32967	
262	0	32953	32679	32534	32607	32991	32690	32647	32885	
263	0	33001	32803	32727	32839	32805	32690	32770	32831	
264	0	32903	32679	32609	32699	32867	32627	32684	32655	
265	0	32850	32775	32687	32731	32687	32687	32887	32598	
266	0	32767	32943	32556	32647	32735	32636	32999	32662	
267	0	32846	32679	32596	32771	32745	32639	32851	32653	
268	0	32815	32791	32535	32748	32734	32587	32755	32698	
269	0	32806	32730	32675	32631	32626	32551	32647	32882	
270	0	32775	32775	32562	32723	32775	32597	32863	32785	
271	0	32850	32743	32631	32698	32803	32711	32665	32847	
272	0	32847	32788	32439	32425	32685	32723	32715	32866	
273	0	32733	32770	32578	32535	32767	32627	32991	32743	
274	0	32686	32689	32535	32461	32983	32583	33095	32763	
275	0	32692	32787	32663	32570	33028	32654	32870	32733	
276	0	32630	32551	32595	32585	32759	32916	32467	32911	
277	0	32724	32775	32678	32621	32691	32937	32459	32898	
278	0	32652	32847	32692	32473	32879	32871	32677	32754	
279	0	32621	32807	32839	32643	32749	32863	32742	32775	
280	0	32614	32871	32810	32711	32826	32762	32639	32629	
281	0	32659	32589	32735	32567	32679	32769	32541	32486	
282	0	32678	32831	32519	32815	32595	32884	32543	32575	
283	0	32738	32647	32583	32771	32661	32765	32715	32355	
284	0	32787	32739	32693	32831	32739	32667	32747	32530	
285	0	32846	32668	32711	32762	32613	32690	32623	32706	
286	0	32748	32759	32619	32775	32453	32677	32804	32867	
287	0	32782	32627	32588	32722	32524	32583	32876	32871	
288	0	32748	32799	32647	32503	32745	32676	32787	32878	
289	0	32679	32862	32641	32598	32647	32754	32695	32901	
290	0	32635	32803	32511	32551	33083	32793	32911	32867	
291	0	32661	32939	32639	32551	32958	32807	32852	32647	
292	0	32581	32695	32668	32535	33015	32714	32825	32607	
293	0	32546	32887	32643	32590	32692	32830	32553	32566	
294	0	32674	32963	32691	32695	32637	32759	32711	32539	
295	0	32698	32838	32533	32519	32767	32719	33063	32557	
296	0	32708	32869	32647	32702	32874	32755	32707	32554	
297	0	32664	32855	32635	32653	32788	32639	32669	32626	
298	0	32715	32822	32703	32614	32615	32687	32412	32539	
299	0	32861	32711	32729	32666	32767	32775	32599	32647	
300	0	32887	32775	32558	32570	32703	32775	32433	32859	
301	0	32920	32555	32627	32623	32765	32765	32647	32711	
302	0	32929	32705	32609	32731	32785	32717	32775	32767	
303	0	33036	32574	32727	32795	32873	32769	32559	32841	
304	0	32969	32659	32914	32663	32818	32725	32667	32663	
305	0	32891	32647	32772	32807	32903	32693	32492	32734	
306	0	32911	32683	32875	32757	32817	32699	32581	32743	
307	0	32910	32771	32807	32575	32903	32639	32583	32679	
308	0	32806	32682	32807	32683	32771	32635	32521	32735	
309	0	32759	32756	32677	32663	32766	32605	32755	32733	
310	0	32681	32671	32583	32507	32698	32673	32743	32805	
311	0	32702	32901	32421	32647	32811	32804	32838	32862	
312	0	32655	32698	32501	32627	32734	32679	32835	32791	
313	0	32694	32871	32487	32621	32879	32711	32894	32893	
314	0	32685	32967	32562	32645	32903	32711	32883	32895	
315	0	32765	32854	32527	32655	32871	32747	32693	32847	
316	0	32791	32951	32527	32711	32708	32751	32679	32879	
317	0	32775	32711	32470	32543	32741	32759	32698	32887	
318	0	32748	32894	32647	32767	32519	32799	32673	32674	
319	0	32783	32871	32571	32671	32846	32533	33338	32481	
320	0	32726	32725	32671	32518	33069	32460	33223	32501	
321	0	32735	32815	32659	32640	32895	32605	32847	32635	
322	0	32723	32783	32759	32629	32719	32655	32766	32729	
323	0	32690	32766	32594	32566	32749	32715	32679	32599	
324	0	32662	32605	32764	32671	32836	32679	32860	32631	
325	0	32666	32751	32745	32615	32798	32662	32903	32677	
326	0	32644	32794	32588	32673	32791	32668	32887	32551	
327	0	32711	32691	32591	32727	32802	32562	32804	32647	
328	0	32703	32687	32711	32695	32692	32623	32699	32583	
329	0	32748	32806	32740	32515	32717	32799	32839	33005	
330	0	32743	32773	32452	32719	32683	32855	32665	32949	
331	0	32719	32854	32647	32763	32679	32775	32814	32863	
332	0	32736	32946	32598	32591	32803	32675	32799	32867	
333	0	32770	32695	32607	32801	32715	32743	32807	32775	
334	0	32711	32887	32484	32723	32790	32786	32751	32786	
335	0	32740	32783	32639	32589	32709	32812	32684	32714	
336	0	32780	32841	32443	32679	32746	32769	32567	32607	
337	0	32821	32667	32647	32683	32679	32823	32391	32671	
338	0	32869	32871	32723	32516	32695	32845	32551	32533	
339	0	32866	32583	32647	32639	32756	32675	32487	32623	
340	0	32889	32743	32583	32541	32775	32643	32659	32465	
341	0	32983	32523	32553	32747	32845	32722	32700	32605	
342	0	32960	32710	32738	32711	32812	32702	32851	32679	
343	0	32925	32667	32864	32663	32919	32670	32751	32765	
344	0	32868	32719	32787	32743	32807	32667	32845	32735	
345	0	32718	32807	32771	32757	32858	32699	32895	32658	
346	0	32664	32807	32583	32593	32790	32647	32775	32690	
347	0	32647	32839	32690	32747	32677	32700	32763	32642	
348	0	32595	32815	32671	32818	32786	32631	32653	32541	
349	0	32582	32860	32647	32659	32831	32615	32827	32608	
350	0	32575	32667	32615	32842	32711	32701	32709	32647	
351	0	32599	32836	32687	32725	32662	32748	32691	32676	
352	0	32666	32749	32599	32630	32663	32807	32742	32711	
353	0	32647	32767	32727	32705	32844	32726	32551	32703	
354	0	32700	32823	32723	32736	32877	32787	32775	32917	
355	0	32730	32757	32789	32763	32836	32748	32775	32938	
356	0	32706	32869	32687	32615	32844	32903	32863	32835	
357	0	32676	32623	32717	32703	32869	32751	33095	32791	
358	0	32623	32854	32605	32743	33007	32711	32845	32679	
359	0	32669	32623	32639	32607	32742	32786	32715	32635	
360	0	32757	32703	32593	32767	32723	32775	32611	32742	
361	0	32823	32706	32567	32739	32695	32671	32818	32754	
362	0	32898	32684	32526	32570	32850	32621	32999	32701	
363	0	32911	32653	32615	32743	32795	32635	32727	32671	
364	0	32932	32683	32551	32679	32923	32581	32706	32506	
365	0	32991	32758	32687	32479	32706	32735	32565	32655	
366	0	32927	32875	32542	32711	32679	32772	32647	32823	
367	0	32900	32683	32645	32597	32839	32762	32791	32743	
368	0	32820	32811	32543	32548	32827	32749	32773	32775	
369	0	32807	32950	32659	32590	32686	32749	32989	32805	
370	0	32780	32845	32505	32683	32751	32775	32799	32719	
371	0	32775	33005	32647	32611	32641	32747	32723	32831	
372	0	32802	32706	32775	32663	32583	32718	32685	32687	
373	0	32763	32839	32663	32647	32582	32756	32765	32775	
374	0	32889	32854	32531	32711	32627	32887	32703	32871	
375	0	32846	32751	32709	32525	32742	32851	32722	32783	
376	0	32775	32851	32691	32687	32667	32803	32707	32839	
377	0	32756	32571	32611	32711	32711	32821	32731	32763	
378	0	32599	32804	32621	32487	32671	32799	32766	32821	
379	0	32723	32613	32471	32681	32829	32759	32709	32804	
380	0	32773	32765	32677	32757	32742	32675	32547	32647	
381	0	32773	32783	32733	32599	32783	32773	32692	32676	
382	0	32799	32583	32805	32823	32751	32823	32810	32701	
383	0	32715	32722	32763	32823	32814	32767	32935	32491	
384	0	32691	32715	32789	32732	32933	32742	32833	32559	
385	0	32714	32807	32692	32775	32902	32727	32709	32539	
386	0	32751	32838	32647	32689	32839	32725	32814	32611	
387	0	32819	32773	32587	32595	32839	32773	32647	32677	
388	0	32736	32949	32582	32758	32787	32767	32852	32655	
389	0	32718	32695	32503	32647	32735	32723	32807	32663	
390	0	32797	32828	32626	32579	32727	32687	32831	32635	
391	0	32679	32852	32497	32727	32843	32743	32745	32759	
392	0	32607	32871	32573	32645	32773	32767	32751	32775	
393	0	32775	32915	32559	32531	32725	32633	32711	32767	
394	0	32737	32803	32590	32635	32717	32609	32631	32738	
395	0	32672	32807	32421	32753	32702	32598	32623	32726	
396	0	32632	32717	32516	32500	32791	32610	32675	32914	
397	0	32708	32861	32447	32658	32679	32647	32679	32859	
398	0	32786	32903	32512	32665	32637	32679	32794	32791	
399	0	32775	32603	32431	32562	32605	32647	32847	32813	
400	0	32886	32775	32599	32758	32754	32647	32852	32935	
401	0	32928	32535	32763	32775	32739	32535	32695	33089	
402	0	32903	32668	32723	32675	32705	32638	32807	33007	
403	0	32887	32559	32708	32751	32846	32695	32791	33019	
404	0	32893	32711	32751	32699	32799	32629	32771	32997	
405	0	32732	32871	32833	32738	32835	32692	32749	32871	
406	0	32713	32559	32647	32668	32827	32658	32673	32911	
407	0	32774	32719	32743	32671	32877	32641	32747	32829	
408	0	32687	32695	32551	32525	32791	32707	32640	32753	
409	0	32645	32775	32623	32721	32799	32798	32708	32870	
410	0	32612	32900	32425	32610	32696	32830	32605	32719	
411	0	32714	32641	32583	32591	32690	32791	32669	32621	
412	0	32644	32751	32543	32665	32845	32667	32681	32633	
413	0	32685	32619	32626	32733	32686	32775	32685	32547	
414	0	32576	32839	32669	32471	32711	32813	32735	32621	
415	0	32679	32799	32711	32644	32711	32918	32711	32439	
416	0	32698	32729	32743	32647	32821	32903	32858	32479	
417	0	32668	32935	32663	32615	32693	32775	32895	32495	
418	0	32732	32898	32639	32623	32767	32723	32874	32356	
419	0	32712	32935	32639	32592	32775	32749	32875	32468	
420	0	32743	32711	32681	32631	32765	32702	32775	32503	
421	0	32903	32775	32676	32553	32631	32695	32838	32511	
422	0	33020	32662	32663	32722	32687	32628	32799	32694	
423	0	33041	32711	32551	32767	32903	32555	32703	32710	
424	0	32985	32794	32709	32591	32735	32668	32540	32705	
425	0	32935	32495	32727	32805	32743	32710	32589	32724	
426	0	32861	32645	32731	32699	32757	32790	32767	32756	
427	0	32831	32639	32762	32721	32811	32749	32724	32979	
428	0	32837	32762	32543	32687	32911	32575	33043	32787	
429	0	32721	32873	32630	32719	32934	32634	32807	32919	
430	0	32724	32698	32492	32694	32883	32669	32796	32941	
431	0	32691	32834	32646	32495	32902	32751	32811	32909	
432	0	32639	32767	32750	32667	32915	32771	32769	32875	
433	0	32537	32871	32631	32662	32875	32767	32687	32775	
434	0	32599	32863	32670	32553	32975	32730	32622	32566	
435	0	32647	32839	32423	32731	32831	32738	32540	32516	
436	0	32643	32975	32543	32621	32823	32575	32685	32503	
437	0	32749	32787	32423	32647	32774	32647	32627	32572	
438	0	32775	32898	32581	32566	32615	32715	32555	32555	
439	0	32804	32621	32599	32709	32642	32667	32595	32475	
440	0	32862	32775	32723	32802	32607	32735	32497	32628	
441	0	32892	32594	32755	32629	32543	32727	32775	32644	
442	0	32927	32671	32679	32628	32839	32635	33030	32461	
443	0	32900	32791	32615	32659	32947	32609	33059	32613	
444	0	32823	32745	32730	32791	32871	32759	32851	32695	
445	0	32807	32771	32773	32647	32762	32727	32647	32595	
446	0	32793	32661	32675	32788	32837	32698	32671	32757	
447	0	32769	32770	32711	32843	32796	32715	32679	32775	
448	0	32738	32838	32660	32825	32745	32703	32815	32678	
449	0	32693	32790	32695	32647	32742	32726	32783	32823	
450	0	32547	32899	32604	32743	32711	32787	32603	32721	
451	0	32570	32876	32613	32683	32839	32751	32623	32839	
452	0	32679	32935	32763	32661	32931	32711	32931	32767	
453	0	32696	32691	32630	32609	33003	32637	33076	32679	
454	0	32690	32903	32637	32471	32817	32599	33066	32743	
455	0	32735	32802	32587	32647	32790	32602	33091	32623	
456	0	32687	32895	32719	32661	32743	32626	32773	32775	
457	0	32615	32734	32519	32477	32723	32731	32775	32682	
458	0	32724	32861	32647	32666	32623	32735	32602	32841	
459	0	32734	32804	32511	32621	32647	32679	32679	32851	
460	0	32780	32815	32607	32517	32647	32671	32629	32723	
461	0	32765	32767	32629	32663	32731	32547	32682	32507	
462	0	32873	32705	32741	32723	32671	32585	32501	32609	
463	0	32863	32732	32751	32690	32743	32757	32535	32982	
464	0	32823	32719	32594	32743	32927	32754	32543	32917	
465	0	32839	32815	32602	32637	32900	32731	32671	32871	
466	0	32765	32670	32571	32749	32883	32757	32670	32639	
467	0	32724	32722	32581	32703	32815	32751	32599	32647	
468	0	32709	32687	32493	32834	32791	32811	32710	32701	
469	0	32795	32775	32561	32677	32623	32845	32587	32559	
470	0	32692	32710	32491	32721	32615	32775	32711	32646	
471	0	32705	32851	32646	32668	32647	32685	32811	32748	
472	0	32732	32919	32495	32538	32849	32647	32818	32679	
473	0	32675	32635	32626	32690	32823	32714	32775	32893	
474	0	32802	32900	32535	32623	32810	32693	32582	32839	
475	0	32759	32711	32638	32479	32875	32751	32575	32846	
476	0	32742	32762	32679	32630	32532	32835	32445	32854	
477	0	32656	32624	32729	32612	32775	32562	33109	32595	
478	0	32702	32749	32775	32604	32955	32551	32927	32577	
479	0	32758	32627	32569	32647	32823	32634	32647	32578	
480	0	32728	32743	32709	32494	32804	32719	32606	32614	
481	0	32704	32494	32831	32597	32757	32567	32647	32491	
482	0	32766	32751	32679	32559	32558	32734	32775	32689	
483	0	32775	32581	32715	32659	32614	32771	32814	32759	
484	0	32743	32695	32589	32674	32727	32661	32751	32662	
485	0	32800	32742	32729	32507	32855	32679	32917	32723	
486	0	32780	32883	32812	32699	32787	32722	32863	32642	
487	0	32796	32903	32583	32741	32903	32791	33047	32626	
488	0	32823	32823	32583	32519	33079	32759	32865	32703	
489	0	32826	32851	32487	32679	32834	32862	32719	32713	
490	0	32775	32826	32570	32671	32843	32902	32847	32923	
491	0	32760	32979	32463	32493	32826	32887	32815	32949	
492	0	32673	33023	32543	32632	32798	32827	32735	32767	
493	0	32685	32743	32471	32627	32622	32866	32511	32999	
494	0	32786	32879	32597	32733	32706	32815	32462	32917	
495	0	32868	32711	32647	32767	32702	32685	32468	32673	
496	0	32804	32895	32458	32711	32673	32803	32583	32722	
497	0	32695	32623	32576	32557	32724	32775	32559	32583	
498	0	32749	32819	32644	32727	32639	32691	32655	32660	
499	0	32753	32551	32647	32727	32743	32726	32837	32644	
500	0	32805	32711	32687	32615	32750	32623	32603	32727	
501	0	32831	32581	32738	32807	32642	32693	32630	32711	
502	0	32846	32711	32698	32775	32847	32564	32611	32603	
503	0	32764	32788	32603	32531	32825	32681	32787	32679	
504	0	32769	32601	32775	32666	32791	32519	32690	32743	
505	0	32836	32755	32757	32775	32846	32567	32599	32722	
506	0	32913	32790	32767	32717	32769	32739	32812	32775	
507	0	32761	32551	32718	32711	32751	32814	32795	32681	
508	0	32818	32699	32600	32601	32709	32775	32839	32559	
509	0	32775	32831	32731	32775	32781	32827	32895	32487	
510	0	32782	32687	32635	32703	32735	32871	32827	32567	
511	0	32711	32831	32646	32771	32751	32683	32710	32635	
512	0	32683	32839	32559	32519	32687	32836	32687	32623	
513	0	32796	32815	32633	32682	32862	32715	32871	32591	
514	0	32687	32919	32662	32669	32899	32639	32791	32609	
515	0	32637	32711	32635	32589	32815	32551	32860	32535	
516	0	32615	32799	32731	32662	32727	32692	32815	32679	
517	0	32576	32815	32669	32694	32786	32629	32943	32690	
518	0	32617	32893	32715	32687	32707	32703	32860	32869	
519	0	32615	32940	32667	32567	32671	32615	32855	32810	
520	0	32733	32677	32727	32623	32775	32647	32901	32815	
521	0	32844	32723	32708	32729	32831	32581	32846	32671	
522	0	32813	32759	32751	32807	32839	32638	32751	32883	
523	0	32832	32775	32720	32623	32775	32717	32877	32795	
524	0	32854	32903	32769	32771	32915	32629	32827	32627	
525	0	32775	32671	32663	32711	32854	32786	32613	32875	
526	0	32832	32953	32612	32679	32796	32835	32631	32842	
527	0	32818	32847	32535	32706	32706	32718	32559	32834	
528	0	32823	32954	32609	32740	32733	32647	32687	32583	
529	0	32797	32727	32566	32566	32742	32582	32695	32676	
530	0	32778	32783	32578	32723	32715	32647	32668	32703	
531	0	32796	32727	32498	32713	32738	32695	32683	32510	
532	0	32740	32763	32558	32679	32797	32767	32607	32573	
533	0	32642	32757	32503	32591	32698	32903	32743	32615	
534	0	32654	32627	32604	32642	32791	32818	32809	32581	
535	0	32692	32763	32598	32701	32725	32845	32815	32749	
536	0	32732	32853	32775	32547	32799	32801	32757	32715	
537	0	32742	32819	32688	32695	32751	32775	32624	32843	
538	0	32772	32851	32732	32628	32831	32725	32711	32769	
539	0	32806	32679	32877	32646	32775	32615	32859	32662	
540	0	32849	32794	32818	32612	32879	32686	32685	32961	
541	0	32885	32903	32871	32703	32873	32647	32693	32971	
542	0	32926	32628	32706	32699	32903	32655	32598	32809	
543	0	32964	32875	32803	32679	32839	32747	32623	32875	
544	0	32916	32613	32647	32653	32947	32654	32741	32749	
545	0	32924	32818	32686	32575	32892	32595	32703	32809	
546	0	32884	32621	32628	32684	32875	32626	32775	32663	
547	0	32816	32767	32515	32641	32738	32628	32796	32667	
548	0	32799	32559	32687	32738	32607	32663	32831	32597	
549	0	32810	32897	32671	32647	32627	32706	32962	32658	
550	0	32751	32595	32543	32493	32679	32771	32900	32623	
551	0	32690	32795	32643	32661	32671	32759	32727	32635	
552	0	32694	32795	32587	32471	32681	32702	32861	32615	
553	0	32659	32870	32647	32598	32740	32694	32869	32563	
554	0	32655	33055	32711	32439	32917	32775	32699	32615	
555	0	32600	32747	32605	32643	32765	32839	32734	32634	
556	0	32577	32831	32647	32609	32791	32851	32670	32725	
557	0	32659	32831	32615	32663	32723	32743	32670	32725	
558	0	32669	32811	32647	32543	32748	32729	32647	32655	
559	0	32825	32847	32596	32701	32739	32685	32827	32817	
560	0	32837	32612	32687	32723	32839	32699	32843	32710	
561	0	32788	32767	32734	32535	32704	32743	32989	32570	
562	0	32884	32596	32775	32805	32879	32669	32839	32627	
563	0	32871	32695	32791	32855	32838	32635	32605	32552	
564	0	32966	32735	32827	32835	32827	32598	32661	32764	
565	0	32951	32525	32711	32615	32707	32619	32766	32879	
566	0	32918	32767	32772	32795	32690	32755	32628	32892	
567	0	32829	32503	32741	32724	32769	32607	32607	32735	
568	0	32752	32677	32746	32613	32923	32614	32883	32660	
569	0	32695	32563	32524	32727	32770	32639	32775	32550	
570	0	32578	32700	32621	32655	32753	32621	32743	32630	
571	0	32603	32668	32589	32485	32835	32679	32707	32599	
572	0	32578	32703	32630	32731	32703	32783	32362	32720	
573	0	32617	32823	32595	32703	32823	32747	32499	32786	
574	0	32646	32655	32635	32671	32754	32735	32676	32843	
575	0	32681	32679	32559	32551	32571	32839	32919	32974	
576	0	32720	32677	32690	32647	32597	32983	32718	33042	
577	0	32832	32775	32711	32453	32767	32887	32617	32991	
578	0	32871	32747	32583	32570	32477	32942	32733	32743	
579	0	33003	32509	32687	32638	32591	32855	32941	32807	
580	0	33158	32580	32715	32595	32775	32798	32867	32790	
581	0	33191	32504	32762	32615	32957	32709	32971	32667	
582	0	33199	32543	32542	32707	32822	32663	32787	32807	
583	0	33142	32727	32658	32855	32850	32663	32543	32881	
584	0	33190	32611	32551	32754	32807	32787	32527	32887	
585	0	33228	32753	32623	32773	32804	32887	32553	32829	
586	0	33153	32583	32721	32748	32806	32811	32591	32647	
587	0	33086	32799	32633	32807	32711	32807	32516	32647	
588	0	32983	32695	32617	32814	32847	32727	32989	32527	
589	0	33055	32759	32516	32647	32937	32579	33159	32639	
590	0	33006	32775	32466	32775	32901	32563	33143	32623	
591	0	32996	32695	32525	32767	32751	32639	32999	32634	
592	0	33154	32693	32595	32571	32707	32822	32667	32703	
593	0	33250	32479	32615	32655	32759	32775	32615	32691	
594	0	33329	32647	32575	32726	32694	32765	32495	32735	
595	0	33387	32494	32453	32527	32767	32771	32692	32647	
596	0	33317	32575	32574	32647	32698	32826	32637	32567	
597	0	33170	32735	32534	32683	32757	32770	32771	32575	
598	0	32998	32615	32603	32669	32698	32807	32615	32647	
599	0	32930	32883	32534	32703	32683	32794	32559	32837	
600	0	32668	32995	32559	32711	32691	32832	32786	32791	
601	0	32157	33388	32499	32839	32799	32675	32983	32611	
602	0	31737	33709	32579	32575	32893	32527	32903	32595	
603	0	31469	33547	32551	32756	32835	32615	32877	32575	
604	0	31309	33758	32659	32827	32699	32581	32683	32543	
605	0	30957	33943	32671	32659	32684	32599	32751	32647	
606	0	30879	34019	32655	32815	32775	32590	32903	32553	
607	0	30962	34105	32423	32763	32855	32538	32877	32491	
608	0	31199	33819	32647	32821	32943	32565	32966	32613	
609	0	31436	33655	32825	32687	32897	32647	32903	32557	
610	0	31862	33391	32740	32643	32846	32629	32903	32623	
611	0	31994	33342	32749	32497	32915	32578	33035	32418	
612	0	31965	33189	32740	32567	32897	32513	33127	32429	
613	0	31808	33110	32845	32543	32955	32511	33057	32339	
614	0	31686	33202	32941	32425	32899	32513	33139	32181	
615	0	31535	32955	32935	32367	33045	32407	33263	32311	
616	0	31431	32939	32922	32404	32991	32413	33270	32315	
617	0	31495	32919	32887	32423	33092	32420	33063	32219	
618	0	31730	32526	32917	32334	32903	32469	33143	32367	
619	0	32122	32501	32820	32491	32903	32639	32979	32305	
620	0	32396	32255	33019	32505	32858	32627	33541	32405	
621	0	32609	32303	32865	32511	33031	32631	33079	32677	
622	0	32797	32423	33029	32711	32758	32795	32809	32759	
623	0	33022	32255	32851	32677	32961	32851	32775	33025	
624	0	33182	32323	32839	32495	32759	32846	32647	32951	
625	0	33213	32374	32607	32639	32740	32894	32767	32869	
626	0	33422	32063	32698	32696	32621	32946	32791	33015	
627	0	33607	32181	32567	32615	32587	33001	32525	32952	
628	0	33788	32231	32647	32668	32421	33003	32482	33046	
629	0	33933	32151	32639	32711	32454	32959	32412	33055	
630	0	33980	32103	32497	32694	32444	32961	32386	33043	
631	0	34164	31987	32477	32727	32621	33015	32374	33245	
632	0	34299	32151	32310	32717	32532	32927	32047	33141	
633	0	34368	32293	32511	32642	32669	32949	32131	32903	
634	0	34299	32243	32501	32773	32733	32935	32111	32873	
635	0	34212	32390	32363	32695	32583	33015	32336	32775	
636	0	34006	32254	32553	32594	32381	32993	32318	32925	
637	0	33981	32295	32705	32702	32709	32687	32871	32793	
638	0	33759	32303	32611	32775	33165	32611	32935	32757	
639	0	33588	32278	32775	32791	33051	32690	32703	32883	
640	0	33599	32413	32703	32681	32815	32694	32502	32919	
641	0	33539	32549	32619	32831	32731	32813	32469	33059	
642	0	33388	32573	32483	32750	32655	32763	32391	32927	
643	0	33270	32647	32551	32918	32583	32707	32598	32847	
644	0	33175	32375	32751	32927	32623	32799	32549	32948	
645	0	33089	32666	32698	32738	32634	32754	32485	32767	
646	0	32980	32732	32756	32730	32767	32743	32655	32783	
647	0	32898	32820	32631	32735	32695	32749	32518	32877	
648	0	32811	32879	32743	32691	32759	32831	32607	32767	
649	0	32655	32855	32603	32775	32630	32935	32676	32731	
650	0	32583	32951	32615	32639	32642	32837	32567	32731	
651	0	32481	32755	32525	32454	32639	32743	32713	32903	
652	0	32490	32951	32623	32639	32580	32771	32743	32967	
653	0	32488	32807	32639	32684	32797	32714	32839	32861	
654	0	32515	32943	32553	32529	32855	32679	32671	32853	
655	0	32522	32951	32669	32647	32804	32665	32677	32831	
656	0	32483	32903	32471	32679	32749	32682	32579	32719	
657	0	32446	32967	32527	32663	32747	32709	32699	32839	
658	0	32521	32938	32427	32590	32759	32703	32903	32727	
659	0	32556	32903	32578	32676	32763	32671	32807	32487	
660	0	32551	32877	32631	32614	32678	32735	32775	32677	
661	0	32549	32807	32666	32654	32695	32715	32846	32637	
662	0	32621	32971	32551	32494	32783	32679	32727	32579	
663	0	32705	32719	32717	32695	32838	32682	32867	32579	
664	0	32623	32931	32639	32685	32902	32675	32903	32422	
665	0	32626	32935	32717	32466	32873	32594	32723	32515	
666	0	32589	32903	32751	32668	32948	32519	32895	32455	
667	0	32607	32959	32509	32711	33019	32534	32875	32373	
668	0	32603	32863	32615	32679	32799	32663	32755	32620	
669	0	32576	32941	32751	32635	32821	32749	32767	32647	
670	0	32551	32733	32477	32607	32822	32748	32707	32735	
671	0	32571	32935	32659	32673	32814	32621	32668	32518	
672	0	32504	32820	32751	32630	32763	32551	32527	32542	
673	0	32592	32935	32647	32619	32759	32619	32621	32450	
674	0	32584	32999	32642	32687	32707	32759	32598	32562	
675	0	32630	32705	32455	32719	32615	32821	32464	32607	
676	0	32628	32933	32571	32587	32557	32771	32565	32613	
677	0	32647	32635	32607	32666	32702	32833	32639	32783	
678	0	32619	32801	32327	32487	32791	32739	32775	32676	
679	0	32642	32742	32571	32685	32727	32751	32742	32943	
680	0	32687	32755	32617	32617	32695	32775	32842	32658	
681	0	32852	32583	32450	32757	32796	32728	32959	32743	
682	0	32815	32773	32658	32782	32719	32654	32903	32787	
683	0	32767	32773	32717	32607	32830	32630	32873	32847	
684	0	32703	32623	32591	32770	32852	32540	32791	32775	
685	0	32815	32775	32722	32687	32921	32628	32935	32853	
686	0	32783	32763	32575	32736	32775	32633	32903	32805	
687	0	32755	32903	32759	32626	32901	32671	32799	32852	
688	0	32750	32845	32623	32709	32890	32658	32998	32850	
689	0	32652	32955	32759	32685	32967	32611	32895	32815	
690	0	32545	32859	32623	32598	32821	32749	32755	32670	
691	0	32543	32935	32647	32611	32892	32671	32933	32615	
692	0	32511	32798	32695	32642	32859	32717	32751	32628	
693	0	32564	32831	32567	32493	32861	32683	32951	32604	
694	0	32579	32647	32673	32587	32866	32739	32796	32487	
695	0	32637	32734	32775	32615	32805	32731	32735	32447	
696	0	32647	32703	32623	32535	32703	32739	32847	32391	
697	0	32551	32663	32703	32715	32871	32657	32758	32609	
698	0	32701	32867	32639	32715	32911	32590	32614	32638	
699	0	32807	32723	32631	32653	32759	32706	32563	32823	
700	0	32941	32847	32679	32775	32793	32784	32647	32791	
701	0	32892	32831	32775	32837	32667	32807	32647	32775	
702	0	32874	32847	32647	32599	32605	32759	32689	32895	
703	0	32834	32774	32818	32775	32743	32735	32654	32940	
704	0	32802	32694	32607	32743	32726	32742	32815	32855	
705	0	32850	32783	32715	32647	32747	32708	32902	32946	
706	0	32793	32686	32767	32811	32799	32611	32935	32923	
707	0	32784	32807	32711	32747	32691	32683	32804	32911	
708	0	32828	32775	32655	32710	32703	32722	32769	32811	
709	0	32699	32797	32647	32671	32583	32745	32727	32924	
710	0	32753	32919	32739	32647	32757	32738	32643	32750	
711	0	32700	32691	32565	32739	32587	32903	32527	32692	
712	0	32745	32837	32551	32623	32879	32839	32489	32497	
713	0	32723	32705	32695	32607	32868	32763	32535	32357	
714	0	32760	32879	32774	32747	32658	32770	32605	32511	
715	0	32827	32775	32503	32623	32794	32676	32686	32471	
716	0	32767	32831	32647	32817	32658	32703	32663	32561	
717	0	32743	32901	32717	32775	32742	32799	32681	32501	
718	0	32732	32806	32567	32531	32775	32790	32826	32655	
719	0	32767	32898	32579	32674	32902	32607	32875	32514	
720	0	32807	32723	32615	32669	32855	32687	32847	32679	
721	0	32833	32845	32771	32643	32773	32691	32727	32658	
722	0	32844	32663	32826	32679	32733	32747	32833	32647	
723	0	32764	32695	32735	32535	32655	32711	32989	32671	
724	0	32770	32535	32823	32602	32897	32663	32839	32621	
725	0	32839	32847	32509	32603	32997	32635	32903	32714	
726	0	32780	32679	32529	32423	32875	32615	32713	32739	
727	0	32832	32823	32583	32711	32709	32631	32851	32903	
728	0	32775	32927	32502	32639	32839	32610	32869	32854	
729	0	32773	32875	32623	32637	32767	32647	32831	32733	
730	0	32756	32947	32621	32380	32735	32621	32887	32795	
731	0	32708	32647	32567	32540	32674	32635	32845	32635	
732	0	32708	32859	32509	32599	32763	32741	32695	32735	
733	0	32724	32671	32547	32546	32735	32739	32839	32754	
734	0	32764	32711	32746	32663	32763	32807	32855	32663	
735	0	32815	32749	32663	32673	32705	32795	32807	32807	
736	0	32884	32845	32727	32753	32919	32771	32827	32791	
737	0	32687	32887	32573	32679	32903	32587	32876	32734	
738	0	32713	32767	32663	32559	32843	32631	32916	32612	
739	0	32876	32813	32659	32753	32873	32715	32853	32711	
740	0	32813	32837	32531	32873	32801	32685	32946	32659	
741	0	32817	32775	32638	32683	32727	32757	33025	32701	
742	0	32870	32647	32627	32843	32684	32775	33055	32735	
743	0	32828	32727	32755	32877	32737	32725	32862	32655	
744	0	32844	32669	32658	32663	32733	32727	32551	32747	
745	0	32826	32770	32727	32763	32726	32653	32519	32732	
746	0	32789	32797	32734	32821	32646	32703	32565	32810	
747	0	32677	32775	32612	32635	32758	32763	32635	32749	
748	0	32754	32743	32634	32807	32767	32748	32647	32831	
749	0	32679	32675	32537	32749	32863	32721	32695	32923	
750	0	32637	32839	32612	32529	32769	32751	32678	32775	
751	0	32659	32767	32766	32639	32817	32783	32481	32919	
752	0	32660	32893	32717	32671	32813	32849	32629	32708	
753	0	32679	32895	32795	32565	32787	32799	32683	32751	
754	0	32767	32703	32647	32599	32789	32743	32755	32708	
755	0	32781	32827	32679	32524	32857	32647	32898	32599	
756	0	32759	32751	32797	32591	32915	32723	32847	32699	
757	0	32749	32861	32725	32499	32632	32751	32839	32604	
758	0	32730	32751	32615	32431	32721	32679	32647	32615	
759	0	32781	32802	32675	32647	32573	32851	32534	32515	
760	0	32870	32831	32730	32675	32510	32855	32454	32675	
761	0	32832	32775	32706	32647	32623	32657	32631	32694	
762	0	32805	32775	32759	32647	32877	32675	32815	32855	
763	0	32801	32927	32621	32743	33071	32559	32815	32917	
764	0	32820	32669	32647	32775	32949	32564	32759	32847	
765	0	32853	32749	32439	32819	32983	32519	32847	32767	
766	0	32860	32711	32407	32850	32689	32662	32823	32685	
767	0	32818	32626	32461	32715	32653	32860	32707	32591	
768	0	32744	32712	32596	32843	32642	32855	32677	32687	
769	0	32784	32543	32611	32758	32741	32852	32694	32689	
770	0	32662	32767	32630	32767	32729	32753	32707	32711	
771	0	32609	32807	32508	32572	32699	32767	32519	32799	
772	0	32678	32815	32623	32703	32663	32799	32421	32707	
773	0	32687	32871	32487	32660	32748	32731	32591	32711	
774	0	32674	32658	32596	32495	32738	32754	32647	32559	
775	0	32695	32803	32662	32615	32719	32643	32647	32518	
776	0	32659	32747	32669	32615	32598	32663	32711	32735	
777	0	32554	32873	32674	32370	32631	32647	32631	32507	
778	0	32620	32735	32612	32605	32695	32671	32827	32588	
779	0	32802	32775	32702	32623	33021	32503	32833	32510	
780	0	32766	32947	32695	32695	32864	32547	32477	32743	
781	0	32831	32621	32733	32644	32771	32708	32599	32862	
782	0	32817	32679	32739	32695	32647	32679	32791	32759	
783	0	32914	32822	32766	32647	32733	32655	33046	32724	
784	0	32927	32797	32587	32677	32727	32578	33127	32594	
785	0	32896	32847	32675	32644	32943	32613	32826	32715	
786	0	32785	32599	32573	32805	32771	32623	32709	32711	
787	0	32788	32729	32718	32727	32931	32644	32775	32533	
788	0	32834	32663	32555	32623	32846	32639	32646	32611	
789	0	32750	32767	32685	32762	32743	32806	32481	32663	
790	0	32724	32831	32617	32702	32654	32929	32551	32798	
791	0	32696	32835	32617	32587	32805	32823	33021	32726	
792	0	32676	32807	32607	32699	33111	32567	33395	32711	
793	0	32655	32835	32745	32671	33011	32621	33137	32784	
794	0	32705	32931	32643	32530	32819	32719	32862	32719	
795	0	32653	32647	32687	32631	32727	32807	32745	32767	
796	0	32588	32766	32551	32695	32810	32786	32738	32615	
797	0	32562	32743	32587	32471	32759	32851	32707	32698	
798	0	32549	32826	32500	32679	32710	32815	32721	32749	
799	0	32726	32903	32635	32607	32671	32807	32758	32661	
800	0	32676	32755	32610	32639	32629	32787	32762	32663	
801	0	32708	32818	32692	32511	32647	32767	32498	32743	
802	0	32748	32735	32559	32709	32679	32806	32643	32686	
803	0	32857	32621	32685	32759	32647	32843	32631	32759	
804	0	32807	32783	32639	32575	32747	32871	32629	32675	
805	0	32775	32843	32708	32719	32740	32869	32833	32718	
806	0	32742	32630	32492	32709	32831	32799	32743	32675	
807	0	32774	32797	32629	32544	32790	32743	32603	32591	
808	0	32797	32853	32607	32721	32775	32693	32775	32771	
809	0	32722	32787	32623	32685	32647	32595	32775	32599	
810	0	32642	32891	32526	32583	32591	32675	32867	32670	
811	0	32669	32755	32559	32751	32711	32700	32861	32673	
812	0	32699	32871	32481	32719	32871	32551	32719	32647	
813	0	32728	32705	32679	32625	32762	32603	32723	32847	
814	0	32867	32786	32702	32703	32731	32669	32692	32852	
815	0	32799	32660	32582	32557	32943	32604	32885	33007	
816	0	32871	32775	32626	32597	32854	32583	32617	32831	
817	0	32737	32699	32455	32487	32823	32671	32551	32806	
818	0	32645	32895	32611	32667	32775	32791	32663	32796	
819	0	32773	32847	32683	32719	32887	32770	32765	32775	
820	0	32796	32831	32815	32590	32853	32798	32806	32715	
821	0	32799	32855	32708	32756	32847	32775	32747	32590	
822	0	32820	32647	32756	32835	32823	32735	32886	32634	
823	0	32844	32701	32775	32527	32807	32551	32883	32581	
824	0	32799	32735	32701	32725	32668	32679	32823	32578	
825	0	32863	32687	32647	32796	32660	32671	32766	32681	
826	0	32722	32852	32582	32555	32855	32619	32731	32663	
827	0	32756	32751	32654	32635	32837	32691	32775	32754	
828	0	32759	32852	32605	32519	32835	32679	32615	32698	
829	0	32711	32637	32705	32718	32751	32804	32667	32758	
830	0	32680	32795	32605	32647	32855	32749	32641	32638	
831	0	32726	32732	32675	32519	32891	32655	32775	32687	
832	0	32732	32773	32391	32721	32757	32827	32827	32683	
833	0	32751	32865	32535	32727	32807	32827	32794	32830	
834	0	32792	32759	32367	32647	32775	32733	32787	32789	
835	0	32690	32831	32583	32644	32723	32761	32492	32747	
836	0	32708	32663	32501	32615	32759	32767	32663	32683	
837	0	32722	32742	32619	32659	32723	32867	32647	32629	
838	0	32735	32845	32705	32679	32683	32863	32823	32694	
839	0	32600	32655	32711	32749	32735	32749	32787	32663	
840	0	32731	32774	32775	32567	32773	32743	32819	32759	
841	0	32827	32831	32726	32617	32941	32634	32790	33023	
842	0	32879	32567	32806	32671	32966	32679	32851	32871	
843	0	32866	32815	32642	32647	32831	32647	32759	32790	
844	0	32870	32775	32803	32787	32671	32739	32748	32690	
845	0	32794	32891	32759	32603	32796	32634	32671	32703	
846	0	32759	32783	32607	32667	32867	32621	32903	32540	
847	0	32751	32859	32627	32684	32839	32547	33096	32687	
848	0	32728	32607	32612	32579	32797	32484	33116	32634	
849	0	32743	32815	32674	32725	32719	32518	32994	32542	
850	0	32635	32641	32647	32556	32703	32739	32647	32767	
851	0	32619	32751	32589	32719	32539	32790	32574	32711	
852	0	32647	32799	32733	32735	32686	32743	32615	32727	
853	0	32647	32823	32628	32551	32717	32612	32791	32609	
854	0	32703	32839	32716	32711	32903	32711	32626	32591	
855	0	32724	32775	32714	32663	32950	32583	32817	32671	
856	0	32710	32891	32487	32579	32819	32687	32505	32631	
857	0	32647	32854	32620	32583	32775	32743	32663	32647	
858	0	32726	32831	32722	32519	32946	32711	32843	32525	
859	0	32707	32647	32625	32671	32863	32807	32815	32603	
860	0	32759	32771	32647	32683	32723	32815	32841	32691	
861	0	32914	32743	32522	32589	32725	32839	32594	32753	
862	0	32846	32749	32642	32555	32631	32917	32526	32839	
863	0	32863	32763	32503	32674	32706	32919	32499	32697	
864	0	32802	32595	32647	32615	32775	32735	32791	32516	
865	0	32826	32679	32727	32566	32735	32647	32709	32537	
866	0	32852	32539	32545	32644	32827	32706	32525	32543	
867	0	32710	32795	32623	32547	32839	32719	32759	32711	
868	0	32658	32743	32557	32685	32747	32791	32748	32639	
869	0	32687	32873	32647	32727	32716	32709	32999	32807	
870	0	32756	32903	32765	32607	32855	32615	32955	32896	
871	0	32757	32682	32694	32815	32756	32695	32895	32791	
872	0	32632	32806	32719	32711	32751	32707	32879	32942	
873	0	32674	32731	32493	32557	32687	32735	32719	32791	
874	0	32751	32845	32723	32699	32699	32606	32835	32831	
875	0	32730	32695	32731	32557	32696	32695	32679	32755	
876	0	32667	32839	32543	32679	32621	32743	32639	32959	
877	0	32647	32666	32629	32498	32749	32734	32710	32871	
878	0	32729	32903	32639	32655	32871	32557	32831	32971	
879	0	32852	32671	32589	32702	32807	32610	32799	32717	
880	0	32852	32759	32711	32564	32661	32771	32871	32595	
881	0	32856	32771	32641	32726	32586	32918	32755	32445	
882	0	32903	32775	32717	32557	32743	32801	32691	32588	
883	0	32868	32725	32715	32759	32886	32789	32723	32519	
884	0	32850	32703	32644	32815	32783	32668	32775	32580	
885	0	32859	32761	32716	32727	32690	32663	32959	32343	
886	0	32815	32753	32641	32716	32743	32789	33071	32246	
887	0	32829	32757	32583	32527	32671	32854	32708	32565	
888	0	32715	32789	32647	32619	32663	32861	32445	32884	
889	0	32655	32899	32671	32646	32772	32795	32609	32769	
890	0	32673	32655	32583	32617	32887	32823	32613	32716	
891	0	32643	32915	32677	32615	32796	32679	32655	32555	
892	0	32651	32677	32507	32451	32831	32525	32794	32591	
893	0	32743	32791	32643	32581	32923	32577	32747	32505	
894	0	32727	32691	32719	32607	32621	32655	32775	32659	
895	0	32728	32811	32639	32667	32389	32679	32919	32727	
896	0	32728	32839	32575	32655	32763	32559	33117	32893	
897	0	32672	32798	32612	32479	32889	32567	32931	32999	
898	0	32647	32851	32558	32607	32815	32773	32687	33101	
899	0	32784	32621	32563	32711	32719	32677	32628	33113	
900	0	32799	32789	32734	32570	32743	32757	32601	32874	
901	0	32844	32584	32799	32761	32831	32727	32566	32699	
902	0	32874	32723	32726	32807	32859	32685	32699	32687	
903	0	32828	32797	32771	32599	32871	32615	32811	32613	
904	0	32832	32575	32662	32771	32850	32655	32847	32807	
905	0	32807	32815	32669	32627	32795	32598	32855	32727	
906	0	32751	32822	32631	32738	32715	32775	32847	32757	
907	0	32782	32975	32742	32703	32655	32716	32946	32647	
908	0	32854	32943	32742	32799	32838	32757	32938	32726	
909	0	32739	32839	32647	32679	32708	32749	32710	32754	
910	0	32626	32658	32607	32561	32756	32833	32710	32861	
911	0	32619	32940	32736	32775	32791	32791	32706	32858	
912	0	32645	32669	32663	32663	32775	32831	32721	33095	
913	0	32639	32939	32692	32701	32775	32903	32573	32982	
914	0	32735	32587	32489	32686	32711	32828	32839	32746	
915	0	32817	32811	32621	32583	32743	32723	32770	32715	
916	0	32718	32805	32501	32666	32782	32839	32623	32445	
917	0	32671	32903	32673	32575	32715	32869	32518	32475	
918	0	32710	32858	32468	32502	32875	32711	32475	32361	
919	0	32759	32831	32539	32699	32875	32623	32519	32437	
920	0	32892	32799	32612	32683	32975	32593	32558	32478	
921	0	32839	32543	32617	32542	32869	32627	32694	32438	
922	0	32846	32684	32717	32675	32895	32605	32671	32567	
923	0	32810	32671	32617	32691	32759	32572	32815	32583	
924	0	32856	32567	32667	32534	32837	32677	32813	32743	
925	0	32837	32725	32583	32684	32847	32630	32850	32770	
926	0	32813	32766	32691	32721	32835	32646	32699	32835	
927	0	32834	32603	32629	32617	32471	32790	32444	32999	
928	0	32830	32794	32666	32709	32449	32827	32367	33005	
929	0	32725	32753	32506	32757	32749	32591	32811	33095	
930	0	32679	32823	32603	32711	33079	32629	33259	33114	
931	0	32696	32839	32493	32711	32863	32775	32959	32997	
932	0	32733	32751	32647	32722	32807	32855	32932	32933	
933	0	32742	32835	32655	32527	32719	32723	32795	32591	
934	0	32719	32810	32662	32714	32519	32726	32682	32571	
935	0	32745	32903	32671	32639	32661	32662	32692	32435	
936	0	32762	32647	32647	32593	32607	32583	32524	32477	
937	0	32850	32887	32707	32684	32703	32823	32799	32595	
938	0	32818	32711	32547	32655	32657	32927	32653	32691	
939	0	32817	32857	32743	32617	32747	32820	32647	32716	
940	0	32914	32721	32903	32757	32775	32839	32613	32614	
941	0	32817	32775	32703	32787	32801	32764	32681	32643	
942	0	32889	32695	32775	32623	32807	32759	32701	32452	
943	0	32849	32829	32875	32733	32673	32750	32855	32575	
944	0	32719	32795	32715	32719	32759	32869	32911	32548	
945	0	32837	32811	32690	32609	33071	32694	33023	32739	
946	0	32864	32772	32559	32647	33063	32706	32687	32847	
947	0	32892	32743	32679	32723	32933	32799	32636	32626	
948	0	32926	32839	32667	32621	33119	32583	32869	32598	
949	0	32804	32806	32723	32575	33037	32588	32839	32523	
950	0	32586	32885	32631	32477	32867	32679	32679	32679	
951	0	32692	32915	32419	32617	32583	32659	32527	32535	
952	0	32757	32799	32546	32567	32445	32684	32783	32647	
953	0	32759	32830	32679	32668	32552	32747	32687	32787	
954	0	32711	32879	32631	32647	32655	32695	32662	32985	
955	0	32647	32831	32742	32667	32646	32730	32595	33025	
956	0	32654	32926	32574	32673	32815	32645	32658	33113	
957	0	32665	32786	32643	32731	32834	32709	32658	32911	
958	0	32690	32815	32845	32643	32818	32695	32791	32903	
959	0	32698	32834	32727	32775	32615	32703	32771	32743	
960	0	32755	32831	32711	32683	32559	32723	32775	32589	
961	0	32775	32751	32571	32523	32754	32606	32890	32599	
962	0	32826	32739	32487	32631	32903	32687	33055	32549	
963	0	32839	32703	32518	32743	33003	32635	32870	32567	
964	0	32794	32646	32573	32735	32823	32707	32738	32477	
965	0	32815	32749	32725	32699	32771	32709	32759	32550	
966	0	32851	32719	32531	32543	32858	32647	32955	32562	
967	0	32743	32738	32605	32543	32692	32767	32730	32718	
968	0	32709	32751	32535	32534	32723	32646	32683	32749	
969	0	32653	32796	32463	32571	32784	32706	32797	32841	
970	0	32702	32847	32706	32551	32791	32679	32738	32775	
971	0	32668	32767	32531	32597	32851	32731	32663	32739	
972	0	32676	32791	32615	32723	32858	32734	32703	32794	
973	0	32681	32806	32709	32647	32831	32742	32733	32743	
974	0	32742	32829	32603	32745	32749	32628	32726	32749	
975	0	32751	32796	32514	32727	32646	32679	32742	32638	
976	0	32626	32823	32575	32525	32679	32687	32726	32611	
977	0	32719	32725	32599	32447	32687	32751	32699	32595	
978	0	32751	32719	32626	32517	32681	32647	32731	32583	
979	0	32726	32713	32699	32734	32711	32775	32769	32687	
980	0	32746	32692	32742	32761	32757	32723	32647	32794	
981	0	32775	32715	32827	32735	32733	32835	32575	32743	
982	0	32862	32685	32647	32739	32895	32679	32675	32707	
983	0	32838	32583	32685	32711	32999	32543	32884	32647	
984	0	32822	32515	32815	32836	32967	32595	32910	32623	
985	0	32826	32615	32709	32589	32894	32595	32732	32642	
986	0	32706	32791	32775	32551	32793	32622	32636	32719	
987	0	32683	32647	32711	32671	32614	32671	32786	32701	
988	0	32764	32646	32639	32775	32679	32635	32864	32775	
989	0	32730	32781	32677	32735	32647	32607	32835	32793	
990	0	32704	32775	32643	32773	32671	32775	32751	33015	
991	0	32767	32791	32639	32575	32543	32743	32589	32955	
992	0	32743	32799	32532	32599	32585	32730	32595	32859	
993	0	32679	32951	32631	32655	32683	32717	32643	32837	
994	0	32628	32667	32447	32467	32885	32791	32765	32727	
995	0	32635	32927	32655	32647	32754	32844	32647	32775	
996	0	32584	32639	32470	32659	32747	32767	32639	32699	
997	0	32615	32745	32621	32478	32743	32775	32751	32827	
998	0	32760	32769	32715	32635	32678	32863	32793	32773	
999	0	32711	32687	32734	32673	32855	32671	33031	32591	
1000	0	32770	32741	32747	32679	32923	32679	32951	32745	
1001	0	32853	32535	32747	32630	32919	32679	32891	32751	
1002	0	32856	32647	32643	32801	32959	32661	32897	32606	
1003	0	32824	32823	32750	32717	32987	32711	32775	32835	
1004	0	32829	32713	32834	32599	32875	32735	32631	32757	
1005	0	32892	32755	32719	32775	32818	32742	32791	32615	
1006	0	32914	32655	32727	32732	32795	32810	32850	32695	
1007	0	32902	32679	32559	32601	32751	32775	32858	32621	
1008	0	32867	32791	32573	32727	32673	32839	32871	32775	
1009	0	32804	32819	32507	32775	32765	32841	32655	32780	
1010	0	32790	32828	32511	32515	32631	32855	32858	32675	
1011	0	32710	32775	32658	32729	32727	32863	33047	32727	
1012	0	32756	32853	32705	32695	32703	32749	32957	32655	
1013	0	32756	32887	32689	32483	32806	32733	32743	32695	
1014	0	32803	32806	32532	32631	32709	32731	32628	32662	
1015	0	32775	32903	32671	32607	32619	32796	32759	32632	
1016	0	32617	32647	32678	32566	32875	32671	32786	32773	
1017	0	32629	32879	32631	32551	32871	32634	32827	32646	
1018	0	32694	32743	32647	32583	32966	32691	32791	32687	
1019	0	32775	32807	32711	32583	32847	32639	32690	32675	
1020	0	32818	32871	32718	32685	32937	32615	32765	32589	
1021	0	32857	32646	32647	32839	32821	32498	32737	32738	
1022	0	32867	32731	32726	32581	32807	32613	32614	32723	
1023	0	32916	32849	32563	32823	32687	32647	32775	32854	
1024	0	32852	32622	32679	32702	32735	32726	32654	32933	
1025	0	32811	32727	32594	32775	32831	32662	32681	32775	
1026	0	32775	32847	32674	32533	33031	32635	32811	32879	
1027	0	32793	32769	32727	32719	32845	32671	32575	32828	
1028	0	32782	32866	32695	32553	32810	32854	32588	32923	
1029	0	32683	32555	32663	32677	32813	32833	32499	32823	
1030	0	32847	32845	32499	32751	32719	32949	32559	32813	
1031	0	32718	32647	32620	32553	32775	32847	32713	32671	
1032	0	32754	32867	32607	32764	32631	32951	32660	32725	
1033	0	32735	32861	32658	32791	32813	32791	32679	32917	
1034	0	32737	32878	32698	32639	32647	32704	32933	32679	
1035	0	32716	32903	32527	32599	32555	32802	32903	32587	
1036	0	32717	32643	32610	32695	32742	32647	32876	32247	
1037	0	32698	32871	32594	32487	32864	32548	33060	32263	
1038	0	32685	32747	32669	32647	32739	32619	32991	32431	
1039	0	32658	32859	32695	32599	32611	32633	32719	32583	
1040	0	32678	32695	32553	32815	32646	32611	32420	32711	
1041	0	32786	32839	32749	32797	32534	32647	32261	32681	
1042	0	32783	32859	32615	32756	32573	32621	32749	32807	
1043	0	32755	32751	32694	32833	32613	32775	32659	32787	
1044	0	32822	32845	32645	32829	32735	32675	32807	32962	
1045	0	32817	32809	32615	32762	33001	32707	32647	32827	
1046	0	32810	32802	32743	32766	32838	32771	32519	32757	
1047	0	32771	32572	32726	32583	32818	32710	32583	32523	
1048	0	32747	32771	32573	32692	32895	32806	32767	32507	
1049	0	32663	32588	32700	32566	32876	32738	32771	32399	
1050	0	32583	32826	32599	32628	32915	32735	32831	32558	
1051	0	32603	32647	32439	32610	32903	32868	32687	32691	
1052	0	32694	32742	32556	32499	32823	32767	32738	32935	
1053	0	32647	32799	32405	32587	32923	32679	32663	32874	
1054	0	32650	32802	32530	32583	32796	32730	32713	32751	
1055	0	32661	32931	32411	32507	32749	32708	32773	32845	
1056	0	32599	32690	32606	32644	32495	32755	32823	32574	
1057	0	32570	32903	32607	32461	32547	32849	32791	32631	
1058	0	32647	32683	32513	32723	32583	32823	32607	32631	
1059	0	32715	32755	32541	32791	32559	32859	32733	32543	
1060	0	32774	32691	32502	32551	32762	32739	33013	32659	
1061	0	32842	32711	32671	32674	32982	32543	32911	32601	
1062	0	32932	32767	32763	32818	33086	32535	32682	32903	
1063	0	32898	32592	32634	32623	32959	32485	32773	32884	
1064	0	32879	32835	32711	32707	32943	32635	32831	32861	
1065	0	32742	32599	32567	32695	32734	32719	32602	32687	
1066	0	32868	32799	32765	32739	32527	32801	32809	32652	
1067	0	32852	32647	32731	32738	32903	32435	33317	32535	
1068	0	32865	32815	32637	32559	32899	32470	32975	32647	
1069	0	32769	32921	32783	32709	32791	32589	32775	32793	
1070	0	32716	32611	32609	32674	32638	32743	32583	32759	
1071	0	32686	32895	32699	32505	32647	32725	32707	32807	
1072	0	32647	32669	32838	32523	32733	32775	32766	32743	
1073	0	32710	32823	32791	32375	32847	32615	32948	32875	
1074	0	32738	32643	32739	32655	32975	32599	33054	32707	
1075	0	32728	32775	32639	32663	32785	32710	32834	32722	
1076	0	32749	32867	32629	32495	32695	32767	32733	32617	
1077	0	32719	32845	32518	32671	32546	32727	32679	32562	
1078	0	32792	32831	32676	32740	32551	32765	32767	32747	
1079	0	32808	32623	32519	32583	32607	32804	32759	32619	
1080	0	32798	32751	32735	32726	32759	32758	32818	32789	
1081	0	32838	32631	32623	32788	32743	32765	32839	32861	
1082	0	32941	32637	32695	32551	32926	32693	32774	32831	
1083	0	32896	32787	32684	32758	32791	32639	32739	32810	
1084	0	32863	32694	32766	32749	32839	32674	32638	32655	
1085	0	32806	32821	32783	32687	32787	32711	32875	32759	
1086	0	32709	32750	32587	32738	32760	32606	32799	32647	
1087	0	32813	32951	32685	32566	32965	32700	32758	32754	
1088	0	32821	32783	32724	32647	32841	32669	32733	32763	
1089	0	32748	32967	32604	32639	32877	32627	32758	32822	
1090	0	32678	32903	32615	32671	32775	32773	32737	32726	
1091	0	32590	32903	32605	32621	32647	32811	32601	32530	
1092	0	32607	32679	32559	32475	32743	32775	32563	32739	
1093	0	32630	32975	32495	32580	32702	32822	32495	32731	
1094	0	32810	32829	32607	32590	32771	32787	32487	32839	
1095	0	32765	32887	32557	32683	32971	32839	32455	32743	
1096	0	32695	32583	32378	32703	32823	32924	32515	32929	
1097	0	32700	32835	32560	32627	32802	32869	32391	32818	
1098	0	32750	32583	32711	32755	32706	32887	32478	32855	
1099	0	32803	32671	32691	32707	32643	32799	32562	32791	
1100	0	32844	32791	32639	32831	32735	32647	32590	32791	
1101	0	32783	32691	32559	32870	32789	32662	32671	32719	
1102	0	32866	32854	32739	32623	32783	32773	32475	32623	
1103	0	32807	32583	32601	32815	32530	32803	32508	32707	
1104	0	32856	32735	32721	32775	32455	32819	32576	32559	
1105	0	32814	32751	32615	32551	32647	32695	32747	32647	
1106	0	32784	32727	32635	32739	33133	32615	32963	32526	
1107	0	32761	32903	32736	32640	33099	32647	32758	32517	
1108	0	32742	32719	32531	32575	32759	32679	32887	32542	
1109	0	32643	32894	32679	32591	32913	32559	33263	32399	
1110	0	32524	32827	32493	32591	32942	32691	33271	32481	
1111	0	32662	32941	32595	32677	32797	32708	33094	32485	
1112	0	32631	33004	32515	32631	32890	32775	33027	32692	
1113	0	32610	32724	32595	32546	32760	32867	32999	32705	
1114	0	32685	32859	32680	32641	32690	32782	32772	32835	
1115	0	32686	32759	32757	32439	32718	32647	32863	32694	
1116	0	32743	32911	32566	32583	32723	32797	32783	32726	
1117	0	32718	32727	32742	32599	32605	32835	32751	32799	
1118	0	32695	32811	32739	32595	32635	32683	32639	32807	
1119	0	32783	32837	32771	32658	32887	32573	32860	32839	
1120	0	32900	32791	32787	32670	32751	32605	32766	32790	
1121	0	32974	32822	32679	32711	32715	32593	32689	32763	
1122	0	32962	32739	32751	32786	32730	32671	32712	32611	
1123	0	32937	32799	32697	32659	32811	32671	32690	32751	
1124	0	32948	32775	32783	32742	32943	32679	32731	32703	
1125	0	32735	32827	32887	32681	32837	32701	32673	32702	
1126	0	32857	32644	32627	32615	32847	32631	32751	32662	
1127	0	32773	32867	32750	32740	32828	32611	32711	32535	
1128	0	32754	32804	32783	32615	32689	32734	32759	32635	
1129	0	32677	32887	32487	32671	32676	32699	32571	32761	
1130	0	32709	32839	32583	32647	32615	32775	32670	32670	
1131	0	32767	32885	32387	32685	32647	32708	32659	32551	
1132	0	32775	32643	32501	32654	32639	32599	32743	32582	
1133	0	32669	32877	32437	32463	32633	32659	32804	32577	
1134	0	32744	32566	32583	32647	32773	32747	32657	32638	
1135	0	32682	32831	32527	32621	32689	32735	32638	32643	
1136	0	32582	32635	32421	32703	32765	32711	32571	32711	
1137	0	32612	32797	32547	32629	32825	32615	32643	32743	
1138	0	32673	32703	32725	32527	32783	32623	32703	32758	
1139	0	32704	32775	32662	32730	32815	32583	32836	32731	
1140	0	32739	32725	32748	32673	32935	32638	32743	32911	
1141	0	32854	32715	32559	32735	32821	32780	32903	32854	
1142	0	32850	32743	32678	32732	32919	32741	32775	33037	
1143	0	32852	32603	32502	32605	32827	32743	32737	33051	
1144	0	32803	32764	32639	32719	32803	32714	32755	32878	
1145	0	32847	32847	32583	32754	32749	32733	32694	32895	
1146	0	32775	32799	32764	32719	32788	32847	32663	32732	
1147	0	32797	32781	32787	32583	32829	32831	32895	32711	
1148	0	32730	32655	32715	32710	32947	32843	32629	32925	
1149	0	32676	32775	32676	32682	32914	32749	32590	32735	
1150	0	32710	32903	32703	32529	32869	32725	32475	32903	
1151	0	32590	32679	32666	32507	32726	32645	32743	32687	
1152	0	32687	32889	32671	32612	32623	32743	32775	32438	
1153	0	32734	33011	32766	32694	32647	32735	32562	32525	
1154	0	32622	32759	32632	32524	32805	32655	32391	32583	
1155	0	32655	32945	32634	32743	32635	32647	32607	32607	
1156	0	32671	32815	32571	32803	32685	32647	32956	32571	
1157	0	32750	32852	32731	32677	32695	32591	32917	32595	
1158	0	32636	32883	32733	32627	32747	32647	32639	32695	
1159	0	32780	32847	32810	32839	32507	32815	32903	32609	
1160	0	32845	32575	32640	32823	32663	32732	32879	32642	
1161	0	32870	32723	32775	32660	32682	32723	32772	32759	
1162	0	32927	32626	32850	32775	32853	32718	32755	32643	
1163	0	32930	32775	32858	32827	32711	32775	32775	32805	
1164	0	32966	32751	32821	32655	32767	32759	32743	32837	
1165	0	32893	32568	32803	32793	32756	32725	32813	32679	
1166	0	32902	32831	32608	32663	32785	32750	32687	32747	
1167	0	32870	32631	32639	32743	32972	32884	32885	32647	
1168	0	32813	32759	32559	32709	32939	32890	32738	32735	
1169	0	32738	32617	32635	32633	32735	32853	32795	32583	
1170	0	32645	32787	32783	32642	32582	32875	32869	32647	
1171	0	32674	32869	32647	32642	32695	32703	32663	32639	
1172	0	32695	32694	32547	32437	32846	32703	32695	32647	
1173	0	32677	32783	32601	32619	32927	32674	32762	32703	
1174	0	32726	32747	32557	32742	32769	32647	32893	32803	
1175	0	32728	32822	32631	32707	32867	32687	32966	32786	
1176	0	32743	32726	32662	32679	32775	32819	32903	32876	
1177	0	32723	32730	32428	32450	32918	32775	32807	32791	
1178	0	32860	32743	32571	32633	32727	32785	32598	32890	
1179	0	32939	32599	32445	32605	32823	32822	32614	32870	
1180	0	32807	32722	32558	32615	32783	32833	32615	32871	
1181	0	32818	32733	32477	32599	32783	32794	32611	32851	
1182	0	32887	32591	32647	32739	32623	32700	32690	32709	
1183	0	32897	32742	32607	32634	32657	32619	32903	32669	
1184	0	32879	32799	32813	32721	32727	32551	32930	32646	
1185	0	32840	32728	32743	32639	32791	32517	33055	32677	
1186	0	32769	32867	32676	32711	32964	32511	32991	32775	
1187	0	32735	32615	32770	32530	32823	32703	32633	32707	
1188	0	32733	32847	32647	32659	32727	32751	32683	32614	
1189	0	32703	32691	32675	32545	32711	32766	32503	32701	
1190	0	32686	32903	32582	32659	32765	32663	32562	32626	
1191	0	32729	32673	32663	32718	32507	32807	32339	32667	
1192	0	32686	32867	32691	32561	32658	32775	32863	32586	
1193	0	32677	32715	32535	32613	32942	32660	32967	32643	
1194	0	32727	32871	32623	32621	32738	32679	32941	32549	
1195	0	32613	32714	32515	32621	33065	32675	33051	32595	
1196	0	32612	32871	32679	32627	33079	32527	32871	32559	
1197	0	32607	32767	32658	32475	32959	32621	32831	32571	
1198	0	32645	32775	32525	32655	32742	32645	32519	32645	
1199	0	32743	32797	32774	32703	32667	32644	32583	32606	
1200	0	32785	32759	32739	32559	32631	32791	32510	32580	
1201	0	32900	32791	32591	32694	32541	32846	32548	32503	
1202	0	32876	32741	32690	32731	32529	32759	32455	32647	
1203	0	32829	32815	32754	32847	32597	32708	32571	32564	
1204	0	32879	32746	32551	32748	33015	32410	32977	32655	
1205	0	32820	32915	32589	32570	33101	32433	32844	32735	
1206	0	32877	32735	32681	32791	32850	32647	32751	32850	
1207	0	32717	32851	32579	32901	32751	32703	32743	32994	
1208	0	32647	32615	32609	32678	32786	32775	32775	32999	
1209	0	32621	32850	32491	32766	32683	32847	32742	33127	
1210	0	32682	32707	32602	32621	32711	32784	32884	32978	
1211	0	32676	32911	32740	32773	32815	32734	32719	32900	
1212	0	32739	32615	32561	32732	32703	32903	32902	32637	
1213	0	32756	32743	32690	32535	32809	32851	32934	32749	
1214	0	32738	32685	32455	32647	32663	33026	32726	32721	
1215	0	32658	32863	32559	32487	32563	32891	32632	32669	
1216	0	32728	32679	32660	32686	32631	32741	32856	32557	
1217	0	32771	32916	32503	32599	32743	32740	32892	32519	
1218	0	32836	32855	32723	32642	32738	32711	32802	32479	
1219	0	32847	32735	32742	32573	32703	32765	32617	32513	
1220	0	32834	32727	32775	32711	32951	32655	32838	32543	
1221	0	32786	32581	32621	32595	32847	32747	32702	32631	
1222	0	32786	32775	32775	32775	32725	32759	32581	32775	
1223	0	32837	32745	32764	32743	32801	32642	32737	32709	
1224	0	32812	32895	32826	32790	32758	32699	32667	32743	
1225	0	32816	32699	32485	32742	32914	32689	32784	32806	
1226	0	32813	32771	32647	32711	33027	32699	32839	32767	
1227	0	32769	32757	32678	32747	32763	32749	32861	32647	
1228	0	32802	32807	32614	32566	32715	32621	32786	32737	
1229	0	32718	32773	32580	32663	32757	32765	32630	32615	
1230	0	32684	32658	32770	32562	32759	32687	32663	32662	
1231	0	32807	32679	32516	32613	32590	32756	32564	32743	
1232	0	32832	32551	32679	32527	32578	32706	32605	32883	
1233	0	32876	32564	32743	32733	32562	32799	32615	33015	
1234	0	32911	32474	32555	32749	32703	32852	32823	32943	
1235	0	32976	32742	32711	32663	32786	32919	32876	32919	
1236	0	32941	32535	32623	32675	32623	32797	32715	32749	
1237	0	32932	32903	32505	32532	32702	32717	32674	32839	
1238	0	33069	32688	32510	32668	32824	32566	32751	32639	
1239	0	33135	32759	32703	32719	32863	32599	32613	32605	
1240	0	33185	32559	32565	32763	32827	32555	32647	32769	
1241	0	33187	32725	32579	32724	32695	32771	32611	32667	
1242	0	33183	32669	32719	32733	32725	32663	32729	32519	
1243	0	33216	32683	32519	32631	32819	32751	32685	32527	
1244	0	33240	32626	32595	32743	32722	32775	32575	32546	
1245	0	33287	32507	32570	32691	32694	32815	32435	32775	
1246	0	33384	32475	32672	32599	32637	32718	32833	32822	
1247	0	33446	32453	32623	32658	32847	32550	33117	32823	
1248	0	33455	32481	32343	32611	32991	32647	33084	32758	
1249	0	33389	32594	32559	32751	33031	32631	32948	32751	
1250	0	33170	32583	32549	32655	32865	32758	32671	32787	
1251	0	33137	32735	32443	32511	32678	32719	32627	32723	
1252	0	32874	32869	32613	32695	32588	32703	32709	32837	
1253	0	32579	33147	32647	32687	32607	32679	32719	32721	
1254	0	32123	33351	32389	32775	32686	32564	32601	32807	
1255	0	31668	33645	32534	32813	32677	32661	32713	32747	
1256	0	31378	33531	32434	32659	32739	32685	32815	32671	
1257	0	31188	33823	32507	32741	32743	32668	32916	32562	
1258	0	31010	33874	32495	32831	32751	32641	32957	32338	
1259	0	30956	34037	32599	32647	32873	32614	32791	32500	
1260	0	31015	34097	32671	32831	32831	32613	32834	32511	
1261	0	31198	33919	32482	32687	32859	32566	32565	32647	
1262	0	31469	33671	32629	32807	32869	32621	32775	32627	
1263	0	31766	33587	32715	32803	32971	32655	32916	32463	
1264	0	32027	33281	32707	32591	33018	32545	33119	32548	
1265	0	31968	33238	32726	32598	32863	32603	33327	32431	
1266	0	31847	33298	32647	32494	33009	32573	33260	32475	
1267	0	31751	33069	32868	32561	32991	32518	33135	32359	
1268	0	31609	33119	32879	32503	32903	32507	33082	32391	
1269	0	31542	32731	32767	32293	32911	32555	33215	32295	
1270	0	31586	32847	32962	32421	32890	32595	33159	32364	
1271	0	31762	32579	32939	32372	32828	32595	33275	32407	
1272	0	32075	32566	32823	32468	33159	32515	33548	32367	
1273	0	32299	32257	32977	32407	33055	32591	33321	32479	
1274	0	32524	32327	32959	32407	32834	32771	33200	32509	
1275	0	32775	32411	33018	32467	32831	32871	32887	32971	
1276	0	32829	32215	32876	32615	32771	32807	32775	32891	
1277	0	33074	32391	32903	32545	32813	32735	32847	32767	
1278	0	33216	32357	32802	32591	32773	32713	32833	32639	
1279	0	33418	32247	32911	32543	32695	32793	32525	32854	
1280	0	33671	32167	32655	32597	32679	32775	32517	32835	
1281	0	33927	32143	32710	32702	32655	32738	32440	32991	
1282	0	34014	32117	32525	32615	32626	32726	32545	32965	
1283	0	34290	32014	32583	32714	32635	32807	32381	32871	
1284	0	34439	31886	32549	32820	32525	32898	32228	32893	
1285	0	34452	32085	32577	32727	32573	32903	32377	32765	
1286	0	34439	31967	32623	32858	32583	32903	32263	32911	
1287	0	34411	32198	32510	32921	32509	32950	32251	32829	
1288	0	34273	32171	32538	32762	32636	32858	32426	32661	
1289	0	34036	32285	32493	32991	32737	32831	32479	32852	
1290	0	33766	32413	32604	32831	32613	32873	32299	32981	
1291	0	33750	32285	32510	32927	32503	32993	32261	32909	
1292	0	33557	32433	32656	32711	32595	32967	32359	33058	
1293	0	33467	32483	32583	32838	32583	32925	32468	32991	
1294	0	33338	32493	32622	32825	32877	32854	32573	32951	
1295	0	33278	32530	32601	32559	32818	32748	32615	33059	
1296	0	33053	32483	32613	32713	32831	32731	32519	32978	
1297	0	32947	32663	32578	32723	32578	32799	32551	32970	
1298	0	32903	32767	32623	32575	32583	32742	32551	32941	
1299	0	32919	32653	32443	32773	32543	32725	32818	32735	
1300	0	32822	32785	32623	32756	32799	32669	32814	32737	
1301	0	32826	32613	32571	32669	32706	32647	32745	32755	
1302	0	32787	32807	32610	32702	32797	32758	32706	32703	
1303	0	32770	32732	32378	32701	32739	32745	32593	32743	
1304	0	32635	32829	32647	32623	32801	32803	32485	32677	
1305	0	32615	32943	32761	32711	32663	32834	32594	32799	
1306	0	32562	32735	32713	32699	32679	32775	32699	32747	
1307	0	32571	32989	32741	32657	32932	32679	32967	32567	
1308	0	32532	32775	32525	32671	33103	32635	32996	32791	
1309	0	32519	32908	32596	32647	32787	32593	32775	32731	
1310	0	32559	32775	32742	32491	32730	32742	32759	32807	
1311	0	32567	32978	32518	32575	32623	32795	32578	32719	
1312	0	32516	32887	32607	32443	32589	32881	32599	32913	
1313	0	32494	32879	32505	32592	32669	32781	32683	32862	
1314	0	32451	32932	32642	32638	32751	32583	32791	32775	
1315	0	32453	32983	32565	32695	32893	32512	33090	32841	
1316	0	32477	32839	32637	32694	32789	32702	32995	32799	
1317	0	32447	32983	32547	32679	32739	32699	33004	32722	
1318	0	32473	32831	32614	32711	32775	32676	32982	32633	
1319	0	32571	32961	32665	32575	32868	32625	32911	32711	
1320	0	32641	32719	32567	32647	32813	32620	32679	32885	
1321	0	32668	32895	32796	32547	32755	32679	32767	32677	
1322	0	32598	32719	32823	32742	32771	32543	32782	32623	
1323	0	32671	32788	32639	32662	32839	32539	32850	32639	
1324	0	32631	32751	32735	32743	32962	32547	32773	32877	
1325	0	32568	32867	32663	32784	32869	32687	32818	32751	
1326	0	32604	32941	32597	32595	32820	32687	32775	32711	
1327	0	32644	32804	32663	32659	32902	32647	32957	32499	
1328	0	32545	32879	32738	32711	32915	32631	32941	32439	
1329	0	32564	32773	32647	32615	32950	32675	32603	32571	
1330	0	32548	32874	32743	32718	32834	32759	32671	32535	
1331	0	32679	32864	32602	32551	32715	32815	32655	32563	
1332	0	32630	32876	32743	32659	32647	32706	32771	32508	
1333	0	32720	32939	32764	32771	32695	32676	32583	32595	
1334	0	32700	32887	32501	32639	32757	32756	32711	32702	
1335	0	32669	32982	32614	32639	32815	32732	32836	32735	
1336	0	32724	32859	32457	32619	32782	32775	32763	32915	
1337	0	32700	32946	32591	32671	32694	32811	32775	32783	
1338	0	32640	32641	32707	32639	32830	32711	32771	32727	
1339	0	32712	32865	32507	32511	32711	32617	32835	32597	
1340	0	32807	32579	32638	32743	32767	32703	32673	32615	
1341	0	32845	32761	32775	32641	32775	32775	32818	32332	
1342	0	32903	32611	32731	32831	32711	32833	32754	32399	
1343	0	32815	32765	32726	32809	32829	32835	32769	32468	
1344	0	32812	32743	32557	32591	32698	32767	32737	32642	
1345	0	32807	32747	32601	32839	32647	32765	32615	32647	
1346	0	32793	32727	32670	32783	32609	32775	32595	32634	
1347	0	32773	32646	32647	32775	32727	32842	32587	32635	
1348	0	32745	32698	32627	32773	33042	32527	32871	32615	
1349	0	32680	32731	32445	32609	32971	32666	32519	32687	
1350	0	32643	32772	32598	32693	32757	32634	32497	32835	
1351	0	32646	32859	32465	32703	32751	32554	32643	32835	
1352	0	32638	32927	32643	32630	32919	32515	32831	32747	
1353	0	32673	32788	32679	32749	33063	32647	32831	32911	
1354	0	32827	32807	32582	32543	32694	32806	32647	32942	
1355	0	32783	32615	32607	32698	32831	32844	32699	33055	
1356	0	32759	32787	32683	32663	32931	32839	32717	32807	
1357	0	32716	32759	32583	32475	32914	32871	32615	32919	
1358	0	32764	32885	32591	32626	32815	32775	32791	32831	
1359	0	32786	32682	32719	32658	32659	32727	32782	32884	
1360	0	32732	32711	32757	32540	32771	32754	32997	32815	
1361	0	32839	32715	32751	32674	32731	32726	32871	32695	
1362	0	32950	32711	32637	32694	32791	32723	32749	32799	
1363	0	32862	32823	32717	32666	32659	32719	32787	32565	
1364	0	32892	32751	32607	32741	32797	32695	32735	32639	
1365	0	32821	32754	32647	32695	32754	32691	32746	32671	
1366	0	32831	32575	32499	32518	32749	32694	32603	32590	
1367	0	32773	32767	32589	32694	32775	32637	32669	32641	
1368	0	32782	32747	32526	32640	32613	32671	32410	32635	
1369	0	32745	32877	32570	32642	32543	32739	32434	32775	
1370	0	32762	32876	32471	32635	32501	32793	32535	32839	
1371	0	32780	32853	32586	32639	32682	32727	32485	32708	
1372	0	32745	32951	32551	32469	32590	32801	32530	32871	
1373	0	32687	32695	32647	32685	32718	32756	32695	32727	
1374	0	32647	32843	32583	32710	32899	32539	32938	32757	
1375	0	32676	32903	32711	32569	32991	32603	32935	32671	
1376	0	32673	32916	32825	32565	32795	32682	33103	32647	
1377	0	32647	32927	32731	32463	32899	32743	33117	32743	
1378	0	32626	32655	32879	32674	32886	32762	32967	32613	
1379	0	32720	32751	32789	32671	32690	32742	32918	32495	
1380	0	32750	32727	32871	32557	32670	32727	32845	32455	
1381	0	32868	32711	32775	32703	32895	32689	32955	32538	
1382	0	32950	32647	32773	32671	32942	32647	32989	32607	
1383	0	32879	32710	32675	32759	33063	32711	32813	32647	
1384	0	32815	32519	32551	32574	32815	32748	32759	32791	
1385	0	32819	32755	32639	32763	32815	32743	32659	32795	
1386	0	32743	32684	32519	32703	32804	32711	32559	32685	
1387	0	32761	32791	32671	32582	32869	32681	32739	32795	
1388	0	32751	32843	32663	32714	32751	32689	32719	32758	
1389	0	32701	32895	32550	32686	32743	32647	32775	32647	
1390	0	32606	32991	32623	32559	32701	32647	32708	32621	
1391	0	32593	32727	32469	32759	32626	32685	32470	32516	
1392	0	32596	32893	32628	32739	32701	32835	32683	32619	
1393	0	32701	32939	32647	32642	32681	32827	32719	32583	
1394	0	32626	32799	32710	32635	32751	32858	32588	32663	
1395	0	32672	32851	32739	32617	32823	32767	32765	32597	
1396	0	32713	32882	32805	32721	32719	32811	32817	32523	
1397	0	32711	32839	32710	32491	32801	32767	32787	32711	
1398	0	32784	32951	32685	32647	32791	32809	32725	32703	
1399	0	32795	32681	32527	32539	32717	32835	32627	32863	
1400	0	32836	32832	32629	32699	32577	32787	32555	32871	
1401	0	32885	32727	32661	32759	32578	32575	32811	32923	
1402	0	32870	32647	32670	32575	33037	32406	33225	32860	
1403	0	32953	32751	32775	32738	32959	32603	32967	32855	
1404	0	32892	32705	32586	32607	32871	32617	32887	32855	
1405	0	32882	32775	32656	32775	32869	32667	32711	32775	
1406	0	32824	32719	32527	32766	32828	32584	32795	32775	
1407	0	32849	32723	32637	32715	32855	32621	32617	32681	
1408	0	32796	32603	32575	32719	32658	32811	32639	32775	
1409	0	32762	32734	32564	32722	32699	32773	32603	32621	
1410	0	32679	32660	32479	32799	32810	32703	32719	32606	
1411	0	32712	32787	32603	32679	32727	32678	32571	32531	
1412	0	32677	32775	32525	32583	32659	32809	32380	32823	
1413	0	32698	32743	32579	32607	32627	32831	32621	32749	
1414	0	32775	32875	32526	32666	32658	32761	32814	32643	
1415	0	32773	32819	32715	32548	32677	32674	32821	32603	
1416	0	32722	32879	32645	32566	32775	32770	32762	32749	
1417	0	32743	32771	32581	32519	32885	32811	32758	32730	
1418	0	32775	32831	32647	32693	32911	32673	33022	32583	
1419	0	32856	32615	32535	32658	32875	32675	32929	32637	
1420	0	32843	32709	32646	32639	32866	32745	32709	32722	
1421	0	32870	32815	32623	32775	32671	32873	32607	32903	
1422	0	32871	32797	32729	32775	32785	32793	32526	32788	
1423	0	32822	32887	32631	32597	32739	32623	32903	32791	
1424	0	32845	32671	32693	32731	32735	32637	32599	32915	
1425	0	32790	32835	32503	32709	32799	32629	32773	32839	
1426	0	32775	32662	32663	32631	32813	32775	32642	33031	
1427	0	32751	32841	32599	32703	32675	32817	32463	32867	
1428	0	32709	32870	32595	32743	32756	32823	32623	32845	
1429	0	32710	32854	32485	32503	32854	32819	32668	32754	
1430	0	32568	32903	32567	32615	32819	32706	32979	32507	
1431	0	32592	32743	32419	32621	32812	32830	32902	32607	
1432	0	32609	32813	32551	32470	32740	32850	32758	32590	
1433	0	32620	32724	32646	32639	32807	32735	32770	32701	
1434	0	32726	32865	32623	32486	32797	32675	32799	32595	
1435	0	32679	32799	32647	32683	32799	32757	32751	32695	
1436	0	32673	32805	32631	32663	32655	32740	32693	32707	
1437	0	32684	32709	32527	32591	32647	32775	32815	32699	
1438	0	32621	32805	32609	32709	32646	32839	32738	32599	
1439	0	32718	32695	32677	32543	32677	32699	32715	32711	
1440	0	32855	32807	32746	32661	32718	32594	32667	32674	
1441	0	32835	32775	32710	32711	32775	32595	32748	32647	
1442	0	32833	32775	32609	32629	32858	32605	32703	32670	
1443	0	32815	32867	32591	32759	33007	32671	32797	32659	
1444	0	32694	32847	32591	32799	32921	32607	32681	32781	
1445	0	32699	32754	32771	32839	32991	32675	32783	32722	
1446	0	32739	32775	32715	32633	32911	32642	32788	32822	
1447	0	32711	32799	32715	32702	32875	32759	32694	32886	
1448	0	32686	32807	32635	32751	32843	32849	32617	32895	
1449	0	32657	32769	32582	32635	32807	32873	32615	32923	
1450	0	32678	32887	32551	32631	32643	32943	32679	32831	
1451	0	32736	32887	32575	32671	32697	32775	32588	32695	
1452	0	32667	32814	32596	32603	32775	32711	32503	32677	
1453	0	32656	32895	32542	32549	32743	32847	32526	32731	
1454	0	32756	32707	32443	32534	32557	32727	32486	32643	
1455	0	32799	32707	32727	32613	32521	32761	32773	32559	
1456	0	32735	32748	32712	32599	32804	32774	32987	32501	
1457	0	32717	32718	32606	32640	33159	32605	33026	32436	
1458	0	32783	32723	32694	32657	32994	32640	32895	32379	
1459	0	32812	32775	32615	32589	32705	32715	32983	32419	
1460	0	32940	32835	32764	32807	32655	32743	32831	32387	
1461	0	32876	32783	32823	32773	32615	32525	32982	32559	
1462	0	32922	32669	32647	32823	32735	32660	32967	32452	
1463	0	32945	32743	32765	32767	32770	32719	33087	32610	
1464	0	32871	32815	32788	32647	32769	32713	33063	32773	
1465	0	32803	32766	32758	32775	32862	32679	32902	32929	
1466	0	32775	32885	32727	32743	32894	32567	32879	32999	
1467	0	32656	32599	32571	32620	32879	32695	32903	32846	
1468	0	32752	32887	32759	32722	32757	32646	32759	32838	
1469	0	32782	32647	32659	32685	32711	32677	32667	32719	
1470	0	32665	32822	32554	32471	32713	32631	32567	32775	
1471	0	32704	32815	32699	32690	32851	32659	32642	32705	
1472	0	32743	32847	32795	32725	32891	32791	32705	32535	
1473	0	32655	32863	32594	32535	32935	32791	32711	32513	
1474	0	32762	32795	32647	32702	32711	32805	32685	32411	
1475	0	32700	32935	32498	32691	32673	32807	32751	32630	
1476	0	32576	32799	32418	32663	32694	32709	32727	32799	
1477	0	32562	32675	32559	32669	32754	32847	32599	32911	
1478	0	32642	32727	32764	32647	32676	32743	32646	32775	
1479	0	32695	32677	32733	32631	32644	32757	32489	32829	
1480	0	32742	32715	32715	32578	32721	32725	32688	32734	
1481	0	32895	32702	32567	32645	32681	32695	32647	32844	
1482	0	32854	32681	32739	32658	32851	32538	32855	32785	
1483	0	32842	32737	32797	32727	32786	32483	32890	32718	
1484	0	32831	32719	32601	32711	32774	32559	32795	32843	
1485	0	32795	32759	32695	32646	32855	32759	32767	32767	
1486	0	32813	32551	32658	32583	32762	32711	32771	32850	
1487	0	32726	32863	32775	32754	32830	32725	32811	32647	
1488	0	32681	32647	32743	32620	32775	32743	32786	32831	
1489	0	32619	32869	32546	32495	32751	32762	32827	32698	
1490	0	32598	32851	32685	32647	32805	32769	32749	32679	
1491	0	32578	32827	32563	32647	32758	32679	32835	32605	
1492	0	32543	32873	32591	32460	32811	32685	32783	32593	
1493	0	32642	32835	32578	32671	32767	32719	32791	32765	
1494	0	32729	32791	32687	32551	32831	32743	32902	32647	
1495	0	32722	32799	32743	32525	32895	32679	32765	32709	
1496	0	32725	32828	32621	32658	32753	32710	32943	32685	
1497	0	32643	32850	32567	32571	32775	32595	32759	32611	
1498	0	32729	32969	32582	32677	32855	32762	32700	32847	
1499	0	32851	32790	32695	32698	32731	32733	32611	32849	
1500	0	32790	32845	32707	32783	32707	32681	32717	32769	
1501	0	32912	32547	32687	32671	32727	32690	32587	32647	
1502	0	32871	32757	32831	32623	32679	32663	32615	32690	
1503	0	32839	32543	32670	32732	32903	32553	32713	32606	
1504	0	32822	32751	32771	32747	32797	32619	32692	32739	
1505	0	32746	32523	32807	32624	32814	32703	32565	32577	
1506	0	32680	32710	32700	32699	32807	32613	32805	32623	
1507	0	32788	32559	32611	32642	32799	32743	32810	32679	
1508	0	32804	32751	32506	32666	32841	32775	32543	32735	
1509	0	32683	32829	32622	32511	32863	32964	32355	32631	
1510	0	32632	33042	32593	32612	32767	32845	32693	32706	
1511	0	32743	32877	32659	32647	32711	32878	32687	32619	
1512	0	32723	32998	32639	32534	32794	32719	32927	32730	
1513	0	32742	32859	32644	32582	32781	32701	32861	32611	
1514	0	32727	32896	32557	32485	32765	32743	32903	32722	
1515	0	32700	32839	32591	32692	32664	32775	32783	32615	
1516	0	32590	32917	32671	32581	32598	32807	32827	32724	
1517	0	32685	32811	32553	32754	32662	32754	32741	32607	
1518	0	32722	32707	32607	32679	32823	32583	32999	32683	
1519	0	32781	32711	32583	32738	33027	32621	32883	32663	
1520	0	32855	32855	32727	32707	32967	32676	32839	32799	
1521	0	32886	32727	32855	32583	32884	32556	32679	32622	
1522	0	32879	32886	32828	32730	32671	32635	32717	32731	
1523	0	32861	32719	32871	32803	32487	32767	32795	32646	
1524	0	32854	32735	32791	32775	32678	32519	33036	32639	
1525	0	32845	32775	32620	32703	32807	32623	32983	32785	
1526	0	32773	32698	32710	32753	33006	32647	33013	33106	
1527	0	32805	32719	32498	32743	32834	32919	32959	33147	
1528	0	32716	32710	32636	32575	32863	32903	32797	32945	
1529	0	32736	32791	32647	32699	32666	32785	32631	32619	
1530	0	32647	32819	32591	32687	32554	32711	32316	32574	
1531	0	32668	32807	32657	32487	32467	32859	32251	32495	
1532	0	32701	32887	32583	32638	32486	32775	32365	32637	
1533	0	32698	32826	32607	32602	32603	32717	32539	32615	
1534	0	32751	32962	32539	32727	32735	32679	32751	32689	
1535	0	32742	32727	32588	32759	32831	32642	32821	32509	
1536	0	32825	32948	32535	32547	32835	32765	32770	32487	
1537	0	32795	32711	32676	32708	32763	32679	32765	32518	
1538	0	32790	32877	32658	32708	32771	32790	32732	32583	
1539	0	32784	32703	32603	32774	32767	32668	32795	32530	
1540	0	32866	32699	32719	32731	32773	32634	32691	32516	
1541	0	33010	32743	32740	32749	32871	32640	32647	32662	
1542	0	33031	32535	32765	32799	32903	32623	32685	32647	
1543	0	32984	32775	32593	32749	32871	32655	32767	32885	
1544	0	32868	32516	32663	32694	32795	32663	32774	32961	
1545	0	32861	32722	32750	32723	32769	32611	32834	32925	
1546	0	32814	32647	32655	32571	32705	32699	32647	32862	
1547	0	32757	32767	32701	32790	32719	32711	32815	32767	
1548	0	32754	32763	32623	32763	32839	32678	32802	32727	
1549	0	32784	32815	32687	32572	32830	32695	32879	32742	
1550	0	32716	32861	32677	32726	32711	32775	32751	32681	
1551	0	32710	32855	32749	32740	32735	32844	32583	32562	
1552	0	32704	32851	32838	32595	32567	32790	32863	32655	
1553	0	32775	32852	32715	32711	32548	32775	32815	32645	
1554	0	32769	32917	32605	32708	32935	32562	33318	32690	
1555	0	32743	32615	32596	32583	33082	32587	33103	32745	
1556	0	32711	32799	32615	32711	32971	32687	32943	32703	
1557	0	32587	32619	32464	32628	33043	32676	32871	32829	
1558	0	32607	32782	32575	32589	32941	32608	32765	32703	
1559	0	32691	32636	32747	32639	32902	32647	32507	32679	
1560	0	32721	32751	32647	32692	32786	32541	32623	32549	
1561	0	32739	32806	32683	32555	32829	32615	32647	32634	
1562	0	32743	32775	32615	32717	32713	32647	32666	32644	
1563	0	32948	32783	32639	32708	32679	32662	32854	32543	
1564	0	32754	32807	32527	32758	32670	32799	32771	32638	
1565	0	32767	32999	32625	32694	32703	32865	32603	32647	
1566	0	32673	32871	32623	32617	32769	32895	32432	32919	
1567	0	32647	32959	32775	32814	32787	32819	32523	32788	
1568	0	32772	32947	32663	32721	32671	32663	32307	32877	
1569	0	32784	32870	32578	32687	32671	32810	32440	32847	
1570	0	32711	32858	32483	32620	32535	32831	32515	32755	
1571	0	32672	32811	32615	32527	32692	32751	32775	32667	
1572	0	32699	32817	32508	32635	32845	32775	32639	32695	
1573	0	32710	32790	32620	32567	32813	32677	32635	32573	
1574	0	32688	32757	32807	32662	32859	32660	32863	32563	
1575	0	32722	32823	32725	32677	32727	32818	32807	32731	
1576	0	32737	32831	32803	32515	32775	32852	32607	32865	
1577	0	32750	32861	32743	32631	32663	32757	32751	32871	
1578	0	32846	32587	32807	32603	32751	32694	32807	32847	
1579	0	32878	32743	32775	32533	32867	32685	32847	32974	
1580	0	32925	32738	32860	32809	32951	32759	32959	32958	
1581	0	32946	32605	32775	32694	33007	32702	32637	32846	
1582	0	33004	32747	32799	32739	32964	32702	32754	32857	
1583	0	32947	32567	32747	32715	32775	32679	32548	32743	
1584	0	32996	32749	32717	32767	32597	32657	33019	32663	
1585	0	32912	32631	32609	32639	32575	32699	33075	32586	
1586	0	32822	32711	32659	32708	32527	32775	33047	32543	
1587	0	32769	32703	32754	32647	32527	32951	32775	32717	
1588	0	32726	32859	32655	32525	32347	32935	32599	32633	
1589	0	32679	32890	32679	32632	32791	32723	32839	32797	
1590	0	32615	32943	32507	32591	32964	32726	32619	32719	
1591	0	32593	32942	32647	32742	32875	32717	32679	32695	
1592	0	32671	32911	32721	32679	32955	32663	32597	32622	
1593	0	32676	33019	32647	32508	32791	32598	32967	32732	
1594	0	32647	32671	32694	32682	32764	32647	32903	33047	
1595	0	32594	32802	32611	32694	32757	32788	33031	32899	
1596	0	32615	32592	32511	32455	32933	32718	33143	32742	
1597	0	32686	32765	32423	32685	32947	32815	32903	32839	
1598	0	32663	32623	32619	32603	32930	32839	32745	33046	
1599	0	32687	32743	32623	32693	32935	32781	32749	32887	
1600	0	32738	32727	32668	32769	32868	32703	32887	32886	
1601	0	32647	32775	32578	32639	32939	32695	32878	32695	
1602	0	32764	32835	32642	32809	32818	32711	32965	32551	
1603	0	32764	32587	32551	32743	32711	32699	32751	32643	
1604	0	32793	32775	32694	32786	32594	32729	32543	32559	
1605	0	32791	32703	32575	32641	32695	32711	32707	32592	
1606	0	32785	32721	32623	32751	32683	32749	32721	32665	
1607	0	32793	32893	32518	32767	32647	32796	32577	32631	
1608	0	32759	32639	32631	32533	32567	32719	32418	32583	
1609	0	32676	32821	32553	32719	32627	32628	32363	32644	
1610	0	32679	32739	32669	32695	32637	32661	32461	32579	
1611	0	32718	32821	32647	32578	32630	32660	32594	32501	
1612	0	32701	32943	32711	32567	32687	32567	32517	32615	
1613	0	32743	32615	32727	32635	32698	32599	32767	32647	
1614	0	32698	32807	32724	32647	32773	32610	32788	32587	
1615	0	32693	32723	32558	32613	32791	32706	32763	32655	
1616	0	32711	32915	32620	32621	32826	32663	32775	32566	
1617	0	32621	32799	32551	32535	32791	32743	32823	32741	
1618	0	32660	32807	32717	32662	32735	32727	32741	32677	
1619	0	32863	32594	32677	32738	32866	32660	32775	32671	
1620	0	32847	32647	32711	32559	32754	32621	32655	32802	
1621	0	32893	32807	32771	32751	32885	32645	32835	32603	
1622	0	32976	32542	32711	32736	32822	32655	32796	32687	
1623	0	32902	32621	32557	32751	32814	32731	32647	32749	
1624	0	32936	32631	32661	32771	32763	32803	32535	32759	
1625	0	32847	32815	32565	32734	32831	32742	32767	32850	
1626	0	32788	32813	32615	32769	32815	32773	32731	32762	
1627	0	32842	32647	32553	32571	32775	32775	32641	32675	
1628	0	32796	32855	32678	32775	32743	32759	32917	32754	
1629	0	32730	32987	32508	32698	32766	32647	32875	32701	
1630	0	32694	32756	32563	32675	32708	32663	32732	32690	
1631	0	32812	32874	32477	32634	32705	32743	32766	32727	
1632	0	32813	32839	32591	32709	32820	32691	32831	32691	
1633	0	32800	32871	32527	32685	32721	32615	32807	32739	
1634	0	32619	32921	32630	32519	32859	32685	32740	32798	
1635	0	32647	32679	32479	32687	32758	32771	32736	32631	
1636	0	32564	32815	32615	32663	32845	32791	32819	32774	
1637	0	32586	32791	32489	32468	32799	32740	32811	32798	
1638	0	32686	32765	32775	32647	32795	32871	32607	32695	
1639	0	32801	32847	32783	32575	32855	32699	32892	32823	
1640	0	32739	32598	32731	32571	32918	32575	32867	32615	
1641	0	32847	32815	32636	32743	32856	32613	32903	32662	
1642	0	32893	32732	32739	32695	32870	32609	32647	32838	
1643	0	32842	32787	32599	32605	32759	32740	32439	32769	
1644	0	32894	32828	32715	32711	32713	32743	32530	32825	
1645	0	32838	32527	32511	32654	32767	32754	32686	32711	
1646	0	32877	32727	32750	32683	32901	32809	32980	32676	
1647	0	32855	32771	32739	32603	33039	32759	33023	32647	
1648	0	32791	32839	32679	32733	32839	32910	33039	32715	
1649	0	32759	32826	32694	32748	32635	32892	32989	32669	
1650	0	32679	32634	32563	32628	32631	32815	32835	32647	
1651	0	32666	32802	32711	32691	32669	32775	32562	32407	
1652	0	32716	32875	32660	32807	32723	32743	32471	32370	
1653	0	32746	32801	32615	32675	32891	32751	32807	32348	
1654	0	32748	32823	32707	32717	33087	32703	32817	32471	
1655	0	32692	32694	32660	32647	32979	32799	32603	32727	
1656	0	32634	32836	32731	32643	32790	32883	32519	32870	
1657	0	32679	32935	32773	32647	32671	32903	32381	33091	
1658	0	32728	32647	32565	32659	32477	32839	32687	33007	
1659	0	32639	32853	32679	32431	32547	32711	32885	32647	
1660	0	32807	32790	32647	32775	32850	32487	32751	32711	
1661	0	32846	32763	32806	32703	32987	32423	32631	32694	
1662	0	32772	32849	32599	32591	32821	32463	32415	32495	
1663	0	32766	32719	32645	32717	32875	32507	32759	32615	
1664	0	32796	32747	32566	32795	32711	32647	32660	32529	
1665	0	32902	32723	32632	32655	32615	32711	32503	32983	
1666	0	32769	32815	32583	32675	32543	32762	32509	33051	
1667	0	32720	32967	32587	32679	32636	32755	32559	32805	
1668	0	32631	32642	32539	32675	32631	32716	32630	32810	
1669	0	32652	32891	32451	32627	32527	32887	32614	32714	
1670	0	32605	32861	32525	32546	32663	32871	32817	32775	
1671	0	32601	32999	32631	32519	32703	32730	32995	32629	
1672	0	32634	32735	32588	32647	32941	32743	32943	32628	
1673	0	32698	32842	32455	32599	32999	32743	32645	32599	
1674	0	32736	32851	32519	32466	32794	32663	32437	32500	
1675	0	32717	32638	32450	32671	32533	32685	32765	32401	
1676	0	32684	32823	32611	32647	32643	32493	33041	32439	
1677	0	32775	32687	32535	32697	33119	32324	33085	32562	
1678	0	32878	32731	32661	32573	33131	32535	33053	32887	
1679	0	32911	32589	32667	32682	32835	32727	32775	33105	
1680	0	32935	32746	32738	32605	32815	32786	32903	33042	
1681	0	32982	32743	32829	32657	32882	32810	32879	32967	
1682	0	32825	32475	32711	32795	32983	32758	32815	32878	
1683	0	32860	32719	32602	32802	32959	32837	32845	32867	
1684	0	32795	32863	32695	32675	32918	32750	32727	32743	
1685	0	32647	32823	32637	32871	32852	32763	32881	32559	
1686	0	32714	32875	32727	32719	32695	32775	32994	32439	
1687	0	32770	32686	32605	32647	32621	32927	32743	32576	
1688	0	32700	32882	32674	32599	32470	32902	32759	32581	
1689	0	32793	32924	32574	32738	32477	32756	32756	32599	
1690	0	32784	32679	32631	32695	32467	32763	32738	32734	
1691	0	32677	32858	32583	32711	32839	32703	32790	32663	
1692	0	32734	33004	32645	32623	32846	32691	32727	32719	
1693	0	32724	32795	32519	32647	32845	32799	32645	32802	
1694	0	32770	32946	32603	32567	32758	32831	32426	32869	
1695	0	32800	32662	32775	32647	32749	32855	32773	32799	
1696	0	32743	32879	32574	32658	32855	32810	32810	32843	
1697	0	32742	32662	32599	32578	32806	32701	32882	32865	
1698	0	32668	32879	32625	32647	32769	32710	32586	32770	
1699	0	32722	32878	32667	32663	32666	32647	32748	32621	
1700	0	32726	32731	32555	32786	32715	32605	32757	32530	
1701	0	32758	32819	32727	32759	32666	32595	32671	32647	
1702	0	32854	32530	32756	32613	32587	32631	32860	32663	
1703	0	32925	32731	32658	32759	32535	32663	32852	32716	
1704	0	32841	32689	32839	32791	32691	32711	32830	32815	
1705	0	32775	32579	32775	32639	32855	32615	32879	32852	
1706	0	32780	32839	32795	32727	33031	32591	32851	32903	
1707	0	32791	32700	32679	32675	33083	32587	32877	32775	
1708	0	32742	32959	32727	32631	32989	32655	32830	32770	
1709	0	32572	32743	32503	32611	32839	32820	32671	32858	
1710	0	32586	32953	32597	32483	32674	32877	32503	32799	
1711	0	32685	32647	32497	32589	32667	32835	32540	32709	
1712	0	32645	32786	32638	32631	32547	32842	32569	32635	
1713	0	32719	32587	32447	32603	32606	32719	32960	32657	
1714	0	32742	32669	32647	32620	32839	32626	32827	32587	
1715	0	32730	32787	32639	32654	32730	32695	32871	32825	
1716	0	32655	32791	32553	32673	32647	32629	32839	32767	
1717	0	32682	32842	32719	32647	32727	32659	32685	32727	
1718	0	32692	32725	32591	32711	32701	32671	32677	32734	
1719	0	32733	32727	32666	32535	32765	32628	32590	32783	
1720	0	32815	32783	32603	32791	32787	32615	32479	32636	
1721	0	32903	32598	32647	32762	32823	32559	32669	32663	
1722	0	32877	32773	32579	32671	32807	32513	32831	32623	
1723	0	32828	32775	32759	32802	32797	32591	32791	32603	
1724	0	32830	32615	32621	32763	32951	32550	32775	32661	
1725	0	32800	32853	32751	32583	32914	32615	32519	32699	
1726	0	32772	32647	32742	32775	32858	32611	32694	32769	
1727	0	32726	32795	32583	32731	32837	32643	32543	32719	
1728	0	32804	32699	32551	32565	32684	32565	32890	32691	
1729	0	32818	32855	32522	32679	32799	32634	33206	32595	
1730	0	32775	32951	32639	32687	32799	32733	32993	32484	
1731	0	32756	32614	32642	32429	32839	32831	32903	32613	
1732	0	32722	32805	32525	32678	32711	32797	32647	32695	
1733	0	32773	32647	32623	32674	32686	32811	32517	32710	
1734	0	32766	32743	32493	32538	32652	32813	32454	32673	
1735	0	32745	32739	32638	32730	32860	32719	32729	32643	
1736	0	32766	32583	32578	32683	32963	32828	32838	32851	
1737	0	32730	32738	32631	32658	32933	32947	32635	32974	
1738	0	32642	32639	32506	32621	32661	32890	32546	33119	
1739	0	32744	32583	32581	32687	32642	32820	32341	33223	
1740	0	32947	32733	32510	32771	32633	32695	32666	32935	
1741	0	32900	32679	32635	32645	32775	32567	32815	32822	
1742	0	32854	32766	32676	32791	32783	32598	33167	32647	
1743	0	32912	32855	32715	32854	32846	32647	33060	32427	
1744	0	32879	32659	32595	32627	32647	32769	32749	32607	
1745	0	32850	32821	32731	32797	32630	32967	32767	32679	
1746	0	32809	32999	32743	32719	32559	33047	32591	32701	
1747	0	32719	32775	32743	32662	32694	32814	32671	32796	
1748	0	32795	32855	32775	32606	33183	32495	33111	32681	
1749	0	32738	32919	32754	32711	33021	32591	33133	32579	
1750	0	32647	32647	32679	32723	32613	32846	32733	32578	
1751	0	32729	32839	32759	32405	32452	32948	32583	32384	
1752	0	32714	32930	32591	32609	32692	32739	32565	32370	
1753	0	32738	32629	32705	32563	32927	32635	32759	32391	
1754	0	32623	32775	32743	32647	32925	32590	32694	32509	
1755	0	32677	32848	32595	32531	32682	32619	32727	32574	
1756	0	32655	32897	32567	32583	32857	32635	32847	32583	
1757	0	32678	32829	32593	32603	32859	32646	32868	32703	
1758	0	32742	32826	32642	32451	32979	32647	32843	32711	
1759	0	32727	32775	32631	32710	32739	32731	32691	32674	
1760	0	32786	32803	32717	32738	32837	32713	32758	32793	
1761	0	32851	32727	32683	32786	32807	32707	32705	32735	
1762	0	32849	32735	32788	32671	32789	32658	32749	32775	
1763	0	32860	32773	32719	32850	32655	32629	32715	32706	
1764	0	32810	32629	32711	32807	32771	32719	32543	32669	
1765	0	32772	32847	32469	32637	32775	32695	32667	32703	
1766	0	32751	32847	32641	32687	32876	32625	32637	32695	
1767	0	32783	32661	32573	32687	32769	32661	32567	32843	
1768	0	32719	32815	32726	32679	32791	32684	32605	32811	
1769	0	32679	32835	32455	32610	32754	32690	32553	32755	
1770	0	32629	32702	32594	32694	32759	32658	32693	32915	
1771	0	32582	32903	32543	32691	32787	32724	32551	32951	
1772	0	32639	32681	32679	32607	32823	32695	32533	32917	
1773	0	32607	32815	32708	32669	32739	32811	32628	33044	
1774	0	32580	32775	32547	32615	32822	32751	32647	32941	
1775	0	32573	32801	32679	32563	32804	32767	32871	32839	
1776	0	32553	32869	32468	32627	32769	32825	32858	32931	
1777	0	32609	32551	32636	32637	32647	32757	32921	32721	
1778	0	32706	32875	32490	32623	32641	32822	32959	32671	
1779	0	32814	32703	32647	32547	32685	32739	32871	32701	
1780	0	32749	32903	32563	32564	32767	32647	32647	32639	
1781	0	32809	32917	32679	32679	32931	32610	32675	32747	
1782	0	32857	32875	32819	32588	32931	32584	32775	32862	
1783	0	32959	32963	32794	32749	32763	32585	32743	32647	
1784	0	33017	32659	32663	32660	32615	32605	32874	32735	
1785	0	33020	32759	32670	32577	32775	32582	33167	32796	
1786	0	32963	32734	32591	32731	32695	32706	33109	32717	
1787	0	32890	32459	32685	32694	32775	32773	32991	32838	
1788	0	32749	32647	32617	32731	32971	32715	33037	32699	
1789	0	32751	32647	32722	32535	32795	32819	32903	32724	
1790	0	32613	32519	32519	32799	32895	32804	32727	32740	
1791	0	32599	32709	32635	32675	32455	32887	32526	32719	
1792	0	32647	32695	32527	32679	32413	32807	32443	32457	
1793	0	32764	32711	32647	32629	32439	32757	32463	32511	
1794	0	32749	32763	32623	32690	32525	32663	32858	32372	
1795	0	32714	32763	32677	32647	32646	32743	32749	32415	
1796	0	32610	32866	32615	32466	32850	32719	32569	32594	
1797	0	32666	32963	32701	32663	33055	32671	32639	32715	
1798	0	32678	32708	32727	32601	32798	32831	32291	32599	
1799	0	32890	32797	32615	32675	32764	32867	32549	32663	
1800	0	32973	32767	32709	32565	33079	32613	32634	32903	
1801	0	32991	32556	32759	32788	32991	32647	32399	32733	
1802	0	32924	32740	32772	32767	32705	32701	32375	32583	
1803	0	32895	32850	32887	32753	32726	32708	32583	32639	
1804	0	32962	32589	32751	32635	32559	32719	32527	32647	
1805	0	32856	32733	32713	32747	32655	32695	32343	32567	
1806	0	32742	32575	32530	32698	32547	32790	32546	32751	
1807	0	32799	32751	32718	32738	32786	32647	32860	32629	
1808	0	32749	32790	32659	32717	32967	32687	32874	32742	
1809	0	32731	32637	32751	32700	32927	32695	32895	32748	
1810	0	32613	32771	32683	32427	32797	32830	32919	32767	
1811	0	32543	32877	32715	32641	32767	32719	32759	32815	
1812	0	32549	32870	32657	32599	32773	32795	32903	32827	
1813	0	32647	32787	32717	32679	32813	32767	32989	32743	
1814	0	32627	32784	32553	32463	32847	32751	33063	32605	
1815	0	32750	32799	32381	32733	32855	32647	33107	32681	
1816	0	32708	32839	32512	32635	32935	32769	33002	32683	
1817	0	32690	32763	32427	32626	32820	32852	32754	32869	
1818	0	32711	32771	32634	32573	32742	32831	32678	32679	
1819	0	32788	32775	32637	32730	32775	32860	32695	32759	
1820	0	32810	32807	32487	32757	32703	32799	32635	32711	
1821	0	32929	32623	32717	32732	32839	32765	32628	32850	
1822	0	32854	32855	32562	32754	32734	32738	32563	32709	
1823	0	32858	32765	32679	32626	32775	32663	32929	32733	
1824	0	32808	32810	32527	32742	32812	32663	32943	32749	
1825	0	32859	32939	32602	32791	32729	32727	32775	32603	
1826	0	32788	32809	32513	32564	32626	32751	32754	32703	
1827	0	32815	32785	32717	32741	32727	32717	32646	32703	
1828	0	32881	32675	32647	32690	32759	32599	32858	32450	
1829	0	32844	32863	32468	32637	32835	32605	32930	32673	
1830	0	32703	32799	32563	32627	32692	32711	32447	32879	
1831	0	32692	32871	32495	32647	32527	32875	32486	32715	
1832	0	32782	32931	32599	32668	32566	32878	32637	32699	
1833	0	32731	32647	32507	32681	32499	32852	32619	32641	
1834	0	32801	32807	32675	32738	32869	32637	32891	32570	
1835	0	32738	32807	32503	32625	32802	32647	32679	32678	
1836	0	32710	32591	32668	32596	32854	32627	32988	32679	
1837	0	32674	32844	32614	32738	32950	32620	32914	32534	
1838	0	32803	32846	32759	32659	32679	32694	32971	32765	
1839	0	32833	32830	32793	32727	32839	32676	32962	32727	
1840	0	32800	32833	32863	32607	32895	32660	33071	32699	
1841	0	32775	32627	32759	32711	32877	32695	32970	32775	
1842	0	32775	32751	32725	32743	32834	32733	32606	32863	
1843	0	32746	32775	32663	32574	32816	32765	32587	32836	
1844	0	32937	32754	32717	32671	32775	32823	32543	32876	
1845	0	32847	32827	32633	32702	32834	32833	32539	32903	
1846	0	32766	32549	32679	32503	32850	32805	32647	32731	
1847	0	32786	32675	32789	32761	32663	32826	32815	32738	
1848	0	32722	32663	32663	32643	32687	32742	32795	32647	
1849	0	32661	32780	32627	32595	32738	32575	33007	32707	
1850	0	32591	32827	32516	32653	32825	32549	32887	32695	
1851	0	32670	32783	32583	32667	32694	32647	32747	32510	
1852	0	32641	32937	32693	32491	32815	32709	32591	32602	
1853	0	32607	32918	32514	32611	32684	32751	32571	32519	
1854	0	32535	32972	32523	32669	32707	32647	32828	32530	
1855	0	32607	32922	32631	32694	32756	32607	32845	32705	
1856	0	32647	32966	32493	32663	32708	32749	32719	32925	
1857	0	32775	32714	32615	32571	32809	32794	32671	32791	
1858	0	32685	32727	32695	32759	32891	32725	32679	32805	
1859	0	32753	32735	32711	32794	32701	32854	32615	32918	
1860	0	32748	32803	32759	32578	32737	32871	32573	32831	
1861	0	32838	32663	32532	32743	32703	32711	32732	32773	
1862	0	32855	32730	32739	32700	32807	32580	32839	32598	
1863	0	33030	32543	32803	32711	32678	32718	32677	32727	
1864	0	32926	32751	32739	32759	32758	32642	32959	32731	
1865	0	32807	32743	32567	32727	32855	32617	33023	32595	
1866	0	32737	32759	32743	32607	32885	32679	32978	32645	
1867	0	32771	32879	32615	32617	32743	32793	32987	32629	
1868	0	32705	32555	32719	32663	32796	32791	32876	32571	
1869	0	32735	32825	32667	32555	32663	32822	32814	32676	
1870	0	32718	32591	32431	32637	32803	32647	32973	32549	
1871	0	32725	32775	32553	32670	32829	32682	32892	32692	
1872	0	32756	32775	32533	32579	32758	32804	32726	32677	
1873	0	32732	32819	32662	32530	32679	32837	32598	32634	
1874	0	32814	32903	32519	32647	32743	32839	32589	32679	
1875	0	32758	32639	32658	32679	32791	32690	32671	32775	
1876	0	32727	32807	32586	32575	32763	32699	32687	32710	
1877	0	32738	32623	32635	32627	32759	32705	32535	32839	
1878	0	32791	32851	32765	32615	32788	32743	32675	32756	
1879	0	32822	32626	32634	32741	32903	32711	32687	32685	
1880	0	32871	32647	32699	32700	32847	32703	32679	32718	
1881	0	32930	32629	32668	32565	32846	32699	32745	32559	
1882	0	32887	32700	32791	32769	32802	32719	32563	32772	
1883	0	32861	32843	32804	32699	32925	32763	32734	32775	
1884	0	32882	32735	32647	32549	32770	32684	32519	32722	
1885	0	32869	32711	32766	32723	32735	32723	32698	32903	
1886	0	32995	32499	32599	32759	32791	32674	32732	32859	
1887	0	32994	32603	32671	32551	32923	32617	32647	32745	
1888	0	33005	32679	32615	32615	32621	32632	32479	32823	
1889	0	32951	32693	32715	32643	32525	32855	32319	32821	
1890	0	32836	32695	32647	32626	32637	32823	32563	32875	
1891	0	32834	32805	32487	32605	32699	32807	32686	32791	
1892	0	32850	32866	32567	32527	32773	32765	32762	32739	
1893	0	32898	32597	32446	32677	32831	32775	32735	32735	
1894	0	33057	32735	32612	32662	32828	32791	32439	32692	
1895	0	33083	32647	32549	32662	32759	32757	32629	32815	
1896	0	32942	32765	32541	32731	32839	32668	32702	32771	
1897	0	32919	32831	32617	32699	32669	32679	32557	32669	
1898	0	33076	32830	32503	32595	32599	32667	32711	32615	
1899	0	33103	32820	32591	32719	32795	32628	32826	32629	
1900	0	33211	32431	32711	32807	32951	32583	33103	32628	
1901	0	33294	32557	32611	32612	33031	32527	33115	32704	
1902	0	33434	32367	32647	32743	32846	32612	32931	32875	
1903	0	33479	32431	32517	32791	32791	32804	32583	33047	
1904	0	33439	32573	32549	32631	32591	32902	32535	33037	
1905	0	33413	32455	32455	32854	32647	32959	32583	32935	
1906	0	33281	32507	32585	32766	32621	32998	32543	32883	
1907	0	33161	32791	32458	32764	32773	32862	32765	32775	
1908	0	32879	32605	32555	32813	32919	32692	32791	32700	
1909	0	32823	32951	32467	32845	32946	32716	32914	32575	
1910	0	32503	32967	32469	32783	32914	32615	33174	32421	
1911	0	32012	33351	32589	32602	32947	32458	33167	32510	
1912	0	31680	33731	32357	32727	32767	32423	33019	32431	
1913	0	31422	33725	32454	32647	32838	32448	32943	32478	
1914	0	31129	33983	32450	32799	32786	32551	32749	32335	
1915	0	30863	33785	32505	32735	32887	32612	32605	32532	
1916	0	30823	34119	32615	32527	32639	32756	32310	32639	
1917	0	30904	33949	32527	32755	32598	32775	32321	32583	
1918	0	31266	33807	32661	32743	32735	32743	32675	32646	
1919	0	31764	33695	32567	32690	32767	32677	32831	32587	
1920	0	32015	33338	32732	32815	32786	32641	33111	32327	
1921	0	32135	33235	32835	32726	32879	32505	33159	32375	
1922	0	32210	32871	32772	32531	33021	32556	33031	32314	
1923	0	31893	32955	32853	32646	32975	32481	33309	32278	
1924	0	31663	32922	32791	32527	32820	32683	33149	32412	
1925	0	31471	32939	32875	32348	32788	32594	33259	32173	
1926	0	31511	32903	32831	32435	32951	32598	33358	32340	
1927	0	31558	32722	33043	32417	33050	32563	33389	32391	
1928	0	31813	32679	32924	32237	33091	32599	33476	32389	
1929	0	32041	32519	32987	32374	32977	32685	33287	32583	
1930	0	32273	32487	32987	32498	32903	32738	33075	32621	
1931	0	32470	32311	32827	32293	32825	32787	32887	32662	
1932	0	32668	32503	32876	32505	32935	32775	32903	32753	
1933	0	32903	32535	32775	32543	32767	32727	32787	32807	
1934	0	33034	32284	32822	32387	32713	32731	32871	32788	
1935	0	33252	32431	32847	32578	32685	32679	32759	32855	
1936	0	33383	32343	32646	32535	32643	32741	32743	32882	
1937	0	33764	32423	32669	32687	32517	32940	32487	33006	
1938	0	33957	32172	32479	32741	32615	32703	32865	32871	
1939	0	34098	32306	32575	32602	32887	32615	32870	32698	
1940	0	34138	32263	32727	32805	32739	32802	32685	32842	
1941	0	34278	32085	32574	32839	32545	32903	32334	32885	
1942	0	34375	32022	32593	32933	32359	32927	31999	33124	
1943	0	34399	32117	32487	32887	32615	32825	32130	33011	
1944	0	34335	32207	32604	32676	32811	32771	32157	32903	
1945	0	34216	32203	32621	32863	32807	32822	32251	32942	
1946	0	34099	32291	32553	32850	32844	32935	32239	32834	
1947	0	33884	32235	32614	32615	32694	32935	32426	32823	
1948	0	33639	32471	32497	32837	32711	32903	32510	32941	
1949	0	33399	32423	32531	32642	32735	32903	32647	32818	
1950	0	33179	32550	32719	32735	32751	32869	32703	32829	
1951	0	33135	32535	32647	32802	32827	32831	32524	32786	
1952	0	33071	32667	32615	32567	32839	32683	32535	32974	
1953	0	33101	32615	32487	32719	32863	32659	32204	33115	
1954	0	33057	32603	32573	32621	32605	32795	32285	33035	
1955	0	33012	32557	32547	32679	32485	32743	32511	32851	
1956	0	32847	32663	32399	32642	32451	32670	32586	32829	
1957	0	32819	32707	32623	32711	32358	32591	32966	32855	
1958	0	32854	32707	32661	32743	32623	32519	33058	32885	
1959	0	32818	32575	32585	32717	32875	32701	32902	33175	
1960	0	32815	32746	32594	32719	32839	33087	32628	33415	
1961	0	32908	32591	32655	32633	32775	32993	32763	33254	
1962	0	32859	32783	32775	32765	32855	32893	32681	32964	
1963	0	32773	32731	32455	32711	32827	32763	32941	32737	
1964	0	32670	32883	32659	32793	32647	32775	32802	32631	
1965	0	32569	32822	32633	32598	32717	32764	32729	32617	
1966	0	32530	32935	32775	32766	32862	32751	32655	32583	
1967	0	32512	32941	32609	32587	32791	32749	32695	32447	
1968	0	32509	32943	32486	32731	32647	32747	32639	32359	
1969	0	32460	33076	32539	32711	32655	32754	32879	32338	
1970	0	32434	33199	32663	32655	32836	32662	33013	32180	
1971	0	32429	32823	32546	32621	32855	32667	32830	32319	
1972	0	32479	33135	32667	32551	32669	32663	32662	32427	
1973	0	32516	32799	32599	32663	32685	32647	32583	32495	
1974	0	32529	32975	32643	32647	32787	32679	32786	32734	
1975	0	32489	32786	32503	32431	32814	32759	32590	32735	
1976	0	32500	32950	32691	32595	32844	32783	32837	32951	
1977	0	32418	32767	32679	32591	32919	32646	33031	32917	
1978	0	32511	32863	32607	32495	32987	32642	32962	32842	
1979	0	32628	32743	32629	32621	32791	32751	32799	32863	
1980	0	32647	32885	32801	32487	32789	32591	32639	32806	
1981	0	32703	32711	32585	32694	32890	32598	32610	32899	
1982	0	32681	32869	32757	32738	32946	32701	32855	32698	
1983	0	32680	32751	32554	32669	32999	32595	32775	32709	
1984	0	32714	32797	32684	32627	32775	32569	32679	32615	
1985	0	32694	32802	32771	32519	32852	32665	32810	32601	
1986	0	32716	32743	32647	32715	32799	32575	32682	32532	
1987	0	32718	32923	32674	32748	32683	32571	32903	32508	
1988	0	32762	32727	32551	32535	32662	32761	32799	32571	
1989	0	32660	32924	32671	32741	32666	32710	32759	32515	
1990	0	32564	32727	32679	32769	32775	32631	32647	32621	
1991	0	32586	32927	32587	32479	32709	32669	32716	32591	
1992	0	32589	32887	32647	32708	32794	32659	32791	32495	
1993	0	32644	32931	32585	32743	32846	32703	32770	32647	
1994	0	32666	32775	32607	32691	32774	32631	32815	32627	
1995	0	32766	32799	32564	32738	32869	32660	32749	32681	
1996	0	32686	32766	32679	32525	32747	32775	32843	32641	
1997	0	32758	32817	32722	32660	32773	32826	32793	32820	
1998	0	32757	32831	32598	32699	32721	32688	32951	32722	
1999	0	32730	32699	32757	32594	32865	32655	32830	32699	
2000	0	32695	32825	32590	32711	32908	32646	32831	32739	
2001	0	32724	32763	32727	32625	32575	32654	32772	32647	
2002	0	32948	32709	32671	32757	32738	32647	32756	32702	
2003	0	32871	32691	32647	32815	32821	32772	32711	32662	
2004	0	32836	32825	32679	32701	32845	32711	32620	32829	
2005	0	32759	32677	32543	32797	32747	32821	32647	32783	
2006	0	32770	32859	32607	32819	32727	32719	32875	32683	
2007	0	32724	32911	32487	32751	32731	32759	32885	32727	
2008	0	32765	32911	32583	32706	32858	32833	32989	32671	
2009	0	32746	32926	32470	32687	32748	32783	32819	32661	
2010	0	32623	32711	32590	32766	32751	32667	32758	32807	
2011	0	32676	32859	32519	32575	32725	32621	32749	32733	
2012	0	32745	32898	32700	32609	32893	32647	32719	32703	
2013	0	32694	32814	32772	32535	32871	32759	32743	32763	
2014	0	32725	32895	32647	32709	32839	32771	32499	32691	
2015	0	32730	32654	32759	32661	32739	32797	32599	32759	
2016	0	32704	32835	32604	32727	32834	32775	32535	32901	
2017	0	32734	32819	32647	32610	32789	32729	32491	32855	
2018	0	32806	32766	32532	32694	32931	32685	32861	32743	
2019	0	32742	32933	32705	32647	32855	32627	32831	32726	
2020	0	32887	32647	32617	32789	32754	32636	32877	32607	
2021	0	32854	32788	32719	32594	32663	32655	32847	32543	
2022	0	32830	32754	32631	32562	32817	32667	32677	32513	
2023	0	32899	32871	32756	32611	32567	32775	32533	32406	
2024	0	32865	32775	32687	32655	32574	32751	32375	32516	
2025	0	32835	32723	32707	32487	32659	32705	32767	32505	
2026	0	32859	32765	32709	32631	32691	32645	32839	32447	
2027	0	32769	32763	32547	32463	32834	32535	33027	32595	
2028	0	32698	32799	32615	32644	32827	32545	32967	32626	
2029	0	32634	32847	32519	32546	32865	32607	32671	32826	
2030	0	32647	32833	32684	32403	32831	32659	32799	32839	
2031	0	32701	32754	32534	32579	32863	32711	32655	32763	
2032	0	32700	32711	32682	32621	32796	32711	32835	32929	
2033	0	32719	32807	32745	32493	32811	32859	32835	32822	
2034	0	32628	32825	32589	32647	32751	32929	32677	32965	
2035	0	32642	32829	32462	32623	32713	32854	32554	32871	
2036	0	32615	32734	32398	32603	32555	32830	32583	32669	
2037	0	32611	32814	32532	32700	32611	32871	32775	32679	
2038	0	32629	32933	32463	32735	32719	32887	32681	32655	
2039	0	32745	32575	32579	32677	32827	32683	32743	32601	
2040	0	32823	32719	32506	32775	32846	32637	32717	32703	
2041	0	32811	32607	32614	32695	32690	32725	32775	32647	
2042	0	32822	32682	32562	32894	32819	32655	32803	32759	
2043	0	32831	32863	32674	32823	32765	32606	32815	32851	
2044	0	32834	32775	32775	32663	32806	32665	32815	32871	
2045	0	32826	32884	32743	32851	32628	32797	32647	32860	
2046	0	32833	32638	32767	32755	32925	32647	32765	32765	
2047	0	32798	32847	32727	32679	32891	32694	32735	32809	
2048	0	32804	32903	32593	32647	32854	32679	32733	32829	
2049	0	32713	32662	32642	32647	32830	32687	32719	32803	
2050	0	32712	32850	32585	32749	32927	32657	32558	32692	
2051	0	32767	32827	32679	32455	32845	32838	32617	32806	
2052	0	32671	32903	32607	32627	32701	32879	32493	32775	
2053	0	32788	32790	32802	32677	32655	32875	32642	32614	
2054	0	32862	32827	32775	32514	32711	32726	33062	32525	
2055	0	32738	32850	32695	32590	32983	32603	33058	32486	
2056	0	32712	32818	32455	32647	32834	32623	32993	32534	
2057	0	32738	32857	32638	32647	32735	32711	32812	32671	
2058	0	32748	32827	32535	32470	32695	32644	32929	32671	
2059	0	32769	32839	32693	32626	32823	32751	32941	32532	
2060	0	32788	32791	32751	32703	32815	32718	32747	32711	
2061	0	32834	32839	32791	32596	32847	32715	32729	32739	
2062	0	32781	32707	32728	32679	32775	32713	32483	32692	
2063	0	32727	32790	32538	32637	32515	32623	32751	32716	
2064	0	32804	32841	32667	32844	32519	32723	32550	32732	
2065	0	32764	32655	32587	32755	32571	32767	32278	32767	
2066	0	32708	32839	32717	32751	32679	32714	32391	32807	
2067	0	32767	32551	32559	32703	32635	32719	32479	32769	
2068	0	32796	32849	32727	32701	32951	32587	32903	32743	
2069	0	32681	32519	32671	32562	32891	32647	32715	32711	
2070	0	32670	32826	32575	32615	32725	32751	32647	32790	
2071	0	32621	32541	32629	32509	32655	32763	32847	32671	
2072	0	32704	32731	32531	32608	32742	32739	32894	32775	
2073	0	32677	32567	32743	32674	32947	32679	32855	32701	
2074	0	32781	32810	32809	32547	32775	32639	32807	32773	
2075	0	32764	32815	32790	32791	32835	32690	32671	32703	
2076	0	32743	32732	32718	32757	32863	32541	32655	32585	
2077	0	32784	32903	32667	32631	32705	32703	32397	32749	
2078	0	32781	32807	32719	32767	32676	32711	32445	32767	
2079	0	32836	32943	32590	32711	32563	32623	32614	32503	
2080	0	32860	32809	32679	32775	32799	32455	33142	32511	
2081	0	32939	32839	32523	32743	33007	32338	33195	32534	
2082	0	32968	32622	32615	32530	32995	32555	32775	32869	
2083	0	32890	32791	32463	32683	32775	32711	32807	33127	
2084	0	32724	32719	32619	32767	32791	32900	32623	33303	
2085	0	32774	32823	32559	32647	32643	32909	32623	33127	
2086	0	32870	32719	32611	32690	32635	32772	32722	32841	
2087	0	32823	32771	32695	32666	32819	32765	32951	32695	
2088	0	32661	32935	32714	32724	32731	32834	33015	32593	
2089	0	32660	32842	32823	32663	32833	32911	32931	32411	
2090	0	32641	33031	32751	32553	32839	32883	32963	32447	
2091	0	32647	32947	32946	32646	32758	32758	32914	32226	
2092	0	32605	33004	33059	32514	32759	32745	32837	32495	
2093	0	32617	32887	32962	32759	32687	32804	32886	32479	
2094	0	32742	32855	32919	32647	32754	32802	32771	32337	
2095	0	32754	32775	32678	32611	32738	32767	32959	32510	
2096	0	32765	32811	32553	32671	32807	32775	32665	32615	
2097	0	32806	32947	32534	32607	32843	32704	32736	32623	
2098	0	32835	32759	32359	32467	33055	32726	32609	32889	
2099	0	32873	32875	32380	32703	32819	32775	32454	32879	
2100	0	32850	32635	32270	32639	32839	32639	32735	32791	
2101	0	32839	32642	32406	32531	32871	32662	32943	32807	
2102	0	32910	32631	32507	32687	32758	32743	32957	32759	
2103	0	32955	32607	32402	32623	32647	32791	32738	32767	
2104	0	32833	32667	32537	32473	32691	32791	32495	32856	
2105	0	32817	32631	32450	32655	32614	32679	32567	32739	
2106	0	32756	32741	32551	32730	32667	32562	32543	32823	
2107	0	32800	32551	32541	32511	32677	32615	32551	32765	
2108	0	32694	32806	32629	32623	32646	32646	32436	32708	
2109	0	32704	32903	32387	32615	32677	32751	32442	32797	
2110	0	32582	32903	32486	32367	32587	32732	32573	32647	
2111	0	32671	33071	32492	32694	32655	32635	32631	32780	
2112	0	32697	32875	32719	32829	32695	32576	33041	32791	
2113	0	32703	33116	32847	32668	32927	32537	33103	32623	
2114	0	32748	32865	32738	32895	32994	32553	33007	32694	
2115	0	32742	33010	32634	32791	32895	32631	32693	32685	
2116	0	32708	33101	32621	32623	32535	32714	32391	32621	
2117	0	32799	32717	32595	32834	32663	32831	32639	32691	
2118	0	32823	32686	32555	32762	32730	32743	32717	32647	
2119	0	32877	32509	32679	32655	32913	32742	32679	32634	
2120	0	32833	32565	32647	32822	32852	32751	32759	32655	
2121	0	32743	32759	32707	32711	32775	32719	32727	32667	
2122	0	32756	32609	32598	32695	32675	32645	32647	32607	
2123	0	32782	32674	32735	32751	32757	32663	32738	32685	
2124	0	32647	32639	32629	32607	32729	32722	32839	32715	
2125	0	32523	32509	32765	32541	32859	32811	32867	32659	
2126	0	32634	32655	32743	32513	32738	32751	32871	32748	
2127	0	32768	32623	32767	32531	32903	32582	32733	32631	
2128	0	32642	32767	32571	32381	32827	32742	32843	32734	
2129	0	32640	32867	32621	32578	32795	32731	32701	32731	
2130	0	32678	32885	32796	32590	32773	32775	32862	32667	
2131	0	32718	32999	32676	32620	32743	32850	32775	32786	
2132	0	32743	32967	32735	32621	32839	32717	32807	32758	
2133	0	32703	32902	32851	32612	32787	32677	32775	32773	
2134	0	32775	32805	32691	32687	32773	32797	32895	32655	
2135	0	32790	32814	32715	32550	32895	32718	32919	32706	
2136	0	32677	32667	32694	32670	32823	32687	32711	32661	
2137	0	32692	32765	32710	32637	32823	32699	32623	32704	
2138	0	32785	32663	32668	32902	32804	32583	32659	32550	
2139	0	32801	32775	32583	32943	32717	32615	32773	32735	
2140	0	32839	32787	32755	32823	32687	32619	32821	32583	
2141	0	32871	32854	32743	32925	32806	32590	32823	32743	
2142	0	32769	32823	32759	32866	33015	32589	32857	32775	
2143	0	32815	32711	32813	32711	33101	32565	32795	32767	
2144	0	32760	32775	32743	32789	32739	32695	32725	32853	
2145	0	32684	32730	32799	32786	32622	32839	32675	32943	
2146	0	32676	32915	32668	32652	32511	32775	32834	32903	
2147	0	32568	32831	32687	32637	32923	32692	32946	33006	
