# OpenSignals Text File Format
# {"00:07:80:3B:46:38": {"sensor": ["CUSTOM/0.5/1.0/V", "CUSTOM/0.5/1.0/V", "CUSTOM/0.5/1.0/V", "CUSTOM/0.5/1.0/V", "CUSTOM/0.5/1.0/V", "CUSTOM/0.5/1.0/V", "CUSTOM/0.5/1.0/V", "CUSTOM/0.5/1.0/V"], "device name": "EMGs", "column": ["nSeq", "DI", "RA_L", "RA_R", "OE_L", "OE:R", "IL_L", "IL_R", "MF_L", "MF_R"], "sync interval": 2, "time": "17:57:12.81", "comments": "", "device connection": "BTH00:07:80:3B:46:38", "channels": [1, 2, 3, 4, 5, 6, 7, 8], "date": "2017-5-22", "mode": 0, "digital IO": [0, 1], "firmware version": 772, "device": "biosignalsplux", "position": 0, "sampling rate": 1000, "label": ["RA_L", "RA_R", "OE_L", "OE:R", "IL_L", "IL_R", "MF_L", "MF_R"], "resolution": [16, 16, 16, 16, 16, 16, 16, 16], "special": [{}, {}, {}, {}, {}, {}, {}, {}]}}
# EndOfHeader
0	0	32623	32677	32687	32751	32810	32743	32639	32722	
1	0	32772	32594	32727	32811	32806	32735	32633	32775	
2	0	32737	32567	32703	32708	32799	32843	32610	32719	
3	0	32663	32820	32727	32751	32786	32775	32707	32699	
4	0	32743	32682	32817	32699	32745	32869	32775	32641	
5	0	32785	32687	32803	32826	32743	32711	32775	32684	
6	0	32814	32691	32834	32678	32787	32841	32775	32567	
7	0	32738	32590	32862	32763	32775	32731	32751	32674	
8	0	32759	32615	32732	32707	32695	32775	32847	32722	
9	0	32758	32523	32750	32766	32615	32711	32707	32607	
10	0	32722	32567	32805	32743	32587	32857	32687	32694	
11	0	32640	32775	32713	32838	32572	32775	32655	32658	
12	0	32732	32695	32770	32711	32543	32822	32683	32709	
13	0	32822	32604	32793	32738	32621	32703	32735	32623	
14	0	32846	32534	32773	32716	32739	32711	32829	32699	
15	0	32732	32551	32793	32787	32711	32803	32759	32701	
16	0	32704	32467	32869	32755	32739	32695	32719	32821	
17	0	32666	32747	32703	32818	32814	32695	32694	32775	
18	0	32789	32561	32741	32770	32667	32707	32645	32708	
19	0	32827	32483	32775	32775	32639	32811	32655	32719	
20	0	32698	32566	32703	32727	32671	32621	32705	32623	
21	0	32724	32647	32732	32743	32685	32775	32751	32763	
22	0	32652	32647	32749	32699	32806	32775	32671	32731	
23	0	32921	32471	32837	32827	32751	32775	32775	32841	
24	0	32877	32533	32767	32715	32587	32807	32690	32827	
25	0	32898	32551	32821	32799	32577	32669	32576	32699	
26	0	32812	32735	32775	32730	32565	32743	32565	32727	
27	0	32828	32710	32673	32874	32562	32642	32639	32685	
28	0	32870	32679	32703	32783	32540	32803	32705	32679	
29	0	32856	32823	32797	32716	32483	32739	32740	32676	
30	0	32846	32924	32703	32677	32634	32903	32695	32787	
31	0	32796	32919	32741	32717	32743	32823	32638	32739	
32	0	32807	32879	32761	32742	32612	32747	32707	32604	
33	0	32784	32742	32726	32703	32643	32751	32707	32711	
34	0	32676	32612	32667	32875	32617	32775	32771	32720	
35	0	32727	32571	32717	32773	32809	32709	32738	32775	
36	0	32816	32575	32715	32815	32749	32859	32727	32743	
37	0	32764	32615	32762	32765	32791	32842	32673	32759	
38	0	32701	32595	32747	32765	33047	32887	32743	32799	
39	0	32741	32571	32723	32839	32927	32759	32669	32775	
40	0	32676	32613	32743	32727	32943	32756	32726	32707	
41	0	32652	32725	32723	32805	32959	32765	32635	32701	
42	0	32687	32543	32747	32790	32679	32646	32726	32743	
43	0	32786	32707	32747	32747	32914	32742	32775	32807	
44	0	32838	32707	32689	32769	32767	32698	32647	32647	
45	0	32828	32767	32641	32835	32685	32742	32646	32773	
46	0	32841	32677	32711	32747	32711	32775	32797	32671	
47	0	32819	32699	32765	32799	32548	32607	32783	32671	
48	0	32779	32667	32861	32694	32447	32767	32710	32725	
49	0	32764	32557	32742	32819	32519	32815	32687	32719	
50	0	32834	32587	32759	32799	32673	32647	32819	32599	
51	0	32910	32635	32775	32644	32551	32747	32819	32691	
52	0	32785	32677	32782	32694	32599	32716	32797	32687	
53	0	32689	32698	32679	32735	32645	32708	32831	32613	
54	0	32676	32715	32660	32783	32676	32691	32738	32679	
55	0	32666	32599	32711	32783	32663	32830	32814	32705	
56	0	32756	32679	32757	32869	32615	32673	32775	32767	
57	0	32788	32611	32666	32839	32482	32707	32761	32775	
58	0	32655	32871	32775	32834	32411	32851	32703	32855	
59	0	32804	32804	32831	32743	32425	32635	32646	32826	
60	0	32691	32775	32775	32735	32491	32852	32671	32763	
61	0	32620	32775	32845	32775	32598	32787	32756	32787	
62	0	32613	32718	32845	32698	32732	32671	32739	32665	
63	0	32630	32671	32849	32775	32687	32839	32799	32719	
64	0	32595	32637	32735	32871	32763	32797	32721	32661	
65	0	32722	32545	32775	32865	32759	32673	32711	32625	
66	0	32797	32623	32839	32937	32571	32700	32727	32578	
67	0	32836	32605	32893	32839	32683	32647	32743	32676	
68	0	32881	32562	32903	32694	32743	32799	32746	32663	
69	0	32873	32647	32887	32695	32699	32871	32783	32647	
70	0	32854	32719	32847	32743	32723	32710	32831	32815	
71	0	32852	32590	32787	32714	32567	32819	32751	32759	
72	0	32852	32702	32775	32756	32527	32687	32671	32679	
73	0	32823	32535	32724	32759	32739	32853	32797	32807	
74	0	32717	32471	32726	32703	32617	32811	32797	32682	
75	0	32754	32607	32723	32747	32751	32901	32701	32709	
76	0	32711	32577	32639	32681	32613	32807	32613	32723	
77	0	32768	32681	32623	32791	32581	32677	32739	32710	
78	0	32806	32759	32655	32919	32719	32801	32727	32631	
79	0	32790	32743	32713	32763	32683	32743	32626	32775	
80	0	32750	32722	32711	32845	32602	32671	32549	32711	
81	0	32729	32638	32663	32775	32647	32979	32671	32663	
82	0	32790	32687	32743	32805	32513	33001	32709	32691	
83	0	32686	32675	32786	32735	32476	32855	32711	32643	
84	0	32734	32581	32775	32795	32567	32948	32629	32699	
85	0	32732	32577	32813	32789	32553	32876	32582	32692	
86	0	32717	32630	32921	32727	32533	32837	32623	32663	
87	0	32720	32591	32783	32739	32610	32871	32727	32727	
88	0	32787	32603	32759	32839	32770	32927	32732	32647	
89	0	32841	32551	32727	32933	32703	32865	32732	32695	
90	0	32849	32675	32675	32748	32725	32711	32647	32718	
91	0	32830	32596	32669	32804	32757	32863	32666	32695	
92	0	32801	32623	32631	32671	32543	32787	32807	32663	
93	0	32821	32659	32715	32685	32511	32567	32799	32695	
94	0	32813	32758	32721	32783	32717	32794	32719	32655	
95	0	32783	32731	32822	32707	32604	32773	32690	32645	
96	0	32735	32754	32767	32799	32703	32631	32771	32743	
97	0	32663	32702	32743	32739	32747	32743	32827	32767	
98	0	32698	32671	32823	32838	32717	32775	32839	32755	
99	0	32798	32611	32789	32687	32711	32775	32884	32715	
100	0	32729	32603	32783	32763	32525	32697	32802	32687	
101	0	32679	32694	32883	32791	32495	32663	32802	32743	
102	0	32675	32819	32935	32655	32623	32751	32899	32703	
103	0	32606	32810	32887	32711	32667	32829	32846	32671	
104	0	32640	32695	32839	32807	32675	32829	32783	32695	
105	0	32694	32692	32820	32697	32795	32621	32703	32749	
106	0	32761	32679	32827	32731	32823	32775	32858	32551	
107	0	32858	32707	32949	32747	32706	32845	32852	32594	
108	0	32868	32671	32738	32775	32549	32705	32839	32706	
109	0	32790	32623	32791	32749	32767	32839	32722	32601	
110	0	32692	32679	32742	32638	32759	32871	32885	32679	
111	0	32795	32707	32775	32695	32839	32775	32839	32662	
112	0	32801	32702	32756	32773	32835	32789	32773	32610	
113	0	32743	32659	32679	32685	32562	32719	32903	32731	
114	0	32857	32671	32727	32823	32703	32859	32818	32767	
115	0	32896	32679	32687	32826	32821	32839	32767	32663	
116	0	32727	32755	32612	32743	32717	32717	32692	32703	
117	0	32745	32786	32719	32703	32825	32799	32733	32747	
118	0	32791	32838	32703	32799	32621	32879	32751	32831	
119	0	32729	32855	32761	32748	32506	32854	32669	32700	
120	0	32702	32818	32847	32827	32703	32879	32591	32751	
121	0	32784	32519	32879	32828	32692	32719	32679	32647	
122	0	32837	32515	32809	32757	32727	32659	32727	32723	
123	0	32787	32493	32758	32842	32559	32759	32655	32674	
124	0	32772	32629	32757	32851	32698	32855	32722	32775	
125	0	32836	32677	32759	32735	32791	32807	32763	32701	
126	0	32869	32669	32815	32791	32630	32692	32791	32645	
127	0	32890	32614	32827	32788	32694	32694	32799	32766	
128	0	32871	32579	32786	32685	32673	32727	32871	32710	
129	0	32791	32565	32701	32745	32772	32775	32834	32679	
130	0	32809	32615	32717	32711	32575	32751	32822	32719	
131	0	32810	32605	32751	32708	32601	32655	32655	32687	
132	0	32788	32765	32626	32765	32713	32847	32824	32669	
133	0	32710	32673	32615	32721	32642	32859	32814	32653	
134	0	32741	32680	32669	32763	32543	32647	32838	32685	
135	0	32753	32678	32703	32670	32571	32747	32789	32598	
136	0	32799	32754	32829	32707	32751	32739	32738	32677	
137	0	32775	32721	32775	32771	32454	32575	32863	32603	
138	0	32834	32675	32815	32831	32466	32718	32922	32615	
139	0	32855	32695	32887	32785	32507	32727	32891	32647	
140	0	32775	32812	32688	32807	32566	32831	32866	32639	
141	0	32697	32815	32831	32775	32581	32629	32833	32725	
142	0	32738	32751	32895	32751	32541	32793	32815	32653	
143	0	32791	32743	32819	32660	32551	32667	32825	32761	
144	0	32770	32837	32827	32738	32447	32799	32663	32709	
145	0	32734	32693	32869	32727	32483	32603	32690	32754	
146	0	32799	32611	32775	32807	32540	32611	32589	32738	
147	0	32802	32716	32853	32751	32581	32755	32620	32685	
148	0	32796	32687	32725	32767	32563	32785	32735	32588	
149	0	32831	32703	32706	32788	32571	32739	32871	32599	
150	0	32933	32719	32722	32770	32647	32870	32797	32607	
151	0	32822	32701	32711	32793	32647	32767	32813	32617	
152	0	32809	32717	32666	32718	32619	32819	32823	32604	
153	0	32884	32722	32710	32717	32715	32590	32707	32613	
154	0	32902	32703	32793	32815	32679	32822	32721	32679	
155	0	32871	32599	32725	32742	32637	32813	32847	32701	
156	0	32808	32575	32722	32765	32660	32687	32809	32638	
157	0	32822	32559	32775	32679	32703	32775	32813	32639	
158	0	32775	32735	32819	32843	32631	32690	32727	32659	
159	0	32723	32562	32722	32743	32647	32726	32685	32647	
160	0	32708	32485	32751	32730	32725	32538	32619	32534	
161	0	32727	32597	32850	32771	32765	32831	32647	32823	
162	0	32764	32729	32759	32736	32725	32805	32703	32871	
163	0	32766	32695	32743	32771	32463	32687	32727	32715	
164	0	32761	32549	32773	32774	32567	32806	32735	32734	
165	0	32735	32502	32791	32759	32543	32775	32602	32749	
166	0	32757	32503	32717	32807	32695	32627	32659	32851	
167	0	32767	32587	32742	32705	32767	32627	32677	32775	
168	0	32834	32811	32791	32756	32711	32679	32670	32773	
169	0	32785	32835	32738	32663	32775	32679	32727	32843	
170	0	32762	32831	32775	32748	32719	32585	32743	32717	
171	0	32719	32767	32756	32689	32647	32719	32803	32771	
172	0	32663	32833	32759	32727	32661	32775	32743	32788	
173	0	32761	32775	32725	32671	32636	32567	32703	32603	
174	0	32790	32643	32739	32689	32634	32727	32755	32645	
175	0	32790	32564	32803	32721	32647	32775	32686	32662	
176	0	32846	32684	32764	32741	32647	32599	32655	32731	
177	0	32783	32630	32703	32810	32476	32717	32557	32647	
178	0	32782	32671	32713	32700	32469	32752	32543	32683	
179	0	32738	32725	32687	32751	32635	32671	32597	32647	
180	0	32735	32739	32763	32757	32711	32738	32589	32695	
181	0	32711	32623	32685	32749	32690	32797	32610	32690	
182	0	32666	32635	32755	32769	32709	32629	32605	32711	
183	0	32678	32647	32831	32749	32647	32818	32573	32671	
184	0	32658	32787	32839	32795	32663	32784	32679	32759	
185	0	32692	32531	32765	32763	32747	32671	32606	32767	
186	0	32691	32775	32822	32767	32759	32775	32730	32740	
187	0	32671	32775	32885	32726	32765	32839	32702	32763	
188	0	32724	32762	32789	32815	32658	32631	32713	32742	
189	0	32783	32690	32740	32655	32660	32812	32679	32717	
190	0	32783	32831	32735	32783	32646	32723	32740	32807	
191	0	32808	32731	32727	32767	32603	32775	32707	32727	
192	0	32867	32562	32669	32757	32530	32655	32677	32775	
193	0	32868	32591	32663	32676	32509	32791	32799	32677	
194	0	32948	32802	32687	32769	32559	32687	32847	32711	
195	0	32940	32699	32695	32675	32505	32871	32714	32757	
196	0	32820	32743	32698	32699	32586	32711	32718	32687	
197	0	32743	32658	32775	32695	32721	32775	32713	32715	
198	0	32849	32591	32687	32715	32733	32758	32743	32646	
199	0	32788	32626	32699	32647	32687	32589	32759	32775	
200	0	32775	32615	32802	32703	32595	32765	32775	32775	
201	0	32724	32575	32821	32735	32673	32755	32758	32702	
202	0	32762	32599	32775	32765	32703	32569	32813	32742	
203	0	32695	32495	32803	32773	32550	32590	32761	32771	
204	0	32723	32628	32807	32775	32607	32656	32791	32694	
205	0	32727	32626	32709	32869	32735	32735	32684	32662	
206	0	32719	32588	32743	32797	32723	32693	32719	32659	
207	0	32689	32571	32697	32825	32679	32573	32775	32615	
208	0	32686	32661	32737	32754	32631	32759	32775	32788	
209	0	32701	32719	32709	32815	32679	32711	32743	32756	
210	0	32732	32893	32621	32775	32723	32771	32715	32791	
211	0	32773	32887	32640	32782	32647	32603	32738	32758	
212	0	32797	32795	32799	32825	32647	32805	32709	32710	
213	0	32847	32715	32687	32815	32475	32814	32708	32799	
214	0	32850	32663	32626	32822	32527	32627	32759	32730	
215	0	32849	32660	32775	32801	32647	32834	32855	32671	
216	0	32839	32687	32811	32853	32685	32775	32804	32687	
217	0	32844	32637	32731	32749	32647	32631	32717	32702	
218	0	32712	32639	32761	32843	32679	32727	32767	32579	
219	0	32721	32711	32912	32815	32791	32762	32811	32647	
220	0	32716	32621	32909	32775	32647	32690	32799	32675	
221	0	32755	32594	32788	32659	32647	32793	32717	32773	
222	0	32692	32663	32869	32727	32519	32783	32583	32805	
223	0	32710	32847	32869	32733	32602	32635	32549	32694	
224	0	32633	32887	32844	32738	32663	32815	32687	32719	
225	0	32682	32879	32793	32757	32767	32793	32669	32769	
226	0	32756	32767	32723	32735	32759	32597	32647	32610	
227	0	32838	32655	32804	32798	32735	32759	32591	32647	
228	0	32927	32639	32823	32709	32835	32727	32627	32707	
229	0	32826	32582	32708	32775	32687	32753	32746	32687	
230	0	32807	32642	32727	32627	32719	32693	32679	32773	
231	0	32854	32659	32796	32807	32749	32629	32767	32647	
232	0	32834	32527	32748	32821	32790	32749	32813	32773	
233	0	32827	32551	32726	32753	32724	32667	32702	32695	
234	0	32856	32766	32775	32839	32671	32835	32623	32770	
235	0	32773	32773	32751	32895	32593	32805	32719	32799	
236	0	32789	32758	32716	32749	32703	32663	32733	32665	
237	0	32707	32751	32711	32827	32771	32795	32726	32727	
238	0	32701	32691	32827	32799	32719	32711	32743	32670	
239	0	32679	32717	32710	32854	32719	32797	32603	32784	
240	0	32766	32677	32751	32834	32695	32613	32585	32827	
241	0	32707	32662	32839	32813	32711	32775	32719	32694	
242	0	32660	32635	32738	32711	32667	32791	32718	32743	
243	0	32742	32542	32773	32769	32660	32715	32726	32687	
244	0	32723	32543	32797	32721	32687	32806	32810	32839	
245	0	32718	32579	32819	32745	32725	32847	32676	32845	
246	0	32698	32547	32675	32831	32551	32683	32663	32759	
247	0	32727	32518	32724	32727	32566	32807	32847	32895	
248	0	32738	32795	32734	32803	32615	32797	32775	32862	
249	0	32700	32837	32738	32703	32759	32807	32759	32767	
250	0	32722	32711	32679	32843	32715	32775	32715	32807	
251	0	32726	32703	32703	32727	32667	32743	32655	32771	
252	0	32740	32692	32726	32850	32743	32769	32661	32775	
253	0	32772	32647	32738	32788	32797	32735	32786	32769	
254	0	32720	32709	32707	32871	32611	32775	32748	32803	
255	0	32685	32679	32699	32929	32553	32666	32751	32671	
256	0	32662	32802	32711	32799	32557	32757	32743	32775	
257	0	32671	32851	32738	32703	32821	32734	32717	32786	
258	0	32666	32762	32738	32807	32647	32775	32628	32775	
259	0	32686	32691	32823	32707	32543	32786	32642	32683	
260	0	32674	32647	32755	32765	32589	32655	32660	32795	
261	0	32735	32644	32759	32687	32589	32767	32749	32775	
262	0	32804	32695	32855	32698	32643	32771	32719	32679	
263	0	32806	32551	32804	32671	32641	32775	32735	32721	
264	0	32773	32583	32863	32735	32683	32711	32806	32615	
265	0	32759	32743	32839	32693	32679	32767	32809	32673	
266	0	32733	32655	32803	32767	32671	32815	32567	32575	
267	0	32836	32550	32881	32655	32727	32764	32587	32635	
268	0	32743	32539	32797	32804	32679	32633	32557	32605	
269	0	32747	32575	32762	32731	32755	32739	32633	32727	
270	0	32775	32540	32841	32743	32751	32807	32703	32709	
271	0	32745	32467	32835	32655	32742	32865	32759	32699	
272	0	32808	32615	32775	32815	32729	32679	32711	32723	
273	0	32736	32827	32859	32807	32791	32803	32762	32670	
274	0	32761	32775	32705	32823	32591	32812	32647	32793	
275	0	32756	32635	32637	32868	32647	32699	32679	32771	
276	0	32742	32627	32727	32878	32719	32827	32614	32647	
277	0	32751	32692	32671	32899	32647	32768	32643	32701	
278	0	32692	32559	32707	32839	32634	32775	32700	32583	
279	0	32748	32771	32724	32775	32559	32690	32745	32715	
280	0	32743	32577	32675	32862	32569	32787	32852	32663	
281	0	32724	32579	32730	32763	32763	32742	32727	32731	
282	0	32697	32563	32837	32783	32634	32775	32735	32758	
283	0	32692	32629	32775	32679	32662	32751	32771	32647	
284	0	32663	32630	32796	32849	32631	32829	32647	32759	
285	0	32700	32535	32749	32749	32635	32839	32615	32666	
286	0	32742	32739	32743	32771	32603	32750	32647	32711	
287	0	32738	32695	32823	32687	32633	32765	32807	32673	
288	0	32783	32666	32730	32743	32690	32715	32763	32659	
289	0	32734	32687	32673	32697	32663	32735	32725	32695	
290	0	32662	32647	32759	32711	32673	32655	32775	32749	
291	0	32687	32595	32790	32655	32595	32807	32690	32711	
292	0	32692	32583	32713	32679	32591	32805	32659	32622	
293	0	32647	32775	32759	32668	32510	32869	32551	32683	
294	0	32647	32630	32803	32775	32643	32719	32503	32698	
295	0	32704	32660	32716	32747	32773	32805	32634	32783	
296	0	32694	32728	32687	32771	32805	32828	32631	32721	
297	0	32708	32615	32789	32787	32675	32619	32726	32613	
298	0	32726	32519	32848	32837	32669	32731	32603	32721	
299	0	32838	32387	32795	32815	32763	32791	32599	32727	
300	0	32834	32633	32783	32759	32771	32823	32655	32667	
301	0	32775	32553	32829	32731	32687	32629	32633	32757	
302	0	32731	32687	32799	32741	32679	32867	32679	32623	
303	0	32717	32604	32807	32775	32583	32727	32751	32723	
304	0	32710	32569	32759	32871	32687	32783	32775	32692	
305	0	32716	32823	32774	32839	32722	32675	32732	32723	
306	0	32717	32783	32804	32723	32681	32831	32695	32647	
307	0	32727	32795	32663	32795	32715	32751	32726	32811	
308	0	32705	32821	32666	32695	32748	32809	32699	32806	
309	0	32718	32759	32734	32807	32717	32647	32633	32831	
310	0	32771	32461	32739	32725	32694	32767	32694	32782	
311	0	32900	32379	32796	32669	32727	32788	32772	32655	
312	0	32797	32381	32839	32711	32585	32587	32787	32743	
313	0	32809	32771	32775	32807	32589	32738	32802	32803	
314	0	32758	32711	32758	32724	32623	32799	32754	32708	
315	0	32720	32631	32783	32729	32725	32709	32663	32765	
316	0	32734	32663	32801	32755	32743	32879	32709	32677	
317	0	32766	32749	32783	32741	32711	32705	32671	32783	
318	0	32661	32709	32843	32742	32735	32771	32727	32780	
319	0	32695	32515	32829	32723	32793	32661	32796	32762	
320	0	32751	32541	32766	32767	32725	32665	32758	32722	
321	0	32775	32741	32756	32730	32751	32691	32763	32682	
322	0	32751	32719	32839	32793	32766	32589	32754	32679	
323	0	32717	32695	32725	32719	32723	32793	32658	32751	
324	0	32733	32607	32759	32719	32671	32751	32647	32809	
325	0	32732	32543	32747	32722	32751	32671	32647	32655	
326	0	32807	32559	32763	32688	32595	32843	32775	32684	
327	0	32743	32567	32692	32671	32519	32829	32749	32741	
328	0	32826	32575	32727	32759	32647	32759	32812	32643	
329	0	32895	32439	32737	32759	32655	32773	32673	32579	
330	0	32843	32487	32723	32751	32615	32871	32687	32707	
331	0	32791	32491	32687	32759	32678	32699	32702	32743	
332	0	32814	32591	32701	32702	32522	32839	32707	32711	
333	0	32855	32555	32691	32759	32555	32869	32595	32660	
334	0	32799	32587	32739	32743	32577	32727	32604	32703	
335	0	32726	32519	32563	32839	32613	32839	32591	32642	
336	0	32685	32723	32694	32775	32615	32722	32609	32722	
337	0	32721	32703	32687	32911	32599	32702	32673	32630	
338	0	32690	32705	32738	32773	32663	32645	32620	32661	
339	0	32695	32634	32747	32763	32681	32702	32662	32775	
340	0	32698	32685	32836	32677	32690	32775	32611	32719	
341	0	32713	32795	32787	32805	32773	32623	32615	32863	
342	0	32703	32727	32759	32647	32749	32798	32647	32819	
343	0	32679	32586	32811	32735	32798	32847	32702	32715	
344	0	32768	32599	32806	32731	32775	32714	32700	32762	
345	0	32799	32534	32775	32807	32487	32839	32743	32730	
346	0	32736	32557	32822	32823	32669	32810	32647	32716	
347	0	32745	32655	32806	32715	32715	32759	32727	32749	
348	0	32756	32667	32805	32661	32631	32843	32670	32763	
349	0	32718	32911	32775	32687	32687	32839	32671	32683	
350	0	32774	32717	32844	32707	32661	32825	32749	32775	
351	0	32743	32559	32819	32623	32703	32903	32742	32684	
352	0	32767	32575	32747	32775	32701	32839	32707	32765	
353	0	32775	32532	32687	32703	32505	32743	32827	32743	
354	0	32805	32555	32773	32823	32549	32666	32755	32647	
355	0	32820	32639	32827	32693	32615	32721	32795	32669	
356	0	32789	32671	32810	32797	32718	32613	32655	32719	
357	0	32748	32556	32711	32695	32771	32679	32591	32699	
358	0	32773	32526	32671	32803	32685	32721	32706	32735	
359	0	32711	32477	32749	32797	32683	32602	32716	32654	
360	0	32818	32780	32791	32799	32679	32735	32775	32741	
361	0	32780	32624	32757	32703	32677	32667	32831	32710	
362	0	32787	32723	32841	32815	32647	32738	32749	32759	
363	0	32767	32451	32749	32791	32679	32763	32775	32737	
364	0	32743	32694	32775	32727	32669	32663	32739	32806	
365	0	32802	32575	32687	32887	32687	32815	32765	32687	
366	0	32765	32637	32679	32760	32757	32719	32599	32773	
367	0	32788	32615	32698	32821	32702	32615	32647	32711	
368	0	32794	32687	32692	32687	32610	32855	32722	32655	
369	0	32833	32663	32659	32723	32607	32706	32719	32693	
370	0	32788	32747	32726	32635	32647	32749	32769	32646	
371	0	32764	32617	32715	32641	32764	32647	32639	32695	
372	0	32798	32885	32759	32726	32733	32762	32767	32627	
373	0	32761	32734	32775	32639	32700	32807	32867	32687	
374	0	32838	32633	32647	32732	32731	32839	32685	32645	
375	0	32894	32638	32670	32819	32642	32647	32635	32615	
376	0	32868	32598	32820	32839	32508	32829	32767	32687	
377	0	32872	32509	32738	32839	32524	32810	32735	32695	
378	0	32815	32551	32799	32791	32455	32794	32692	32702	
379	0	32810	32775	32823	32715	32561	32715	32667	32759	
380	0	32776	32755	32775	32743	32607	32717	32679	32667	
381	0	32841	32687	32797	32719	32663	32843	32615	32781	
382	0	32871	32705	32845	32791	32679	32647	32625	32690	
383	0	32839	32724	32879	32751	32692	32887	32691	32786	
384	0	32834	32594	32819	32917	32727	32751	32699	32821	
385	0	32775	32532	32841	32786	32611	32775	32679	32759	
386	0	32806	32639	32839	32903	32609	32661	32679	32741	
387	0	32860	32734	32798	32751	32698	32863	32577	32684	
388	0	32812	32691	32719	32751	32699	32801	32571	32823	
389	0	32788	32567	32786	32758	32661	32834	32581	32735	
390	0	32772	32687	32711	32743	32684	32615	32647	32791	
391	0	32698	32692	32751	32694	32756	32743	32812	32743	
392	0	32722	32543	32694	32741	32785	32775	32757	32566	
393	0	32668	32598	32601	32767	32773	32859	32784	32681	
394	0	32667	32749	32727	32721	32525	32786	32775	32670	
395	0	32688	32757	32793	32789	32525	32677	32717	32679	
396	0	32629	32801	32791	32705	32695	32737	32775	32743	
397	0	32729	32803	32684	32735	32715	32833	32783	32687	
398	0	32745	32854	32745	32775	32639	32758	32791	32830	
399	0	32793	32863	32679	32775	32631	32711	32674	32767	
400	0	32835	32846	32739	32791	32707	32717	32727	32694	
401	0	32769	32878	32783	32663	32815	32671	32782	32761	
402	0	32703	32821	32838	32750	32851	32751	32661	32711	
403	0	32647	32789	32871	32701	32884	32615	32694	32793	
404	0	32655	32749	32783	32839	32769	32695	32724	32737	
405	0	32697	32669	32817	32799	32711	32739	32756	32687	
406	0	32783	32447	32795	32787	32647	32717	32698	32825	
407	0	32842	32483	32679	32775	32599	32681	32719	32687	
408	0	32863	32487	32737	32663	32525	32765	32879	32743	
409	0	32823	32587	32751	32677	32519	32715	32847	32707	
410	0	32781	32603	32787	32690	32606	32831	32807	32663	
411	0	32889	32661	32731	32723	32639	32839	32718	32662	
412	0	32738	32731	32687	32770	32591	32815	32735	32636	
413	0	32710	32711	32727	32612	32647	32643	32807	32647	
414	0	32749	32667	32743	32731	32679	32882	32739	32691	
415	0	32701	32491	32745	32637	32679	32871	32711	32658	
416	0	32791	32477	32791	32711	32578	32691	32621	32743	
417	0	32775	32491	32791	32659	32493	32831	32670	32814	
418	0	32769	32647	32747	32707	32437	32789	32673	32718	
419	0	32743	32531	32753	32822	32659	32725	32705	32818	
420	0	32792	32630	32766	32711	32690	32749	32645	32798	
421	0	32724	32718	32759	32775	32647	32749	32703	32819	
422	0	32743	32887	32811	32743	32671	32801	32703	32703	
423	0	32844	32801	32823	32853	32707	32711	32647	32730	
424	0	32900	32647	32711	32775	32553	32647	32603	32739	
425	0	32847	32775	32738	32822	32535	32831	32635	32644	
426	0	32789	32807	32795	32810	32690	32711	32767	32655	
427	0	32773	32746	32838	32699	32717	32789	32647	32645	
428	0	32749	32647	32725	32743	32623	32757	32758	32805	
429	0	32810	32671	32711	32709	32727	32774	32615	32735	
430	0	32889	32709	32691	32775	32607	33013	32620	32774	
431	0	32856	32709	32638	32783	32623	33223	32485	32658	
432	0	32812	32740	32745	32717	32727	33197	32380	32799	
433	0	32802	32519	32727	32775	32722	33284	32429	32711	
434	0	32813	32493	32704	32831	32691	33206	32579	32713	
435	0	32817	32551	32759	32738	32591	32955	32495	32640	
436	0	32741	32549	32773	32869	32727	32873	32621	32767	
437	0	32745	32597	32747	32762	32756	32997	32633	32806	
438	0	32679	32799	32757	32810	32699	32966	32754	32647	
439	0	32686	32844	32823	32757	32775	32789	32639	32751	
440	0	32774	32742	32698	32839	32785	32826	32659	32701	
441	0	32759	32707	32717	32735	32540	32767	32775	32606	
442	0	32719	32713	32767	32858	32555	32668	32806	32694	
443	0	32725	32727	32745	32847	32668	32455	32775	32727	
444	0	32807	32751	32815	32715	32719	32560	32791	32675	
445	0	32861	32666	32759	32815	32773	32605	32833	32751	
446	0	32860	32677	32729	32751	32789	32516	32807	32705	
447	0	32837	32595	32705	32793	32791	32662	32797	32668	
448	0	32846	32546	32727	32692	32623	32660	32663	32671	
449	0	32802	32626	32694	32647	32489	32503	32551	32708	
450	0	32808	32767	32727	32721	32537	32681	32563	32799	
451	0	32730	32775	32721	32683	32615	32636	32582	32727	
452	0	32668	32843	32791	32751	32716	32703	32662	32719	
453	0	32663	32731	32742	32742	32791	32706	32551	32751	
454	0	32637	32794	32695	32715	32829	32535	32647	32764	
455	0	32615	32638	32769	32757	32571	32685	32631	32683	
456	0	32612	32599	32771	32685	32826	32598	32539	32627	
457	0	32642	32623	32827	32794	32818	32662	32711	32775	
458	0	32595	32711	32855	32775	32724	32710	32751	32759	
459	0	32681	32681	32749	32903	32701	32583	32847	32690	
460	0	32773	32717	32787	32894	32684	32589	32813	32743	
461	0	32735	32689	32839	32767	32524	32700	32831	32662	
462	0	32762	32751	32839	32812	32473	32612	32868	32642	
463	0	32781	32699	32915	32711	32671	32607	32823	32797	
464	0	32806	32549	32847	32783	32753	32711	32858	32775	
465	0	32720	32533	32794	32703	32692	32581	32738	32669	
466	0	32604	32527	32791	32749	32591	32647	32775	32807	
467	0	32653	32519	32831	32738	32645	32749	32775	32807	
468	0	32655	32477	32839	32655	32697	32733	32796	32749	
469	0	32727	32587	32751	32687	32487	32732	32711	32809	
470	0	32795	32515	32765	32675	32676	32631	32815	32727	
471	0	32831	32531	32721	32757	32761	32775	32903	32679	
472	0	32742	32511	32803	32775	32759	32763	32908	32637	
473	0	32765	32807	32791	32789	32745	32647	32801	32759	
474	0	32803	32745	32695	32873	32775	32804	32775	32689	
475	0	32813	32791	32726	32775	32722	32821	32759	32799	
476	0	32786	32714	32679	32874	32655	32694	32767	32775	
477	0	32831	32807	32703	32767	32572	32809	32775	32690	
478	0	32745	32799	32607	32851	32564	32708	32899	32725	
479	0	32754	32581	32625	32807	32530	32819	32733	32599	
480	0	32854	32630	32703	32885	32690	32677	32739	32677	
481	0	32843	32927	32743	32833	32671	32829	32797	32671	
482	0	32766	32815	32786	32855	32700	32758	32815	32596	
483	0	32699	32743	32834	32743	32638	32671	32759	32607	
484	0	32698	32691	32871	32775	32671	32845	32669	32622	
485	0	32658	32607	32775	32687	32487	32822	32703	32551	
486	0	32663	32723	32675	32711	32459	32679	32719	32775	
487	0	32628	32791	32699	32751	32679	32695	32775	32700	
488	0	32679	32766	32763	32701	32555	32579	32679	32783	
489	0	32764	32739	32828	32732	32679	32787	32804	32755	
490	0	32692	32541	32727	32719	32556	32787	32719	32739	
491	0	32704	32791	32807	32714	32460	32566	32713	32775	
492	0	32679	32755	32730	32615	32506	32711	32639	32827	
493	0	32721	32791	32787	32799	32599	32709	32635	32825	
494	0	32727	32734	32770	32707	32695	32667	32738	32711	
495	0	32729	32733	32755	32757	32834	32690	32719	32786	
496	0	32727	32751	32719	32813	32743	32695	32807	32757	
497	0	32742	32707	32666	32751	32823	32575	32679	32686	
498	0	32711	32613	32739	32810	32581	32743	32875	32766	
499	0	32699	32621	32818	32716	32751	32743	32811	32743	
500	0	32609	32687	32823	32787	32706	32677	32667	32766	
501	0	32590	32692	32803	32748	32691	32747	32615	32675	
502	0	32629	32685	32695	32803	32691	32815	32725	32735	
503	0	32623	32525	32675	32791	32853	32687	32701	32668	
504	0	32566	32495	32747	32799	32615	32742	32751	32751	
505	0	32538	32427	32693	32717	32663	32834	32687	32753	
506	0	32473	32455	32655	32807	32559	32866	32775	32687	
507	0	32530	32375	32621	32887	32495	32839	32748	32807	
508	0	32510	32375	32615	32811	32541	32749	32694	32811	
509	0	32487	32401	32662	32757	32614	32878	32735	32717	
510	0	32506	32438	32627	32758	32541	32903	32699	32719	
511	0	32579	32439	32639	32739	32463	32643	32734	32725	
512	0	32753	32391	32591	32783	32580	32767	32647	32707	
513	0	32757	32316	32576	32797	32671	32870	32721	32691	
514	0	32830	32233	32657	32773	32687	32675	32675	32695	
515	0	32814	32258	32593	32819	32657	32823	32678	32629	
516	0	32793	32187	32634	32822	32703	32837	32571	32775	
517	0	32791	32086	32745	32789	32707	32798	32631	32679	
518	0	32853	32127	32698	32775	32647	32791	32583	32639	
519	0	32943	32134	32655	32756	32662	32801	32719	32703	
520	0	33094	32157	32738	32675	32707	32794	32715	32659	
521	0	33050	32223	32847	32775	32735	32711	32741	32775	
522	0	33130	32231	32729	32711	32587	32993	32630	32699	
523	0	33255	32078	32758	32775	32547	32963	32699	32645	
524	0	33313	32135	32738	32755	32668	32795	32731	32775	
525	0	33348	32319	32795	32749	32741	32930	32788	32717	
526	0	33359	32585	32789	32795	32729	32802	32687	32669	
527	0	33477	32647	32833	32773	32647	32799	32725	32687	
528	0	33420	32647	32847	32764	32671	32635	32852	32662	
529	0	33447	32767	32882	32614	32708	32687	32793	32757	
530	0	33378	32995	32846	32668	32702	32759	32867	32756	
531	0	33338	32951	32925	32679	32695	32607	32962	32695	
532	0	33297	32974	32963	32607	32692	32679	32979	32839	
533	0	33209	33287	32917	32671	32687	32734	32951	32723	
534	0	33127	33261	32950	32593	32620	32644	32879	32705	
535	0	33088	33495	32917	32695	32519	32655	32895	32782	
536	0	33058	33335	32925	32668	32507	32561	32909	32765	
537	0	33012	33257	32954	32631	32423	32647	32823	32743	
538	0	32967	33223	32931	32755	32479	32565	32943	32687	
539	0	32882	33292	32957	32647	32599	32634	32869	32647	
540	0	32844	33523	33022	32703	32643	32636	32860	32755	
541	0	32743	33351	32973	32707	32703	32705	32742	32739	
542	0	32739	33243	32951	32847	32715	32687	32682	32821	
543	0	32687	33383	32935	32759	32759	32709	32644	32827	
544	0	32662	33343	32831	32823	32773	32671	32695	32919	
545	0	32647	33156	32897	32771	32743	32785	32739	32901	
546	0	32543	33074	32875	32769	32814	32754	32636	32855	
547	0	32569	33101	32763	32789	32775	32788	32647	32858	
548	0	32509	32871	32740	32775	32786	32735	32579	32791	
549	0	32370	32764	32775	32807	32767	32655	32514	32869	
550	0	32211	32643	32586	32837	32773	32807	32558	32743	
551	0	32151	32657	32703	32747	32731	32799	32623	32870	
552	0	32211	32818	32615	32763	32749	32679	32722	32775	
553	0	32207	32647	32727	32749	32748	32679	32621	32739	
554	0	32212	32607	32571	32815	32679	32775	32687	32662	
555	0	32226	32689	32599	32732	32719	32791	32733	32719	
556	0	32270	32647	32679	32789	32754	32756	32719	32627	
557	0	32324	32516	32559	32775	32751	32714	32771	32671	
558	0	32355	32559	32604	32791	32749	32647	32713	32562	
559	0	32454	32805	32729	32823	32815	32711	32797	32647	
560	0	32469	32727	32742	32801	32782	32615	32598	32671	
561	0	32475	32581	32735	32797	32791	32775	32541	32732	
562	0	32466	32703	32759	32859	32811	32700	32545	32729	
563	0	32567	32775	32716	32849	32819	32751	32660	32709	
564	0	32580	32691	32707	32885	32635	32687	32671	32773	
565	0	32596	32645	32741	32751	32611	32727	32733	32787	
566	0	32625	32623	32791	32787	32662	32784	32587	32711	
567	0	32627	32586	32783	32901	32724	32797	32695	32722	
568	0	32699	32595	32681	32769	32775	32775	32665	32783	
569	0	32595	32639	32663	32822	32859	32695	32637	32647	
570	0	32646	32647	32740	32775	32791	32829	32621	32775	
571	0	32783	32583	32735	32775	32677	32839	32692	32751	
572	0	32839	32573	32622	32751	32647	32658	32785	32598	
573	0	32842	32407	32642	32739	32614	32811	32712	32747	
574	0	32840	32346	32698	32695	32528	32726	32635	32681	
575	0	32837	32419	32589	32703	32543	32833	32714	32759	
576	0	32893	32595	32674	32671	32493	32654	32663	32719	
577	0	32911	32554	32733	32693	32523	32631	32675	32763	
578	0	32964	32571	32695	32725	32567	32732	32711	32722	
579	0	33033	32551	32731	32755	32533	32775	32692	32775	
580	0	33007	32547	32819	32705	32494	32791	32710	32791	
581	0	32939	32558	32799	32771	32583	32653	32765	32812	
582	0	32903	32407	32811	32751	32729	32751	32723	32775	
583	0	32879	32455	32863	32743	32767	32743	32803	32719	
584	0	32916	32583	32815	32738	32627	32645	32859	32727	
585	0	32862	32511	32892	32809	32647	32775	32775	32652	
586	0	32803	32535	32823	32845	32685	32729	32743	32787	
587	0	32850	32564	32788	32806	32721	32797	32825	32674	
588	0	32762	32634	32838	32803	32583	32799	32739	32662	
589	0	32711	32639	32775	32771	32629	32734	32815	32644	
590	0	32713	32747	32791	32805	32789	32811	32774	32663	
591	0	32738	32731	32722	32787	32691	32729	32702	32723	
592	0	32811	32775	32693	32681	32756	32775	32743	32662	
593	0	32865	32655	32749	32806	32701	32853	32751	32732	
594	0	32817	32575	32788	32707	32615	32743	32762	32647	
595	0	32765	32459	32626	32789	32583	32771	32632	32758	
596	0	32743	32583	32658	32715	32615	32791	32615	32716	
597	0	32749	32739	32703	32773	32756	32695	32692	32742	
598	0	32796	32623	32655	32673	32690	32839	32721	32677	
599	0	32844	32647	32679	32841	32677	32726	32759	32598	
600	0	32849	32615	32773	32695	32671	32828	32767	32615	
601	0	32844	32647	32787	32698	32687	32705	32630	32687	
602	0	32817	32711	32775	32642	32729	32661	32699	32735	
603	0	32796	32599	32810	32785	32532	32775	32647	32679	
604	0	32814	32531	32837	32727	32525	32597	32647	32615	
605	0	32789	32807	32797	32775	32586	32727	32687	32675	
606	0	32764	32759	32845	32757	32669	32745	32719	32647	
607	0	32800	32694	32849	32822	32748	32531	32586	32718	
608	0	32769	32646	32890	32763	32699	32717	32692	32707	
609	0	32780	32575	32773	32608	32749	32813	32711	32696	
610	0	32760	32647	32715	32679	32783	32663	32702	32723	
611	0	32748	32623	32757	32663	32811	32790	32739	32671	
612	0	32703	32543	32620	32692	32847	32647	32797	32693	
613	0	32736	32749	32679	32711	32621	32743	32655	32719	
614	0	32765	32755	32771	32839	32471	32647	32662	32770	
615	0	32799	32741	32687	32795	32574	32759	32769	32671	
616	0	32887	32675	32747	32775	32733	32759	32826	32613	
617	0	32760	32671	32775	32874	32735	32739	32775	32678	
618	0	32677	32641	32751	32855	32747	32759	32681	32749	
619	0	32759	32741	32772	32854	32735	32831	32589	32742	
620	0	32749	32645	32877	32741	32692	32735	32725	32769	
621	0	32790	32535	32799	32751	32673	32795	32695	32773	
622	0	32816	32547	32785	32698	32695	32771	32807	32709	
623	0	32826	32703	32850	32715	32767	32873	32802	32605	
624	0	32732	32743	32859	32645	32771	32749	32763	32769	
625	0	32811	32699	32772	32769	32767	32531	32863	32671	
626	0	32820	32685	32787	32695	32543	32571	32735	32765	
627	0	32769	32597	32759	32725	32535	32439	32685	32795	
628	0	32703	32567	32695	32646	32506	32677	32719	32694	
629	0	32722	32695	32692	32708	32635	32705	32821	32738	
630	0	32711	32611	32775	32676	32666	32663	32762	32631	
631	0	32709	32383	32647	32765	32823	32700	32721	32722	
632	0	32678	32749	32663	32731	32672	32810	32749	32671	
633	0	32690	32667	32703	32798	32719	32787	32751	32686	
634	0	32732	32591	32710	32698	32773	32727	32677	32621	
635	0	32728	32790	32663	32767	32643	32790	32555	32767	
636	0	32715	32663	32673	32683	32681	32790	32671	32759	
637	0	32796	32476	32641	32743	32669	32894	32703	32789	
638	0	32793	32479	32762	32687	32647	32695	32699	32743	
639	0	32791	32529	32732	32799	32658	32807	32735	32670	
640	0	32800	32725	32767	32751	32589	32838	32722	32679	
641	0	32824	32799	32749	32783	32601	32731	32671	32670	
642	0	32782	32717	32831	32820	32569	32847	32667	32747	
643	0	32775	32697	32775	32718	32495	32756	32645	32662	
644	0	32742	32741	32831	32726	32487	32858	32791	32717	
645	0	32715	32743	32859	32790	32582	32754	32830	32694	
646	0	32706	32660	32839	32812	32567	32858	32821	32643	
647	0	32713	32661	32722	32871	32753	32855	32815	32714	
648	0	32756	32631	32783	32811	32695	32677	32711	32679	
649	0	32656	32642	32727	32819	32691	32739	32749	32639	
650	0	32722	32783	32747	32765	32711	32791	32914	32695	
651	0	32772	32787	32721	32807	32775	32695	32855	32625	
652	0	32738	32775	32749	32773	32644	32794	32879	32753	
653	0	32766	32799	32826	32749	32615	32846	32759	32727	
654	0	32740	32734	32743	32739	32666	32789	32749	32644	
655	0	32742	32762	32737	32783	32735	32775	32735	32791	
656	0	32775	32775	32815	32883	32770	32834	32741	32711	
657	0	32722	32747	32789	32884	32729	32756	32759	32637	
658	0	32747	32711	32725	32890	32757	32836	32626	32731	
659	0	32775	32734	32726	32742	32827	32607	32669	32692	
660	0	32759	32749	32797	32783	32631	32679	32687	32693	
661	0	32787	32743	32865	32675	32575	32828	32660	32804	
662	0	32799	32591	32759	32755	32542	32658	32730	32775	
663	0	32801	32625	32773	32711	32514	32718	32663	32823	
664	0	32758	32711	32914	32743	32647	32775	32643	32839	
665	0	32763	32670	32830	32771	32799	32713	32773	32703	
666	0	32767	32663	32825	32668	32655	32775	32767	32775	
667	0	32703	32581	32923	32705	32635	32823	32748	32697	
668	0	32775	32455	32887	32670	32733	32853	32668	32671	
669	0	32821	32533	32811	32711	32591	32786	32623	32685	
670	0	32826	32503	32786	32620	32527	32678	32717	32646	
671	0	32807	32471	32823	32811	32587	32839	32714	32727	
672	0	32824	32665	32769	32759	32695	32791	32655	32705	
673	0	32854	32625	32671	32854	32573	32883	32679	32803	
674	0	32855	32551	32755	32790	32583	32755	32719	32727	
675	0	32868	32589	32695	32918	32625	32871	32743	32643	
676	0	32863	32639	32726	32745	32573	32855	32551	32659	
677	0	32822	32734	32742	32903	32567	32727	32591	32623	
678	0	32852	32515	32685	32830	32559	32852	32643	32759	
679	0	32775	32537	32743	32741	32532	32743	32686	32703	
680	0	32839	32867	32723	32789	32525	32823	32735	32863	
681	0	32775	32775	32685	32735	32567	32668	32703	32799	
682	0	32754	32775	32731	32805	32603	32723	32718	32725	
683	0	32742	32690	32769	32753	32671	32829	32713	32799	
684	0	32687	32705	32731	32839	32716	32871	32618	32717	
685	0	32719	32725	32666	32822	32635	32771	32839	32687	
686	0	32708	32685	32679	32731	32741	32646	32775	32727	
687	0	32701	32671	32769	32838	32763	32775	32847	32734	
688	0	32711	32695	32809	32727	32514	32767	32693	32738	
689	0	32731	32659	32786	32823	32469	32599	32687	32703	
690	0	32705	32655	32690	32799	32578	32725	32809	32724	
691	0	32658	32643	32742	32814	32647	32743	32772	32711	
692	0	32692	32719	32743	32847	32646	32759	32702	32749	
693	0	32677	32733	32755	32764	32631	32775	32644	32762	
694	0	32696	32667	32635	32746	32694	32662	32731	32759	
695	0	32753	32535	32726	32727	32639	32733	32733	32759	
696	0	32678	32501	32799	32678	32515	32742	32703	32767	
697	0	32719	32509	32807	32705	32687	32575	32617	32647	
698	0	32694	32447	32805	32715	32711	32671	32607	32711	
699	0	32734	32487	32824	32707	32747	32583	32671	32645	
700	0	32709	32487	32871	32775	32619	32809	32720	32604	
701	0	32717	32532	32897	32767	32563	32756	32591	32763	
702	0	32708	32563	32918	32837	32726	32647	32647	32679	
703	0	32729	32647	32822	32817	32706	32670	32647	32647	
704	0	32726	32821	32797	32855	32725	32783	32675	32671	
705	0	32721	32727	32819	32854	32722	32731	32683	32655	
706	0	32757	32620	32739	32831	32711	32688	32604	32593	
707	0	32700	32607	32691	32702	32755	32630	32583	32647	
708	0	32792	32577	32677	32749	32613	32733	32747	32655	
709	0	32807	32641	32661	32655	32533	32751	32713	32769	
710	0	32793	32655	32722	32727	32667	32723	32807	32721	
711	0	32757	32647	32639	32673	32715	32757	32685	32698	
712	0	32773	32759	32663	32751	32707	32831	32653	32767	
713	0	32751	32694	32736	32809	32695	32849	32767	32773	
714	0	32731	32738	32789	32795	32731	32703	32775	32665	
715	0	32765	32758	32775	32743	32477	32621	32819	32753	
716	0	32737	32775	32655	32707	32679	32775	32588	32863	
717	0	32705	32751	32669	32775	32756	32795	32687	32711	
718	0	32779	32634	32743	32673	32701	32758	32739	32775	
719	0	32775	32541	32721	32740	32679	32712	32773	32762	
720	0	32803	32540	32735	32739	32811	32740	32749	32809	
721	0	32759	32727	32787	32719	32759	32823	32730	32756	
722	0	32736	32717	32707	32695	32781	32759	32745	32714	
723	0	32680	32631	32841	32711	32731	32749	32679	32733	
724	0	32697	32625	32867	32795	32647	32667	32647	32647	
725	0	32629	32668	32831	32775	32553	32801	32711	32739	
726	0	32694	32685	32819	32855	32506	32836	32725	32695	
727	0	32660	32621	32763	32803	32571	32719	32786	32727	
728	0	32679	32563	32799	32855	32735	32775	32827	32775	
729	0	32693	32499	32887	32695	32783	32797	32637	32767	
730	0	32768	32495	32863	32787	32675	32727	32759	32747	
731	0	32833	32603	32722	32665	32756	32742	32762	32671	
732	0	32836	32609	32772	32719	32785	32783	32786	32751	
733	0	32772	32807	32730	32689	32638	32749	32810	32743	
734	0	32799	32727	32658	32727	32707	32759	32718	32620	
735	0	32812	32813	32722	32783	32567	32796	32635	32658	
736	0	32879	32689	32795	32795	32564	32828	32685	32587	
737	0	32903	32695	32801	32740	32719	32859	32631	32727	
738	0	32912	32706	32775	32867	32765	32711	32671	32726	
739	0	32793	32679	32866	32759	32718	32833	32553	32703	
740	0	32828	32653	32855	32802	32709	32766	32519	32718	
741	0	32767	32663	32775	32775	32727	32646	32611	32662	
742	0	32826	32709	32733	32743	32751	32803	32711	32751	
743	0	32831	32669	32822	32775	32771	32679	32719	32764	
744	0	32845	32551	32707	32703	32847	32722	32775	32628	
745	0	32799	32591	32772	32775	32826	32647	32751	32721	
746	0	32807	32754	32764	32711	32797	32802	32634	32677	
747	0	32786	32687	32757	32751	32711	32833	32591	32703	
748	0	32787	32601	32653	32716	32670	32684	32647	32669	
749	0	32870	32647	32759	32757	32767	32767	32802	32807	
750	0	32826	32743	32739	32765	32813	32775	32765	32737	
751	0	32748	32799	32820	32775	32835	32694	32791	32771	
752	0	32765	32843	32830	32683	32738	32791	32701	32751	
753	0	32677	32863	32804	32743	32817	32793	32852	32819	
754	0	32613	32775	32725	32657	32685	32844	32863	32669	
755	0	32671	32692	32819	32775	32550	32739	32766	32733	
756	0	32786	32503	32755	32775	32500	32610	32767	32726	
757	0	32793	32463	32724	32775	32641	32795	32767	32701	
758	0	32787	32583	32733	32780	32647	32839	32815	32775	
759	0	32790	32735	32775	32806	32576	32659	32767	32751	
760	0	32749	32675	32765	32844	32613	32775	32836	32659	
761	0	32747	32583	32683	32769	32595	32759	32675	32743	
762	0	32780	32555	32731	32677	32586	32627	32669	32701	
763	0	32884	32611	32771	32707	32646	32837	32755	32731	
764	0	32799	32647	32879	32689	32415	32823	32807	32775	
765	0	32743	32717	32743	32775	32610	32677	32810	32671	
766	0	32673	32676	32647	32673	32671	32803	32673	32710	
767	0	32679	32758	32823	32851	32663	32786	32639	32713	
768	0	32695	32663	32687	32711	32623	32799	32718	32783	
769	0	32732	32545	32711	32677	32647	32796	32790	32743	
770	0	32850	32606	32791	32726	32662	32765	32794	32595	
771	0	32838	32755	32685	32783	32731	32771	32796	32647	
772	0	32718	32724	32719	32731	32748	32797	32711	32604	
773	0	32751	32669	32799	32749	32669	32623	32759	32679	
774	0	32804	32719	32750	32854	32709	32843	32687	32647	
775	0	32884	32735	32807	32718	32647	32743	32699	32775	
776	0	32875	32735	32807	32702	32738	32613	32749	32741	
777	0	32865	32615	32731	32735	32621	32919	32687	32671	
778	0	32837	32555	32709	32801	32693	32846	32701	32783	
779	0	32770	32835	32770	32807	32611	32915	32751	32639	
780	0	32766	32803	32723	32804	32478	32743	32763	32615	
781	0	32790	32787	32730	32747	32617	32838	32691	32677	
782	0	32704	32692	32805	32735	32603	32808	32647	32710	
783	0	32628	32707	32789	32727	32751	32837	32611	32786	
784	0	32615	32734	32751	32646	32739	32900	32790	32679	
785	0	32623	32666	32783	32763	32615	32797	32687	32710	
786	0	32683	32621	32819	32715	32647	32793	32687	32749	
787	0	32743	32647	32791	32852	32647	32709	32710	32791	
788	0	32742	32685	32805	32693	32674	32743	32699	32743	
789	0	32732	32671	32803	32791	32751	32789	32727	32667	
790	0	32794	32590	32775	32749	32767	32703	32740	32747	
791	0	32797	32495	32745	32783	32621	32717	32830	32791	
792	0	32903	32819	32805	32683	32493	32831	32733	32715	
793	0	32838	32701	32785	32815	32583	32806	32789	32819	
794	0	32797	32609	32709	32743	32515	32850	32807	32661	
795	0	32805	32628	32703	32871	32627	32679	32685	32804	
796	0	32876	32709	32740	32807	32679	32722	32679	32791	
797	0	32879	32719	32751	32833	32725	32799	32735	32683	
798	0	32811	32775	32634	32790	32667	32727	32691	32775	
799	0	32806	32735	32735	32727	32677	32570	32540	32757	
800	0	32813	32661	32775	32876	32722	32683	32575	32631	
801	0	32802	32605	32800	32743	32527	32613	32708	32763	
802	0	32732	32495	32817	32726	32551	32771	32694	32763	
803	0	32708	32539	32743	32759	32693	32753	32655	32637	
804	0	32711	32635	32722	32851	32756	32695	32671	32705	
805	0	32740	32819	32687	32851	32576	32734	32711	32679	
806	0	32713	32775	32743	32743	32586	32743	32807	32647	
807	0	32775	32703	32711	32835	32630	32683	32844	32695	
808	0	32825	32691	32685	32830	32491	32614	32695	32692	
809	0	32887	32630	32761	32826	32422	32797	32729	32659	
810	0	32839	32571	32831	32786	32551	32610	32806	32723	
811	0	32727	32687	32759	32815	32609	32775	32831	32679	
812	0	32753	32695	32767	32735	32635	32645	32797	32679	
813	0	32747	32535	32767	32751	32715	32757	32829	32662	
814	0	32784	32517	32754	32725	32703	32797	32871	32694	
815	0	32746	32751	32647	32595	32701	32621	32723	32757	
816	0	32737	32738	32715	32599	32732	32791	32688	32639	
817	0	32737	32775	32757	32575	32673	32731	32803	32747	
818	0	32722	32815	32796	32799	32558	32757	32748	32647	
819	0	32685	32727	32859	32827	32567	32619	32676	32639	
820	0	32748	32647	32762	32858	32700	32743	32617	32748	
821	0	32814	32694	32767	32851	32647	32797	32643	32756	
822	0	32725	32635	32815	32727	32667	32671	32752	32641	
823	0	32737	32677	32835	32807	32729	32797	32692	32699	
824	0	32758	32743	32695	32715	32763	32678	32751	32647	
825	0	32735	32647	32767	32811	32663	32631	32647	32715	
826	0	32730	32485	32823	32735	32604	32758	32623	32713	
827	0	32771	32555	32823	32791	32677	32691	32815	32601	
828	0	32740	32431	32724	32725	32715	32730	32773	32719	
829	0	32797	32739	32823	32775	32703	32789	32797	32691	
830	0	32715	32710	32733	32788	32724	32669	32707	32723	
831	0	32813	32691	32801	32866	32743	32818	32685	32695	
832	0	32771	32635	32767	32751	32775	32863	32754	32621	
833	0	32893	32659	32700	32727	32869	32681	32747	32759	
834	0	32782	32669	32705	32751	32631	32868	32773	32786	
835	0	32724	32694	32765	32749	32679	32809	32674	32694	
836	0	32782	32667	32699	32845	32707	32630	32647	32805	
837	0	32731	32509	32678	32799	32769	32879	32677	32740	
838	0	32698	32595	32791	32707	32799	32797	32790	32719	
839	0	32769	32715	32633	32687	32797	32858	32751	32719	
840	0	32802	32721	32679	32623	32698	32807	32758	32762	
841	0	32765	32714	32775	32647	32709	32765	32773	32708	
842	0	32775	32695	32839	32639	32756	32791	32647	32687	
843	0	32828	32732	32775	32639	32605	32663	32660	32755	
844	0	32780	32678	32767	32660	32525	32774	32681	32820	
845	0	32826	32647	32834	32747	32485	32763	32695	32719	
846	0	32742	32706	32809	32655	32682	32639	32699	32775	
847	0	32741	32694	32759	32703	32743	32775	32625	32802	
848	0	32839	32658	32732	32719	32647	32679	32591	32681	
849	0	32790	32741	32694	32799	32731	32737	32725	32703	
850	0	32871	32738	32797	32735	32766	32739	32685	32683	
851	0	32726	32615	32705	32743	32647	32741	32733	32773	
852	0	32681	32775	32621	32731	32676	32878	32669	32758	
853	0	32725	32759	32751	32875	32599	32674	32647	32743	
854	0	32810	32683	32695	32892	32620	32839	32647	32731	
855	0	32813	32791	32647	32882	32703	32773	32731	32711	
856	0	32730	32851	32775	32774	32679	32612	32659	32655	
857	0	32800	32797	32799	32914	32692	32763	32767	32647	
858	0	32774	32775	32799	32743	32631	32773	32775	32603	
859	0	32711	32763	32771	32825	32679	32809	32711	32711	
860	0	32707	32766	32785	32798	32676	32635	32685	32661	
861	0	32679	32767	32804	32813	32734	32771	32679	32717	
862	0	32688	32719	32820	32799	32694	32772	32813	32735	
863	0	32695	32671	32817	32775	32543	32813	32785	32666	
864	0	32686	32637	32847	32854	32497	32697	32799	32693	
865	0	32687	32692	32789	32732	32660	32703	32716	32647	
866	0	32700	32683	32759	32795	32709	32793	32615	32731	
867	0	32713	32662	32795	32665	32742	32551	32607	32734	
868	0	32743	32659	32735	32710	32712	32775	32639	32785	
869	0	32735	32698	32775	32647	32626	32775	32731	32719	
870	0	32759	32643	32745	32737	32638	32615	32699	32594	
871	0	32709	32631	32722	32679	32642	32739	32743	32647	
872	0	32682	32691	32647	32707	32645	32655	32807	32719	
873	0	32682	32627	32733	32654	32731	32749	32633	32775	
874	0	32790	32533	32828	32755	32690	32615	32692	32747	
875	0	32825	32535	32719	32683	32543	32807	32625	32671	
876	0	32844	32559	32682	32743	32562	32711	32699	32695	
877	0	32852	32595	32786	32647	32562	32823	32732	32647	
878	0	32786	32811	32755	32769	32519	32679	32706	32751	
879	0	32822	32743	32839	32681	32517	32834	32668	32645	
880	0	32802	32707	32800	32751	32543	32815	32707	32695	
881	0	32790	32775	32759	32675	32479	32854	32727	32658	
882	0	32797	32700	32825	32766	32527	32659	32737	32690	
883	0	32747	32529	32790	32711	32663	32617	32640	32663	
884	0	32748	32507	32671	32722	32615	32643	32658	32763	
885	0	32789	32669	32763	32749	32516	32735	32663	32663	
886	0	32784	32631	32639	32801	32691	32647	32639	32724	
887	0	32765	32531	32647	32807	32607	32735	32641	32623	
888	0	32715	32583	32755	32742	32639	32765	32695	32711	
889	0	32773	32631	32682	32823	32795	32638	32783	32691	
890	0	32775	32667	32697	32775	32711	32748	32789	32607	
891	0	32795	32647	32819	32743	32709	32773	32719	32699	
892	0	32734	32647	32755	32791	32795	32839	32708	32788	
893	0	32741	32645	32706	32695	32610	32838	32759	32703	
894	0	32738	32598	32615	32743	32594	32631	32745	32791	
895	0	32775	32663	32675	32719	32535	32785	32727	32711	
896	0	32773	32647	32831	32802	32783	32809	32679	32738	
897	0	32698	32633	32791	32815	32819	32714	32705	32791	
898	0	32754	32647	32717	32728	32711	32761	32734	32775	
899	0	32703	32727	32782	32804	32786	32839	32875	32827	
900	0	32713	32789	32804	32771	32791	32615	32761	32795	
901	0	32733	32747	32875	32791	32711	32839	32789	32711	
902	0	32758	32647	32771	32655	32583	32855	32727	32903	
903	0	32735	32679	32743	32683	32791	32813	32685	32871	
904	0	32743	32603	32751	32695	32732	32827	32786	32735	
905	0	32775	32635	32802	32679	32671	32655	32811	32769	
906	0	32803	32644	32842	32831	32718	32699	32711	32735	
907	0	32740	32723	32843	32717	32523	32773	32711	32647	
908	0	32727	32727	32775	32855	32467	32823	32775	32715	
909	0	32767	32703	32775	32827	32526	32717	32745	32715	
910	0	32760	32738	32773	32790	32669	32639	32738	32655	
911	0	32785	32727	32845	32751	32711	32790	32711	32660	
912	0	32791	32695	32829	32759	32641	32727	32633	32599	
913	0	32803	32708	32738	32807	32638	32675	32731	32658	
914	0	32745	32743	32703	32742	32675	32839	32679	32698	
915	0	32804	32709	32855	32829	32719	32797	32743	32629	
916	0	32844	32674	32871	32845	32644	32759	32647	32790	
917	0	32852	32721	32805	32815	32495	32827	32625	32763	
918	0	32775	32738	32807	32763	32399	32813	32775	32647	
919	0	32751	32750	32854	32755	32567	32655	32775	32735	
920	0	32807	32703	32789	32679	32666	32857	32735	32719	
921	0	32841	32713	32721	32662	32615	32811	32655	32668	
922	0	32738	32767	32679	32739	32722	32855	32835	32771	
923	0	32752	32775	32706	32751	32561	32799	32813	32719	
924	0	32736	32590	32658	32806	32523	32637	32861	32599	
925	0	32720	32582	32766	32733	32617	32713	32678	32851	
926	0	32735	32583	32868	32698	32730	32719	32738	32924	
927	0	32730	32551	32867	32775	32657	32757	32749	32743	
928	0	32772	32690	32858	32808	32739	32773	32721	32763	
929	0	32676	32787	32823	32756	32549	32695	32673	32855	
930	0	32718	32613	32791	32797	32743	32803	32753	32759	
931	0	32674	32707	32660	32799	32727	32739	32762	32790	
932	0	32745	32678	32731	32647	32743	32676	32645	32647	
933	0	32815	32647	32724	32741	32447	32711	32647	32775	
934	0	32751	32706	32646	32759	32529	32850	32742	32831	
935	0	32747	32541	32735	32727	32711	32791	32626	32639	
936	0	32722	32509	32751	32725	32679	32739	32669	32679	
937	0	32712	32587	32810	32673	32687	32732	32765	32703	
938	0	32666	32749	32815	32747	32599	32757	32671	32758	
939	0	32662	32786	32775	32787	32549	32806	32609	32668	
940	0	32640	32691	32692	32757	32786	32807	32695	32721	
941	0	32710	32655	32705	32861	32743	32831	32751	32727	
942	0	32727	32695	32731	32810	32781	32799	32828	32694	
943	0	32810	32775	32809	32738	32574	32791	32663	32661	
944	0	32807	32621	32805	32767	32727	32803	32803	32695	
945	0	32797	32527	32765	32775	32621	32762	32775	32661	
946	0	32812	32640	32707	32721	32657	32727	32685	32599	
947	0	32826	32658	32783	32839	32723	32619	32663	32707	
948	0	32825	32671	32738	32715	32428	32671	32832	32695	
949	0	32828	32613	32687	32771	32710	32727	32797	32660	
950	0	32775	32571	32655	32812	32745	32799	32774	32634	
951	0	32730	32552	32661	32719	32713	32839	32644	32671	
952	0	32775	32615	32711	32719	32743	32735	32761	32647	
953	0	32766	32679	32743	32663	32749	32855	32796	32739	
954	0	32763	32691	32637	32735	32539	32775	32803	32732	
955	0	32742	32646	32663	32663	32679	32647	32677	32599	
956	0	32765	32623	32675	32724	32807	32743	32679	32727	
957	0	32738	32599	32661	32660	32699	32743	32749	32749	
958	0	32711	32671	32710	32687	32790	32815	32721	32670	
959	0	32742	32682	32769	32815	32699	32699	32758	32742	
960	0	32784	32717	32810	32836	32579	32798	32631	32773	
961	0	32814	32705	32773	32671	32638	32726	32723	32642	
962	0	32782	32554	32812	32695	32811	32775	32711	32749	
963	0	32815	32583	32855	32732	32694	32689	32823	32679	
964	0	32721	32567	32823	32791	32863	32751	32621	32598	
965	0	32741	32615	32791	32761	32577	32719	32719	32603	
966	0	32791	32709	32793	32749	32695	32619	32733	32642	
967	0	32759	32765	32775	32803	32713	32811	32763	32643	
968	0	32832	32634	32839	32733	32647	32767	32663	32739	
969	0	32760	32739	32813	32817	32647	32601	32675	32707	
970	0	32691	32711	32830	32887	32615	32671	32751	32681	
971	0	32685	32774	32787	32829	32575	32795	32771	32718	
972	0	32707	32715	32775	32911	32647	32789	32703	32770	
973	0	32772	32703	32775	32894	32677	32834	32725	32803	
974	0	32730	32635	32796	32784	32602	32647	32725	32670	
975	0	32749	32671	32757	32829	32567	32745	32726	32766	
976	0	32740	32707	32756	32824	32735	32791	32633	32703	
977	0	32729	32690	32767	32711	32709	32835	32753	32724	
978	0	32815	32683	32825	32793	32735	32803	32742	32679	
979	0	32731	32626	32767	32775	32596	32613	32623	32703	
980	0	32770	32611	32710	32807	32565	32798	32671	32679	
981	0	32741	32590	32751	32791	32557	32735	32641	32799	
982	0	32851	32604	32775	32852	32699	32658	32711	32742	
983	0	32799	32647	32775	32771	32719	32764	32711	32687	
984	0	32724	32539	32765	32775	32663	32819	32631	32713	
985	0	32668	32511	32847	32683	32615	32725	32595	32765	
986	0	32679	32499	32887	32713	32675	32729	32787	32737	
987	0	32730	32571	32743	32687	32710	32915	32749	32677	
988	0	32846	32591	32725	32647	32559	32786	32769	32599	
989	0	32867	32659	32775	32747	32491	32796	32663	32731	
990	0	32869	32631	32751	32647	32517	32796	32670	32691	
991	0	32900	32635	32631	32700	32619	32775	32695	32591	
992	0	32843	32543	32703	32759	32655	32724	32791	32628	
993	0	32773	32647	32742	32737	32667	32775	32759	32585	
994	0	32799	32671	32677	32795	32753	32795	32691	32751	
995	0	32877	32694	32663	32903	32663	32789	32647	32799	
996	0	32854	32647	32679	32791	32668	32647	32655	32719	
997	0	32799	32711	32711	32855	32767	32825	32807	32711	
998	0	32756	32693	32659	32791	32811	32771	32730	32727	
999	0	32744	32655	32686	32796	32621	32775	32759	32679	
1000	0	32730	32578	32755	32681	32669	32719	32679	32720	
1001	0	32713	32543	32807	32743	32751	32576	32663	32719	
1002	0	32738	32509	32751	32669	32727	32797	32683	32827	
1003	0	32639	32442	32732	32758	32703	32868	32684	32797	
1004	0	32623	32645	32791	32743	32762	32901	32677	32702	
1005	0	32673	32679	32804	32773	32807	32823	32671	32773	
1006	0	32754	32647	32755	32813	32582	32757	32748	32705	
1007	0	32793	32647	32767	32711	32527	32734	32774	32685	
1008	0	32771	32671	32805	32793	32471	32836	32837	32741	
1009	0	32788	32683	32847	32722	32647	32783	32756	32749	
1010	0	32783	32639	32743	32733	32701	32813	32784	32639	
1011	0	32772	32551	32763	32676	32733	32641	32742	32731	
1012	0	32748	32571	32755	32738	32725	32725	32766	32735	
1013	0	32769	32615	32775	32836	32685	32775	32647	32604	
1014	0	32759	32644	32769	32807	32498	32757	32715	32647	
1015	0	32866	32660	32775	32797	32535	32839	32743	32685	
1016	0	32861	32615	32756	32681	32492	32766	32751	32775	
1017	0	32852	32703	32775	32715	32617	32871	32821	32727	
1018	0	32858	32759	32807	32839	32731	32848	32647	32685	
1019	0	32839	32825	32791	32733	32677	32647	32737	32715	
1020	0	32783	32815	32854	32775	32694	32771	32711	32837	
1021	0	32729	32846	32943	32725	32773	32796	32785	32743	
1022	0	32787	32839	32843	32671	32540	32805	32666	32812	
1023	0	32727	32836	32859	32789	32539	32756	32671	32740	
1024	0	32726	32869	32815	32759	32667	32679	32773	32726	
1025	0	32756	32863	32807	32807	32729	32887	32789	32703	
1026	0	32671	32677	32775	32802	32713	32826	32765	32775	
1027	0	32666	32645	32655	32743	32791	32655	32839	32701	
1028	0	32721	32595	32647	32715	32775	32736	32681	32733	
1029	0	32706	32636	32597	32721	32827	32775	32774	32667	
1030	0	32623	32599	32667	32732	32647	32671	32783	32713	
1031	0	32657	32549	32642	32751	32519	32699	32765	32783	
1032	0	32720	32514	32723	32827	32620	32860	32773	32642	
1033	0	32797	32615	32743	32729	32703	32667	32699	32709	
1034	0	32806	32622	32759	32813	32793	32743	32615	32703	
1035	0	32810	32679	32617	32699	32687	32845	32698	32703	
1036	0	32769	32735	32743	32765	32731	32834	32695	32755	
1037	0	32846	32727	32819	32759	32645	32911	32677	32742	
1038	0	32855	32639	32815	32710	32407	32795	32586	32627	
1039	0	32839	32679	32835	32705	32603	32803	32802	32662	
1040	0	32834	32759	32775	32793	32583	32690	32685	32647	
1041	0	32840	32615	32863	32747	32487	32754	32804	32732	
1042	0	32775	32647	32798	32722	32521	32785	32743	32715	
1043	0	32825	32655	32798	32638	32565	32799	32791	32660	
1044	0	32816	32591	32801	32783	32647	32797	32827	32759	
1045	0	32751	32623	32765	32735	32647	32725	32764	32671	
1046	0	32728	32692	32823	32767	32631	32703	32775	32755	
1047	0	32741	32503	32707	32823	32695	32751	32709	32679	
1048	0	32750	32530	32622	32742	32711	32569	32699	32739	
1049	0	32759	32559	32739	32871	32737	32743	32679	32660	
1050	0	32706	32495	32877	32715	32732	32727	32593	32735	
1051	0	32724	32551	32702	32775	32749	32671	32623	32623	
1052	0	32740	32594	32751	32717	32733	32806	32715	32811	
1053	0	32726	32571	32791	32853	32763	32877	32671	32827	
1054	0	32804	32551	32812	32767	32769	32687	32737	32695	
1055	0	32768	32487	32735	32842	32631	32759	32569	32807	
1056	0	32763	32567	32727	32764	32663	32667	32631	32703	
1057	0	32729	32555	32735	32847	32573	32449	32703	32711	
1058	0	32775	32751	32737	32769	32531	32479	32699	32659	
1059	0	32810	32719	32711	32775	32509	32553	32773	32583	
1060	0	32780	32698	32775	32775	32591	32459	32739	32691	
1061	0	32742	32676	32719	32791	32662	32619	32687	32587	
1062	0	32748	32660	32732	32743	32695	32671	32738	32635	
1063	0	32749	32665	32759	32666	32615	32721	32703	32603	
1064	0	32705	32647	32804	32751	32635	32567	32775	32719	
1065	0	32711	32718	32845	32687	32639	32743	32647	32630	
1066	0	32791	32769	32762	32765	32663	32754	32669	32751	
1067	0	32765	32627	32735	32743	32695	32634	32710	32647	
1068	0	32711	32566	32791	32743	32605	32831	32737	32670	
1069	0	32727	32566	32799	32807	32637	32791	32702	32692	
1070	0	32756	32751	32703	32806	32613	32823	32812	32759	
1071	0	32757	32708	32787	32807	32587	32771	32763	32775	
1072	0	32809	32747	32735	32758	32663	32775	32775	32717	
1073	0	32767	32719	32759	32759	32711	32927	32801	32763	
1074	0	32750	32715	32695	32725	32687	32804	32833	32692	
1075	0	32769	32671	32791	32791	32718	32769	32724	32797	
1076	0	32720	32668	32715	32773	32765	32875	32691	32676	
1077	0	32733	32711	32699	32751	32775	32775	32641	32787	
1078	0	32726	32695	32709	32775	32831	32935	32662	32765	
1079	0	32768	32605	32748	32765	32756	32830	32757	32819	
1080	0	32790	32548	32812	32870	32773	32924	32689	32683	
1081	0	32756	32633	32739	32873	32706	32756	32711	32702	
1082	0	32786	32738	32857	32794	32639	32893	32721	32732	
1083	0	32720	32751	32871	32751	32691	32903	32655	32647	
1084	0	32742	32511	32879	32733	32663	32700	32572	32715	
1085	0	32743	32827	32764	32835	32675	32854	32614	32727	
1086	0	32682	32710	32706	32707	32705	32805	32638	32751	
1087	0	32791	32707	32727	32775	32594	32791	32647	32703	
1088	0	32759	32679	32685	32749	32723	32799	32767	32799	
1089	0	32775	32619	32749	32741	32742	32786	32751	32806	
1090	0	32759	32574	32727	32787	32735	32827	32743	32727	
1091	0	32855	32621	32679	32655	32815	32727	32813	32758	
1092	0	32801	32742	32771	32791	32819	32795	32789	32615	
1093	0	32762	32535	32770	32739	32845	32850	32671	32688	
1094	0	32751	32561	32675	32791	32687	32845	32685	32628	
1095	0	32817	32491	32809	32775	32647	32658	32655	32743	
1096	0	32764	32543	32759	32773	32647	32793	32731	32770	
1097	0	32775	32479	32759	32707	32582	32819	32733	32743	
1098	0	32770	32567	32717	32706	32601	32671	32741	32693	
1099	0	32775	32546	32830	32767	32806	32803	32703	32707	
1100	0	32741	32578	32729	32679	32823	32799	32747	32708	
1101	0	32723	32839	32807	32775	32807	32806	32635	32743	
1102	0	32761	32721	32816	32677	32699	32762	32559	32631	
1103	0	32742	32785	32743	32742	32726	32695	32671	32647	
1104	0	32678	32703	32763	32756	32710	32798	32703	32655	
1105	0	32709	32699	32804	32807	32679	32735	32755	32738	
1106	0	32754	32731	32708	32866	32691	32609	32764	32675	
1107	0	32801	32679	32813	32828	32669	32743	32751	32692	
1108	0	32778	32583	32718	32871	32674	32751	32687	32747	
1109	0	32789	32507	32751	32719	32647	32802	32743	32731	
1110	0	32775	32559	32783	32679	32775	32631	32718	32634	
1111	0	32825	32771	32771	32711	32813	32820	32711	32722	
1112	0	32807	32655	32826	32701	32803	32790	32748	32647	
1113	0	32820	32597	32775	32799	32790	32829	32788	32681	
1114	0	32821	32693	32725	32759	32783	32617	32765	32628	
1115	0	32763	32679	32707	32727	32723	32727	32691	32709	
1116	0	32785	32739	32759	32725	32662	32751	32655	32663	
1117	0	32773	32693	32734	32715	32647	32687	32803	32567	
1118	0	32807	32703	32693	32646	32707	32691	32767	32726	
1119	0	32701	32711	32789	32695	32603	32623	32757	32695	
1120	0	32655	32790	32850	32647	32507	32823	32639	32679	
1121	0	32587	32847	32726	32735	32515	32799	32811	32739	
1122	0	32653	32795	32837	32711	32685	32637	32775	32741	
1123	0	32641	32675	32823	32807	32735	32707	32726	32659	
1124	0	32590	32743	32759	32674	32639	32743	32682	32761	
1125	0	32533	32740	32735	32837	32679	32761	32738	32756	
1126	0	32583	32682	32735	32766	32719	32731	32795	32647	
1127	0	32600	32539	32695	32829	32525	32647	32791	32799	
1128	0	32557	32515	32727	32757	32551	32790	32701	32715	
1129	0	32535	32551	32711	32820	32549	32819	32691	32617	
1130	0	32472	32519	32679	32759	32767	32711	32729	32789	
1131	0	32402	32541	32686	32825	32719	32791	32727	32732	
1132	0	32366	32495	32753	32809	32735	32772	32733	32647	
1133	0	32455	32375	32749	32847	32717	32683	32626	32711	
1134	0	32477	32365	32594	32775	32793	32903	32540	32723	
1135	0	32500	32437	32681	32838	32773	32839	32607	32623	
1136	0	32568	32455	32647	32900	32637	32765	32679	32783	
1137	0	32602	32370	32741	32881	32587	32903	32646	32743	
1138	0	32678	32246	32665	32740	32637	32791	32663	32749	
1139	0	32765	32227	32531	32802	32609	32659	32519	32702	
1140	0	32836	32261	32594	32820	32707	32806	32567	32677	
1141	0	32957	32102	32642	32837	32679	32825	32631	32775	
1142	0	32995	32041	32558	32758	32727	32633	32687	32671	
1143	0	32931	32129	32565	32802	32679	32807	32691	32575	
1144	0	32992	32039	32623	32773	32721	32775	32567	32713	
1145	0	33105	32131	32756	32773	32615	32530	32637	32703	
1146	0	33287	32135	32679	32716	32626	32727	32695	32595	
1147	0	33253	32119	32739	32794	32565	32731	32772	32734	
1148	0	33184	32220	32877	32702	32535	32667	32774	32818	
1149	0	33189	32359	32913	32766	32743	32791	32764	32758	
1150	0	33319	32159	32845	32775	32695	32829	32647	32773	
1151	0	33438	32185	32702	32631	32725	32827	32699	32713	
1152	0	33373	32298	32706	32773	32717	32870	32783	32614	
1153	0	33355	32355	32799	32647	32601	32743	32834	32735	
1154	0	33236	32511	32739	32771	32487	32695	32703	32629	
1155	0	33227	32635	32820	32615	32553	32727	32791	32571	
1156	0	33314	32795	32759	32685	32711	32679	32845	32727	
1157	0	33325	32901	32915	32681	32735	32767	32853	32757	
1158	0	33309	33108	32938	32747	32661	32703	32870	32669	
1159	0	33263	33092	32903	32679	32695	32635	32829	32695	
1160	0	33195	33226	32963	32658	32707	32726	32803	32735	
1161	0	33135	33403	32992	32639	32647	32811	32857	32765	
1162	0	33164	33734	32967	32607	32643	32675	32826	32658	
1163	0	33112	33851	33019	32635	32623	32683	32799	32699	
1164	0	33020	33895	33028	32559	32541	32679	32851	32727	
1165	0	32818	33959	32967	32637	32615	32790	32949	32735	
1166	0	32780	33851	32991	32606	32550	32796	32948	32803	
1167	0	32751	33877	32943	32687	32579	32806	32893	32643	
1168	0	32775	33799	32873	32567	32647	32982	32873	32775	
1169	0	32757	33641	32897	32695	32703	32846	32819	32743	
1170	0	32758	33430	32971	32583	32595	32895	32767	32698	
1171	0	32869	33327	32820	32735	32647	32967	32727	32721	
1172	0	32861	33179	32811	32751	32527	32767	32751	32689	
1173	0	32834	33113	32895	32797	32489	32959	32763	32773	
1174	0	32744	33039	32798	32775	32559	32844	32835	32766	
1175	0	32518	32997	32767	32761	32586	32810	32727	32793	
1176	0	32361	32903	32823	32795	32621	32842	32605	32823	
1177	0	32142	32771	32852	32666	32583	32865	32579	32797	
1178	0	32093	32687	32762	32751	32503	32839	32635	32789	
1179	0	31984	32621	32829	32759	32541	32791	32486	32663	
1180	0	31994	32855	32715	32759	32617	32678	32463	32711	
1181	0	31956	32756	32663	32775	32611	32827	32548	32654	
1182	0	32084	32639	32703	32690	32647	32771	32685	32702	
1183	0	32204	32639	32660	32775	32655	32687	32666	32619	
1184	0	32199	32660	32610	32831	32734	32839	32665	32791	
1185	0	32334	32683	32625	32815	32751	32807	32608	32757	
1186	0	32372	32637	32617	32765	32791	32714	32647	32727	
1187	0	32455	32605	32639	32797	32647	32793	32677	32847	
1188	0	32502	32679	32699	32786	32729	32794	32711	32764	
1189	0	32494	32663	32710	32755	32733	32595	32698	32671	
1190	0	32559	32564	32634	32687	32767	32757	32743	32773	
1191	0	32617	32563	32699	32799	32793	32767	32695	32747	
1192	0	32653	32554	32727	32710	32819	32647	32679	32663	
1193	0	32603	32557	32619	32823	32767	32701	32669	32743	
1194	0	32574	32573	32659	32765	32775	32679	32795	32647	
1195	0	32740	32591	32775	32860	32814	32753	32743	32775	
1196	0	32823	32547	32659	32751	32739	32719	32729	32747	
1197	0	32740	32499	32707	32783	32647	32663	32806	32657	
1198	0	32743	32503	32843	32745	32575	32713	32706	32743	
1199	0	32735	32519	32686	32700	32574	32553	32706	32601	
1200	0	32771	32279	32723	32765	32601	32639	32695	32751	
1201	0	32799	32391	32687	32710	32581	32647	32743	32707	
1202	0	32876	32547	32655	32830	32591	32737	32803	32758	
1203	0	32806	32523	32791	32805	32570	32647	32775	32837	
1204	0	32837	32579	32860	32842	32571	32679	32791	32698	
1205	0	32797	32507	32761	32855	32535	32679	32746	32733	
1206	0	32823	32542	32807	32846	32537	32547	32815	32711	
1207	0	32783	32555	32837	32941	32643	32694	32677	32747	
1208	0	32835	32622	32887	32903	32644	32690	32736	32742	
1209	0	32852	32559	32791	32773	32647	32815	32679	32775	
1210	0	32789	32445	32731	32822	32725	32787	32691	32730	
1211	0	32914	32423	32803	32695	32684	32660	32599	32765	
1212	0	32934	32375	32822	32795	32562	32699	32695	32771	
1213	0	32887	32354	32773	32835	32596	32867	32683	32639	
1214	0	32882	32370	32735	32839	32567	32647	32669	32647	
1215	0	32878	32518	32731	32731	32589	32767	32692	32623	
1216	0	32846	32489	32759	32740	32677	32828	32719	32663	
1217	0	32796	32545	32742	32635	32694	32733	32611	32631	
1218	0	32829	32532	32702	32721	32743	32713	32799	32580	
1219	0	32821	32503	32738	32725	32731	32631	32719	32663	
1220	0	32857	32547	32715	32671	32762	32703	32749	32631	
1221	0	32838	32695	32666	32743	32701	32631	32762	32759	
1222	0	32832	32629	32671	32719	32767	32715	32756	32694	
1223	0	32788	32607	32607	32782	32707	32681	32663	32789	
1224	0	32790	32615	32531	32731	32692	32710	32707	32725	
1225	0	32808	32635	32647	32887	32687	32709	32687	32633	
1226	0	32767	32612	32787	32802	32711	32725	32759	32771	
1227	0	32769	32695	32767	32831	32678	32655	32773	32691	
1228	0	32772	32702	32839	32775	32647	32851	32707	32870	
1229	0	32775	32681	32835	32737	32708	32813	32685	32829	
1230	0	32754	32709	32839	32734	32743	32627	32603	32677	
1231	0	32740	32631	32796	32764	32687	32807	32675	32775	
1232	0	32711	32591	32759	32719	32749	32727	32723	32771	
1233	0	32725	32499	32775	32739	32751	32771	32820	32647	
1234	0	32734	32551	32790	32775	32717	32769	32795	32694	
1235	0	32855	32507	32802	32701	32761	32687	32767	32599	
1236	0	32891	32549	32759	32819	32613	32831	32803	32667	
1237	0	32862	32599	32701	32763	32623	32709	32795	32636	
1238	0	32856	32677	32709	32791	32545	32915	32684	32727	
1239	0	32839	32607	32769	32791	32582	32833	32655	32691	
1240	0	32758	32743	32611	32839	32571	32820	32683	32655	
1241	0	32765	32735	32719	32762	32567	32751	32687	32725	
1242	0	32759	32655	32823	32807	32549	32842	32693	32630	
1243	0	32732	32597	32793	32725	32578	32755	32709	32743	
1244	0	32721	32598	32842	32811	32543	32819	32741	32719	
1245	0	32690	32627	32821	32867	32533	32655	32731	32735	
1246	0	32676	32465	32724	32765	32515	32715	32759	32791	
1247	0	32652	32583	32749	32847	32516	32685	32694	32699	
1248	0	32699	32835	32693	32791	32503	32763	32647	32763	
1249	0	32716	32771	32749	32895	32582	32575	32605	32679	
1250	0	32659	32729	32845	32875	32611	32751	32559	32719	
1251	0	32678	32706	32767	32807	32543	32666	32601	32593	
1252	0	32716	32791	32763	32753	32509	32775	32669	32735	
1253	0	32788	32709	32727	32751	32647	32685	32671	32759	
1254	0	32825	32613	32811	32790	32722	32879	32639	32765	
1255	0	32829	32471	32791	32711	32577	32839	32701	32647	
1256	0	32815	32437	32703	32727	32527	32903	32687	32775	
1257	0	32819	32501	32655	32662	32571	32871	32599	32775	
1258	0	32789	32479	32736	32708	32671	32817	32658	32595	
1259	0	32849	32475	32785	32667	32671	32699	32607	32762	
1260	0	32791	32573	32726	32655	32711	32663	32701	32623	
1261	0	32878	32791	32775	32684	32598	32731	32695	32737	
1262	0	32807	32715	32806	32759	32491	32705	32647	32637	
1263	0	32804	32691	32823	32753	32567	32724	32756	32696	
1264	0	32754	32534	32843	32860	32519	32543	32801	32676	
1265	0	32757	32586	32838	32700	32529	32799	32763	32731	
1266	0	32786	32551	32868	32791	32583	32775	32764	32603	
1267	0	32841	32573	32764	32711	32599	32799	32767	32725	
1268	0	32798	32733	32695	32663	32521	32719	32805	32694	
1269	0	32828	32710	32751	32811	32559	32820	32805	32789	
1270	0	32855	32647	32775	32818	32643	32911	32812	32621	
1271	0	32758	32660	32796	32703	32742	32797	32775	32706	
1272	0	32841	32647	32687	32789	32687	32893	32647	32754	
1273	0	32841	32663	32619	32727	32639	32735	32631	32722	
1274	0	32814	32687	32708	32813	32604	32899	32724	32722	
1275	0	32728	32643	32713	32855	32637	32707	32764	32677	
1276	0	32838	32647	32731	32823	32661	32788	32690	32763	
1277	0	32804	32475	32671	32791	32733	32831	32724	32756	
1278	0	32745	32510	32773	32838	32743	32711	32733	32671	
1279	0	32620	32599	32818	32727	32740	32719	32796	32623	
1280	0	32680	32614	32798	32806	32679	32732	32807	32615	
1281	0	32753	32775	32851	32790	32655	32694	32773	32723	
1282	0	32677	32683	32795	32759	32670	32723	32700	32855	
1283	0	32736	32628	32811	32799	32762	32711	32663	32759	
1284	0	32807	32695	32773	32707	32705	32899	32745	32719	
1285	0	32729	32551	32873	32767	32638	32791	32718	32787	
1286	0	32701	32553	32879	32757	32615	32597	32769	32697	
1287	0	32667	32822	32931	32717	32407	32674	32763	32663	
1288	0	32668	32818	32807	32791	32519	32747	32775	32639	
1289	0	32709	32755	32867	32767	32615	32687	32727	32689	
1290	0	32656	32709	32647	32703	32803	32743	32807	32730	
1291	0	32629	32670	32711	32827	32663	32797	32804	32735	
1292	0	32765	32647	32699	32773	32687	32637	32799	32727	
1293	0	32809	32671	32706	32743	32738	32818	32695	32710	
1294	0	32756	32693	32700	32727	32799	32817	32692	32635	
1295	0	32879	32659	32638	32718	32763	32821	32804	32711	
1296	0	32738	32679	32623	32719	32767	32775	32791	32674	
1297	0	32837	32684	32671	32749	32623	32788	32759	32760	
1298	0	32839	32629	32759	32711	32561	32868	32775	32775	
1299	0	32782	32511	32633	32597	32532	32643	32647	32775	
1300	0	32824	32551	32707	32775	32511	32771	32623	32807	
1301	0	32837	32556	32727	32791	32541	32711	32609	32671	
1302	0	32820	32775	32769	32755	32604	32723	32690	32775	
1303	0	32805	32639	32821	32849	32681	32823	32647	32735	
1304	0	32812	32674	32733	32773	32595	32791	32714	32644	
1305	0	32742	32775	32831	32689	32642	32711	32671	32715	
1306	0	32829	32658	32824	32675	32695	32791	32735	32629	
1307	0	32808	32679	32775	32773	32693	32700	32727	32671	
1308	0	32759	32615	32795	32738	32759	32758	32739	32615	
1309	0	32855	32502	32767	32809	32751	32605	32708	32706	
1310	0	32775	32473	32807	32723	32719	32788	32734	32627	
1311	0	32775	32773	32690	32707	32644	32807	32751	32675	
1312	0	32760	32829	32615	32771	32689	32839	32748	32722	
1313	0	32717	32740	32659	32738	32751	32738	32775	32775	
1314	0	32671	32718	32711	32867	32775	32855	32643	32815	
1315	0	32670	32767	32699	32863	32687	32821	32613	32773	
1316	0	32655	32787	32787	32835	32735	32823	32679	32767	
1317	0	32635	32747	32890	32861	32718	32845	32717	32684	
1318	0	32678	32739	32810	32759	32711	32799	32711	32803	
1319	0	32788	32622	32794	32727	32686	32839	32719	32783	
1320	0	32742	32647	32879	32703	32677	32724	32638	32787	
1321	0	32740	32663	32783	32855	32684	32833	32639	32812	
1322	0	32733	32612	32839	32775	32695	32758	32647	32708	
1323	0	32838	32647	32823	32703	32722	32687	32671	32723	
1324	0	32743	32621	32763	32775	32759	32690	32727	32621	
1325	0	32754	32687	32857	32719	32690	32771	32761	32775	
1326	0	32717	32615	32893	32756	32701	32679	32754	32716	
1327	0	32735	32622	32899	32675	32756	32838	32791	32615	
1328	0	32748	32628	32743	32749	32819	32759	32723	32714	
1329	0	32686	32623	32711	32607	32569	32773	32671	32647	
1330	0	32684	32711	32609	32709	32687	32767	32655	32725	
1331	0	32715	32743	32589	32735	32657	32807	32685	32639	
1332	0	32737	32741	32512	32751	32628	32783	32734	32745	
1333	0	32695	32686	32607	32775	32559	32635	32767	32686	
1334	0	32764	32503	32589	32709	32687	32687	32797	32735	
1335	0	32797	32581	32679	32804	32621	32764	32805	32694	
1336	0	32751	32661	32719	32726	32639	32727	32739	32765	
1337	0	32706	32597	32831	32770	32549	32663	32735	32790	
1338	0	32730	32857	32795	32823	32575	32787	32669	32727	
1339	0	32692	32810	32835	32785	32644	32791	32647	32806	
1340	0	32754	32811	32807	32733	32635	32767	32724	32754	
1341	0	32768	32815	32739	32757	32735	32643	32795	32855	
1342	0	32796	32774	32743	32763	32767	32589	32827	32835	
1343	0	32783	32859	32773	32751	32748	32796	32860	32705	
1344	0	32750	32787	32797	32757	32667	32755	32804	32739	
1345	0	32732	32685	32643	32738	32707	32575	32703	32701	
1346	0	32800	32623	32715	32759	32647	32795	32666	32791	
1347	0	32787	32701	32745	32805	32671	32807	32823	32734	
1348	0	32750	32727	32757	32753	32687	32694	32691	32639	
1349	0	32806	32687	32733	32647	32692	32805	32732	32735	
1350	0	32791	32706	32795	32751	32727	32855	32638	32711	
1351	0	32845	32740	32817	32723	32567	32707	32713	32669	
1352	0	32754	32607	32813	32718	32471	32758	32775	32735	
1353	0	32725	32811	32727	32766	32450	32758	32831	32711	
1354	0	32717	32775	32805	32837	32450	32718	32818	32734	
1355	0	32723	32799	32807	32751	32483	32668	32854	32677	
1356	0	32790	32679	32809	32827	32611	32775	32711	32636	
1357	0	32860	32738	32855	32803	32655	32679	32671	32775	
1358	0	32773	32751	32838	32915	32679	32725	32641	32711	
1359	0	32758	32791	32757	32701	32836	32773	32799	32707	
1360	0	32642	32631	32743	32753	32791	32722	32775	32679	
1361	0	32654	32613	32711	32531	32719	32738	32767	32751	
1362	0	32652	32659	32647	32711	32817	32861	32637	32775	
1363	0	32733	32567	32717	32703	32738	32675	32671	32767	
1364	0	32724	32640	32790	32727	32751	32756	32766	32675	
1365	0	32725	32732	32875	32797	32735	32731	32711	32756	
1366	0	32769	32639	32903	32871	32590	32807	32663	32722	
1367	0	32770	32663	32861	32811	32455	32773	32642	32647	
1368	0	32809	32614	32913	32823	32508	32727	32663	32745	
1369	0	32820	32527	32863	32831	32595	32775	32647	32703	
1370	0	32832	32705	32820	32796	32547	32743	32738	32853	
1371	0	32814	32703	32879	32735	32576	32831	32699	32678	
1372	0	32802	32713	32867	32941	32615	32700	32731	32687	
1373	0	32795	32628	32765	32820	32581	32698	32665	32732	
1374	0	32795	32639	32743	32798	32579	32738	32696	32679	
1375	0	32847	32647	32654	32839	32543	32821	32604	32722	
1376	0	32837	32763	32635	32754	32479	32663	32647	32669	
1377	0	32786	32733	32733	32710	32487	32836	32691	32779	
1378	0	32827	32591	32695	32765	32404	32767	32674	32695	
1379	0	32716	32607	32809	32607	32524	32855	32719	32711	
1380	0	32818	32643	32807	32743	32518	32788	32671	32743	
1381	0	32711	32859	32807	32655	32396	32738	32679	32791	
1382	0	32833	32759	32855	32725	32421	32804	32743	32767	
1383	0	32883	32576	32811	32787	32527	32615	32751	32839	
1384	0	32813	32663	32725	32775	32639	32791	32807	32734	
1385	0	32810	32614	32831	32775	32633	32647	32854	32749	
1386	0	32829	32535	32781	32791	32747	32799	32783	32719	
1387	0	32770	32542	32667	32739	32765	32695	32711	32743	
1388	0	32716	32503	32647	32855	32671	32863	32711	32647	
1389	0	32846	32547	32695	32773	32694	32718	32775	32626	
1390	0	32747	32631	32647	32703	32734	32831	32827	32771	
1391	0	32820	32767	32711	32698	32773	32643	32819	32668	
1392	0	32870	32755	32719	32767	32703	32738	32775	32775	
1393	0	32796	32726	32710	32647	32658	32813	32743	32723	
1394	0	32887	32685	32723	32807	32644	32663	32754	32692	
1395	0	32871	32690	32741	32756	32615	32839	32623	32698	
1396	0	32832	32695	32655	32647	32749	32755	32636	32646	
1397	0	32767	32695	32725	32662	32556	32839	32698	32743	
1398	0	32775	32674	32787	32669	32502	32807	32739	32793	
1399	0	32770	32711	32721	32809	32524	32655	32719	32775	
1400	0	32769	32743	32775	32681	32507	32743	32703	32751	
1401	0	32815	32735	32830	32775	32647	32575	32695	32702	
1402	0	32733	32671	32711	32771	32574	32817	32748	32711	
1403	0	32717	32621	32871	32709	32559	32621	32647	32647	
1404	0	32733	32631	32971	32695	32679	32674	32647	32715	
1405	0	32789	32575	32855	32703	32695	32711	32694	32775	
1406	0	32765	32551	32853	32764	32775	32743	32754	32705	
1407	0	32823	32727	32846	32766	32822	32684	32743	32687	
1408	0	32752	32603	32707	32799	32681	32579	32740	32709	
1409	0	32832	32647	32807	32766	32669	32805	32725	32763	
1410	0	32749	32687	32827	32679	32559	32900	32733	32719	
1411	0	32743	32721	32741	32839	32687	32714	32791	32738	
1412	0	32738	32739	32742	32647	32767	32903	32631	32685	
1413	0	32764	32699	32797	32759	32695	32867	32629	32743	
1414	0	32821	32791	32625	32711	32709	32636	32719	32754	
1415	0	32749	32827	32623	32767	32698	32795	32775	32767	
1416	0	32751	32727	32775	32749	32623	32853	32727	32774	
1417	0	32681	32669	32733	32647	32623	32695	32775	32679	
1418	0	32680	32626	32775	32753	32551	32775	32751	32739	
1419	0	32763	32647	32807	32677	32623	32713	32790	32731	
1420	0	32799	32647	32827	32711	32637	32737	32675	32647	
1421	0	32827	32715	32782	32711	32572	32803	32719	32671	
1422	0	32826	32711	32796	32817	32647	32788	32799	32623	
1423	0	32771	32671	32818	32808	32722	32647	32745	32669	
1424	0	32769	32674	32876	32775	32743	32711	32831	32597	
1425	0	32818	32695	32900	32807	32719	32772	32695	32561	
1426	0	32774	32716	32839	32741	32727	32787	32679	32711	
1427	0	32775	32695	32804	32791	32743	32639	32703	32707	
1428	0	32811	32685	32715	32783	32645	32807	32811	32741	
1429	0	32828	32699	32759	32811	32706	32603	32773	32701	
1430	0	32797	32676	32875	32877	32773	32773	32799	32673	
1431	0	32756	32741	32859	32757	32798	32830	32791	32718	
1432	0	32720	32726	32783	32802	32677	32645	32797	32724	
1433	0	32766	32703	32677	32771	32577	32813	32671	32775	
1434	0	32743	32668	32611	32742	32583	32838	32646	32845	
1435	0	32780	32647	32713	32695	32595	32771	32789	32686	
1436	0	32756	32551	32775	32697	32615	32794	32733	32706	
1437	0	32697	32509	32701	32628	32579	32903	32679	32615	
1438	0	32708	32540	32692	32647	32567	32687	32731	32755	
1439	0	32705	32527	32715	32735	32563	32758	32695	32655	
1440	0	32730	32578	32685	32861	32625	32720	32710	32721	
1441	0	32754	32719	32767	32735	32565	32828	32687	32621	
1442	0	32767	32739	32722	32863	32567	32591	32638	32723	
1443	0	32713	32775	32595	32799	32551	32757	32631	32721	
1444	0	32767	32551	32631	32836	32628	32791	32687	32711	
1445	0	32771	32518	32735	32742	32743	32767	32698	32758	
1446	0	32717	32558	32709	32802	32715	32765	32767	32797	
1447	0	32743	32517	32707	32711	32743	32839	32647	32697	
1448	0	32708	32553	32709	32798	32791	32599	32629	32725	
1449	0	32662	32527	32739	32837	32724	32732	32679	32723	
1450	0	32716	32477	32751	32797	32751	32679	32700	32683	
1451	0	32741	32534	32809	32783	32791	32738	32730	32743	
1452	0	32726	32733	32747	32711	32620	32763	32575	32722	
1453	0	32730	32519	32719	32795	32676	32647	32594	32695	
1454	0	32750	32631	32705	32788	32550	32691	32714	32717	
1455	0	32736	32789	32791	32751	32495	32631	32759	32711	
1456	0	32757	32815	32790	32807	32595	32740	32747	32679	
1457	0	32722	32695	32741	32739	32747	32765	32839	32727	
1458	0	32774	32621	32756	32743	32655	32767	32731	32847	
1459	0	32775	32535	32735	32763	32659	32669	32763	32679	
1460	0	32791	32631	32694	32875	32635	32637	32853	32735	
1461	0	32839	32591	32726	32775	32711	32635	32867	32733	
1462	0	32834	32631	32751	32818	32677	32732	32855	32775	
1463	0	32715	32807	32802	32726	32737	32621	32839	32748	
1464	0	32706	32751	32743	32903	32718	32803	32767	32709	
1465	0	32735	32709	32807	32767	32662	32711	32655	32783	
1466	0	32782	32647	32743	32647	32743	32827	32717	32675	
1467	0	32812	32637	32756	32767	32685	32679	32767	32658	
1468	0	32767	32599	32790	32663	32653	32794	32858	32679	
1469	0	32758	32611	32799	32698	32604	32854	32791	32735	
1470	0	32764	32632	32715	32749	32598	32715	32791	32695	
1471	0	32775	32575	32806	32647	32535	32775	32628	32647	
1472	0	32763	32647	32839	32762	32597	32743	32605	32703	
1473	0	32679	32631	32795	32813	32639	32887	32610	32607	
1474	0	32734	32676	32813	32809	32711	32709	32690	32715	
1475	0	32759	32637	32851	32772	32762	32839	32802	32647	
1476	0	32711	32643	32743	32738	32743	32765	32715	32708	
1477	0	32807	32551	32766	32847	32759	32847	32714	32687	
1478	0	32733	32517	32743	32814	32743	32723	32722	32659	
1479	0	32760	32615	32775	32735	32711	32773	32759	32715	
1480	0	32757	32811	32815	32863	32741	32722	32775	32671	
1481	0	32692	32771	32751	32823	32633	32854	32751	32733	
1482	0	32743	32798	32767	32790	32687	32667	32737	32719	
1483	0	32825	32601	32801	32823	32620	32815	32847	32775	
1484	0	32812	32791	32841	32853	32669	32775	32839	32719	
1485	0	32775	32759	32783	32799	32690	32695	32765	32679	
1486	0	32775	32583	32789	32819	32683	32807	32734	32706	
1487	0	32749	32583	32782	32718	32655	32827	32679	32690	
1488	0	32786	32775	32759	32734	32743	32630	32661	32763	
1489	0	32761	32775	32725	32710	32775	32862	32612	32724	
1490	0	32807	32643	32759	32748	32761	32836	32611	32743	
1491	0	32764	32687	32775	32719	32783	32875	32702	32789	
1492	0	32738	32727	32713	32735	32687	32858	32679	32671	
1493	0	32669	32759	32762	32783	32747	32863	32628	32711	
1494	0	32668	32775	32807	32659	32767	32759	32630	32647	
1495	0	32692	32759	32765	32690	32775	32883	32660	32804	
1496	0	32727	32773	32686	32799	32709	32864	32706	32725	
1497	0	32722	32722	32784	32775	32575	32860	32674	32677	
1498	0	32742	32694	32747	32807	32518	32713	32707	32775	
1499	0	32759	32639	32647	32726	32571	32622	32647	32775	
1500	0	32723	32487	32709	32798	32594	32743	32553	32765	
1501	0	32742	32535	32663	32775	32575	32675	32668	32757	
1502	0	32771	32559	32647	32733	32565	32669	32742	32694	
1503	0	32775	32575	32740	32803	32591	32636	32747	32715	
1504	0	32806	32759	32759	32722	32503	32690	32795	32583	
1505	0	32787	32767	32723	32811	32519	32763	32807	32703	
1506	0	32790	32755	32724	32751	32605	32692	32743	32867	
1507	0	32796	32695	32759	32725	32671	32762	32711	32756	
1508	0	32797	32719	32739	32747	32810	32690	32773	32799	
1509	0	32703	32509	32674	32787	32671	32579	32751	32839	
1510	0	32719	32483	32685	32647	32679	32782	32814	32735	
1511	0	32764	32455	32690	32773	32671	32723	32701	32791	
1512	0	32876	32523	32749	32659	32749	32670	32647	32775	
1513	0	32800	32639	32717	32695	32630	32727	32821	32661	
1514	0	32846	32709	32791	32773	32557	32687	32773	32751	
1515	0	32806	32703	32749	32765	32687	32804	32671	32643	
1516	0	32782	32690	32735	32818	32670	32830	32786	32669	
1517	0	32751	32639	32735	32810	32692	32823	32791	32642	
1518	0	32692	32749	32757	32815	32726	32858	32738	32735	
1519	0	32716	32673	32815	32823	32757	32891	32745	32658	
1520	0	32751	32638	32806	32858	32755	32834	32647	32643	
1521	0	32752	32723	32814	32854	32531	32887	32827	32637	
1522	0	32783	32751	32820	32727	32571	32687	32813	32710	
1523	0	32825	32775	32811	32815	32703	32815	32739	32679	
1524	0	32877	32743	32859	32740	32749	32869	32698	32739	
1525	0	32788	32739	32709	32761	32663	32647	32865	32749	
1526	0	32701	32795	32574	32789	32711	32703	32827	32629	
1527	0	32699	32783	32708	32763	32765	32807	32802	32775	
1528	0	32708	32703	32669	32743	32789	32725	32742	32738	
1529	0	32781	32667	32610	32790	32858	32719	32719	32723	
1530	0	32725	32669	32669	32692	32871	32759	32751	32818	
1531	0	32726	32735	32743	32757	32746	32805	32749	32673	
1532	0	32700	32731	32647	32719	32707	32754	32679	32725	
1533	0	32737	32708	32743	32775	32690	32711	32707	32790	
1534	0	32751	32687	32812	32691	32716	32725	32749	32791	
1535	0	32748	32687	32819	32731	32551	32795	32647	32719	
1536	0	32757	32711	32687	32647	32511	32703	32623	32699	
1537	0	32727	32711	32705	32711	32447	32863	32727	32739	
1538	0	32751	32786	32813	32765	32647	32863	32791	32715	
1539	0	32748	32797	32773	32797	32599	32718	32709	32684	
1540	0	32793	32742	32775	32823	32659	32838	32695	32711	
1541	0	32717	32799	32823	32713	32663	32819	32647	32775	
1542	0	32727	32763	32879	32759	32635	32787	32681	32743	
1543	0	32708	32691	32797	32762	32630	32867	32647	32756	
1544	0	32756	32679	32818	32717	32679	32791	32725	32775	
1545	0	32780	32646	32843	32770	32611	32783	32751	32827	
1546	0	32802	32535	32873	32711	32607	32667	32687	32701	
1547	0	32890	32483	32903	32719	32615	32694	32643	32802	
1548	0	32893	32611	32865	32721	32751	32766	32647	32663	
1549	0	32807	32631	32738	32751	32711	32711	32629	32727	
1550	0	32748	32843	32775	32638	32683	32691	32543	32799	
1551	0	32694	32827	32835	32766	32647	32714	32743	32639	
1552	0	32725	32839	32839	32741	32761	32799	32695	32791	
1553	0	32735	32575	32775	32795	32807	32790	32692	32815	
1554	0	32762	32815	32827	32809	32793	32670	32799	32641	
1555	0	32749	32763	32876	32769	32683	32775	32775	32707	
1556	0	32742	32667	32815	32831	32583	32767	32731	32739	
1557	0	32762	32761	32644	32839	32597	32599	32727	32647	
1558	0	32807	32762	32671	32925	32711	32775	32631	32647	
1559	0	32804	32767	32734	32767	32707	32747	32698	32699	
1560	0	32816	32731	32683	32837	32743	32770	32669	32695	
1561	0	32795	32653	32633	32709	32803	32677	32644	32671	
1562	0	32791	32610	32711	32787	32731	32773	32670	32615	
1563	0	32765	32575	32687	32647	32899	32698	32826	32720	
1564	0	32753	32735	32670	32604	32676	32743	32723	32647	
1565	0	32723	32687	32805	32701	32629	32655	32766	32715	
1566	0	32718	32717	32679	32613	32751	32697	32807	32738	
1567	0	32681	32706	32723	32754	32695	32766	32739	32628	
1568	0	32718	32735	32827	32769	32655	32759	32663	32679	
1569	0	32681	32703	32957	32791	32619	32647	32711	32663	
1570	0	32710	32647	32843	32867	32655	32799	32786	32726	
1571	0	32756	32658	32801	32775	32708	32863	32775	32739	
1572	0	32628	32708	32771	32852	32573	32719	32703	32617	
1573	0	32766	32703	32709	32933	32631	32918	32727	32663	
1574	0	32791	32568	32667	32854	32720	32839	32762	32598	
1575	0	32727	32627	32793	32834	32775	32793	32761	32676	
1576	0	32730	32551	32681	32846	32484	32827	32580	32695	
1577	0	32732	32631	32727	32878	32543	32775	32535	32742	
1578	0	32698	32549	32735	32839	32583	32647	32749	32749	
1579	0	32738	32790	32815	32831	32641	32789	32751	32679	
1580	0	32698	32563	32878	32855	32590	32847	32725	32683	
1581	0	32718	32633	32845	32773	32679	32726	32663	32775	
1582	0	32743	32711	32724	32799	32642	32705	32775	32733	
1583	0	32895	32523	32739	32694	32562	32804	32790	32631	
1584	0	32889	32715	32763	32721	32524	32753	32733	32712	
1585	0	32896	32661	32597	32645	32591	32690	32729	32675	
1586	0	32895	32765	32703	32735	32691	32764	32671	32783	
1587	0	32885	32743	32839	32601	32740	32699	32622	32775	
1588	0	32871	32783	32858	32669	32647	32706	32743	32767	
1589	0	32936	32765	32770	32679	32775	32583	32773	32717	
1590	0	32996	32707	32743	32755	32854	32847	32687	32775	
1591	0	32885	32519	32795	32876	32645	32813	32662	32797	
1592	0	32786	32557	32773	32727	32647	32719	32645	32734	
1593	0	32799	32685	32743	32761	32633	32852	32743	32839	
1594	0	32775	32583	32799	32647	32619	32775	32775	32717	
1595	0	32775	32644	32735	32775	32583	32711	32731	32687	
1596	0	32809	32655	32796	32771	32599	32731	32707	32647	
1597	0	32899	32612	32838	32788	32543	32751	32751	32787	
1598	0	32903	32559	32814	32831	32559	32775	32839	32706	
1599	0	32831	32547	32749	32733	32647	32700	32719	32769	
1600	0	32828	32539	32715	32775	32759	32617	32659	32695	
1601	0	32751	32563	32610	32731	32775	32687	32766	32615	
1602	0	32759	32613	32803	32799	32773	32795	32793	32751	
1603	0	32791	32775	32727	32735	32673	32637	32775	32715	
1604	0	32732	32759	32823	32815	32695	32799	32791	32711	
1605	0	32588	32837	32821	32721	32538	32847	32711	32707	
1606	0	32663	32839	32903	32804	32449	32775	32829	32727	
1607	0	32599	32807	32819	32663	32551	32685	32850	32676	
1608	0	32505	32807	32757	32735	32487	32671	32855	32699	
1609	0	32537	32645	32675	32675	32455	32821	32763	32739	
1610	0	32578	32599	32684	32621	32491	32647	32699	32715	
1611	0	32592	32567	32811	32687	32583	32783	32634	32690	
1612	0	32628	32509	32700	32663	32679	32853	32647	32783	
1613	0	32621	32607	32660	32695	32586	32765	32663	32699	
1614	0	32627	32731	32799	32575	32607	32849	32709	32751	
1615	0	32697	32607	32839	32663	32663	32825	32775	32751	
1616	0	32727	32575	32711	32803	32683	32719	32738	32631	
1617	0	32731	32535	32612	32775	32703	32775	32702	32791	
1618	0	32708	32753	32726	32863	32662	32811	32707	32749	
1619	0	32761	32791	32717	32835	32643	32787	32755	32671	
1620	0	32806	32809	32687	32845	32619	32916	32839	32633	
1621	0	32902	32719	32711	32839	32663	32804	32794	32612	
1622	0	32957	32735	32759	32789	32756	32948	32726	32740	
1623	0	32878	32758	32573	32759	32719	32732	32751	32736	
1624	0	32767	32711	32676	32647	32550	32791	32685	32749	
1625	0	32769	32663	32729	32751	32484	32775	32688	32724	
1626	0	32789	32639	32837	32708	32623	32663	32814	32647	
1627	0	32780	32711	32878	32743	32719	32783	32783	32796	
1628	0	32826	32743	32871	32743	32742	32775	32716	32735	
1629	0	32866	32757	32893	32839	32742	32755	32623	32669	
1630	0	32870	32687	32903	32822	32772	32711	32762	32769	
1631	0	32930	32695	32871	32797	32815	32655	32749	32767	
1632	0	32837	32663	32799	32737	32623	32761	32663	32692	
1633	0	32802	32705	32871	32663	32463	32731	32567	32767	
1634	0	32718	32596	32854	32769	32572	32565	32655	32741	
1635	0	32634	32549	32823	32671	32742	32703	32631	32669	
1636	0	32631	32599	32764	32771	32803	32763	32681	32703	
1637	0	32680	32655	32690	32713	32791	32567	32623	32662	
1638	0	32703	32703	32732	32788	32855	32764	32627	32647	
1639	0	32779	32738	32701	32754	32804	32775	32687	32775	
1640	0	32812	32695	32663	32875	32647	32684	32823	32615	
1641	0	32767	32470	32727	32738	32689	32669	32827	32749	
1642	0	32822	32519	32791	32851	32703	32727	32750	32767	
1643	0	32751	32486	32887	32687	32775	32686	32647	32642	
1644	0	32679	32566	32849	32724	32647	32679	32705	32654	
1645	0	32686	32719	32807	32735	32564	32843	32823	32787	
1646	0	32728	32647	32871	32783	32647	32735	32739	32742	
1647	0	32745	32579	32733	32786	32588	32759	32705	32755	
1648	0	32804	32519	32645	32807	32559	32799	32627	32621	
1649	0	32863	32515	32671	32809	32671	32723	32647	32711	
1650	0	32901	32495	32642	32711	32743	32769	32775	32733	
1651	0	32823	32599	32669	32773	32694	32723	32741	32684	
1652	0	32775	32647	32589	32719	32679	32827	32629	32706	
1653	0	32740	32667	32581	32791	32743	32838	32562	32687	
1654	0	32781	32695	32647	32647	32751	32743	32727	32637	
1655	0	32814	32647	32663	32735	32625	32775	32679	32717	
1656	0	32809	32619	32740	32823	32551	32766	32687	32735	
1657	0	32871	32575	32801	32741	32514	32743	32631	32601	
1658	0	32849	32690	32836	32703	32579	32832	32659	32731	
1659	0	32832	32643	32774	32838	32621	32628	32747	32731	
1660	0	32798	32653	32821	32685	32647	32772	32771	32675	
1661	0	32788	32566	32861	32783	32679	32751	32743	32732	
1662	0	32733	32479	32844	32715	32709	32607	32823	32625	
1663	0	32688	32535	32662	32733	32677	32657	32669	32677	
1664	0	32764	32519	32738	32735	32727	32591	32711	32719	
1665	0	32786	32655	32879	32718	32625	32707	32737	32775	
1666	0	32780	32693	32851	32883	32573	32753	32663	32687	
1667	0	32827	32623	32871	32771	32553	32791	32705	32775	
1668	0	32760	32573	32799	32795	32781	32807	32684	32782	
1669	0	32767	32730	32700	32837	32663	32659	32714	32676	
1670	0	32772	32647	32647	32773	32671	32667	32835	32852	
1671	0	32745	32711	32743	32823	32711	32621	32700	32740	
1672	0	32727	32703	32733	32667	32599	32783	32815	32710	
1673	0	32751	32729	32737	32809	32559	32799	32834	32679	
1674	0	32709	32748	32555	32799	32707	32701	32804	32831	
1675	0	32717	32738	32541	32743	32775	32775	32724	32839	
1676	0	32740	32711	32658	32751	32739	32790	32711	32726	
1677	0	32852	32724	32711	32786	32791	32723	32804	32775	
1678	0	32806	32715	32694	32823	32675	32749	32771	32677	
1679	0	32793	32727	32657	32819	32644	32791	32711	32690	
1680	0	32647	32729	32675	32847	32677	32709	32615	32710	
1681	0	32726	32659	32808	32735	32703	32735	32758	32775	
1682	0	32699	32687	32822	32795	32455	32621	32802	32637	
1683	0	32685	32666	32793	32738	32587	32767	32677	32695	
1684	0	32709	32715	32783	32793	32728	32745	32775	32669	
1685	0	32687	32814	32818	32775	32639	32727	32713	32638	
1686	0	32731	32943	32823	32675	32647	32757	32789	32607	
1687	0	32698	32895	32883	32695	32750	32755	32647	32742	
1688	0	32756	32821	32843	32642	32767	32746	32606	32679	
1689	0	32718	32791	32829	32725	32727	32723	32703	32799	
1690	0	32710	32802	32806	32692	32537	32698	32660	32722	
1691	0	32716	32775	32833	32743	32535	32891	32695	32729	
1692	0	32690	32763	32795	32715	32623	32912	32489	32695	
1693	0	32673	32770	32719	32706	32789	32729	32711	32719	
1694	0	32773	32751	32735	32743	32751	32887	32701	32659	
1695	0	32851	32763	32845	32699	32703	32855	32703	32756	
1696	0	32846	32786	32829	32767	32647	32731	32623	32683	
1697	0	32871	32795	32759	32791	32716	32759	32775	32693	
1698	0	32896	32703	32754	32749	32748	32775	32718	32673	
1699	0	32864	32692	32727	32751	32662	32695	32743	32694	
1700	0	32847	32575	32807	32767	32647	32727	32659	32630	
1701	0	32824	32551	32735	32807	32474	32797	32719	32803	
1702	0	32812	32607	32743	32716	32659	32677	32775	32647	
1703	0	32834	32629	32679	32790	32733	32765	32860	32762	
1704	0	32716	32628	32679	32671	32677	32595	32751	32757	
1705	0	32685	32683	32807	32695	32655	32829	32787	32773	
1706	0	32695	32647	32835	32615	32675	32802	32837	32687	
1707	0	32712	32621	32773	32759	32692	32674	32790	32799	
1708	0	32679	32695	32701	32710	32610	32749	32843	32711	
1709	0	32686	32735	32746	32741	32563	32802	32735	32627	
1710	0	32766	32699	32785	32647	32509	32815	32749	32695	
1711	0	32751	32736	32738	32775	32524	32743	32845	32735	
1712	0	32826	32655	32770	32705	32645	32644	32767	32635	
1713	0	32775	32596	32844	32759	32671	32707	32787	32719	
1714	0	32765	32631	32770	32785	32771	32567	32875	32647	
1715	0	32879	32595	32804	32875	32807	32710	32655	32707	
1716	0	32802	32645	32751	32775	32677	32791	32690	32719	
1717	0	32775	32641	32708	32759	32763	32698	32703	32615	
1718	0	32745	32698	32652	32831	32765	32677	32711	32627	
1719	0	32749	32722	32679	32807	32619	32763	32655	32675	
1720	0	32777	32708	32731	32759	32518	32571	32711	32599	
1721	0	32759	32719	32760	32687	32603	32645	32789	32733	
1722	0	32715	32791	32834	32773	32731	32603	32787	32775	
1723	0	32726	32629	32807	32839	32711	32687	32714	32772	
1724	0	32720	32573	32735	32767	32731	32757	32751	32725	
1725	0	32708	32566	32679	32787	32655	32722	32716	32769	
1726	0	32702	32530	32638	32700	32599	32759	32654	32767	
1727	0	32728	32494	32743	32759	32681	32538	32713	32662	
1728	0	32748	32583	32773	32845	32719	32679	32758	32787	
1729	0	32748	32725	32713	32791	32731	32697	32835	32739	
1730	0	32780	32775	32691	32791	32766	32661	32647	32685	
1731	0	32759	32702	32799	32793	32677	32711	32739	32876	
1732	0	32799	32751	32703	32852	32484	32797	32726	32855	
1733	0	32762	32759	32764	32837	32677	32799	32815	32759	
1734	0	32807	32682	32711	32819	32623	32821	32698	32805	
1735	0	32727	32691	32685	32738	32639	32860	32731	32735	
1736	0	32769	32677	32743	32733	32759	32863	32828	32749	
1737	0	32709	32737	32809	32822	32639	32819	32805	32743	
1738	0	32775	32759	32823	32726	32503	32735	32681	32695	
1739	0	32820	32693	32935	32698	32633	32823	32719	32566	
1740	0	32786	32701	32833	32759	32690	32855	32703	32626	
1741	0	32783	32655	32847	32766	32719	32711	32694	32643	
1742	0	32782	32687	32815	32749	32775	32839	32735	32573	
1743	0	32730	32541	32756	32827	32755	32689	32751	32663	
1744	0	32724	32502	32799	32723	32694	32815	32743	32607	
1745	0	32799	32499	32812	32756	32654	32623	32610	32645	
1746	0	32695	32527	32723	32749	32691	32835	32679	32708	
1747	0	32742	32538	32759	32798	32731	32773	32754	32743	
1748	0	32713	32583	32775	32817	32772	32633	32788	32710	
1749	0	32729	32771	32698	32807	32839	32831	32745	32658	
1750	0	32759	32829	32751	32863	32783	32799	32774	32727	
1751	0	32718	32871	32820	32804	32775	32823	32693	32642	
1752	0	32685	32834	32903	32815	32631	32799	32657	32759	
1753	0	32710	32645	32898	32734	32621	32826	32731	32773	
1754	0	32749	32628	32799	32783	32647	32807	32647	32699	
1755	0	32737	32767	32862	32759	32663	32691	32699	32741	
1756	0	32748	32755	32855	32715	32671	32867	32647	32671	
1757	0	32726	32810	32815	32821	32695	32915	32573	32767	
1758	0	32723	32765	32850	32667	32717	32754	32519	32641	
1759	0	32736	32775	32858	32723	32702	32871	32677	32636	
1760	0	32758	32735	32842	32811	32631	32821	32675	32733	
1761	0	32773	32743	32788	32735	32689	32739	32787	32783	
1762	0	32798	32821	32806	32738	32535	32822	32639	32599	
1763	0	32759	32819	32836	32643	32423	32681	32795	32645	
1764	0	32738	32635	32831	32706	32467	32927	32775	32759	
1765	0	32740	32695	32836	32683	32683	32799	32743	32687	
1766	0	32767	32735	32647	32732	32679	32887	32731	32739	
1767	0	32767	32534	32739	32644	32671	32933	32666	32759	
1768	0	32788	32671	32865	32791	32647	32847	32727	32810	
1769	0	32772	32711	32763	32755	32631	32919	32712	32801	
1770	0	32743	32719	32743	32739	32680	32681	32815	32635	
1771	0	32748	32749	32734	32694	32771	32791	32759	32707	
1772	0	32854	32723	32727	32845	32747	32821	32701	32695	
1773	0	32807	32685	32726	32722	32695	32623	32819	32647	
1774	0	32810	32694	32663	32764	32565	32855	32647	32756	
1775	0	32858	32647	32703	32807	32583	32839	32631	32709	
1776	0	32809	32639	32719	32757	32487	32706	32677	32788	
1777	0	32767	32582	32700	32769	32487	32773	32767	32775	
1778	0	32743	32623	32679	32767	32484	32655	32797	32809	
1779	0	32684	32775	32661	32703	32519	32775	32805	32817	
1780	0	32748	32775	32635	32767	32638	32577	32755	32685	
1781	0	32692	32873	32663	32658	32734	32679	32746	32775	
1782	0	32669	32844	32743	32757	32625	32795	32663	32767	
1783	0	32700	32769	32743	32690	32702	32687	32655	32687	
1784	0	32687	32711	32647	32735	32738	32655	32719	32783	
1785	0	32673	32773	32707	32662	32742	32765	32758	32823	
1786	0	32595	32740	32743	32717	32647	32793	32743	32799	
1787	0	32558	32711	32767	32775	32487	32754	32727	32802	
1788	0	32519	32575	32827	32795	32590	32583	32615	32763	
1789	0	32479	32587	32811	32763	32535	32822	32575	32674	
1790	0	32564	32604	32879	32799	32692	32805	32685	32687	
1791	0	32621	32591	32754	32775	32763	32677	32775	32681	
1792	0	32527	32551	32719	32749	32702	32735	32679	32599	
1793	0	32544	32431	32621	32873	32802	32799	32773	32723	
1794	0	32516	32359	32599	32830	32807	32873	32639	32726	
1795	0	32573	32287	32647	32803	32676	32815	32663	32580	
1796	0	32654	32321	32631	32751	32583	32623	32733	32646	
1797	0	32612	32470	32676	32812	32737	32755	32683	32667	
1798	0	32621	32187	32742	32773	32684	32646	32642	32699	
1799	0	32609	32111	32646	32775	32767	32710	32633	32492	
1800	0	32647	32146	32621	32850	32759	32757	32775	32655	
1801	0	32711	32131	32587	32834	32615	32717	32702	32619	
1802	0	32795	32015	32647	32861	32639	32702	32708	32553	
1803	0	32780	31910	32671	32821	32583	32866	32669	32660	
1804	0	32840	31906	32615	32803	32699	32811	32661	32666	
1805	0	32831	31935	32613	32775	32684	32771	32647	32685	
1806	0	32999	31922	32647	32719	32747	32587	32673	32703	
1807	0	33156	31837	32749	32899	32699	32695	32735	32646	
1808	0	33215	31787	32731	32783	32697	32735	32655	32734	
1809	0	33174	31879	32668	32791	32703	32679	32591	32806	
1810	0	33186	32175	32758	32754	32535	32787	32679	32671	
1811	0	33246	32199	32751	32775	32492	32807	32698	32775	
1812	0	33362	32196	32760	32695	32556	32816	32775	32735	
1813	0	33368	32361	32679	32839	32565	32835	32775	32727	
1814	0	33242	32413	32675	32900	32646	32844	32773	32751	
1815	0	33240	32436	32715	32730	32775	32751	32775	32679	
1816	0	33254	32443	32877	32783	32675	32751	32699	32717	
1817	0	33274	32564	32845	32671	32690	32775	32711	32719	
1818	0	33274	32733	32831	32711	32578	32701	32773	32630	
1819	0	33203	32967	32943	32607	32583	32735	32931	32739	
1820	0	33159	33141	33018	32604	32667	32575	32903	32790	
1821	0	33190	33431	32983	32671	32583	32679	32927	32713	
1822	0	33180	33559	32983	32566	32551	32685	32860	32748	
1823	0	33194	33654	32953	32631	32476	32557	32855	32841	
1824	0	33200	33831	33010	32614	32613	32726	32957	32755	
1825	0	33044	33943	32999	32590	32699	32635	32949	32823	
1826	0	32927	33943	32966	32641	32707	32795	32791	32847	
1827	0	32834	33989	32935	32643	32743	32791	32823	32793	
1828	0	32783	33971	32975	32677	32523	32655	32879	32767	
1829	0	32761	33927	32903	32679	32565	32765	32951	32807	
1830	0	32774	33773	32867	32663	32675	32807	32775	32801	
1831	0	32793	33590	32955	32716	32711	32867	32775	32813	
1832	0	32824	33479	32838	32711	32692	32878	32823	32843	
1833	0	32952	33383	32715	32719	32843	32763	32735	32911	
1834	0	32745	33251	32726	32692	32855	32858	32679	32738	
1835	0	32619	33235	32679	32762	32569	32827	32647	32821	
1836	0	32511	33127	32700	32775	32623	32817	32831	32759	
1837	0	32210	32859	32763	32785	32683	32859	32710	32631	
1838	0	32105	32717	32685	32869	32597	32826	32621	32735	
1839	0	31970	32665	32679	32740	32707	32851	32638	32725	
1840	0	31958	32669	32675	32883	32607	32738	32703	32702	
1841	0	31857	32717	32721	32807	32607	32883	32679	32622	
1842	0	31897	32775	32735	32839	32791	32919	32646	32731	
1843	0	31988	32749	32835	32869	32681	32927	32631	32687	
1844	0	32047	32647	32770	32786	32647	32837	32647	32663	
1845	0	32150	32603	32815	32839	32679	32667	32735	32706	
1846	0	32292	32510	32798	32806	32685	32803	32725	32765	
1847	0	32332	32525	32736	32787	32615	32773	32667	32628	
1848	0	32436	32391	32607	32847	32541	32641	32550	32739	
1849	0	32574	32427	32692	32813	32581	32681	32591	32709	
1850	0	32647	32412	32738	32695	32719	32653	32749	32647	
1851	0	32663	32335	32783	32810	32791	32761	32683	32745	
1852	0	32700	32367	32647	32695	32751	32803	32708	32700	
1853	0	32730	32260	32631	32835	32743	32807	32657	32634	
1854	0	32732	32297	32681	32715	32804	32839	32658	32647	
1855	0	32854	32315	32647	32839	32783	32706	32583	32719	
1856	0	32897	32277	32646	32786	32775	32875	32643	32647	
1857	0	32903	32291	32655	32867	32647	32836	32716	32719	
1858	0	32873	32279	32666	32687	32623	32698	32701	32685	
1859	0	32834	32401	32742	32671	32767	32715	32743	32639	
1860	0	32835	32442	32711	32735	32767	32655	32637	32695	
1861	0	32775	32402	32623	32760	32726	32751	32603	32575	
1862	0	32806	32375	32719	32711	32635	32759	32619	32655	
1863	0	32805	32417	32782	32815	32763	32661	32631	32669	
1864	0	32789	32549	32724	32799	32758	32671	32709	32731	
1865	0	32809	32539	32743	32755	32607	32775	32847	32719	
1866	0	32764	32383	32715	32805	32594	32647	32647	32599	
1867	0	32796	32353	32731	32749	32519	32658	32647	32483	
1868	0	32738	32333	32727	32757	32608	32815	32733	32751	
1869	0	32887	32354	32827	32690	32549	32807	32760	32775	
1870	0	32895	32335	32863	32697	32694	32786	32737	32735	
1871	0	32943	32319	32747	32763	32738	32647	32747	32699	
1872	0	32942	32324	32727	32772	32687	32843	32647	32775	
1873	0	32917	32423	32806	32795	32671	32767	32723	32743	
1874	0	32879	32647	32775	32711	32679	32831	32687	32663	
1875	0	32877	32775	32735	32763	32679	32855	32732	32730	
1876	0	32829	32587	32695	32763	32731	32814	32751	32775	
1877	0	32911	32566	32775	32775	32531	32743	32757	32711	
1878	0	32885	32487	32807	32817	32583	32835	32732	32749	
1879	0	32833	32516	32805	32710	32631	32638	32713	32750	
1880	0	32824	32709	32842	32798	32709	32783	32663	32695	
1881	0	32727	32629	32935	32837	32797	32710	32674	32703	
1882	0	32796	32599	32819	32797	32807	32757	32647	32587	
1883	0	32827	32613	32841	32847	32839	32769	32671	32753	
1884	0	32796	32605	32813	32815	32727	32823	32711	32791	
1885	0	32806	32543	32711	32775	32674	32879	32701	32775	
1886	0	32749	32525	32785	32627	32591	32730	32735	32775	
1887	0	32711	32471	32845	32647	32555	32839	32741	32683	
1888	0	32806	32519	32723	32738	32605	32797	32759	32719	
1889	0	32745	32519	32655	32759	32719	32766	32663	32701	
1890	0	32751	32590	32679	32756	32599	32820	32647	32695	
1891	0	32819	32601	32707	32823	32583	32643	32683	32684	
1892	0	32715	32763	32615	32786	32511	32795	32685	32662	
1893	0	32767	32835	32701	32725	32587	32775	32747	32749	
1894	0	32743	32803	32735	32790	32499	32679	32775	32789	
1895	0	32775	32769	32647	32791	32553	32756	32687	32734	
1896	0	32764	32583	32583	32775	32668	32831	32709	32806	
1897	0	32775	32687	32725	32663	32677	32671	32638	32830	
1898	0	32837	32562	32775	32775	32615	32783	32598	32795	
1899	0	32784	32599	32767	32834	32709	32645	32722	32775	
1900	0	32715	32461	32647	32743	32519	32743	32745	32797	
1901	0	32764	32501	32698	32853	32485	32533	32757	32679	
1902	0	32843	32503	32755	32769	32519	32683	32819	32731	
1903	0	32769	32487	32716	32799	32575	32671	32695	32631	
1904	0	32790	32542	32736	32745	32730	32707	32687	32741	
1905	0	32725	32556	32852	32722	32743	32612	32671	32718	
1906	0	32701	32527	32797	32757	32727	32759	32743	32685	
1907	0	32715	32535	32819	32839	32695	32727	32785	32717	
1908	0	32727	32571	32859	32749	32775	32727	32686	32729	
1909	0	32697	32595	32887	32811	32830	32589	32694	32721	
1910	0	32708	32623	32759	32775	32807	32793	32719	32706	
1911	0	32725	32754	32811	32751	32743	32797	32815	32559	
1912	0	32730	32591	32843	32702	32615	32687	32703	32647	
1913	0	32692	32595	32735	32743	32558	32767	32682	32687	
1914	0	32668	32775	32727	32721	32557	32860	32703	32655	
1915	0	32663	32763	32749	32719	32559	32723	32765	32719	
1916	0	32738	32736	32671	32706	32500	32839	32807	32589	
1917	0	32799	32743	32669	32606	32550	32810	32803	32647	
1918	0	32734	32727	32711	32731	32679	32679	32805	32671	
1919	0	32754	32715	32709	32660	32655	32751	32837	32668	
1920	0	32792	32735	32655	32775	32763	32813	32671	32663	
1921	0	32750	32623	32694	32679	32819	32866	32707	32768	
1922	0	32713	32595	32759	32799	32756	32847	32722	32794	
1923	0	32722	32786	32741	32753	32631	32655	32734	32727	
1924	0	32812	32775	32748	32839	32631	32821	32736	32643	
1925	0	32808	32839	32710	32706	32758	32788	32783	32726	
1926	0	32809	32771	32743	32829	32784	32642	32695	32719	
1927	0	32789	32747	32743	32725	32733	32715	32661	32647	
1928	0	32820	32635	32714	32834	32759	32701	32719	32735	
1929	0	32782	32671	32837	32823	32726	32582	32685	32762	
1930	0	32745	32699	32787	32805	32732	32717	32815	32759	
1931	0	32742	32612	32676	32703	32679	32751	32789	32758	
1932	0	32824	32667	32723	32827	32527	32753	32727	32727	
1933	0	32797	32623	32743	32803	32647	32668	32663	32613	
1934	0	32759	32559	32814	32809	32717	32819	32727	32787	
1935	0	32733	32607	32798	32797	32613	32767	32749	32775	
1936	0	32808	32615	32660	32813	32627	32589	32642	32605	
1937	0	32795	32583	32795	32847	32660	32807	32743	32687	
1938	0	32797	32607	32919	32797	32706	32783	32703	32717	
1939	0	32775	32690	32852	32847	32746	32775	32531	32631	
1940	0	32773	32615	32727	32791	32559	32759	32583	32708	
1941	0	32761	32703	32662	32786	32679	32667	32647	32749	
1942	0	32702	32696	32710	32658	32743	32769	32661	32711	
1943	0	32705	32683	32749	32781	32628	32724	32668	32794	
1944	0	32736	32675	32743	32699	32697	32538	32773	32775	
1945	0	32748	32707	32834	32823	32708	32799	32789	32753	
1946	0	32745	32631	32751	32669	32796	32739	32681	32703	
1947	0	32790	32615	32742	32809	32647	32602	32663	32725	
1948	0	32770	32620	32715	32803	32735	32679	32795	32703	
1949	0	32809	32564	32775	32770	32787	32749	32773	32661	
1950	0	32926	32607	32775	32773	32727	32723	32805	32655	
1951	0	32881	32612	32767	32695	32638	32697	32795	32734	
1952	0	32758	32522	32790	32756	32538	32631	32647	32655	
1953	0	32727	32647	32799	32725	32639	32775	32659	32755	
1954	0	32727	32711	32707	32690	32699	32791	32767	32719	
1955	0	32696	32765	32686	32843	32641	32759	32738	32631	
1956	0	32685	32735	32711	32773	32677	32771	32719	32683	
1957	0	32623	32775	32812	32772	32663	32775	32713	32690	
1958	0	32695	32758	32775	32671	32711	32873	32823	32639	
1959	0	32769	32766	32714	32762	32747	32771	32791	32640	
1960	0	32747	32739	32747	32799	32551	32631	32751	32727	
1961	0	32748	32677	32883	32731	32571	32803	32823	32678	
1962	0	32708	32646	32862	32791	32679	32820	32639	32742	
1963	0	32772	32694	32743	32691	32754	32738	32662	32747	
1964	0	32786	32687	32669	32758	32765	32769	32714	32719	
1965	0	32854	32647	32709	32711	32759	32703	32685	32711	
1966	0	32810	32631	32713	32699	32735	32788	32775	32714	
1967	0	32823	32707	32749	32615	32703	32753	32659	32711	
1968	0	32823	32678	32799	32685	32575	32815	32748	32813	
1969	0	32790	32679	32787	32763	32567	32785	32799	32727	
1970	0	32775	32615	32891	32679	32737	32591	32878	32683	
1971	0	32768	32569	32817	32751	32633	32668	32748	32769	
1972	0	32791	32607	32715	32687	32745	32594	32829	32762	
1973	0	32725	32631	32711	32727	32565	32723	32821	32771	
1974	0	32775	32701	32641	32835	32551	32695	32705	32608	
1975	0	32704	32699	32678	32835	32628	32791	32721	32717	
1976	0	32751	32677	32634	32925	32695	32866	32755	32775	
1977	0	32785	32783	32799	32711	32759	32871	32663	32631	
1978	0	32711	32762	32773	32788	32711	32791	32743	32703	
1979	0	32710	32663	32785	32755	32701	32647	32599	32686	
1980	0	32731	32775	32738	32805	32655	32836	32633	32677	
1981	0	32715	32837	32711	32703	32691	32791	32665	32671	
1982	0	32758	32749	32743	32855	32775	32695	32739	32611	
1983	0	32751	32762	32740	32747	32743	32757	32708	32679	
1984	0	32799	32743	32751	32747	32594	32811	32766	32677	
1985	0	32731	32525	32749	32703	32603	32871	32637	32692	
1986	0	32731	32543	32775	32721	32711	32849	32773	32737	
1987	0	32702	32519	32772	32751	32679	32751	32755	32679	
1988	0	32751	32627	32676	32775	32662	32826	32695	32765	
1989	0	32703	32599	32775	32743	32679	32825	32723	32731	
1990	0	32742	32847	32727	32740	32755	32657	32647	32667	
1991	0	32794	32820	32721	32647	32694	32809	32623	32747	
1992	0	32836	32615	32769	32718	32708	32785	32678	32767	
1993	0	32808	32581	32743	32743	32674	32875	32709	32727	
1994	0	32807	32545	32759	32797	32695	32799	32687	32759	
1995	0	32790	32749	32690	32804	32537	32637	32628	32756	
1996	0	32804	32511	32811	32789	32659	32695	32679	32647	
1997	0	32829	32533	32773	32772	32725	32727	32783	32749	
1998	0	32820	32585	32871	32737	32731	32717	32731	32781	
1999	0	32840	32647	32806	32719	32629	32715	32826	32703	
2000	0	32839	32451	32787	32789	32743	32611	32719	32823	
2001	0	32783	32670	32827	32787	32679	32734	32687	32854	
2002	0	32679	32763	32847	32835	32751	32738	32749	32717	
2003	0	32712	32575	32835	32815	32549	32709	32767	32771	
2004	0	32729	32791	32753	32806	32566	32743	32771	32788	
2005	0	32708	32595	32671	32727	32695	32647	32639	32693	
2006	0	32686	32631	32751	32751	32663	32735	32673	32781	
2007	0	32718	32711	32729	32711	32615	32763	32722	32735	
2008	0	32744	32853	32743	32800	32660	32596	32748	32674	
2009	0	32735	32767	32775	32703	32695	32811	32679	32691	
2010	0	32767	32635	32669	32808	32629	32839	32727	32647	
2011	0	32775	32647	32709	32742	32747	32687	32655	32775	
2012	0	32753	32687	32807	32901	32759	32865	32599	32769	
2013	0	32786	32663	32839	32827	32767	32797	32647	32679	
2014	0	32847	32629	32711	32819	32615	32621	32731	32819	
2015	0	32797	32695	32663	32829	32567	32699	32825	32589	
2016	0	32805	32731	32631	32767	32756	32625	32739	32655	
2017	0	32758	32655	32623	32827	32775	32799	32690	32927	
2018	0	32807	32675	32615	32775	32735	32822	32743	32771	
2019	0	32768	32669	32660	32787	32719	32601	32765	32621	
2020	0	32782	32741	32647	32739	32757	32751	32763	32699	
2021	0	32789	32743	32751	32885	32823	32690	32663	32709	
2022	0	32827	32773	32844	32861	32633	32735	32694	32541	
2023	0	32721	32683	32759	32763	32523	32758	32783	32713	
2024	0	32754	32733	32775	32743	32715	32719	32759	32719	
2025	0	32713	32583	32839	32703	32751	32735	32827	32621	
2026	0	32799	32645	32847	32731	32637	32629	32637	32743	
2027	0	32767	32887	32869	32643	32655	32775	32647	32721	
2028	0	32728	32871	32843	32719	32687	32655	32739	32609	
2029	0	32684	32773	32831	32807	32705	32666	32695	32691	
2030	0	32756	32815	32817	32775	32731	32719	32668	32710	
2031	0	32759	32747	32683	32751	32599	32681	32683	32662	
2032	0	32773	32679	32745	32647	32551	32813	32599	32629	
2033	0	32765	32671	32834	32667	32524	32822	32607	32759	
2034	0	32753	32711	32767	32691	32540	32639	32629	32716	
2035	0	32786	32667	32767	32741	32612	32746	32674	32683	
2036	0	32861	32583	32799	32799	32626	32715	32826	32684	
2037	0	32783	32579	32759	32825	32685	32682	32775	32735	
2038	0	32820	32578	32742	32700	32695	32679	32893	32797	
2039	0	32871	32663	32757	32710	32774	32775	32663	32757	
2040	0	32881	32695	32692	32663	32973	32839	32775	32735	
2041	0	32820	32679	32775	32661	32743	32887	32671	32787	
2042	0	32836	32607	32855	32735	32639	32755	32775	32711	
2043	0	32772	32683	32831	32667	32709	32775	32686	32735	
2044	0	32729	32743	32767	32751	32692	32681	32743	32694	
2045	0	32708	32675	32695	32757	32831	32837	32724	32735	
2046	0	32804	32647	32694	32731	32509	32743	32671	32731	
2047	0	32775	32687	32721	32804	32487	32751	32807	32679	
2048	0	32876	32663	32809	32747	32542	32811	32847	32717	
2049	0	32948	32692	32687	32785	32647	32797	32791	32733	
2050	0	32943	32667	32652	32823	32722	32813	32831	32630	
2051	0	32881	32661	32666	32715	32644	32711	32748	32763	
2052	0	32863	32687	32707	32831	32639	32775	32739	32673	
2053	0	32813	32725	32703	32773	32583	32708	32757	32710	
2054	0	32761	32671	32745	32803	32518	32844	32713	32623	
2055	0	32797	32731	32711	32811	32661	32847	32729	32723	
2056	0	32815	32775	32669	32743	32771	32803	32638	32799	
2057	0	32786	32783	32715	32813	32697	32803	32775	32695	
2058	0	32780	32773	32762	32690	32671	32815	32775	32718	
2059	0	32756	32839	32835	32743	32695	32813	32758	32786	
2060	0	32753	32849	32839	32803	32667	32794	32711	32678	
2061	0	32695	32852	32891	32798	32578	32615	32754	32687	
2062	0	32817	32865	32847	32843	32781	32699	32708	32788	
2063	0	32847	32609	32935	32850	32687	32709	32743	32751	
2064	0	32749	32553	32925	32839	32727	32839	32715	32659	
2065	0	32751	32527	32919	32775	32647	32827	32790	32711	
2066	0	32837	32731	32871	32769	32559	32673	32751	32855	
2067	0	32848	32662	32838	32749	32683	32743	32670	32827	
2068	0	32800	32679	32807	32727	32775	32765	32621	32714	
2069	0	32835	32668	32818	32700	32719	32743	32743	32815	
2070	0	32788	32631	32787	32767	32671	32749	32831	32839	
2071	0	32752	32615	32713	32740	32622	32822	32831	32822	
2072	0	32767	32535	32686	32786	32684	32692	32833	32805	
2073	0	32764	32567	32695	32671	32710	32718	32663	32687	
2074	0	32671	32512	32639	32825	32722	32773	32701	32719	
2075	0	32698	32467	32627	32754	32543	32685	32775	32758	
2076	0	32660	32583	32708	32807	32611	32755	32726	32743	
2077	0	32720	32773	32645	32763	32567	32815	32703	32757	
2078	0	32711	32742	32645	32815	32571	32629	32730	32677	
2079	0	32717	32772	32703	32731	32757	32637	32615	32711	
2080	0	32660	32735	32839	32788	32679	32743	32647	32659	
2081	0	32634	32671	32694	32756	32742	32767	32703	32647	
2082	0	32639	32734	32711	32767	32806	32747	32727	32745	
2083	0	32722	32713	32767	32731	32787	32803	32753	32655	
2084	0	32756	32687	32813	32823	32685	32746	32643	32647	
2085	0	32663	32623	32748	32750	32501	32715	32635	32733	
2086	0	32605	32592	32797	32873	32565	32719	32783	32735	
2087	0	32726	32647	32869	32871	32527	32691	32711	32663	
2088	0	32811	32691	32833	32839	32611	32726	32738	32715	
2089	0	32903	32719	32759	32833	32724	32753	32727	32735	
2090	0	32893	32739	32805	32775	32699	32729	32621	32740	
2091	0	32866	32733	32823	32833	32751	32707	32671	32591	
2092	0	32908	32661	32861	32759	32726	32679	32703	32658	
2093	0	32877	32635	32805	32789	32539	32800	32610	32581	
2094	0	32834	32627	32681	32759	32707	32829	32583	32791	
2095	0	32799	32647	32807	32637	32775	32676	32723	32769	
2096	0	32766	32693	32749	32751	32759	32751	32752	32637	
2097	0	32775	32642	32810	32751	32679	32855	32723	32717	
2098	0	32832	32663	32703	32784	32647	32751	32868	32701	
2099	0	32735	32635	32735	32695	32655	32685	32767	32619	
2100	0	32705	32751	32815	32730	32705	32807	32801	32675	
2101	0	32756	32715	32719	32807	32699	32655	32711	32667	
2102	0	32789	32671	32703	32747	32807	32868	32839	32717	
2103	0	32759	32661	32700	32711	32771	32837	32823	32695	
2104	0	32812	32597	32554	32647	32732	32725	32819	32751	
2105	0	32708	32571	32590	32655	32591	32871	32762	32592	
2106	0	32647	32479	32627	32634	32607	32786	32719	32587	
2107	0	32743	32487	32742	32732	32535	32775	32603	32695	
2108	0	32789	32543	32647	32683	32567	32686	32701	32619	
2109	0	32766	32647	32787	32727	32730	32658	32763	32567	
2110	0	32745	32683	32791	32700	32821	32868	32738	32727	
2111	0	32718	32647	32775	32727	32747	32847	32684	32859	
2112	0	32717	32557	32621	32631	32679	32811	32775	32676	
2113	0	32765	32559	32679	32756	32637	32871	32751	32789	
2114	0	32775	32551	32701	32752	32647	32815	32783	32675	
2115	0	32783	32559	32725	32855	32674	32823	32735	32775	
2116	0	32822	32775	32711	32831	32578	32695	32703	32743	
2117	0	32809	32583	32759	32835	32509	32788	32595	32675	
2118	0	32807	32727	32775	32802	32463	32670	32623	32703	
2119	0	32811	32709	32793	32850	32479	32719	32647	32669	
2120	0	32758	32487	32839	32772	32723	32756	32742	32635	
2121	0	32708	32500	32881	32823	32687	32735	32707	32775	
2122	0	32769	32573	32786	32773	32745	32577	32599	32785	
2123	0	32638	32643	32871	32855	32801	32724	32619	32675	
2124	0	32658	32599	32927	32835	32679	32735	32679	32789	
2125	0	32566	32621	32931	32887	32525	32689	32703	32829	
2126	0	32553	32519	32775	32913	32639	32799	32702	32749	
2127	0	32676	32555	32823	32767	32775	32675	32571	32809	
2128	0	32696	32578	32807	32756	32718	32775	32663	32810	
2129	0	32758	32547	32757	32644	32667	32831	32749	32751	
2130	0	32735	32485	32725	32749	32647	32647	32794	32767	
2131	0	32725	32515	32789	32758	32753	32785	32829	32767	
2132	0	32738	32567	32853	32796	32775	32743	32867	32775	
2133	0	32718	32679	32791	32671	32767	32583	32727	32767	
2134	0	32789	32711	32851	32734	32595	32647	32823	32677	
2135	0	32677	32487	32775	32699	32468	32559	32791	32820	
2136	0	32698	32775	32660	32762	32481	32796	32711	32783	
2137	0	32775	32804	32677	32732	32615	32822	32748	32734	
2138	0	32805	32595	32775	32911	32711	32695	32596	32811	
2139	0	32665	32627	32871	32851	32679	32693	32701	32807	
2140	0	32735	32887	32809	32805	32678	32850	32771	32703	
2141	0	32786	32810	32790	32823	32660	32855	32690	32751	
2142	0	32748	32773	32759	32688	32802	32875	32677	32690	
2143	0	32795	32755	32703	32803	32690	32677	32572	32659	
2144	0	32847	32719	32698	32751	32575	32829	32643	32707	
2145	0	32834	32706	32683	32790	32577	32822	32783	32710	
2146	0	32743	32647	32703	32635	32668	32635	32727	32719	
2147	0	32724	32639	32622	32727	32748	32815	32753	32687	
