# OpenSignals Text File Format
# {"00:07:80:3B:46:38": {"sensor": ["CUSTOM/0.5/1.0/V", "CUSTOM/0.5/1.0/V", "CUSTOM/0.5/1.0/V", "CUSTOM/0.5/1.0/V", "CUSTOM/0.5/1.0/V", "CUSTOM/0.5/1.0/V", "CUSTOM/0.5/1.0/V", "CUSTOM/0.5/1.0/V"], "device name": "EMGs", "column": ["nSeq", "DI", "RA_L", "RA_R", "OE_L", "OE:R", "IL_L", "IL_R", "MF_L", "MF_R"], "sync interval": 2, "time": "16:52:45.690", "comments": "", "device connection": "BTH00:07:80:3B:46:38", "channels": [1, 2, 3, 4, 5, 6, 7, 8], "date": "2017-5-22", "mode": 0, "digital IO": [0, 1], "firmware version": 772, "device": "biosignalsplux", "position": 0, "sampling rate": 1000, "label": ["RA_L", "RA_R", "OE_L", "OE:R", "IL_L", "IL_R", "MF_L", "MF_R"], "resolution": [16, 16, 16, 16, 16, 16, 16, 16], "special": [{}, {}, {}, {}, {}, {}, {}, {}]}}
# EndOfHeader
0	0	32479	33019	32539	32739	32850	32819	32595	32669	
1	0	32559	32838	32775	32771	32647	32771	32668	32715	
2	0	32722	32711	32747	32787	32751	32799	32721	32509	
3	0	32842	32641	32755	32802	32725	32775	32723	32735	
4	0	32911	32559	32687	32810	32738	32719	32711	32686	
5	0	32877	32519	32583	32875	32903	32727	32615	32787	
6	0	32956	32445	32805	32882	32601	32755	32711	32615	
7	0	33055	32359	32855	32809	32799	32687	32507	32743	
8	0	32974	32449	32839	32775	32647	32631	32661	32683	
9	0	32881	32423	32852	32583	32743	32647	32726	32735	
10	0	32767	32557	32745	32679	32743	32705	32686	32823	
11	0	32726	32583	32710	32663	32811	32667	32723	32559	
12	0	32830	32620	32732	32702	32759	32647	32567	32565	
13	0	32759	32682	32775	32733	32775	32619	32739	32709	
14	0	32672	32811	32755	32653	32839	32679	32718	32620	
15	0	32689	32919	32775	32860	32718	32805	32599	32683	
16	0	32717	32991	32820	32839	32857	32843	32655	32684	
17	0	32716	33077	32839	32887	32791	32763	32737	32769	
18	0	32647	33198	32819	32887	32759	32797	32559	32715	
19	0	32665	33107	32766	32885	32795	32759	32782	32747	
20	0	32576	33039	32811	32741	32625	32635	32686	32803	
21	0	32535	32900	32845	32647	32775	32689	32591	32647	
22	0	32452	32895	32862	32775	32743	32724	32745	32583	
23	0	32411	32706	32759	32666	32743	32679	32671	32751	
24	0	32479	32749	32791	32874	32871	32694	32647	32705	
25	0	32554	32897	32659	32835	32607	32749	32639	32687	
26	0	32763	32839	32775	32663	32846	32711	32751	32773	
27	0	32870	32745	32676	32742	32580	32647	32583	32509	
28	0	32989	32774	32735	32638	32730	32646	32713	32731	
29	0	32877	32759	32591	32669	32675	32615	32575	32647	
30	0	32696	32914	32719	32463	32742	32611	32749	32676	
31	0	32600	32844	32663	32566	32844	32711	32695	32746	
32	0	32623	32757	32669	32706	32795	32743	32583	32586	
33	0	32628	32703	32601	32709	32867	32713	32679	32670	
34	0	32523	32645	32691	32751	32814	32679	32677	32645	
35	0	32601	32567	32583	32839	32879	32671	32597	32747	
36	0	32658	32549	32733	32839	32647	32711	32751	32727	
37	0	32836	32453	32690	32874	32855	32851	32756	32735	
38	0	33043	32275	32635	32761	32775	32804	32615	32713	
39	0	33212	32289	32691	32725	32903	32838	32647	32751	
40	0	33170	32402	32695	32833	32564	32747	32705	32535	
41	0	33086	32591	32690	32833	32747	32797	32531	32673	
42	0	33037	32752	32765	32919	32678	32689	32749	32698	
43	0	32981	32791	32730	32797	32775	32667	32699	32633	
44	0	32942	32719	32799	32646	32707	32673	32503	32647	
45	0	32922	32882	32671	32747	32786	32643	32693	32775	
46	0	32746	32877	32773	32684	32701	32647	32738	32655	
47	0	32742	32851	32647	32719	32829	32711	32519	32531	
48	0	32808	32838	32727	32711	32679	32687	32663	32646	
49	0	32798	32925	32645	32677	32851	32623	32743	32687	
50	0	32763	32963	32755	32845	32713	32603	32647	32642	
51	0	32814	32893	32607	32701	32735	32706	32703	32735	
52	0	32781	32862	32677	32477	32654	32701	32732	32738	
53	0	32770	32683	32615	32629	32775	32767	32623	32590	
54	0	32760	32647	32734	32627	32710	32763	32757	32734	
55	0	32754	32749	32621	32791	32772	32715	32531	32687	
56	0	32831	32738	32766	32855	32764	32701	32690	32692	
57	0	32810	32659	32775	32937	32775	32749	32571	32663	
58	0	32879	32695	32789	32893	32919	32771	32739	32583	
59	0	32839	32786	32819	32807	32734	32723	32733	32647	
60	0	32801	32801	32835	32822	32791	32701	32511	32742	
61	0	32886	32727	32781	32775	32773	32735	32727	32671	
62	0	32772	32734	32895	32813	32791	32799	32740	32659	
63	0	32735	32747	32855	32789	32827	32791	32541	32735	
64	0	32701	32799	32860	32807	32858	32815	32703	32563	
65	0	32641	32742	32861	32838	32647	32735	32578	32717	
66	0	32710	32604	32811	32803	32765	32701	32663	32605	
67	0	32656	32639	32877	32838	32588	32658	32735	32675	
68	0	32555	32713	32790	32781	32775	32663	32582	32679	
69	0	32339	32858	32727	32850	32661	32695	32639	32527	
70	0	32166	32927	32751	32827	32715	32647	32519	32610	
71	0	32045	33087	32775	32771	32711	32690	32690	32717	
72	0	32210	33223	32623	32735	32775	32730	32739	32679	
73	0	32370	33159	32747	32695	32735	32727	32581	32694	
74	0	32447	32902	32647	32729	32771	32836	32700	32795	
75	0	32804	32703	32695	32695	32811	32791	32647	32519	
76	0	33094	32375	32639	32611	32829	32749	32706	32662	
77	0	33364	32173	32743	32671	32893	32786	32591	32638	
78	0	33465	32327	32755	32743	32562	32843	32746	32743	
79	0	33383	32519	32903	32700	32749	32775	32774	32783	
80	0	33187	32730	32979	32734	32765	32839	32679	32621	
81	0	33226	32555	32903	32837	32787	32754	32719	32773	
82	0	33149	32443	32867	32845	32861	32758	32567	32703	
83	0	32875	32607	32823	32813	32775	32750	32679	32807	
84	0	32692	32735	32769	32885	32923	32734	32532	32599	
85	0	32660	32788	32691	32819	32591	32666	32679	32681	
86	0	32524	32843	32819	32755	32775	32748	32501	32639	
87	0	32476	32839	32690	32714	32751	32683	32706	32699	
88	0	32549	32743	32836	32707	32788	32687	32619	32775	
89	0	32590	32658	32755	32607	32917	32646	32647	32660	
90	0	32706	32578	32751	32636	32571	32655	32532	32635	
91	0	32652	32691	32749	32541	32764	32710	32699	32655	
92	0	32589	32742	32743	32636	32659	32692	32631	32486	
93	0	32637	32775	32789	32539	32775	32699	32765	32662	
94	0	32793	32663	32718	32700	32694	32783	32775	32705	
95	0	32884	32703	32820	32775	32765	32707	32640	32723	
96	0	32866	32933	32695	32759	32839	32775	32747	32543	
97	0	32901	32835	32742	32607	32806	32759	32571	32591	
98	0	32959	32758	32631	32787	32820	32759	32655	32740	
99	0	32929	32835	32775	32787	32582	32773	32617	32724	
100	0	32884	32883	32704	32935	32751	32736	32715	32827	
101	0	32838	33111	32739	32892	32671	32717	32647	32615	
102	0	32839	32941	32641	32919	32770	32715	32725	32748	
103	0	32820	32765	32574	32923	32815	32719	32726	32663	
104	0	32647	32713	32621	32915	32781	32707	32591	32756	
105	0	32543	32577	32459	32899	32871	32702	32691	32702	
106	0	32566	32598	32487	32771	32619	32663	32551	32647	
107	0	32594	32602	32391	32719	32819	32629	32739	32775	
108	0	32637	32567	32607	32735	32719	32586	32679	32669	
109	0	32726	32487	32638	32751	32775	32503	32667	32559	
110	0	32696	32403	32703	32719	32879	32556	32675	32756	
111	0	32754	32311	32769	32732	32642	32593	32608	32621	
112	0	32775	32485	32764	32655	32813	32637	32691	32681	
113	0	32807	32674	32828	32621	32647	32679	32423	32551	
114	0	32758	32819	32846	32587	32761	32711	32655	32655	
115	0	32797	32987	32799	32693	32666	32679	32748	32615	
116	0	32852	33087	32775	32935	32799	32688	32719	32735	
117	0	32813	33189	32871	32894	32887	32637	32647	32610	
118	0	32827	33171	32765	32903	32563	32730	32759	32673	
119	0	32827	33024	32884	32832	32769	32801	32773	32713	
120	0	32764	32903	32899	32919	32711	32754	32735	32599	
121	0	32707	32834	32773	32751	32823	32703	32713	32668	
122	0	32804	32903	32790	32733	32890	32717	32691	32647	
123	0	32914	32897	32694	32735	32566	32727	32671	32721	
124	0	33074	32735	32766	32767	32742	32663	32533	32757	
125	0	32993	32607	32715	32839	32690	32775	32703	32615	
126	0	32872	32526	32875	32819	32706	32757	32615	32660	
127	0	32804	32417	32899	32690	32791	32703	32690	32727	
128	0	32584	32455	32727	32764	32679	32679	32587	32665	
129	0	32391	32527	32903	32620	32799	32671	32703	32725	
130	0	32357	32559	32799	32717	32855	32685	32590	32703	
131	0	32479	32741	32717	32583	32791	32683	32775	32774	
132	0	32575	32679	32615	32639	32845	32647	32742	32759	
133	0	32586	32727	32757	32550	32809	32655	32493	32588	
134	0	32605	32751	32739	32671	32797	32742	32635	32775	
135	0	32754	32730	32799	32771	32601	32703	32677	32703	
136	0	32863	32770	32719	32588	32751	32725	32661	32687	
137	0	32811	33026	32667	32769	32623	32684	32671	32733	
138	0	32846	32950	32644	32707	32727	32819	32581	32598	
139	0	32809	32903	32647	32788	32683	32824	32700	32634	
140	0	32700	32903	32681	32831	32806	32764	32694	32743	
141	0	32754	32931	32623	32903	32869	32757	32509	32679	
142	0	32759	32972	32735	32885	32570	32719	32705	32719	
143	0	32825	32958	32671	32807	32773	32719	32719	32799	
144	0	32828	32887	32810	32851	32707	32705	32612	32567	
145	0	32885	32935	32695	32771	32767	32721	32705	32660	
146	0	32840	32863	32847	32871	32862	32701	32591	32647	
147	0	32869	32674	32803	32775	32626	32673	32673	32706	
148	0	32738	32775	32855	32834	32809	32661	32745	32739	
149	0	32703	32815	32831	32762	32647	32642	32602	32562	
150	0	32626	32703	32839	32854	32791	32634	32699	32503	
151	0	32596	32743	32820	32787	32702	32642	32621	32581	
152	0	32643	32739	32783	32767	32775	32639	32615	32666	
153	0	32693	32479	32666	32765	32603	32757	32682	32637	
154	0	32753	32471	32683	32675	32767	32731	32747	32743	
155	0	32822	32470	32799	32630	32703	32775	32533	32719	
156	0	32775	32647	32732	32767	32837	32805	32695	32715	
157	0	32758	32859	32754	32766	32585	32812	32687	32679	
158	0	32769	32759	32717	32717	32827	32743	32575	32687	
159	0	32772	32659	32821	32867	32587	32740	32724	32807	
160	0	32804	32647	32680	32758	32789	32767	32731	32563	
161	0	32832	32572	32855	32717	32615	32790	32617	32541	
162	0	32886	32748	32705	32695	32823	32799	32607	32567	
163	0	32925	32743	32599	32660	32773	32738	32707	32748	
164	0	32797	32791	32659	32743	32829	32701	32756	32607	
165	0	32876	32726	32611	32743	32662	32719	32617	32748	
166	0	32852	32663	32714	32757	32767	32668	32679	32823	
167	0	32786	32692	32631	32715	32711	32599	32647	32571	
168	0	32768	32479	32701	32759	32773	32647	32694	32727	
169	0	32787	32359	32750	32731	32903	32564	32731	32686	
170	0	32708	32308	32903	32786	32579	32527	32525	32739	
171	0	32646	32534	32807	32607	32879	32599	32723	32789	
172	0	32641	32615	32657	32601	32570	32709	32738	32647	
173	0	32668	32895	32759	32773	32869	32711	32594	32561	
174	0	32695	33127	32832	32867	32759	32738	32685	32617	
175	0	32888	33031	32716	32751	32871	32797	32741	32682	
176	0	32885	32803	32639	32805	32598	32815	32639	32647	
177	0	32864	32887	32702	32679	32731	32807	32717	32612	
178	0	33017	33117	32671	32791	32675	32727	32525	32756	
179	0	32976	33199	32742	32843	32788	32703	32751	32617	
180	0	32833	32959	32804	32797	32703	32754	32713	32631	
181	0	32655	32931	32797	32825	32785	32829	32575	32658	
182	0	32684	32879	32769	32729	32791	32759	32772	32702	
183	0	32903	32759	32775	32615	32798	32737	32723	32671	
184	0	32894	32557	32895	32707	32759	32705	32611	32739	
185	0	32775	32514	32711	32809	32747	32702	32607	32719	
186	0	32628	32583	32815	32707	32583	32603	32708	32711	
187	0	32513	32647	32783	32735	32877	32715	32718	32743	
188	0	32477	32530	32662	32815	32775	32702	32630	32659	
189	0	32454	32551	32799	32762	32843	32609	32647	32635	
190	0	32592	32503	32791	32757	32743	32627	32629	32687	
191	0	32828	32619	32807	32823	32855	32671	32563	32607	
192	0	32896	32635	32828	32813	32749	32759	32635	32567	
193	0	32882	32573	32711	32860	32891	32722	32647	32661	
194	0	32876	32655	32827	32927	32783	32751	32619	32715	
195	0	32813	32647	32826	32827	32843	32703	32714	32685	
196	0	32704	32679	32745	32791	32610	32735	32773	32691	
197	0	32820	32686	32775	32775	32755	32647	32702	32679	
198	0	32840	32685	32671	32799	32685	32683	32735	32604	
199	0	32871	32775	32807	32699	32811	32732	32523	32791	
200	0	32873	32683	32784	32737	32696	32683	32678	32679	
201	0	32725	32807	32759	32703	32741	32701	32748	32631	
202	0	32658	32791	32790	32673	32755	32748	32587	32735	
203	0	32646	32671	32677	32647	32794	32717	32646	32547	
204	0	32637	32583	32695	32727	32898	32787	32556	32694	
205	0	32636	32695	32647	32765	32731	32759	32743	32579	
206	0	32645	32775	32689	32727	32796	32734	32735	32699	
207	0	32582	32959	32573	32821	32727	32703	32566	32818	
208	0	32668	33126	32771	32727	32871	32659	32671	32570	
209	0	32910	33381	32631	32725	32799	32711	32743	32647	
210	0	32840	33487	32738	32692	32831	32703	32614	32724	
211	0	32706	33561	32695	32759	32711	32690	32711	32695	
212	0	32671	33603	32757	32935	32903	32631	32492	32775	
213	0	32695	33239	32663	32885	32587	32647	32629	32567	
214	0	32711	33127	32727	32775	32713	32667	32621	32723	
215	0	32788	32823	32631	32752	32621	32719	32742	32775	
216	0	32679	32561	32790	32686	32832	32709	32719	32759	
217	0	32727	32439	32790	32775	32685	32727	32707	32621	
218	0	32537	32567	32811	32841	32775	32731	32759	32655	
219	0	32515	32529	32861	32866	32713	32775	32501	32767	
220	0	32431	32495	32815	32775	32747	32737	32706	32741	
221	0	32309	32421	32805	32873	32727	32663	32805	32787	
222	0	32204	32339	32735	32646	32775	32676	32775	32575	
223	0	32016	32391	32634	32639	32885	32629	32799	32685	
224	0	32033	32407	32586	32467	32711	32677	32663	32775	
225	0	32260	32450	32647	32554	32877	32629	32751	32599	
226	0	32472	32511	32607	32580	32563	32622	32677	32751	
227	0	32490	32519	32757	32713	32716	32630	32837	32511	
228	0	32663	32419	32591	32839	32575	32679	32931	32551	
229	0	32942	32335	32635	32754	32814	32675	32711	32647	
230	0	33119	32309	32519	32839	32747	32679	32903	32620	
231	0	33126	32391	32532	32692	32830	32702	32930	32662	
232	0	33050	32449	32415	32695	32727	32731	32767	32645	
233	0	33011	32442	32455	32534	32799	32695	32877	32434	
234	0	32933	32377	32453	32437	32658	32747	32719	32535	
235	0	32756	32471	32503	32463	32775	32805	32828	32575	
236	0	32868	32449	32470	32639	32933	32757	32615	32461	
237	0	33008	32373	32471	32590	32599	32727	32738	32501	
238	0	33155	32262	32615	32731	32903	32722	32629	32477	
239	0	33330	32223	32516	32789	32663	32739	32679	32589	
240	0	33311	32263	32630	32827	32832	32751	32729	32641	
241	0	33399	32082	32685	32743	32737	32711	32658	32482	
242	0	33523	32041	32716	32663	32799	32621	32613	32571	
243	0	33632	32079	32741	32555	32919	32687	32457	32515	
244	0	33624	32022	32804	32715	32644	32647	32555	32663	
245	0	33498	32219	32708	32823	32820	32707	32478	32607	
246	0	33226	32508	32739	32973	32667	32711	32479	32807	
247	0	33020	32815	32933	32823	32763	32743	32519	32820	
248	0	32876	33248	33045	32951	32865	32743	32479	32694	
249	0	32753	33077	33062	32979	32742	32679	32471	32715	
250	0	32511	33039	33017	32897	32858	32679	32358	32821	
251	0	32540	33167	33071	32871	32607	32723	32468	32805	
252	0	32738	33255	33106	32699	32815	32707	32298	32902	
253	0	32940	33209	33062	32795	32626	32707	32406	32694	
254	0	33138	33314	33023	32775	32856	32773	32356	32763	
255	0	33219	33335	32958	32959	32717	32827	32491	32775	
256	0	33055	33467	33046	32935	32775	32775	32454	32708	
257	0	33018	33477	32898	32835	32769	32783	32406	32818	
258	0	33112	33437	33023	33031	32873	32813	32511	32615	
259	0	33077	33308	32828	32983	32867	32775	32332	32647	
260	0	32973	33347	32915	32999	32839	32749	32471	32740	
261	0	32862	33553	32761	32978	32775	32706	32541	32694	
262	0	32882	33583	32825	32914	32823	32644	32447	32716	
263	0	32671	33591	32759	32999	32685	32677	32586	32807	
264	0	32593	33415	32903	32794	32711	32711	32402	32682	
265	0	32638	33399	32687	32587	32647	32687	32646	32811	
266	0	32620	33141	32804	32717	32751	32709	32759	32747	
267	0	32660	32959	32700	32747	32580	32742	32587	32700	
268	0	32627	32855	32725	32759	32775	32644	32709	32751	
269	0	32518	32647	32573	32814	32647	32661	32615	32531	
270	0	32512	32549	32663	32665	32775	32646	32847	32645	
271	0	32623	32435	32599	32738	32717	32627	32887	32621	
272	0	32784	32378	32683	32611	32775	32722	32831	32647	
273	0	32663	32387	32598	32715	32711	32718	32835	32550	
274	0	32351	32639	32675	32615	32762	32751	32647	32635	
275	0	32275	32327	32551	32629	32839	32807	32797	32597	
276	0	32263	32465	32645	32564	32730	32838	32811	32679	
277	0	32174	32532	32630	32538	32836	32793	32871	32750	
278	0	32088	32303	32597	32611	32549	32757	32869	32581	
279	0	32094	32221	32549	32615	32804	32775	32762	32594	
280	0	32300	32205	32492	32533	32609	32734	32854	32679	
281	0	32436	32179	32591	32562	32735	32679	32879	32679	
282	0	32460	32183	32613	32745	32622	32647	32743	32742	
283	0	32617	32307	32727	32719	32758	32660	32775	32591	
284	0	32568	32495	32809	32750	32815	32646	32631	32691	
285	0	32533	32718	32865	32727	32735	32639	32847	32695	
286	0	32489	32969	32719	32771	32755	32659	32807	32719	
287	0	32566	32883	32799	32903	32647	32639	32575	32643	
288	0	32551	33018	32631	32915	32850	32711	32790	32524	
289	0	32684	32975	32813	32743	32615	32639	32775	32762	
290	0	32622	32983	32591	32785	32799	32658	32647	32670	
291	0	32604	33078	32659	32720	32613	32663	32647	32683	
292	0	32530	33065	32647	32784	32797	32708	32775	32795	
293	0	32474	33159	32719	32747	32639	32718	32646	32847	
294	0	32511	33119	32599	32647	32851	32836	32702	32591	
295	0	32646	32902	32638	32855	32557	32785	32762	32660	
296	0	32681	32823	32588	32796	32807	32775	32623	32727	
297	0	32644	32791	32714	32719	32602	32775	32683	32804	
298	0	32658	32663	32541	32825	32785	32743	32605	32615	
299	0	32782	32633	32743	32745	32595	32687	32749	32587	
300	0	32951	32535	32814	32885	32763	32731	32655	32707	
301	0	33074	32702	32839	32894	32703	32703	32644	32711	
302	0	33146	32519	32733	32959	32807	32702	32751	32583	
303	0	33071	32421	32677	32743	32955	32623	32557	32653	
304	0	33070	32485	32668	32757	32795	32607	32647	32679	
305	0	33032	32295	32694	32799	32908	32634	32535	32642	
306	0	33135	32191	32775	32534	32597	32623	32702	32743	
307	0	33125	32045	32967	32599	32807	32647	32751	32577	
308	0	33117	32135	32887	32557	32647	32567	32642	32627	
309	0	33190	32301	32833	32647	32805	32503	32681	32647	
310	0	33154	32517	32695	32723	32700	32583	32477	32771	
311	0	33055	32849	32757	32739	32782	32639	32659	32721	
312	0	32965	32959	32711	32742	32683	32619	32738	32519	
313	0	32836	33071	32740	32643	32813	32792	32575	32634	
314	0	32635	33001	32676	32786	32718	32717	32695	32639	
315	0	32438	32819	32802	32782	32811	32775	32567	32687	
316	0	32477	32791	32711	32795	32782	32780	32764	32721	
317	0	32660	32775	32742	32871	32755	32763	32767	32583	
318	0	32660	32775	32732	32813	32891	32801	32749	32711	
319	0	32894	32754	32639	32806	32605	32785	32655	32695	
320	0	32885	32751	32815	32742	32722	32809	32691	32711	
321	0	32955	32775	32783	32738	32694	32841	32742	32705	
322	0	32884	32916	32775	32707	32804	32775	32609	32583	
323	0	32911	32803	32765	32727	32793	32765	32676	32635	
324	0	32772	32807	32759	32647	32755	32743	32495	32735	
325	0	32722	32723	32751	32743	32871	32672	32628	32695	
326	0	32641	32595	32775	32710	32610	32703	32574	32695	
327	0	32543	32439	32789	32813	32775	32658	32722	32599	
328	0	32378	32404	32662	32722	32678	32663	32647	32695	
329	0	32371	32391	32716	32823	32755	32647	32714	32711	
330	0	32437	32551	32592	32726	32870	32667	32761	32707	
331	0	32477	32767	32762	32892	32611	32703	32727	32570	
332	0	32594	32831	32727	32700	32759	32725	32741	32647	
333	0	32687	33031	32727	32706	32647	32751	32603	32685	
334	0	32716	33117	32727	32574	32714	32751	32679	32810	
335	0	32794	33343	32601	32573	32911	32783	32571	32693	
336	0	32781	33055	32791	32365	32599	32807	32677	32659	
337	0	32735	32890	32745	32583	32727	32805	32583	32751	
338	0	32728	32662	32801	32731	32741	32798	32717	32555	
339	0	32774	32435	32791	32854	32827	32815	32578	32655	
340	0	32737	32661	32690	32827	32849	32743	32655	32699	
341	0	32658	32578	32715	32875	32670	32738	32555	32723	
342	0	32981	32423	32604	32725	32775	32691	32679	32578	
343	0	33150	32540	32699	32830	32646	32658	32695	32691	
344	0	33149	32679	32587	32771	32743	32699	32599	32700	
345	0	33012	32773	32737	32879	32715	32671	32711	32791	
346	0	33052	32878	32703	32647	32773	32639	32543	32623	
347	0	33074	32919	32727	32751	32850	32607	32671	32735	
348	0	32926	32835	32775	32582	32759	32571	32736	32710	
349	0	32947	32679	32859	32673	32903	32615	32679	32708	
350	0	32930	32775	32855	32767	32593	32631	32695	32773	
351	0	32876	32839	32813	32827	32775	32628	32605	32635	
352	0	32744	32859	32658	32742	32741	32647	32711	32673	
353	0	32555	32962	32647	32770	32799	32689	32599	32814	
354	0	32495	32853	32711	32763	32775	32765	32764	32567	
355	0	32492	32891	32631	32822	32639	32725	32559	32669	
356	0	32475	32891	32694	32787	32805	32751	32676	32706	
357	0	32470	32764	32743	32932	32721	32783	32617	32699	
358	0	32640	32733	32757	32878	32765	32727	32773	32551	
359	0	32838	32703	32745	32839	32825	32775	32775	32755	
360	0	32927	32535	32575	32845	32827	32721	32707	32739	
361	0	32871	32406	32687	32678	32903	32743	32718	32829	
362	0	32890	32511	32641	32514	32635	32738	32559	32541	
363	0	32932	32491	32775	32517	32851	32645	32655	32669	
364	0	32957	32438	32671	32571	32587	32615	32575	32709	
365	0	32921	32423	32749	32612	32820	32679	32653	32763	
366	0	32887	32471	32667	32711	32676	32711	32687	32699	
367	0	32933	32775	32823	32711	32791	32709	32647	32694	
368	0	32829	32790	32743	32839	32853	32647	32754	32575	
369	0	32700	32895	32623	32929	32587	32631	32628	32535	
370	0	32716	32855	32810	32879	32737	32623	32731	32667	
371	0	32743	32685	32794	32833	32886	32659	32647	32629	
372	0	32847	32606	32625	32807	32645	32719	32713	32741	
373	0	32770	32623	32730	32799	32775	32749	32659	32596	
374	0	32784	32506	32719	32703	32641	32817	32679	32726	
375	0	32786	32588	32726	32748	32759	32799	32629	32639	
376	0	32699	32748	32711	32694	32900	32826	32717	32606	
377	0	32577	32701	32663	32814	32573	32814	32691	32715	
378	0	32644	32911	32759	32703	32763	32771	32748	32718	
379	0	32684	32983	32787	32783	32713	32705	32719	32630	
380	0	32447	33207	32717	32647	32751	32700	32767	32647	
381	0	32412	33057	32748	32674	32839	32717	32605	32683	
382	0	32484	32970	32695	32698	32799	32642	32670	32725	
383	0	32658	32871	32852	32863	32810	32669	32527	32535	
384	0	32796	32745	32757	32793	32530	32661	32633	32609	
385	0	32903	32499	32855	32951	32786	32645	32543	32687	
386	0	32901	32331	32837	32855	32647	32685	32639	32727	
387	0	32949	32531	32803	32843	32770	32700	32597	32635	
388	0	33014	32757	32850	32823	32883	32613	32693	32692	
389	0	32956	32711	32743	32683	32605	32613	32562	32647	
390	0	32826	32653	32895	32419	32839	32580	32671	32743	
391	0	32687	32803	32815	32471	32882	32628	32543	32455	
392	0	32605	32811	32769	32711	32597	32697	32647	32578	
393	0	32479	32754	32699	32637	32749	32726	32527	32679	
394	0	32413	32575	32701	32703	32851	32663	32741	32574	
395	0	32310	32499	32731	32765	32576	32711	32647	32727	
396	0	32465	32527	32685	32647	32749	32749	32706	32721	
397	0	32717	32757	32646	32703	32847	32813	32795	32581	
398	0	32903	32863	32813	32706	32619	32743	32551	32759	
399	0	32852	33107	32755	32893	32775	32785	32739	32634	
400	0	32751	33022	32773	32818	32751	32823	32699	32742	
401	0	32745	33015	32747	32790	32583	32815	32739	32645	
402	0	32727	32914	32623	32911	32803	32763	32609	32701	
403	0	32840	32871	32721	32815	32723	32599	32647	32759	
404	0	33027	32751	32623	32871	32782	32679	32639	32787	
405	0	33047	32615	32786	32721	32831	32729	32715	32578	
406	0	33052	32695	32620	32775	32757	32747	32724	32753	
407	0	33088	32471	32797	32698	32850	32735	32563	32678	
408	0	32991	32199	32725	32775	32585	32629	32692	32668	
409	0	32974	32283	32804	32728	32775	32666	32506	32647	
410	0	32942	32436	32815	32722	32663	32629	32631	32771	
411	0	32799	32487	32758	32633	32731	32611	32635	32669	
412	0	32743	32703	32787	32721	32766	32591	32751	32741	
413	0	32676	32663	32723	32703	32759	32626	32749	32583	
414	0	32711	32563	32615	32822	32931	32647	32759	32658	
415	0	32603	32763	32557	32770	32613	32710	32687	32647	
416	0	32626	32820	32587	32814	32759	32697	32551	32749	
417	0	32634	32991	32580	32887	32681	32723	32695	32663	
418	0	32626	33076	32726	32982	32830	32775	32647	32756	
419	0	32590	32937	32637	32916	32851	32735	32715	32714	
420	0	32719	32842	32775	32914	32563	32701	32769	32735	
421	0	32775	32799	32687	32870	32735	32743	32756	32621	
422	0	32738	32863	32715	32827	32742	32767	32724	32762	
423	0	32949	32837	32812	32823	32773	32637	32514	32611	
424	0	32916	32995	32863	32740	32879	32703	32609	32738	
425	0	32810	32887	32791	32679	32759	32621	32539	32470	
426	0	32696	32783	32755	32647	32923	32623	32666	32578	
427	0	32608	32885	32718	32553	32767	32626	32714	32671	
428	0	32803	32579	32818	32399	32839	32631	32567	32621	
429	0	33046	32559	32669	32431	32647	32637	32685	32699	
430	0	32979	32455	32773	32595	32775	32675	32583	32583	
431	0	32836	32503	32690	32543	32662	32642	32801	32551	
432	0	32769	32437	32802	32623	32791	32677	32743	32708	
433	0	32618	32621	32839	32694	32615	32690	32596	32735	
434	0	32644	32637	32870	32933	32773	32755	32677	32671	
435	0	32576	32597	32763	32884	32647	32679	32751	32636	
436	0	32623	32545	32625	32826	32820	32739	32524	32705	
437	0	32707	32527	32631	32695	32727	32815	32759	32710	
438	0	32671	32503	32735	32869	32703	32755	32731	32695	
439	0	32607	32765	32694	32831	32759	32835	32607	32742	
440	0	32568	32711	32781	32775	32626	32711	32743	32735	
441	0	32665	32589	32583	32903	32879	32708	32675	32753	
442	0	32775	32575	32694	32851	32586	32843	32608	32841	
443	0	32954	32529	32687	32756	32818	32775	32695	32562	
444	0	33005	32557	32747	32671	32808	32757	32647	32617	
445	0	32953	32692	32816	32597	32879	32711	32548	32710	
446	0	32903	32591	32783	32745	32746	32760	32695	32703	
447	0	32665	32535	32756	32949	32821	32665	32699	32619	
448	0	32427	32555	32854	32767	32787	32582	32514	32762	
449	0	32500	32765	32895	32935	32785	32551	32690	32775	
450	0	32652	32975	32927	32914	32785	32602	32701	32579	
451	0	32702	33010	32903	32759	32863	32631	32515	32617	
452	0	32767	33007	32831	32959	32767	32687	32709	32786	
453	0	32805	33108	32831	32871	32607	32767	32674	32539	
454	0	32711	32911	32735	32743	32775	32751	32739	32742	
455	0	32782	32943	32725	32631	32657	32767	32641	32647	
456	0	32773	32751	32711	32720	32823	32791	32724	32738	
457	0	32855	32830	32797	32615	32797	32779	32511	32527	
458	0	32897	32813	32807	32732	32759	32801	32709	32679	
459	0	32871	32676	32743	32767	32734	32775	32746	32729	
460	0	32945	33029	32765	32662	32817	32721	32509	32630	
461	0	32897	33123	32701	32685	32919	32647	32690	32719	
462	0	32926	33274	32751	32511	32787	32647	32732	32615	
463	0	33069	33031	32787	32599	32860	32662	32727	32626	
464	0	33116	32921	32815	32679	32613	32627	32771	32617	
465	0	32967	33003	32813	32793	32746	32623	32634	32700	
466	0	32820	33167	32759	32724	32594	32621	32643	32647	
467	0	32673	33063	32825	32725	32749	32621	32627	32559	
468	0	32547	32807	32831	32765	32727	32583	32785	32767	
469	0	32495	32483	32837	32643	32771	32574	32751	32695	
470	0	32625	32263	32675	32700	32939	32607	32756	32631	
471	0	32517	32381	32742	32647	32628	32642	32699	32747	
472	0	32471	32507	32767	32732	32804	32694	32769	32711	
473	0	32592	32463	32850	32695	32695	32679	32631	32711	
474	0	32647	32565	32745	32859	32743	32690	32519	32535	
475	0	32742	32463	32772	32865	32813	32791	32695	32710	
476	0	32890	32583	32772	32861	32775	32754	32571	32647	
477	0	32836	32525	32793	32851	32903	32769	32751	32775	
478	0	32879	32363	32807	32791	32783	32738	32671	32685	
479	0	33015	32317	32807	32801	32815	32703	32495	32621	
480	0	32948	32629	32669	33029	32785	32789	32678	32683	
481	0	32921	32805	32719	33076	32772	32795	32669	32749	
482	0	32879	32578	32623	32983	32802	32809	32595	32710	
483	0	32788	32647	32703	32911	32655	32772	32639	32706	
484	0	32722	32695	32742	32758	32743	32682	32715	32747	
485	0	32734	32783	32700	32709	32723	32695	32669	32731	
486	0	32767	32862	32821	32647	32839	32727	32687	32603	
487	0	32816	32846	32847	32663	32787	32711	32603	32639	
488	0	32709	32859	32804	32721	32790	32655	32711	32743	
489	0	32786	32867	32804	32638	32829	32629	32667	32671	
490	0	32809	32797	32759	32641	32609	32661	32594	32756	
491	0	32836	32876	32747	32619	32787	32703	32591	32539	
492	0	32818	33007	32775	32815	32629	32647	32726	32690	
493	0	32684	33276	32743	32837	32834	32647	32615	32751	
494	0	32728	33023	32599	33041	32643	32703	32643	32687	
495	0	32696	32991	32687	32887	32747	32703	32507	32677	
496	0	32671	33027	32687	32829	32726	32738	32692	32667	
497	0	32827	33022	32815	32757	32738	32755	32743	32579	
498	0	32734	32987	32735	32675	32735	32691	32687	32762	
499	0	32671	32895	32813	32698	32773	32701	32766	32598	
500	0	32664	32854	32834	32687	32829	32690	32642	32647	
501	0	32811	32887	32791	32831	32745	32717	32715	32772	
502	0	32799	32701	32743	32743	32911	32743	32755	32595	
503	0	32601	32695	32829	32495	32639	32698	32638	32745	
504	0	32485	32767	32730	32463	32891	32782	32723	32679	
505	0	32534	32713	32814	32565	32643	32686	32567	32667	
506	0	32612	32590	32833	32607	32739	32669	32699	32703	
507	0	32674	32718	32807	32551	32647	32711	32719	32543	
508	0	32642	32629	32665	32471	32783	32611	32540	32517	
509	0	32559	32717	32719	32799	32604	32627	32719	32709	
510	0	32623	32789	32701	32775	32764	32629	32711	32679	
511	0	32577	32605	32741	33001	32645	32730	32619	32751	
512	0	32553	32611	32665	32852	32791	32773	32715	32699	
513	0	32874	32878	32735	32919	32660	32759	32499	32701	
514	0	33106	32703	32791	32807	32719	32791	32690	32684	
515	0	33107	32757	32679	32687	32839	32813	32547	32667	
516	0	33181	32655	32731	32691	32647	32751	32635	32594	
517	0	33304	32623	32711	32765	32771	32745	32721	32517	
518	0	33354	32747	32679	32893	32613	32751	32731	32743	
519	0	33231	32723	32570	32887	32771	32763	32722	32658	
520	0	32989	32551	32822	32959	32715	32738	32594	32732	
521	0	32876	32502	32695	32813	32743	32767	32671	32617	
522	0	32742	32645	32771	32815	32726	32799	32775	32630	
523	0	32599	32951	32743	32859	32823	32715	32685	32731	
524	0	32412	33171	32820	32711	32919	32671	32669	32726	
525	0	32436	33031	32685	32751	32597	32694	32487	32610	
526	0	32542	32871	32791	32749	32775	32647	32679	32626	
527	0	32673	33069	32766	32943	32692	32675	32524	32703	
528	0	32459	32919	32688	32962	32775	32638	32679	32711	
529	0	32319	33031	32742	33201	32879	32686	32615	32807	
530	0	32470	33015	32812	33063	32726	32763	32582	32790	
531	0	32610	32702	32719	32783	32887	32742	32693	32622	
532	0	32420	32671	32557	32770	32557	32699	32567	32735	
533	0	32527	32446	32571	32287	32783	32727	32691	32599	
534	0	32608	32414	32619	32072	32620	32751	32583	32676	
535	0	32712	32453	32663	32135	32750	32695	32695	32715	
536	0	32871	32561	32679	32325	32647	32573	32679	32563	
537	0	32893	32643	32735	32484	32783	32662	32556	32687	
538	0	33248	32477	32735	32743	32863	32683	32703	32675	
539	0	33328	32325	32679	32806	32786	32705	32571	32722	
540	0	33207	31998	32711	32741	32786	32695	32719	32588	
541	0	33148	31809	32694	32751	32647	32647	32759	32734	
542	0	33188	31828	32830	32742	32855	32681	32548	32675	
543	0	33170	32045	32818	32919	32660	32735	32675	32681	
544	0	32956	32390	32868	32731	32797	32786	32737	32716	
545	0	32885	32613	32742	32679	32679	32739	32673	32743	
546	0	32718	33202	32874	32647	32772	32747	32717	32613	
547	0	32482	33711	32879	32610	32811	32727	32563	32617	
548	0	32323	33589	32807	32858	32765	32727	32663	32719	
549	0	32387	33325	32773	32850	32866	32663	32639	32647	
550	0	32320	33297	32775	32859	32671	32679	32687	32698	
551	0	32317	33255	32754	33019	32743	32719	32700	32791	
552	0	32402	33084	32763	32911	32671	32711	32515	32567	
553	0	32477	32851	32799	32890	32743	32708	32719	32547	
554	0	32481	32854	32719	32775	32749	32749	32740	32693	
555	0	32759	32796	32767	32789	32630	32738	32743	32710	
556	0	32775	32659	32831	32495	32827	32815	32743	32706	
557	0	32836	32452	32838	32519	32644	32775	32533	32695	
558	0	32932	32375	32807	32847	32814	32759	32734	32812	
559	0	32878	32391	32729	32850	32621	32807	32749	32551	
560	0	32811	32399	32879	32981	32754	32742	32590	32567	
561	0	32876	32299	32913	32847	32767	32623	32663	32702	
562	0	32986	32165	32900	32815	32751	32603	32503	32573	
563	0	32950	32135	32879	32749	32859	32679	32691	32743	
564	0	32881	32071	32751	32862	32642	32705	32607	32535	
565	0	32969	32071	32647	32789	32745	32692	32775	32637	
566	0	33005	32135	32681	32647	32796	32645	32767	32655	
567	0	32942	32423	32671	32471	32775	32559	32484	32647	
568	0	32868	32663	32647	32607	32844	32555	32663	32806	
569	0	32946	33119	32681	32751	32751	32592	32607	32626	
570	0	33062	33223	32687	32850	32775	32603	32729	32735	
571	0	33084	33135	32703	32967	32691	32701	32743	32789	
572	0	33082	33055	32701	32815	32797	32733	32647	32635	
573	0	33068	33125	32695	32735	32647	32783	32705	32658	
574	0	32959	33327	32551	32691	32775	32754	32543	32587	
575	0	32698	33159	32623	32807	32862	32847	32731	32659	
576	0	32477	32975	32471	32878	32623	32797	32767	32749	
577	0	32383	32994	32615	32839	32794	32807	32693	32691	
578	0	32383	32837	32569	32845	32807	32715	32751	32647	
579	0	32199	32927	32759	32868	32549	32739	32707	32739	
580	0	32225	32741	32790	32782	32743	32739	32713	32677	
581	0	32503	32615	32767	32719	32733	32667	32596	32742	
582	0	32716	32589	32694	32690	32751	32635	32659	32603	
583	0	32893	32359	32671	32571	32820	32647	32525	32701	
584	0	33010	32351	32719	32527	32707	32658	32631	32642	
585	0	32999	32343	32668	32455	32770	32631	32563	32716	
586	0	32840	32383	32739	32613	32924	32598	32698	32796	
587	0	33000	32275	32647	32679	32668	32669	32763	32559	
588	0	32962	32471	32763	32903	32804	32630	32626	32711	
589	0	32854	32503	32719	33063	32805	32685	32749	32735	
590	0	32622	32419	32820	33380	32647	32748	32718	32597	
591	0	32708	32529	32775	33220	32807	32794	32689	32687	
592	0	32884	32374	32787	33274	32703	32783	32503	32607	
593	0	32944	32527	32903	33122	32773	32825	32692	32695	
594	0	32790	32786	32739	32877	32860	32843	32597	32553	
595	0	32591	33007	32760	32597	32871	32735	32731	32635	
596	0	32460	33106	32794	32080	32959	32614	32711	32535	
597	0	32208	33426	32775	31781	32875	32615	32437	32540	
598	0	32087	33443	32711	31751	32886	32705	32679	32764	
599	0	32066	33119	32740	32044	32687	32773	32660	32667	
600	0	32089	33003	32791	32106	32790	32679	32663	32659	
601	0	32107	32959	32871	32747	32775	32729	32683	32571	
602	0	32340	32835	32807	33145	32769	32787	32647	32727	
603	0	32640	32738	32793	33327	32867	32765	32681	32580	
604	0	32566	32727	32858	33151	32731	32720	32602	32623	
605	0	32784	32555	32738	32715	32790	32790	32671	32666	
606	0	33104	32391	32621	32441	32489	32725	32830	32663	
607	0	33159	32319	32647	32660	32718	32659	32586	32668	
608	0	33424	32159	32647	32860	32567	32539	32647	32668	
609	0	33562	32263	32690	32830	32685	32627	32610	32581	
610	0	33571	32501	32554	32876	32532	32607	32787	32766	
611	0	33292	32703	32731	32775	32679	32577	32839	32811	
612	0	32946	32839	32711	32871	32559	32655	32535	32679	
613	0	32870	32957	32745	32839	32799	32657	32663	32731	
614	0	32877	32735	32647	33011	32707	32764	32671	32589	
615	0	32827	32495	32735	33008	32949	32751	32655	32695	
616	0	32450	32775	32639	33100	32866	32835	32705	32607	
617	0	32326	32883	32730	33054	32903	32764	32510	32603	
618	0	32534	33063	32604	33111	32852	32791	32647	32859	
619	0	32588	32671	32754	32913	32954	32844	32635	32764	
620	0	32885	32243	32675	32498	32831	32825	32607	32856	
621	0	32956	32438	32748	32646	32839	32877	32647	32730	
622	0	33233	32557	32690	32711	32741	32749	32564	32703	
623	0	33251	32471	32844	32814	32763	32751	32699	32881	
624	0	33253	32572	32873	32546	32767	32670	32743	32613	
625	0	33255	32667	32842	32561	32647	32695	32685	32703	
626	0	32960	32835	32850	32433	32754	32682	32747	32576	
627	0	32669	32869	32711	32818	32407	32749	32629	32729	
628	0	32428	33031	32725	32913	32524	32660	32775	32615	
629	0	32584	32943	32685	32849	32407	32615	32631	32775	
630	0	32748	32802	32738	32603	32596	32605	32779	32675	
631	0	32751	33087	32822	32436	32509	32575	32775	32585	
632	0	32780	32903	32786	32519	32661	32620	32498	32647	
633	0	32744	32690	32731	32444	32663	32599	32663	32375	
634	0	32557	32993	32927	32391	32810	32599	32703	32567	
635	0	32439	33010	32978	32663	32628	32759	32583	32755	
636	0	32258	32748	32831	32947	32807	32799	32725	32615	
637	0	32353	32559	32730	33350	32743	32891	32731	32813	
638	0	32304	32817	32791	33271	32775	32837	32540	32875	
639	0	32276	33199	32683	33005	32735	32789	32742	32621	
640	0	32427	33003	32821	32731	32895	32793	32765	32719	
641	0	32772	32957	32878	32567	32967	32655	32695	32532	
642	0	32943	32897	32786	32555	32943	32725	32646	32661	
643	0	33135	32876	32775	32637	32871	32818	32559	32868	
644	0	33204	32306	32871	32647	32859	32775	32663	32647	
645	0	33218	32317	32855	32767	32903	32751	32522	32772	
646	0	33039	32583	32749	32951	32919	32668	32659	32645	
647	0	32970	32602	32526	33175	32647	32671	32557	32679	
648	0	32791	32490	32669	33223	32703	32742	32639	32607	
649	0	32759	32535	32525	33079	32789	32701	32577	32555	
650	0	32903	32387	32460	32628	32727	32790	32723	32663	
651	0	33085	32391	32687	32447	32821	32679	32675	32711	
652	0	33134	32319	32676	32399	32621	32566	32719	32498	
653	0	33042	32449	32511	32511	32714	32530	32711	32463	
654	0	32814	32515	32655	32671	32767	32533	32734	32559	
655	0	32596	32551	32671	32647	32773	32652	32751	32657	
656	0	32726	32698	32639	32613	32765	32738	32710	32743	
657	0	32841	32951	32669	32772	32667	32743	32647	32772	
658	0	32980	33018	32721	32455	32743	32727	32519	32640	
659	0	32960	33003	32690	32210	32935	32726	32647	32615	
660	0	32990	33025	32641	32423	32661	32721	32455	32703	
661	0	32889	33103	32870	32739	32775	32647	32607	32594	
662	0	32631	33207	32855	32921	32765	32671	32493	32677	
663	0	32334	33229	32837	32795	32845	32711	32671	32757	
664	0	32072	33154	32717	32999	32843	32823	32599	32548	
665	0	31810	33103	32551	32788	32646	32681	32686	32711	
666	0	31496	33254	32703	32835	32807	32749	32588	32733	
667	0	31525	33127	32597	32871	32807	32873	32727	32787	
668	0	31986	33045	32647	33029	32797	32742	32749	32745	
669	0	32527	32819	32591	33054	32877	32801	32663	32863	
670	0	32797	32975	32751	32972	32641	32661	32694	32613	
671	0	32993	32837	32711	33101	32791	32667	32553	32770	
672	0	33071	32371	32830	32957	32775	32635	32655	32807	
673	0	33124	32039	32767	32791	32783	32703	32599	32819	
674	0	33444	31610	32884	32783	32863	32813	32725	32762	
675	0	33492	31495	32871	33124	32739	32805	32811	32704	
676	0	33244	31941	32890	33083	32811	32735	32732	32759	
677	0	33111	32019	32887	32925	32587	32678	32726	32627	
678	0	33045	32147	32852	32662	32731	32823	32605	32551	
679	0	33029	32367	32755	32353	32735	32815	32727	32545	
680	0	32823	32638	32767	32293	32783	32683	32534	32615	
681	0	32653	33031	32823	32486	32839	32643	32711	32635	
682	0	32590	33444	32799	32578	32597	32677	32701	32700	
683	0	32583	33339	32820	32743	32757	32667	32681	32679	
684	0	32356	32871	32775	33041	32887	32710	32732	32582	
685	0	32382	32795	32759	33003	32775	32637	32565	32539	
686	0	32731	32534	32829	32891	32884	32637	32647	32710	
687	0	32935	32313	32903	32467	32725	32615	32441	32654	
688	0	32713	32291	32903	32219	32897	32524	32647	32645	
689	0	32697	32227	32957	32467	32974	32511	32603	32770	
690	0	32954	32517	32866	32668	32683	32555	32637	32534	
691	0	33094	32719	32802	32806	32902	32623	32708	32631	
692	0	33092	33043	32743	32642	32687	32631	32462	32719	
693	0	33183	33391	32729	32664	32773	32684	32675	32743	
694	0	33363	33298	32685	32935	32591	32759	32775	32719	
695	0	33447	33066	32699	32850	32727	32846	32685	32790	
696	0	33488	32903	32735	32804	32615	32775	32733	32825	
697	0	32998	33219	32615	32903	32647	32763	32647	32762	
698	0	32693	33331	32699	32903	32716	32807	32786	32551	
699	0	32587	33569	32671	33007	32524	32891	32799	32733	
700	0	32407	33220	32639	32898	32748	32891	32731	32807	
701	0	32159	33287	32667	32711	32675	32847	32709	32738	
702	0	32099	32988	32705	32775	32767	32799	32558	32629	
703	0	32256	32549	32683	32999	32895	32767	32659	32547	
704	0	32447	31959	32695	33327	32681	32687	32454	32499	
705	0	32813	31672	32851	32837	33014	32647	32615	32647	
706	0	33117	32148	32717	32639	32999	32687	32603	32757	
707	0	33178	32391	32953	32981	33026	32682	32630	32717	
708	0	33462	31903	32935	33063	33054	32623	32630	32786	
709	0	33617	31466	33023	32663	32775	32579	32567	32739	
710	0	33146	31623	32947	32436	32838	32533	32659	32557	
711	0	32741	32719	32932	32553	32767	32551	32555	32467	
712	0	32756	33103	32815	32231	32550	32470	32811	32503	
713	0	32481	33319	32599	32134	32420	32589	32687	32671	
714	0	32236	33255	32647	31891	32379	32735	32821	32694	
715	0	32361	33026	32623	31875	32131	32742	32749	32699	
716	0	32104	33159	32639	31559	32271	32711	32891	32681	
717	0	32098	33146	32679	32103	32328	32710	32751	32626	
718	0	32183	33093	32510	32682	32351	32825	32787	32735	
719	0	32561	32775	32647	33159	32431	32787	32727	32807	
720	0	32768	32511	32474	33221	32436	32804	32775	32511	
721	0	32866	32159	32671	33526	32667	32817	32557	32541	
722	0	32834	32349	32705	33447	32805	32835	32693	32799	
723	0	32775	32954	32791	33343	32789	32781	32551	32843	
724	0	32903	33248	32738	33074	32927	32764	32711	32783	
725	0	32851	33383	32775	32903	32724	32775	32691	32675	
726	0	32454	33658	32807	33060	32950	32731	32565	32597	
727	0	32334	32885	32764	32895	33062	32683	32667	32573	
728	0	32845	32293	32899	32927	32853	32691	32633	32715	
729	0	32966	32549	32842	33069	33031	32797	32623	32807	
730	0	32791	32743	32692	33147	33044	32795	32700	32916	
731	0	32966	32287	32731	32979	32807	32771	32655	32699	
732	0	33036	32427	32727	32847	32903	32815	32726	32738	
733	0	32859	32687	32796	32615	33024	32653	32767	32663	
734	0	32743	32699	32723	32477	32847	32661	32681	32713	
735	0	32582	32292	32807	32079	32973	32606	32658	32373	
736	0	32346	32675	32708	31879	32804	32557	32583	32463	
737	0	32628	33067	32583	32327	32870	32551	32658	32491	
738	0	32985	32818	32641	32726	33010	32695	32559	32711	
739	0	32703	32467	32615	32823	32685	32757	32643	32795	
740	0	32564	32535	32741	33071	32827	32751	32537	32775	
741	0	32740	32647	32830	33271	32671	32725	32631	32775	
742	0	32903	32647	32811	33543	32738	32764	32634	32695	
743	0	33202	32763	32857	33663	32936	32789	32716	32685	
744	0	33286	32695	32819	33655	32687	32855	32679	32871	
745	0	33414	32966	32789	32911	32910	32775	32572	32807	
746	0	33371	32879	32876	32553	32773	32738	32599	32675	
747	0	33124	32250	32941	32275	32847	32599	32507	32559	
748	0	32942	32175	32914	32695	32647	32587	32681	32666	
749	0	32943	32740	32743	32454	32743	32677	32676	32543	
750	0	32887	32509	32654	32022	32759	32613	32804	32652	
751	0	33167	32809	32851	31731	32387	32450	32871	32576	
752	0	33200	32759	32711	32148	32523	32516	32894	32765	
753	0	33006	32525	32863	32453	32521	32647	32889	32892	
754	0	32850	32531	32871	32391	32399	32671	32811	32671	
755	0	32742	32495	32807	32263	32570	32646	32814	32544	
756	0	32180	33237	32695	32518	32465	32598	32645	32571	
757	0	32514	33351	32543	32935	32711	32611	32647	32636	
758	0	32569	32995	32639	33381	32813	32711	32561	32703	
759	0	32316	32986	32685	33476	32629	32860	32695	32775	
760	0	32287	32863	32775	32903	32877	32727	32607	32487	
761	0	32316	32647	32794	32827	32709	32775	32631	32441	
762	0	32313	32281	32854	32817	32903	32757	32543	32687	
763	0	32522	32156	32825	32724	32967	32703	32637	32679	
764	0	32454	33143	32722	32570	32731	32674	32566	32657	
765	0	32494	33346	32787	32255	32911	32667	32684	32719	
766	0	32246	32887	32666	32391	32962	32731	32647	32583	
767	0	32119	32692	32669	32803	32941	32815	32637	32671	
768	0	31824	33055	32562	33339	32877	32775	32531	32666	
769	0	32023	32790	32711	34127	32742	32861	32647	32820	
770	0	32229	32895	32836	34323	32804	32935	32775	32911	
771	0	32736	32972	32790	34370	32834	32975	32775	32894	
772	0	33075	32703	32742	34119	32555	32903	32786	32549	
773	0	32741	33159	32703	33258	32645	32861	32711	32762	
774	0	32850	33602	32676	31751	32548	32775	32751	32732	
775	0	33270	33404	32738	31313	32775	32663	32569	32574	
776	0	33352	33047	32701	31089	32903	32463	32631	32511	
777	0	33539	32647	32738	31462	32903	32467	32695	32443	
778	0	33085	32892	32583	31967	32863	32463	32423	32442	
779	0	32925	33267	32741	31945	32949	32500	32567	32545	
780	0	33290	33053	32771	32004	32846	32534	32726	32701	
781	0	33457	32436	32843	32387	32914	32727	32602	32743	
782	0	32943	32207	32671	32227	32989	32690	32607	32637	
783	0	32879	31879	32993	32213	32827	32713	32580	32639	
784	0	33039	31698	32833	32135	32707	32775	32709	32691	
785	0	33303	31433	32950	32511	32706	32743	32743	32677	
786	0	33094	31733	32931	33134	32683	32735	32605	32614	
787	0	32775	32259	32972	33531	32619	32764	32823	32743	
788	0	32899	32381	32867	33356	32583	32854	32694	32845	
789	0	32699	32503	32698	32966	32299	32791	32863	32775	
790	0	32423	33063	32583	33107	32391	32627	32914	32694	
791	0	32359	32950	32375	33219	32299	32707	32731	32578	
792	0	32372	32992	32494	33381	32491	32891	32794	32881	
793	0	32385	32746	32578	33641	32507	32740	32655	32753	
794	0	32516	32301	32708	33701	32603	32748	32769	32726	
795	0	32631	32847	32767	33543	32623	32681	32775	32547	
796	0	32675	32767	32869	32765	32647	32685	32610	32399	
797	0	32717	32583	32903	32254	32882	32679	32665	32532	
798	0	32728	33003	32963	32371	32615	32695	32711	32743	
799	0	32907	32991	32865	32644	32775	32701	32734	32615	
800	0	32805	33555	32630	32855	32669	32745	32762	32655	
801	0	32647	34095	32486	32340	32903	32797	32567	32839	
802	0	32526	34171	32299	32540	32807	32855	32679	32927	
803	0	32710	33866	32430	32519	32943	32819	32687	32799	
804	0	32819	33488	32487	32575	33055	32742	32503	32721	
805	0	32748	33018	32739	32647	32987	32711	32685	32718	
806	0	32382	32717	32679	33055	33071	32723	32658	32735	
807	0	32381	32423	32802	33271	32887	32747	32450	32745	
808	0	32588	32021	32599	32767	33091	32751	32591	32617	
809	0	32566	31651	32591	32919	33054	32629	32484	32775	
810	0	32452	31815	32603	32751	33062	32502	32677	32647	
811	0	32807	31698	32637	32157	32999	32551	32615	32507	
812	0	33110	31599	32597	31799	32773	32618	32642	32754	
813	0	33413	31565	32770	31323	32709	32598	32647	32647	
814	0	33408	31524	32587	32303	32582	32663	32775	32587	
815	0	33402	32115	32935	33471	32643	32691	32592	32747	
816	0	33326	32539	33103	33885	32694	32885	32715	32647	
817	0	33101	32647	33151	33995	32607	32861	32763	32647	
818	0	33125	32950	33239	33653	32633	32801	32630	32463	
819	0	33151	33045	32945	33287	32663	32829	32734	32443	
820	0	32863	32867	33076	32382	32717	32819	32781	32670	
821	0	32818	32991	32883	31823	32705	32771	32626	32657	
822	0	32728	33573	32950	32155	32734	32666	32735	32645	
823	0	32868	33255	32799	31872	32741	32682	32615	32678	
824	0	32534	33094	32791	32175	32759	32674	32663	32518	
825	0	32071	33767	32686	32589	32919	32647	32563	32375	
826	0	31974	34063	32492	33233	33022	32706	32647	32511	
827	0	32252	33687	32615	32903	33142	32671	32583	32817	
828	0	32343	33346	32517	32761	33007	32655	32575	32690	
829	0	32306	33202	32659	33330	33026	32757	32620	32855	
830	0	32319	32759	32566	33644	33010	32724	32439	32679	
831	0	32245	32991	32662	33908	33031	32807	32675	32759	
832	0	32307	33050	32647	32927	33063	32827	32745	32975	
833	0	32484	32932	32670	31819	32989	32754	32615	32708	
834	0	32575	32530	32553	31717	33103	32647	32637	32611	
835	0	32522	33089	32705	31157	32552	32551	32564	32487	
836	0	32740	33266	32668	31718	32530	32638	32799	32524	
837	0	32855	33351	32730	32915	32445	32769	32620	32628	
838	0	32975	33175	32647	33815	32513	32855	32884	32835	
839	0	33326	32720	32799	34450	32316	32810	32879	32898	
840	0	33461	32869	32599	34492	32303	32839	32763	32787	
841	0	33469	32494	32671	33822	32135	32827	32877	32711	
842	0	33433	31405	32835	32547	32151	32805	32791	32671	
843	0	33676	30486	32919	31231	32167	32579	32932	32555	
844	0	33854	31111	32981	31447	32279	32521	32903	32450	
845	0	34237	30727	33059	31351	32438	32509	32647	32375	
846	0	33805	31179	33055	31719	32607	32525	32749	32647	
847	0	33148	31575	32999	32495	32791	32693	32806	32818	
848	0	33177	31527	32879	33444	32851	32775	32618	32855	
849	0	32692	32807	32797	33886	33083	32742	32614	32917	
850	0	32439	33402	32839	33287	32837	32639	32458	32775	
851	0	32033	33093	32962	33031	33031	32766	32588	32647	
852	0	31939	33453	33067	32621	32879	32665	32599	32629	
853	0	31779	33831	32890	32621	33101	32627	32391	32479	
854	0	31246	34183	32856	32655	32804	32647	32683	32303	
855	0	31077	34785	32571	33034	32815	32727	32759	32538	
856	0	31430	33875	32619	33350	32511	32903	32799	33007	
857	0	31643	33997	32455	32975	32543	32866	32751	32883	
858	0	32200	33403	32516	32770	32789	32843	32671	32855	
859	0	32716	32869	32441	32086	32607	32949	32715	32739	
860	0	32988	32683	32348	32519	32935	32983	32463	32665	
861	0	33034	32459	32439	33275	32899	33010	32623	32665	
862	0	33113	32583	32485	33839	33156	32823	32451	32511	
863	0	33249	32333	32615	33203	33183	32639	32525	32591	
864	0	33641	31911	32583	32407	33156	32570	32527	32605	
865	0	33664	32448	32639	32101	33199	32583	32399	32775	
866	0	33341	32647	32615	31831	33035	32599	32595	32719	
867	0	33144	32602	32834	32007	32931	32596	32495	32593	
868	0	32753	32966	32647	32595	32524	32751	32719	32610	
869	0	32742	33311	32759	33151	32489	32734	32817	32421	
870	0	32838	33030	32699	33586	32170	32681	32798	32382	
871	0	32662	32771	32835	33857	32231	32731	32935	32667	
872	0	32404	32756	32854	32374	32303	32783	32775	32759	
873	0	32471	32342	32708	32629	32474	32698	32839	32639	
874	0	32447	32551	32775	33587	32771	32711	32679	32553	
875	0	32000	32795	32735	33463	32732	32587	32663	32701	
876	0	31664	32541	32895	32671	33037	32647	32575	32479	
877	0	31668	32413	32771	32078	33060	32602	32570	32599	
878	0	31961	32587	32877	32167	33158	32639	32519	32673	
879	0	32225	33257	32883	32756	33079	32821	32433	32683	
880	0	32358	33861	32877	31986	33095	32799	32599	32943	
881	0	32897	33122	32925	30659	33060	32621	32637	32599	
882	0	33510	32729	32843	31535	32931	32510	32621	32623	
883	0	34117	31895	32761	32491	32976	32608	32705	32615	
884	0	34522	31895	32719	33004	32663	32775	32677	32571	
885	0	34795	31950	32681	32837	32502	32948	32871	32802	
886	0	34703	32166	32667	33147	32334	32887	32871	33081	
887	0	34388	32539	32855	33311	32223	32889	32727	32903	
888	0	33941	32255	32933	32535	32217	32714	32857	32710	
889	0	33405	32559	33036	33025	32259	32603	32794	32783	
890	0	32279	33357	32949	33567	32451	32764	32787	32812	
891	0	31649	33313	32829	34012	32739	32783	32683	32834	
892	0	31604	33087	32765	33387	32860	32834	32538	32763	
893	0	31640	32887	32855	32663	33007	32796	32685	32635	
894	0	31223	32995	32975	32631	33059	32655	32675	32591	
895	0	31574	32775	32976	32647	33159	32727	32631	32791	
896	0	31875	32767	32965	32866	32941	32839	32615	32771	
897	0	32543	32851	32822	32813	33156	32815	32626	32694	
898	0	33119	32459	32661	32342	32995	32915	32730	32935	
899	0	33285	32466	32754	32514	33081	32898	32596	32679	
900	0	33184	33023	32743	33201	33071	32871	32775	32363	
901	0	33183	31891	32655	34088	33223	32835	32807	32221	
902	0	32897	31847	32415	34489	32879	32851	32695	32630	
903	0	32671	31763	32412	33980	32903	32815	32839	32775	
904	0	32439	30763	32214	33543	32733	32797	32737	32663	
905	0	32191	31163	32186	32331	32551	32574	32898	32621	
906	0	31806	31815	32239	30956	32493	32324	32962	32481	
907	0	31373	32639	32141	30523	32341	32233	32809	32251	
908	0	31524	33087	32191	30359	32358	32135	32881	32215	
909	0	31554	33391	32195	31316	32206	32275	32873	32221	
910	0	31591	33479	32175	31868	32327	32439	33010	32463	
911	0	32071	33159	32338	32706	32228	32677	32959	32611	
912	0	32754	33265	32447	33533	32669	32772	32717	32609	
913	0	32920	33837	32655	33963	32705	32806	32709	32787	
914	0	33239	32916	33110	33581	32961	32848	32475	32745	
915	0	34119	32677	33191	33483	33026	32915	32512	32763	
916	0	34759	32239	33271	32903	33261	32870	32383	33014	
917	0	34452	31919	33349	33239	33332	32903	32455	32797	
918	0	34088	32247	33318	33306	33263	32764	32463	32439	
919	0	33814	32550	33255	33603	33203	32698	32619	32555	
920	0	33959	31621	33133	33659	32871	32903	32529	32949	
921	0	33880	32066	33031	32661	32547	32886	32470	32829	
922	0	33610	31723	32879	31214	31799	32879	32787	32818	
923	0	33861	31713	33083	31603	31931	32807	32903	32876	
924	0	33638	31511	33198	31301	31975	32551	32657	32582	
925	0	33388	31677	33180	31802	32425	32455	32545	32421	
926	0	33633	31854	33151	31843	32460	32587	32295	32564	
927	0	33534	32562	33215	32111	32655	32551	32403	32771	
928	0	33379	33250	33084	32148	32495	32346	32590	32678	
929	0	33048	33983	32811	32782	32659	32429	32459	32451	
930	0	32758	34566	32653	34129	32711	32533	32463	32695	
931	0	33010	34247	32539	34783	32847	32722	32301	32721	
932	0	32823	34243	32518	34943	33031	32810	32421	32755	
933	0	32498	33892	32634	33735	32923	32758	32319	32769	
934	0	32039	33943	32549	32671	33175	32760	32423	32615	
935	0	31615	33654	32759	32045	33017	32647	32559	32613	
936	0	31246	34194	32791	32671	33063	32709	32543	32795	
937	0	31236	34823	32775	32095	32942	32771	32478	32827	
938	0	31841	34349	32647	31335	33079	32863	32439	32927	
939	0	32319	33890	32639	31766	32898	32798	32573	32795	
940	0	32391	33229	32767	32615	33189	32820	32621	32967	
941	0	32176	33415	32823	33447	33100	32915	32621	33117	
942	0	32226	33375	32799	34311	33227	32839	32663	32677	
943	0	32890	31897	32691	35458	33151	32890	32597	32647	
944	0	32940	31239	32711	36615	33415	33138	32383	32843	
945	0	32924	31727	32551	36381	33491	33137	32564	32751	
946	0	33327	31511	32700	35241	33509	32879	32575	32719	
947	0	33054	31645	32687	33159	33461	32551	32546	32239	
948	0	32783	31861	32617	32069	33619	32457	32443	32289	
949	0	32562	32039	32419	29119	33461	32383	32434	32469	
950	0	32793	33038	32607	27941	33229	32317	32711	32510	
951	0	33202	32783	32607	27443	32609	32299	33059	32155	
952	0	32898	32552	32764	29015	32450	32391	33079	32327	
953	0	32332	32841	32911	30727	31847	32738	33125	32739	
954	0	32210	32159	32742	32183	31607	32903	33209	32879	
955	0	32358	31783	32775	33098	31207	32903	33406	33030	
956	0	32332	32109	32789	33265	31233	32937	33204	32620	
957	0	32135	32041	32903	33631	31364	32835	33287	32687	
958	0	31983	31970	32765	33462	31460	32871	33107	32925	
959	0	32159	32203	32871	33956	31681	32835	33199	32846	
960	0	32184	32765	32975	33630	32103	32631	32989	32631	
961	0	32213	33019	32867	33040	32644	32681	32823	32551	
962	0	32246	33750	32823	33650	32767	32887	32759	32655	
963	0	32122	34439	32625	33859	32967	33038	32551	32839	
964	0	32631	34423	32615	33089	33106	32867	32541	32695	
965	0	32331	33956	32675	33027	33234	32751	32355	32666	
966	0	32248	33821	32671	33105	33076	32730	32521	32639	
967	0	32257	32839	32743	33461	33391	32751	32514	32666	
968	0	32477	32635	32796	34093	33365	32819	32429	32679	
969	0	33020	32423	32737	35165	33439	32911	32476	32775	
970	0	33230	31943	32721	34755	33136	32819	32463	32787	
971	0	33376	32223	32647	34087	33279	32825	32578	32676	
972	0	33319	32551	32788	33706	33051	32874	32573	32583	
973	0	33558	32603	32644	31718	32885	32775	32773	32711	
974	0	34060	32135	32695	30719	32647	32607	32791	32770	
975	0	33791	31654	32735	29775	32551	32429	32647	32559	
976	0	32835	31862	32655	30351	32447	32443	32791	32513	
977	0	32647	31770	32582	30983	32487	32614	32830	32615	
978	0	32614	31844	32429	31663	32567	32751	32591	32756	
979	0	32711	31517	32532	31527	32659	32647	32681	32585	
980	0	32594	32327	32600	31975	32623	32525	32685	32542	
981	0	32599	33031	32875	32376	32853	32625	32451	32557	
982	0	32718	33023	32717	31762	32827	32531	32583	32387	
983	0	32820	32638	32633	31965	33014	32512	32691	32628	
984	0	32620	32775	32642	32863	32975	32615	32461	32783	
985	0	32746	33012	32487	33247	33077	32677	32559	32783	
986	0	33282	33391	32483	33941	32771	32889	32517	32694	
987	0	33735	33252	32285	34933	32807	32982	32703	32771	
988	0	33437	33479	32323	33943	32458	32918	32735	32787	
989	0	32945	33110	32211	33012	32743	32790	32598	32637	
990	0	32839	32667	32309	34399	32535	32775	32751	32820	
991	0	32721	31226	32391	35012	32647	32875	32811	32935	
992	0	32493	31914	32647	34526	32587	32791	32543	32955	
993	0	32297	32463	32590	34205	32876	32825	32647	32903	
994	0	32332	32743	32738	33991	32849	32619	32587	32557	
995	0	32374	32986	33071	33287	33014	32738	32554	32571	
996	0	32560	33247	33191	31943	33183	32775	32673	32730	
997	0	32524	33895	33223	30966	33270	32677	32423	32617	
998	0	32783	33846	33229	31081	33431	32687	32427	32479	
999	0	32892	34372	33373	33233	33038	32815	32450	32567	
1000	0	32808	34368	33437	34295	33103	32877	32620	32575	
1001	0	32707	33167	33455	34122	32489	32834	32695	32678	
1002	0	32450	32818	33287	31791	32084	32847	32844	32839	
1003	0	32350	32759	33398	29765	31787	32706	33051	32720	
1004	0	32687	32358	33213	29014	31700	32359	33078	32506	
1005	0	32883	31597	33190	28994	31964	32118	32837	32326	
1006	0	32576	30783	32898	30855	32336	32391	32949	32507	
1007	0	32470	31015	32687	32567	32594	32574	32886	32622	
1008	0	32962	31640	32303	33527	32590	32641	32735	32743	
1009	0	33122	32507	32091	33575	32743	32597	32607	32674	
1010	0	33192	32643	32129	33371	32813	32721	32763	32661	
1011	0	33224	32063	32049	34291	32663	32783	32670	32919	
1012	0	33353	32226	32209	34311	32903	32658	32615	32557	
1013	0	32845	33187	32263	33991	32903	32799	32570	32528	
1014	0	32970	33015	32475	34327	33082	32759	32463	32534	
1015	0	33571	32682	32517	34353	33215	32782	32543	32745	
1016	0	33386	33349	32775	32825	33169	32591	32551	32597	
1017	0	33398	32740	33019	30279	33223	32451	32640	32349	
1018	0	33062	32391	33269	30363	32871	32457	32669	32299	
1019	0	32742	32527	33087	31815	33023	32538	32516	32467	
1020	0	32396	32805	33159	32893	32832	32797	32678	32923	
1021	0	31828	32203	32983	32738	32751	32788	32606	32767	
1022	0	31871	31991	33159	33743	32725	32949	32789	32923	
1023	0	32052	32199	32815	33631	32698	33047	32775	33087	
1024	0	31909	32743	32605	33901	32631	32994	32639	32895	
1025	0	31844	32431	32439	33977	32558	32823	32783	32807	
1026	0	31372	33447	32342	33543	32457	32811	32895	32836	
1027	0	31908	33613	32225	33301	32435	32855	32631	32923	
1028	0	32774	33614	32135	33142	32527	32766	32782	32861	
1029	0	33415	32999	32159	33767	32591	32666	32715	32543	
1030	0	33844	33125	32117	34653	32717	32775	32551	32647	
1031	0	34220	32799	32390	34967	32733	33071	32827	33111	
1032	0	34076	33075	32253	33234	33170	32903	32738	32910	
1033	0	33714	33132	32385	29883	32854	32503	32503	32545	
1034	0	33398	33622	32643	29754	33204	32519	32527	32770	
1035	0	32898	33879	32855	30311	33106	32463	32503	32518	
1036	0	32313	34114	32895	30019	33204	32481	32526	32307	
1037	0	32250	33575	33071	31286	33147	32617	32507	32367	
1038	0	32580	33095	33269	33844	33295	32549	32378	32441	
1039	0	32653	32519	33309	34718	32869	32591	32662	32583	
1040	0	32475	32455	33259	33735	32634	32731	32763	32401	
1041	0	32063	32743	33137	32703	32509	32658	32807	32287	
1042	0	32144	32579	33018	32391	32749	32588	32743	32548	
1043	0	32640	32195	32941	33311	32828	32647	32630	32716	
1044	0	32828	32550	32887	32629	32871	32660	32629	32783	
1045	0	32686	32385	32803	31223	32834	32511	32631	32667	
1046	0	32263	32175	32838	30714	32717	32293	32540	32559	
1047	0	31815	31935	32898	31507	32278	32525	32708	32742	
1048	0	31526	32798	32863	32426	32167	32621	32711	32749	
1049	0	32036	32867	32843	33298	31952	32836	32968	32673	
1050	0	32820	31985	32939	33965	31927	32966	32975	32785	
1051	0	33146	31623	32791	34623	32142	33023	32741	32911	
1052	0	33207	31941	32830	36567	32375	33093	32866	33009	
1053	0	33422	31335	32699	37084	32615	33223	32743	33102	
1054	0	33431	32231	32623	36356	32769	33228	32480	33234	
1055	0	33589	32294	32587	32355	32903	32899	32602	32759	
1056	0	33431	32276	32603	29927	32839	32682	32571	32466	
1057	0	33823	31975	32589	30011	32804	32873	32671	32892	
1058	0	33659	31863	32633	31591	32975	32800	32614	32477	
1059	0	33103	32679	32585	33948	32846	32663	32597	32427	
1060	0	32996	32035	32633	32593	33011	32503	32663	32391	
1061	0	32992	32022	32787	32079	32837	32605	32612	32647	
1062	0	33027	32615	32887	32391	32951	32789	32699	32977	
1063	0	32700	33846	33198	31858	33063	32815	32626	32647	
1064	0	32292	33999	33095	31869	32707	32483	32701	32418	
1065	0	32564	34505	33222	31254	32875	32282	32622	32014	
1066	0	32846	35175	33113	30567	32823	32251	32690	32261	
1067	0	32819	35197	32941	29956	32775	32301	32519	32421	
1068	0	32869	34427	32822	31186	32959	32519	32605	32773	
1069	0	32422	34930	32511	33095	33095	32679	32487	32821	
1070	0	32129	34049	32391	32647	33257	32498	32647	32775	
1071	0	32130	32743	32503	33258	32874	32354	32487	32570	
1072	0	31956	32256	32354	34985	33100	32635	32619	32710	
1073	0	31552	32219	32135	35687	32902	32803	32557	33071	
1074	0	31451	31819	31863	34579	32983	32903	32671	32850	
1075	0	31874	31751	32114	32732	33095	32915	32583	32839	
1076	0	32391	31799	32092	31509	32543	32978	32765	32962	
1077	0	32884	31685	32205	32028	32455	33083	32879	33047	
1078	0	33197	31618	32391	31788	32321	32804	32949	32786	
1079	0	33464	30949	32477	31843	32244	32525	32949	32577	
1080	0	33305	31127	32582	32809	32107	32543	32839	32239	
1081	0	33568	31313	32775	33183	32013	32555	32951	32359	
1082	0	33786	31039	32938	33058	32135	32702	32775	32674	
1083	0	33831	32004	33015	32967	32567	32807	32639	32727	
1084	0	34031	32686	33007	33735	32687	32863	32687	32775	
1085	0	33446	33167	33111	34786	32843	32927	32588	32799	
1086	0	33180	33267	33350	34468	32831	32931	32401	32743	
1087	0	33040	33325	33287	35539	33041	32966	32526	32671	
1088	0	32895	33868	33428	34587	33274	32903	32455	32575	
1089	0	32580	34503	33439	34969	33133	32940	32533	32807	
1090	0	32253	34375	33287	33639	33268	32756	32495	32807	
1091	0	32099	33742	33503	31767	33466	32574	32423	32711	
1092	0	31897	32543	33431	28083	33007	32239	32443	32263	
1093	0	31820	32607	33405	30075	33195	32246	32595	32606	
1094	0	32235	32695	33127	31552	32884	32303	32669	32583	
1095	0	31997	32263	32469	29391	32687	32391	32775	32330	
1096	0	31879	31623	32263	29635	32499	32614	33039	32533	
1097	0	32584	31329	32023	32085	32603	32831	32605	32956	
1098	0	32872	31471	31875	33230	32759	32775	32707	32931	
1099	0	32138	33060	31712	33922	32679	32799	32710	32638	
1100	0	31783	33568	31591	33953	32647	32957	32871	32567	
1101	0	31640	33783	31879	34455	32835	32987	32635	32861	
1102	0	31651	32773	32113	34223	32869	32903	32753	32895	
1103	0	32535	31679	32361	34218	32958	32845	32796	32815	
1104	0	33527	32235	32685	33598	32830	32654	32559	32799	
1105	0	33666	32221	32914	33195	32987	32646	32607	32719	
1106	0	33383	32932	32871	33526	32806	32603	32485	32658	
1107	0	33327	33593	32819	33410	32985	32406	32464	32538	
1108	0	33095	33279	32775	31910	32801	32335	32603	32199	
1109	0	32841	33254	32835	31111	32845	32233	32498	32246	
1110	0	32836	33238	32773	30342	33155	32383	32579	32471	
1111	0	32868	32903	32911	30695	32978	32685	32557	32773	
1112	0	33142	32401	32983	32611	33273	32767	32679	32903	
1113	0	33409	32493	32935	33799	32775	32815	32707	32923	
1114	0	33435	32178	33095	34153	32274	32994	32843	32948	
1115	0	33221	32929	32953	34810	31775	33059	33001	33127	
1116	0	33000	33103	33079	35005	31506	33151	33022	33311	
1117	0	33199	32319	32987	33258	31559	32941	33199	32898	
1118	0	33687	32154	33143	32495	31611	32535	32975	32341	
1119	0	33897	32479	32967	32471	31655	32401	32909	32134	
1120	0	33826	32212	32903	31559	31733	32531	32903	32391	
1121	0	33872	32044	32721	28560	32670	32348	32835	32263	
1122	0	33347	32771	32667	29511	32731	32223	32554	32076	
1123	0	32388	32405	32454	30877	33327	32274	32499	32175	
1124	0	31568	32903	32673	32988	33128	32575	32371	32652	
1125	0	31689	33527	32722	33783	33219	32855	32580	32851	
1126	0	32391	33507	32831	33535	33095	32879	32711	32964	
1127	0	32746	33147	32789	32813	33138	32823	32463	32775	
1128	0	32390	33534	32731	32551	32852	32847	32609	32607	
1129	0	32519	33563	32354	33877	32999	32871	32683	32717	
1130	0	32912	33462	32316	35266	32592	33065	32543	33117	
1131	0	32889	33645	32406	35071	32303	33204	32854	33313	
1132	0	32911	32911	32453	34130	32122	33167	32983	33349	
1133	0	33031	32583	32423	32319	32531	32866	32823	32939	
1134	0	33306	31951	32789	31013	32887	32612	32711	32363	
1135	0	32646	32445	32879	32229	33079	32347	32439	31841	
1136	0	32346	32372	32988	34347	33283	32647	32527	32423	
1137	0	32400	32391	32901	34791	33225	32807	32553	32787	
1138	0	31636	33107	32805	33269	33412	32737	32391	32701	
1139	0	31397	33474	32573	32081	33399	32687	32347	32655	
1140	0	31959	33543	32447	29819	33519	32382	32182	32375	
1141	0	32459	33514	32439	31259	33238	32577	32471	32828	
1142	0	32556	32512	32541	33739	33045	32782	32669	32662	
1143	0	32631	31852	32495	34586	33174	32843	32417	32543	
1144	0	32769	32133	32726	33581	33492	32687	32359	32673	
1145	0	33186	32634	32759	34471	33346	33099	32428	33271	
1146	0	32804	32871	32715	34243	33374	33283	32519	33442	
1147	0	32383	32330	32932	32421	33241	32916	32605	32999	
1148	0	32450	32391	32885	34004	32897	32867	32820	32745	
1149	0	32771	32274	33012	33790	32435	32617	32891	32583	
1150	0	32948	32250	33061	31475	32349	32178	32933	32263	
1151	0	32982	32391	32855	28324	31949	31943	33022	32055	
1152	0	33294	32081	32787	28607	31703	32198	32972	32383	
1153	0	33444	31579	32555	30291	31413	32407	33067	32829	
1154	0	33372	32057	32870	30981	31799	32323	32875	32587	
1155	0	33207	32617	32959	31925	31695	32210	32956	32279	
1156	0	33212	33237	33033	32591	32095	32529	32847	32623	
1157	0	32982	33711	32925	32121	32413	32543	32515	32655	
1158	0	32450	33867	33090	32159	32676	32747	32695	32659	
1159	0	32103	34165	33149	33409	32755	32903	32533	32893	
1160	0	32710	33254	33179	35310	33034	32951	32567	32755	
1161	0	33494	32607	32993	36117	33311	33223	32443	33134	
1162	0	33895	32108	33022	36023	33259	33407	32527	33353	
1163	0	34517	30887	33140	34665	33185	33241	32647	33207	
1164	0	34194	30165	32871	35533	33026	32933	32532	32564	
1165	0	34000	30041	32773	34533	33003	32586	32676	32099	
1166	0	33485	30906	32247	32175	32719	32687	32756	32538	
1167	0	32487	31689	32083	32251	32626	32694	32763	32807	
1168	0	31325	32260	31925	30790	32647	32404	32755	32357	
1169	0	30822	32943	31906	31989	32916	32363	32647	32535	
1170	0	30443	34051	31917	32079	32901	32421	32689	32543	
1171	0	30474	35301	32207	31737	33264	32359	32658	32413	
1172	0	31182	35327	32247	30983	33079	32493	32429	32695	
1173	0	31503	35247	32566	31013	33409	32431	32547	32531	
1174	0	31965	35023	32726	32599	33207	32455	32438	32378	
1175	0	32185	35571	32707	33751	33325	32676	32514	32823	
1176	0	32748	34859	32775	32023	32829	32807	32579	32831	
1177	0	33151	33519	32903	30557	33124	32903	32455	32839	
1178	0	32968	32516	32647	30553	32903	32826	32719	32733	
1179	0	32993	31598	32823	32359	32839	32847	32731	32681	
1180	0	32855	31595	32829	33602	32241	32871	32726	32763	
1181	0	32870	31511	32619	33831	32119	32967	32850	32733	
1182	0	33149	31855	32609	33919	31892	32914	32845	32600	
1183	0	33415	32342	32603	33191	32275	32751	32759	32455	
1184	0	33454	32203	32835	32932	32228	32827	32743	32735	
1185	0	33406	31967	33223	33791	32519	32822	32687	32758	
1186	0	33073	32133	33381	33823	32595	32871	32727	32893	
1187	0	33011	32578	33547	34759	33199	32934	32513	32931	
1188	0	33101	31687	33357	33306	33281	32882	32455	32932	
1189	0	33084	31639	33339	33343	33379	32599	32487	32785	
1190	0	33481	31622	33331	32417	33318	32223	32450	32445	
1191	0	34460	31385	33345	33421	33367	32447	32345	32607	
1192	0	34517	31407	33143	32751	33117	32326	32540	32407	
1193	0	34188	30759	32823	31975	33095	32389	32517	32444	
1194	0	33098	32035	32807	32210	32971	32407	32671	32498	
1195	0	31826	34233	32511	31761	32623	32628	32687	32700	
1196	0	32198	34507	32562	32385	32443	32775	32910	32872	
1197	0	32528	34694	32589	33924	32102	32775	32868	32829	
1198	0	32726	34167	32428	34563	32342	32975	32903	32931	
1199	0	32191	34213	32367	33597	32365	32950	32875	32886	
1200	0	31604	34391	32268	30842	32647	32620	32791	32527	
1201	0	31827	33799	32579	29731	32933	32359	32775	32439	
1202	0	32068	33311	32499	31211	32943	32331	32632	32167	
1203	0	32582	32991	32383	31815	33143	32608	32570	32711	
1204	0	32558	32927	32623	33125	32903	32869	32589	33062	
1205	0	32652	32626	32615	33182	32287	32927	32823	32959	
1206	0	33061	31767	32508	33483	32231	32853	32710	32859	
1207	0	32968	32354	32409	34289	31993	32885	32981	32679	
1208	0	33221	31463	32637	34023	32071	32765	32797	32708	
1209	0	33566	31127	32945	34133	31975	32630	33039	32739	
1210	0	33471	31319	32809	33671	31995	32671	32881	32743	
1211	0	33653	30786	32766	31679	32315	32647	32828	32751	
1212	0	33343	30239	32709	29774	32690	32626	32647	32483	
1213	0	33104	31087	32751	31252	32978	32551	32663	32303	
1214	0	32893	32303	32721	33295	33415	32631	32459	32545	
1215	0	32833	32694	32695	33634	33298	32801	32449	32673	
1216	0	31876	33867	32831	34614	33579	32972	32402	32815	
1217	0	30852	34764	32710	33819	33351	33014	32493	32743	
1218	0	31286	34775	32706	33099	33371	33063	32501	32980	
1219	0	31249	34471	32601	31790	33211	32950	32604	32799	
1220	0	31182	34219	32689	31863	33172	32773	32670	32775	
1221	0	31791	33964	32659	31886	33055	32733	32503	32580	
1222	0	32492	33535	32512	32299	32718	32726	32640	32233	
1223	0	33060	32995	32671	34262	32411	32903	32977	32409	
1224	0	33047	32698	32570	34903	32150	32843	32845	32868	
1225	0	33220	32696	32758	33965	32333	32703	32734	32831	
1226	0	33426	32615	32767	31033	32483	32511	32534	32625	
1227	0	33658	31943	33043	29100	32626	32207	32661	32579	
1228	0	34093	31662	32911	30498	32587	32335	32749	32567	
1229	0	34199	32044	33069	30983	32771	32607	32697	32592	
1230	0	33859	32195	33229	31861	32850	32710	32756	32625	
1231	0	33199	32263	33191	32865	32965	32839	32583	32638	
1232	0	33061	32895	32983	34907	33159	32991	32639	32963	
1233	0	32823	33107	32935	36743	33191	32973	32674	32782	
1234	0	32562	32710	32726	37185	33195	33173	32599	33037	
1235	0	32629	32693	32692	35807	33167	33171	32671	33055	
1236	0	32544	32503	32567	30907	33317	32620	32473	32518	
1237	0	32340	32094	32685	28518	33209	32109	32525	32223	
1238	0	32390	31378	32402	29455	33250	32156	32543	32204	
1239	0	31924	31335	32397	31411	32927	32469	32471	32474	
1240	0	32125	32214	32563	32123	32855	32759	32721	32820	
1241	0	31869	32653	32804	31623	32671	32807	32751	32819	
1242	0	31741	33632	32577	32838	32679	32694	32697	32628	
1243	0	31864	34255	32628	35923	32567	32978	32830	32707	
1244	0	32452	33853	32723	37229	32551	33055	32695	32787	
1245	0	32859	33883	32713	35061	32323	32855	32747	32774	
1246	0	33278	33323	32849	32892	32338	32679	32867	32735	
1247	0	33454	32626	33287	30019	32114	32255	32767	32250	
1248	0	33061	33319	33181	29858	32063	32375	32957	32299	
1249	0	33132	33159	33006	31089	32319	32466	32903	32453	
1250	0	33260	32996	32900	32383	32461	32612	32748	32635	
1251	0	33488	32517	32643	32978	32685	32579	32663	32684	
1252	0	33613	32799	32413	32759	32967	32609	32519	32543	
1253	0	33756	32671	32519	32423	32852	32737	32581	32862	
1254	0	33651	32209	32553	32465	33267	32903	32599	32799	
1255	0	33582	31811	32489	33626	33298	33027	32561	32857	
1256	0	33425	31527	32199	35461	33174	33083	32599	33129	
1257	0	33254	32275	32479	34795	33124	32959	32454	32823	
1258	0	32475	31975	32309	33171	32406	32767	32811	32479	
1259	0	31828	31463	32311	33269	32567	33087	32707	32903	
1260	0	31696	32061	32322	32261	32599	32775	32663	32642	
1261	0	31719	32359	32419	31493	32681	32803	32709	32749	
1262	0	32082	32639	32455	32588	32095	32839	32628	32775	
1263	0	31938	32813	32690	33491	32085	32866	32831	32775	
1264	0	31886	32763	32773	32617	32412	32719	32635	32950	
1265	0	32160	32823	33135	32437	32571	32503	32679	32567	
1266	0	32281	33234	33367	31711	32689	32487	32591	32599	
1267	0	32907	33447	33349	31857	32519	32683	32704	32630	
1268	0	33394	33490	33285	30596	32775	32405	32623	32373	
1269	0	33583	33349	33202	30980	32929	32409	32501	32412	
1270	0	33391	33023	33063	32013	33119	32615	32518	32608	
1271	0	33571	32573	32967	32604	33055	32759	32671	32807	
1272	0	33404	31935	32710	32231	33159	32911	32519	32879	
1273	0	33045	32407	32699	33927	33002	33014	32655	33099	
1274	0	32512	33031	32972	34452	33415	32879	32573	32959	
1275	0	32326	32902	32938	34093	33185	32709	32367	32716	
1276	0	32493	32693	32883	34637	33095	32726	32673	32739	
1277	0	32141	33388	32591	35538	32711	33001	32775	32919	
1278	0	32377	33159	32781	34183	32588	33075	32703	32839	
1279	0	32445	32841	32743	32063	32321	32615	32783	32632	
1280	0	32613	33359	32645	31983	32518	32548	32698	32459	
1281	0	33004	33374	32371	31698	32194	32316	32871	32243	
1282	0	33497	33369	32639	31527	32447	32192	32775	32131	
1283	0	33907	33044	32735	31507	32310	32419	32670	32347	
1284	0	33547	32726	32643	31053	32475	32698	32643	32551	
1285	0	32671	31931	32743	29403	32605	32700	32670	32604	
1286	0	31996	32060	32455	31943	32736	32835	32571	32630	
1287	0	31312	33195	32343	34230	32725	32967	32679	32733	
1288	0	31702	32519	32283	34491	32927	32943	32717	32833	
1289	0	31728	32698	32559	34581	33029	32903	32587	32873	
1290	0	31758	32783	32716	33303	32846	32811	32689	32967	
1291	0	32230	32279	32899	31861	33105	32687	32630	32765	
1292	0	32756	33194	33059	33319	33132	32603	32717	32501	
1293	0	33354	33636	32999	34631	33332	32612	32426	32515	
1294	0	33670	33710	32887	35047	33174	32855	32510	32918	
1295	0	33579	33250	32749	31456	33135	32769	32444	32786	
1296	0	33479	32967	32383	29763	32773	32564	32591	32558	
1297	0	33462	32040	32263	31943	32480	32679	32735	32754	
1298	0	33679	32135	32399	33607	32263	32917	32977	32911	
1299	0	33721	31730	32591	33654	32367	32799	32726	32498	
1300	0	32900	31208	32844	32427	32927	32603	32519	32420	
1301	0	32285	32321	32863	33275	33043	32703	32413	32509	
1302	0	31992	31867	32831	32037	33563	32455	32400	32365	
1303	0	31749	31713	32838	31895	33530	32599	32460	32524	
1304	0	31527	32524	32980	31461	33573	32668	32411	32711	
1305	0	31637	32551	32935	31637	33316	32970	32585	32909	
1306	0	32375	33341	32957	31613	33227	32791	32726	32723	
1307	0	33060	34113	32839	32342	32516	32740	32727	32811	
1308	0	33252	34615	32887	32466	32199	32709	32886	32514	
1309	0	32927	34073	32862	32805	31669	32879	32903	32887	
1310	0	32743	32791	32790	33325	31767	32903	33039	33123	
1311	0	33430	31763	32622	34607	31777	33024	32947	33069	
1312	0	33927	32141	32644	34919	32331	32751	32903	32839	
1313	0	34070	31847	32238	35455	32323	32711	32881	32813	
1314	0	33789	32414	32175	35004	32447	32723	32628	32821	
1315	0	33933	32463	32023	33571	32399	32575	32868	32748	
1316	0	34727	31500	32315	31798	32745	32363	32674	32143	
1317	0	34597	31751	32647	31081	32753	31959	32572	31834	
1318	0	33700	32735	32955	30950	32890	32064	32647	31980	
1319	0	32844	33179	33028	31313	32692	32487	32575	32629	
1320	0	32273	32991	33175	32655	32434	33007	32847	32821	
1321	0	31576	32045	33155	32851	32475	33143	32703	33087	
1322	0	30614	33316	33031	31845	32365	32929	32791	32869	
1323	0	30437	33106	33199	32043	33037	32834	32423	32868	
1324	0	30316	32748	33006	33847	33511	32915	32399	32617	
1325	0	30295	32947	33135	35170	33809	32748	32380	32443	
1326	0	31116	32711	32943	34769	33823	32839	32391	32851	
1327	0	31725	33543	32773	34543	33647	32951	32471	32951	
1328	0	32310	34279	32669	33447	33592	32886	32375	32839	
1329	0	33453	34223	32541	32595	33509	32775	32498	32759	
1330	0	33823	33543	32391	31262	33074	32620	32564	32715	
1331	0	33376	33191	32412	29889	32634	32468	32823	32520	
1332	0	33181	33154	32615	30961	31874	32690	32903	32602	
1333	0	33181	32659	32535	31746	31501	32935	33141	32832	
1334	0	32846	33205	32521	32598	31574	32797	32939	32631	
1335	0	33309	32661	32690	32873	32031	32628	32879	32675	
1336	0	33319	32423	32612	32693	32238	32679	32783	32569	
1337	0	32899	32219	32631	32098	32673	32607	32503	32419	
1338	0	32870	32175	32667	32707	32879	32603	32605	32497	
1339	0	32841	32687	32719	33679	33119	32813	32595	32633	
1340	0	32647	32663	32851	33218	33043	32775	32500	32722	
1341	0	32257	32372	33019	32027	33311	32603	32515	32721	
1342	0	32296	32166	33103	31948	33271	32703	32332	32607	
1343	0	32450	32129	33069	31453	33245	32639	32482	32527	
1344	0	32692	31817	33042	32263	32743	32551	32638	32258	
1345	0	33094	32092	32898	33414	32345	32695	32743	32447	
1346	0	33998	31154	32695	34081	31717	32966	33001	32727	
1347	0	35224	30130	32579	34529	31745	32969	33079	33059	
1348	0	35096	31140	32764	33518	31858	32539	33011	32963	
1349	0	34547	32015	32741	32823	32380	32207	32871	32431	
1350	0	34770	32847	32935	32595	32516	32350	32655	32450	
1351	0	34505	32283	32815	31109	32731	32519	32721	32755	
1352	0	33490	32947	32794	32417	32892	32935	32832	33031	
1353	0	32452	33953	32632	35810	33101	33082	32599	33077	
1354	0	31421	34105	32454	38351	33344	33170	32583	33369	
1355	0	30812	35223	32238	36990	33126	32869	32404	32585	
1356	0	30714	34650	32295	29971	33120	32509	32555	32586	
1357	0	30503	32845	32107	26991	33152	32103	32391	32342	
1358	0	31130	31785	32407	27447	32927	32095	32433	32143	
1359	0	31906	31489	32539	28594	32983	32270	32469	32183	
1360	0	31810	31600	32790	30676	32489	32590	32732	32358	
1361	0	31618	31879	32857	32892	32375	32775	32867	32647	
1362	0	32196	32259	33061	33588	32399	32875	32818	32658	
1363	0	31993	33847	33131	33609	32578	32823	32733	32775	
1364	0	32084	35113	32863	33927	32630	32902	32491	32930	
1365	0	32647	35601	32799	35263	32873	32871	32567	32567	
1366	0	32911	35699	33035	35697	33075	32890	32431	32911	
1367	0	33240	35251	32871	34212	33159	32782	32543	32723	
1368	0	33139	34758	32845	33031	33564	32727	32301	32973	
1369	0	32717	33482	32671	32551	33927	32519	32308	32607	
1370	0	32807	33053	32807	32644	33883	32519	32237	32458	
1371	0	33285	32479	32919	32831	33629	32527	32322	32406	
1372	0	33558	31893	32805	34063	33415	32594	32295	32591	
1373	0	34085	30855	32975	33862	33296	32790	32515	32927	
1374	0	34328	30903	32983	33406	32667	33031	32647	33074	
1375	0	33791	31396	32917	32285	32101	32919	32949	32939	
1376	0	33428	30797	32807	31893	31751	32878	32930	32543	
1377	0	33241	29902	32781	32557	31206	32831	33199	32450	
1378	0	34213	29896	32815	34071	30837	32916	33083	32759	
1379	0	33842	30651	32727	34383	30865	32941	33221	32955	
1380	0	32959	32830	32950	33705	31630	32615	32846	32671	
1381	0	32840	33620	32675	32523	31954	32531	32801	32566	
1382	0	32574	33202	32682	29319	32733	32299	32435	32347	
1383	0	31940	33031	32673	29753	33153	32324	32570	32191	
1384	0	31306	33699	32399	31587	33355	32579	32494	32489	
1385	0	30876	33895	32359	31877	33397	32553	32603	32750	
1386	0	30380	33877	32131	30943	33193	32495	32658	32579	
1387	0	30865	33991	32293	32988	33378	32670	32517	32772	
1388	0	31769	33171	32263	32893	33071	32578	32527	32599	
1389	0	32387	33207	32311	32173	33047	32575	32543	32598	
1390	0	33225	32831	32205	32893	32725	32694	32668	32695	
1391	0	33313	32868	32379	32706	32680	32725	32773	32773	
1392	0	33196	32363	32471	32447	32655	32843	32647	32883	
1393	0	33589	31591	32922	32279	32551	32845	32687	32895	
1394	0	33355	31947	33014	31637	32815	32775	32670	32881	
1395	0	32919	32459	32978	33399	32719	32789	32743	32711	
1396	0	32666	33287	33008	34693	32935	32983	32627	32775	
1397	0	32582	33397	32899	35059	32785	33235	32686	33227	
1398	0	32495	33159	33030	33983	32939	32935	32582	32751	
1399	0	32491	33303	32903	33863	33041	32567	32671	32428	
1400	0	32582	33127	32919	34151	33029	32639	32431	32666	
1401	0	32994	33235	32767	34335	33093	32791	32543	32931	
1402	0	33191	33063	32832	33703	32903	32751	32515	32535	
1403	0	33023	32843	33127	31190	33042	32543	32593	32391	
1404	0	33202	32213	33176	31055	33125	32626	32471	32471	
1405	0	33815	31853	33041	32039	32847	32590	32742	32479	
1406	0	33983	31527	32807	32879	32918	32500	32775	32519	
1407	0	34136	31831	32987	33461	32631	32513	32647	32586	
1408	0	33903	32291	32991	33028	32918	32555	32647	32507	
1409	0	33484	32815	32899	33511	32543	32647	32503	32639	
1410	0	32917	32407	32825	32519	32571	32591	32775	32428	
1411	0	32658	32644	33019	32171	32647	32479	32751	32679	
1412	0	32615	33182	33157	32836	32471	32679	32640	32629	
1413	0	32001	33135	33003	31067	32858	32527	32717	32515	
1414	0	32009	32657	32863	29846	32805	32407	32563	32631	
1415	0	31928	32949	32623	31895	32980	32685	32667	32869	
1416	0	31635	33774	32495	32642	32983	32765	32637	32686	
1417	0	31748	33633	32402	31971	32463	32852	32743	32315	
1418	0	31677	33271	32308	32556	32639	32822	32681	32461	
1419	0	32122	33063	32108	33274	32551	32815	32823	32839	
1420	0	32640	32852	32023	33343	32767	32899	32701	33006	
1421	0	33090	32991	32423	33030	32879	32947	32701	32971	
1422	0	33415	32631	32359	33351	32646	32931	32815	32931	
1423	0	33508	32902	32638	33799	32124	32815	32935	33011	
1424	0	33280	32989	32687	33650	31831	32735	32940	32697	
1425	0	33164	32895	33027	32503	32202	32725	32709	32471	
1426	0	33431	32796	33015	32987	32227	32615	32753	32412	
1427	0	33222	32383	33069	33042	32547	32595	32775	32623	
1428	0	32613	32605	32843	33351	32675	32679	32655	32527	
1429	0	32540	32821	32892	34035	32999	32745	32701	32676	
1430	0	32436	32092	32751	32881	32914	32685	32463	32727	
1431	0	32320	32209	32811	32498	33083	32647	32732	32682	
1432	0	31946	31839	32655	32004	33309	32582	32455	32749	
1433	0	31909	31679	32735	31916	33247	32589	32551	32725	
1434	0	32274	31123	32573	32583	33287	32671	32467	32551	
1435	0	33044	31239	32243	33002	33030	32655	32629	32575	
1436	0	33054	32119	32315	32726	32786	32879	32863	32691	
1437	0	33071	32143	32661	33727	32647	33019	32846	32879	
1438	0	33110	33133	32970	34623	32647	33142	32715	32990	
1439	0	33090	33507	32847	34715	33019	32959	32397	32791	
1440	0	32708	33883	32791	33892	32765	32882	32551	32798	
1441	0	32452	33564	32621	30121	32620	32738	32626	32468	
1442	0	31997	33956	32647	29169	32423	32363	32751	32325	
1443	0	31871	34059	32694	31260	32599	32470	32593	32391	
1444	0	31951	33738	32939	31719	32701	32534	32759	32571	
1445	0	32287	32999	33215	32214	32721	32639	32719	32691	
1446	0	32828	32775	33371	32083	32785	32665	32658	32671	
1447	0	33250	32770	33202	32439	32439	32690	32763	32655	
1448	0	34040	32962	32935	32739	32460	32775	32643	32647	
1449	0	34690	32821	32964	33942	32319	32903	32749	32957	
1450	0	34452	32419	32775	34487	32703	32755	32668	32647	
1451	0	34106	31519	32607	34615	32775	32733	32685	32462	
1452	0	33424	31055	32284	35009	33061	32887	32741	32807	
1453	0	32708	31495	31980	33516	33087	32810	32614	32900	
1454	0	31879	31167	32073	31271	33158	32706	32535	32444	
1455	0	31268	31519	32105	30292	33055	32485	32491	32361	
1456	0	31566	31851	32263	30767	32879	32615	32647	32719	
1457	0	31873	32749	32553	32831	32987	32999	32515	32963	
1458	0	31879	33663	32751	33159	32845	32902	32615	32711	
1459	0	32102	34523	32691	33439	32791	32743	32633	32425	
1460	0	32786	34516	32818	32674	32786	32733	32735	32499	
1461	0	32937	34567	32895	32587	32751	32687	32755	32700	
1462	0	33287	34103	33063	32603	32748	32535	32667	32725	
1463	0	33104	33954	32885	33716	32326	32646	32747	32769	
1464	0	32654	34035	32993	34792	32390	32923	32671	32851	
1465	0	32941	34067	32951	33815	32067	32831	32895	32711	
1466	0	33318	32975	33069	33311	32351	32839	32821	32669	
1467	0	33108	32249	33069	32773	32499	32685	32599	32643	
1468	0	33060	32095	32725	31660	32846	32514	32644	32533	
1469	0	33406	32198	32638	31399	32679	32518	32603	32667	
1470	0	33250	32391	32681	31439	33060	32422	32468	32474	
1471	0	32787	32235	33083	31623	32830	32561	32669	32508	
1472	0	32509	32500	33138	31359	33223	32511	32685	32287	
1473	0	32644	32284	33224	32135	33149	32565	32527	32331	
1474	0	32380	32479	33223	33123	33310	32717	32617	32711	
1475	0	32300	31795	33113	33143	32835	32823	32543	32822	
1476	0	32006	31691	32893	33023	32703	32882	32879	32969	
1477	0	31544	32483	32663	32894	32540	32828	32834	32823	
1478	0	31812	32250	32358	32599	32836	32527	32511	32495	
1479	0	31961	32741	32283	33563	32838	32727	32679	32706	
1480	0	32431	32658	32359	34383	32671	33026	32538	32919	
1481	0	33068	32175	32146	33358	32475	32933	32766	32791	
1482	0	33650	31747	32407	33095	32425	32811	32831	32692	
1483	0	33767	31783	32047	32297	32775	32639	32667	32711	
1484	0	34106	32295	31975	32047	32830	32555	32647	32572	
1485	0	34134	32327	32109	32279	32847	32705	32567	32583	
1486	0	33650	32812	32603	32999	32862	32733	32671	32771	
1487	0	33561	33211	32711	32891	32599	32717	32589	32823	
1488	0	33165	33303	32941	32263	32590	32647	32759	32489	
1489	0	32941	33535	32837	33153	32302	32735	32663	32787	
1490	0	32507	33861	32932	34413	32683	32815	32685	32903	
1491	0	31811	33679	32769	34919	32540	32715	32707	32843	
1492	0	32124	33300	32874	34220	32605	32605	32711	32561	
1493	0	32462	33197	32925	33047	32736	32644	32738	32687	
1494	0	33019	32679	33106	30820	32980	32591	32499	32607	
1495	0	33127	32159	33089	30303	33076	32497	32579	32421	
1496	0	32863	31987	33181	30415	33079	32493	32629	32350	
1497	0	32839	32074	32927	31324	33127	32607	32448	32423	
1498	0	32677	32343	32893	32214	32867	32743	32628	32655	
1499	0	32561	32535	32747	32535	32841	32743	32794	32722	
1500	0	31970	32969	32376	32663	32767	32603	32775	32431	
1501	0	31438	33133	32357	33242	32871	32699	32791	32577	
1502	0	31415	33231	32452	33723	32569	32795	32646	32843	
1503	0	31846	33255	32387	33587	32795	32803	32714	32723	
1504	0	32447	32830	32679	33600	32853	32745	32445	32663	
1505	0	32638	32725	32698	33549	32994	32730	32579	32639	
1506	0	33097	32599	32941	33345	33103	32766	32415	32663	
1507	0	34067	32071	33105	33223	32775	32655	32579	32666	
1508	0	34409	32311	33261	33607	32879	32819	32695	32935	
1509	0	33458	32429	33076	33083	32685	32747	32630	32631	
1510	0	32879	32831	33127	32575	32774	32669	32711	32759	
1511	0	32448	33279	33005	32947	32469	32630	32785	32593	
1512	0	32020	33539	32463	33031	32313	32726	32785	32677	
1513	0	32365	33981	32249	33935	32175	32764	32903	32979	
1514	0	32279	33957	32215	33892	32415	32766	32791	33069	
1515	0	31951	34209	32282	32953	32727	32607	32807	32831	
1516	0	31826	33557	32391	31405	32543	32567	32749	32727	
1517	0	32006	32983	32516	30285	32858	32539	32606	32527	
1518	0	32728	32799	32698	31071	32697	32565	32742	32391	
1519	0	33252	32715	33069	32399	32903	32871	32613	32695	
1520	0	33186	32227	32891	33463	32738	32923	32755	32683	
1521	0	32457	32607	33091	34301	33083	32962	32655	32783	
1522	0	32359	32759	33021	34119	32954	32852	32415	32644	
1523	0	32582	32135	33021	33007	33095	32662	32566	32606	
1524	0	32926	31591	32711	32135	32889	32665	32487	32674	
1525	0	33995	31219	32730	31196	32844	32513	32686	32566	
1526	0	34477	31171	32739	31187	32640	32571	32743	32418	
1527	0	34485	30941	32821	31938	32441	32705	32775	32448	
1528	0	33987	31524	32850	32279	32639	32606	32750	32507	
1529	0	33101	32315	32972	32261	32432	32639	32626	32612	
1530	0	32606	32918	32851	32405	32667	32535	32735	32679	
1531	0	32041	33027	33002	32258	32695	32731	32564	32861	
1532	0	31546	33259	33071	32243	32827	32743	32660	32939	
1533	0	31472	32993	32967	32839	32923	32620	32703	32789	
1534	0	31861	32887	32645	33333	33101	32647	32503	32583	
1535	0	32619	32412	32506	33818	33284	32847	32597	32835	
1536	0	33592	31515	32326	34164	33513	32921	32406	32791	
1537	0	33837	31830	32159	34465	33573	32975	32500	32708	
1538	0	33542	32263	31932	35540	33207	33015	32451	33024	
1539	0	33240	33540	32025	34722	32813	33130	32715	32960	
1540	0	32836	34102	31879	32302	32091	32962	32770	32710	
1541	0	32621	33099	31972	31475	31829	32711	32975	32789	
1542	0	32656	33399	32197	29675	31434	32591	33028	32601	
1543	0	32512	32951	32407	30025	31522	32579	32911	32303	
1544	0	31911	33187	32622	32259	31479	32695	33019	32301	
1545	0	32140	33311	32609	33461	31781	32701	32933	32192	
1546	0	32614	33171	32919	33915	32077	32811	32890	32592	
1547	0	33256	33383	33069	33607	32367	32713	32733	32683	
1548	0	33152	33895	33275	32815	32633	32509	32735	32463	
1549	0	33127	33004	33375	32125	32839	32429	32675	32455	
1550	0	32923	32557	33410	31866	33150	32359	32425	32455	
1551	0	32626	32683	33527	31620	33227	32455	32487	32683	
1552	0	32327	32717	33735	32297	33181	32643	32534	32931	
1553	0	32126	33001	33517	32755	33278	32663	32596	33019	
1554	0	32303	32871	33411	33311	33309	32740	32622	32873	
1555	0	32823	32791	33095	33758	33359	32793	32509	32742	
1556	0	32903	32391	32943	33734	33276	32914	32455	32794	
1557	0	32980	32221	32823	33234	33175	32959	32507	32767	
1558	0	32903	32231	32685	33189	33008	32871	32503	32747	
1559	0	32874	32159	32567	32301	33066	32775	32615	32656	
1560	0	32826	32143	32522	32295	32831	32730	32570	32535	
1561	0	32549	32367	32372	32668	32961	32789	32636	32597	
1562	0	32477	32567	32547	31974	32667	32775	32733	32567	
1563	0	32035	32698	32455	32079	32759	32743	32615	32645	
1564	0	32101	32977	32763	32723	32621	32715	32711	32735	
1565	0	32092	32814	32755	33235	32849	32877	32742	32930	
1566	0	31827	32679	32506	33614	32676	32858	32791	32815	
1567	0	32330	32743	32563	33245	32492	32876	32623	32814	
1568	0	32540	32835	32494	32535	32401	32805	32863	32796	
1569	0	32462	32647	32543	33212	32239	32775	32933	32783	
1570	0	32367	32279	32564	33989	32615	32835	32895	32789	
1571	0	32199	32191	32509	34643	32633	32751	32793	32619	
1572	0	32014	32613	32540	34298	32839	32700	32633	32631	
1573	0	32025	32941	32335	32809	32765	32495	32884	32487	
1574	0	31821	33639	32430	31846	32860	32447	32900	32263	
1575	0	32196	32978	32587	31290	32742	32607	32711	32447	
1576	0	32664	32423	32735	30597	32883	32609	32839	32775	
1577	0	32843	32451	32704	31380	33039	32676	32711	32775	
1578	0	33298	32391	32426	32217	33267	32887	32658	32867	
1579	0	34034	31927	32113	32990	33089	33049	32623	32979	
1580	0	34096	31337	31954	33123	33323	32807	32519	32469	
1581	0	34002	31091	32300	34327	32847	32823	32475	32455	
1582	0	34055	31166	32461	33693	32941	32711	32498	32508	
1583	0	34209	30969	32473	33259	32903	32644	32495	32487	
1584	0	34013	31930	32543	32466	32647	32494	32588	32349	
1585	0	33766	32107	32807	30454	31997	32285	32934	32350	
1586	0	33745	31962	33039	31312	31610	32412	33013	32378	
1587	0	33671	32443	33170	32647	31738	32447	32748	32479	
1588	0	33647	32818	33317	32965	31913	32703	32822	32817	
1589	0	33544	32727	33415	32914	32199	32874	32820	32916	
1590	0	33447	33319	33303	32319	32453	32694	32455	32821	
1591	0	33285	33519	33382	31034	32516	32435	32573	32657	
1592	0	32855	33516	33399	31603	32495	32439	32503	32679	
1593	0	32909	33671	33373	31679	32869	32639	32534	32615	
1594	0	33105	33844	33263	33247	32786	32807	32319	32825	
1595	0	32861	33748	32977	33979	33061	32831	32391	32943	
1596	0	32655	33482	33039	33799	33255	32660	32335	32759	
1597	0	32492	33205	32743	33807	33563	32774	32244	32669	
1598	0	32301	33239	32700	33997	33471	32887	32215	32683	
1599	0	31864	33695	32903	33279	33627	32860	32042	32839	
1600	0	31428	34033	32935	32723	33697	32706	32165	32685	
1601	0	31676	33755	32809	32885	33731	32706	32252	32655	
1602	0	32488	33645	32591	32669	33523	32773	32341	32735	
1603	0	33223	33551	32743	32815	32967	32854	32463	32834	
1604	0	33428	33431	32967	33063	32738	32940	32491	33031	
1605	0	32912	33407	32964	32999	32235	33003	32719	32727	
1606	0	32955	32987	32722	33170	32149	32895	32628	32871	
1607	0	33602	32807	32783	33279	32159	32797	32887	32783	
1608	0	33836	32852	32666	33079	31597	32788	32925	32615	
1609	0	33432	32687	32499	32708	31911	32567	33031	32726	
1610	0	33406	32255	32420	32863	32415	32565	32852	32775	
1611	0	32994	31938	32330	33092	32351	32467	32965	32801	
1612	0	32215	31455	32459	33380	32451	32719	32834	32747	
1613	0	31779	31597	32684	33364	32658	32693	32967	32694	
1614	0	31610	31823	32869	32933	32754	32643	32855	32391	
1615	0	31226	32831	32871	32737	32851	32807	32911	32703	
1616	0	31084	33334	32799	32699	32602	32851	32725	32683	
1617	0	31412	33599	32738	32039	32783	32692	32847	32685	
1618	0	32093	33271	32223	31449	32919	32578	32594	32511	
1619	0	32566	32674	32322	31535	32983	32719	32767	32489	
1620	0	32799	32607	32417	32075	33031	32722	32719	32493	
1621	0	33063	32767	32599	32738	33159	32769	32527	32577	
1622	0	32774	33398	32726	33618	33185	32863	32623	32627	
1623	0	33096	33227	32731	33850	33031	32870	32551	32935	
1624	0	32716	33385	32476	33363	33101	32846	32619	32983	
1625	0	32506	33879	32579	32747	33037	32899	32573	32946	
1626	0	32029	33396	32749	33212	32935	32801	32709	32741	
1627	0	31220	32899	32811	33345	32914	32837	32763	32874	
1628	0	31540	32656	32857	33593	32607	32713	32775	32887	
1629	0	32086	32451	32851	33447	32657	32666	32796	32959	
1630	0	32383	32643	33068	32461	32687	32551	32775	32893	
1631	0	32864	32751	32942	31599	32634	32605	32830	32763	
1632	0	32929	32519	32793	30268	32715	32593	32733	32660	
1633	0	32902	32223	32531	30982	32595	32455	32783	32435	
1634	0	33287	31796	32775	31559	32871	32391	32660	32327	
1635	0	33407	32151	32607	32609	32635	32493	32699	32519	
1636	0	32694	32663	32736	32250	33037	32694	32431	32415	
1637	0	33180	32455	32899	32391	33264	32838	32567	32527	
1638	0	33608	31821	33063	33203	32987	32829	32483	32762	
1639	0	33017	31770	33095	33943	33119	32873	32582	32773	
1640	0	32562	31762	33082	33391	33034	32789	32519	32739	
1641	0	32707	31383	32919	32717	32948	32711	32655	32341	
1642	0	32615	32319	32655	31742	32845	32663	32853	32289	
1643	0	32703	33330	32533	32197	32300	32727	32887	32554	
1644	0	32841	33587	32046	32957	32247	32791	32975	32789	
1645	0	33197	33366	32207	32935	31995	32851	32743	32935	
1646	0	33745	33411	32309	32871	32271	32795	32853	32903	
1647	0	33597	33539	32421	32962	32377	32655	32679	32846	
1648	0	32781	32975	32525	33607	32615	32611	32775	32522	
1649	0	32169	32348	32773	33449	32433	32507	32747	32583	
1650	0	32249	31847	32611	33065	32634	32575	32583	32599	
1651	0	32544	32101	32655	33159	32914	32579	32626	32549	
1652	0	32773	32283	32462	32694	32955	32647	32407	32722	
1653	0	33367	32055	32759	33342	33207	32863	32541	32719	
1654	0	33833	32931	32695	33263	32775	32911	32655	32647	
1655	0	33346	33670	32919	33219	32815	32979	32753	32679	
1656	0	32966	33887	32738	33127	32807	32975	32722	32763	
1657	0	33122	33787	32865	33279	32850	32865	32615	32575	
1658	0	33203	32918	32871	33405	32811	32771	32679	32711	
1659	0	32678	32316	32751	32259	32805	32743	32610	32615	
1660	0	32453	32135	32701	31739	32775	32751	32771	32669	
1661	0	31970	32815	32943	31658	32870	32739	32703	32575	
1662	0	31738	32822	33003	32164	32935	32543	32541	32459	
1663	0	31485	32519	32955	33395	32599	32549	32620	32455	
1664	0	31927	32007	32951	33943	32775	32659	32565	32639	
1665	0	32441	32555	32791	33191	32699	32727	32647	32757	
1666	0	32626	32979	32940	32130	32885	32692	32699	32837	
1667	0	32584	33415	33037	31025	32839	32506	32634	32775	
1668	0	32380	33191	32914	30933	32989	32457	32559	32599	
1669	0	32308	33235	33045	31559	32843	32423	32495	32557	
1670	0	32770	32834	33159	32243	33021	32423	32527	32730	
1671	0	33340	32567	33083	32671	32962	32423	32567	32556	
1672	0	33466	32591	32978	32887	32786	32589	32735	32705	
1673	0	33781	32313	32901	32966	32658	32612	32793	32724	
1674	0	34360	32543	32799	32955	32321	32767	32679	32807	
1675	0	34535	32585	32612	33199	32429	32871	32886	32895	
1676	0	34368	31951	32626	33123	32061	32835	32842	32669	
1677	0	33750	32146	32706	33294	32275	32867	32903	32677	
1678	0	32903	32319	32467	33367	32391	32883	32803	32647	
1679	0	32130	32207	32225	33298	32731	32739	32663	32523	
1680	0	31189	31975	32255	33655	32943	32751	32735	32640	
1681	0	30934	32587	32035	33815	32918	32803	32519	32587	
1682	0	31055	32893	32179	33519	32935	32966	32715	32857	
1683	0	31382	33117	32549	32691	32781	32898	32767	32879	
1684	0	32130	33375	32941	31813	32951	32674	32655	32468	
1685	0	32978	33021	33309	32361	32690	32745	32634	32559	
1686	0	33784	32751	33371	32262	32971	32701	32579	32605	
1687	0	33625	32275	33024	32485	32845	32683	32751	32815	
1688	0	33741	32155	32903	33139	32983	32647	32623	32606	
1689	0	33775	32423	33047	33234	33095	32495	32558	32597	
1690	0	33483	32789	33183	32756	33091	32524	32287	32606	
1691	0	33509	32911	32646	32659	33159	32546	32531	32605	
1692	0	33387	32615	32471	32655	33053	32677	32493	32450	
1693	0	33029	32895	32386	33275	33127	32719	32423	32591	
1694	0	32832	33687	32547	33171	32893	32841	32599	32845	
1695	0	32665	34115	32685	33117	32835	32943	32683	33087	
1696	0	32438	34679	32854	32685	32663	32903	32790	33006	
1697	0	32383	33766	32765	31303	32695	32579	32612	32615	
1698	0	31983	32429	32583	30877	32530	32485	32662	32711	
1699	0	31702	31810	32599	30742	32443	32638	32676	32432	
1700	0	32263	31911	32505	32038	32476	32855	32917	32743	
1701	0	32526	32108	32539	33283	32167	32919	32946	32945	
1702	0	32310	32583	32534	34027	32571	32867	32822	32817	
1703	0	32301	32863	32499	34495	32813	32743	32647	32647	
1704	0	32563	32452	32642	34269	33063	32715	32471	32594	
1705	0	32959	32703	32623	32884	33196	32675	32539	32433	
1706	0	32623	33013	32566	31597	33103	32535	32453	32543	
1707	0	32991	32894	32577	31482	33065	32555	32599	32486	
1708	0	33159	32911	32535	32351	33039	32645	32631	32557	
1709	0	32633	32979	32551	32755	33047	32580	32615	32330	
1710	0	32471	32591	32815	32871	33051	32743	32701	32775	
1711	0	32068	32414	32852	33266	32887	32631	32599	32723	
1712	0	31618	32391	33081	33106	32903	32591	32658	32717	
1713	0	32047	32071	33167	33017	32591	32663	32658	32863	
1714	0	32135	31922	33399	33167	32571	32666	32838	32655	
1715	0	31545	32598	33230	33649	32687	32923	32775	32743	
1716	0	31655	32051	32969	34047	32843	33036	32673	32775	
1717	0	32030	32100	32635	33895	32343	32975	32855	32557	
1718	0	32550	33439	32647	33404	32149	32978	32873	32801	
1719	0	33106	34171	32487	32825	32023	32871	32991	32879	
1720	0	33452	33645	32507	31335	32431	32507	32843	32627	
1721	0	33628	33148	32551	31519	32475	32518	32715	32551	
1722	0	34375	33155	32584	32075	32311	32707	32887	32677	
1723	0	35386	32849	32797	32199	31983	32689	32885	32765	
1724	0	35923	32315	33171	32126	32575	32725	32652	32790	
1725	0	35593	31983	33247	31893	32791	32603	32571	32585	
1726	0	34719	32343	32785	32013	33131	32592	32498	32725	
1727	0	33484	32865	32506	32695	33153	32647	32607	32783	
1728	0	32825	32839	32553	32940	33258	32622	32607	32732	
1729	0	32127	32634	32567	33229	33396	32695	32514	32898	
1730	0	31890	32094	32609	33187	32897	32698	32514	32807	
1731	0	31501	31878	32860	33103	33087	32725	32486	32715	
1732	0	31239	32015	32639	32572	32628	32603	32803	32627	
1733	0	31205	32773	32541	32586	32613	32666	32863	32709	
1734	0	31518	33357	32150	33367	32399	32621	32850	32688	
1735	0	32116	33727	32297	33423	32447	32474	32815	32517	
1736	0	32340	33719	32709	32751	32558	32506	32575	32327	
1737	0	32497	33137	32963	32103	32679	32501	32668	32295	
1738	0	32552	33075	33071	32007	32683	32566	32609	32479	
1739	0	32793	32863	33195	32483	32518	32788	32681	32641	
1740	0	32556	32581	33239	32927	32719	32817	32690	32719	
1741	0	32348	32733	32882	33078	32763	32839	32752	32645	
1742	0	32560	32833	32846	32946	32977	32815	32635	32667	
1743	0	32822	32729	32775	32852	33036	32807	32543	32832	
1744	0	32970	32217	32847	32607	33082	32829	32475	32903	
1745	0	33495	31831	32775	32476	33011	32735	32517	32647	
1746	0	33659	32102	32562	32335	33100	32694	32623	32581	
1747	0	33238	32515	32487	32611	32847	32759	32570	32742	
1748	0	32930	32511	32431	33039	32823	32775	32675	32763	
1749	0	32410	32662	32475	33478	32597	32807	32681	32775	
1750	0	32481	32662	32383	33507	32815	32775	32487	32807	
1751	0	32455	32714	32644	33325	32671	32726	32639	32749	
1752	0	32063	32346	32725	32797	32815	32655	32533	32663	
1753	0	32467	32050	33042	32323	32790	32644	32687	32738	
1754	0	32570	32570	33107	32594	32533	32743	32721	32578	
1755	0	32847	32471	33122	32996	32838	32838	32810	32629	
1756	0	33375	32391	33205	32391	32805	32867	32815	32743	
1757	0	33647	32951	33108	32604	32999	32773	32799	32668	
1758	0	33655	33324	32751	32753	33083	32732	32790	32823	
1759	0	33175	33271	32356	32847	32791	32870	32690	32771	
1760	0	32612	33303	32203	33159	33004	32869	32705	32567	
1761	0	31879	33379	32049	33376	32978	32799	32479	32642	
1762	0	31364	33531	32263	33063	33089	32671	32449	32715	
1763	0	31830	33039	32578	32187	32910	32610	32647	32691	
1764	0	32705	32923	32814	31879	32823	32571	32658	32611	
1765	0	32742	32924	32812	32205	32731	32554	32796	32737	
1766	0	31477	33520	32821	32855	32543	32607	32655	32671	
1767	0	31719	33653	32793	33159	32558	32669	32811	32481	
1768	0	32327	33444	32743	33522	32454	32659	32770	32421	
1769	0	32883	33005	32732	33685	32663	32687	32833	32673	
1770	0	33558	32749	32727	32976	32443	32711	32775	32827	
1771	0	34274	32302	32811	31829	32674	32619	32609	32698	
1772	0	34156	31389	32819	31964	32646	32659	32668	32637	
1773	0	33829	31727	33028	32471	32695	32699	32626	32765	
1774	0	33607	31931	33231	32163	32591	32783	32715	32773	
1775	0	33092	32559	33135	32317	32876	32775	32681	32759	
1776	0	32601	32567	32847	32735	32717	32859	32486	32791	
1777	0	32639	32678	32966	32730	33143	32858	32693	32507	
1778	0	32359	33071	32811	32655	32879	32822	32713	32599	
1779	0	32165	32231	32903	32663	33078	32703	32587	32581	
1780	0	32169	31815	32662	32683	32927	32727	32580	32748	
1781	0	32509	32229	32755	32975	33082	32782	32589	32730	
1782	0	32603	32606	32883	33199	32855	32703	32615	32630	
1783	0	32669	32495	32819	33598	33013	32681	32609	32718	
1784	0	32969	32423	32723	33644	32454	32799	32692	32818	
1785	0	33052	32361	32486	32859	32193	32718	32868	32775	
1786	0	33164	32487	32279	32404	31783	32647	32951	32647	
1787	0	33485	32531	32215	32127	31963	32662	32855	32514	
1788	0	33359	32574	32391	32287	32080	32593	32869	32486	
1789	0	32713	32918	32603	32731	32577	32479	32596	32551	
1790	0	32111	33787	32813	33199	32671	32507	32698	32578	
1791	0	31839	33700	32716	33061	32997	32647	32667	32613	
1792	0	31661	33641	32911	32362	33005	32638	32607	32685	
1793	0	32090	33213	32843	32135	32940	32770	32695	32719	
1794	0	33167	32439	33059	31885	32887	32839	32749	32823	
1795	0	33924	32342	32959	32095	33139	32887	32630	32903	
1796	0	34142	32757	33069	32859	33077	32795	32549	32903	
1797	0	34083	32647	32967	33079	33191	32775	32389	32623	
1798	0	33660	32379	32871	33075	33175	32791	32571	32547	
1799	0	33042	32531	32843	33195	32971	32834	32675	32521	
1800	0	32740	32975	32782	32875	32698	32766	32789	32535	
1801	0	32940	33335	32431	32793	32323	32739	32745	32709	
1802	0	32557	33159	32275	32893	32549	32684	32749	32721	
1803	0	32008	32831	32558	32470	32477	32621	32715	32591	
1804	0	31782	32951	32687	32505	32709	32588	32645	32521	
1805	0	31687	32775	32703	32967	32543	32655	32514	32579	
1806	0	31528	32587	32797	33193	32683	32676	32767	32647	
1807	0	31700	32644	32877	33287	32695	32738	32803	32567	
1808	0	31917	33095	32903	33379	32842	32787	32565	32679	
1809	0	32087	32503	32775	32518	32739	32647	32647	32691	
1810	0	32084	32783	32551	32084	32823	32583	32590	32461	
1811	0	32415	32431	32615	32279	32968	32679	32621	32643	
1812	0	33222	32173	32973	32748	32702	32749	32655	32903	
1813	0	33609	32063	33110	33115	32959	32825	32581	32887	
1814	0	33806	32070	32842	33108	32829	32902	32507	32642	
1815	0	34298	32175	32580	33350	33119	32823	32621	32573	
1816	0	34143	32647	32887	33237	33013	32714	32477	32687	
1817	0	33689	33121	32845	32775	33063	32743	32663	32710	
1818	0	32810	33499	32850	32485	32718	32948	32782	32895	
1819	0	32036	33693	32617	32018	32590	32819	32660	32807	
1820	0	31663	33581	32645	32231	32332	32775	32678	32562	
1821	0	31601	33959	32658	33007	32646	32679	32708	32583	
1822	0	32625	33053	32642	33623	32431	32770	32515	32743	
1823	0	32981	32911	32692	33309	32689	32782	32679	32775	
1824	0	33107	32607	32646	32848	32645	32573	32727	32647	
1825	0	33102	32019	32455	31965	32851	32598	32647	32483	
1826	0	32740	32082	32343	31855	32631	32690	32691	32659	
1827	0	32574	32503	32247	32487	32956	32714	32771	32562	
1828	0	32631	32667	32318	33111	32823	32731	32621	32449	
1829	0	32862	32122	32629	33593	32967	32775	32705	32508	
1830	0	32910	31982	32901	33788	32914	32643	32759	32692	
1831	0	32866	32726	33135	32842	32807	32519	32578	32545	
1832	0	32873	32903	33125	31994	32767	32481	32701	32629	
1833	0	32634	33607	33173	31895	32711	32539	32700	32710	
1834	0	32609	33490	33317	32067	32885	32511	32583	32607	
1835	0	33266	33024	33159	32151	32771	32587	32642	32504	
1836	0	33384	32927	32955	32683	32957	32723	32615	32647	
1837	0	33770	31943	32795	32932	32743	32839	32510	32698	
1838	0	33983	31591	32703	32758	32673	32903	32775	32883	
1839	0	33287	31871	32637	32647	32787	32831	32801	32775	
1840	0	32633	32185	32559	32799	32735	32716	32567	32764	
1841	0	32421	32710	32501	32459	32759	32733	32695	32571	
1842	0	31783	32723	32463	32143	32746	32717	32606	32459	
1843	0	31919	32773	32628	32179	32723	32748	32466	32570	
1844	0	32317	32721	32724	32633	32711	32754	32727	32631	
1845	0	32295	32420	32743	33047	32647	32783	32677	32615	
1846	0	32445	32571	32763	33317	32665	32863	32559	32870	
1847	0	32358	33261	32857	33696	32583	32962	32725	32863	
1848	0	32108	33847	32727	33383	32510	32741	32766	32537	
1849	0	32578	33711	32605	32857	32559	32573	32503	32565	
1850	0	33359	33756	32875	32837	32741	32609	32663	32759	
1851	0	33449	33978	32997	32845	32932	32631	32699	32559	
1852	0	33867	33683	32941	32885	32898	32639	32507	32647	
1853	0	34186	33213	32839	32862	32965	32619	32646	32573	
1854	0	33601	32868	32975	32813	32854	32627	32559	32493	
1855	0	32817	32647	32859	33229	32985	32821	32701	32745	
1856	0	31717	32268	32786	33501	32775	32918	32743	33076	
1857	0	31494	32334	32527	32943	32853	32891	32591	32743	
1858	0	31591	32519	32600	32567	32662	32767	32807	32828	
1859	0	32001	32315	32471	32359	32801	32700	32807	32723	
1860	0	32301	32495	32455	31927	32731	32647	32570	32595	
1861	0	32758	32340	32391	32065	32881	32647	32743	32582	
1862	0	33017	32065	32775	32895	32727	32691	32726	32700	
1863	0	33100	32107	32775	33235	32999	32729	32676	32593	
1864	0	32854	32249	32881	33133	32789	32703	32574	32774	
1865	0	32338	32307	32767	33436	33151	32819	32448	32755	
1866	0	32135	32223	32511	33311	32955	32822	32617	32719	
1867	0	32450	32293	32719	32498	33130	32751	32581	32707	
1868	0	33222	31739	33010	31802	32741	32742	32497	32807	
1869	0	33399	31991	33004	31909	32823	32599	32719	32663	
1870	0	32932	32451	32899	32391	32735	32535	32719	32627	
1871	0	32356	32815	32687	32821	32751	32617	32670	32647	
1872	0	32453	32711	32603	33221	32551	32658	32795	32660	
1873	0	32495	32900	32925	32863	32642	32749	32793	32639	
1874	0	32698	33249	32853	32787	32571	32810	32571	32695	
1875	0	33231	33245	32863	33287	32413	32775	32775	32593	
1876	0	33271	32863	32659	33053	32122	32803	32868	32671	
1877	0	33323	32617	32903	32343	32270	32690	32923	32763	
1878	0	33229	32621	32902	32107	32356	32707	32871	32695	
1879	0	32980	33030	32860	31849	32607	32628	32516	32546	
1880	0	32888	33173	32745	32391	32743	32674	32719	32466	
1881	0	32985	33170	32783	32691	32916	32751	32567	32460	
1882	0	32906	33053	32617	32719	33053	32751	32590	32482	
1883	0	32863	33109	32647	32528	33183	32769	32535	32613	
1884	0	32890	32691	32615	32835	33005	32667	32595	32573	
1885	0	32787	32491	32623	32658	33115	32647	32503	32663	
1886	0	33159	32495	32685	32403	32878	32613	32599	32551	
1887	0	33103	31861	32565	32969	32842	32723	32711	32627	
1888	0	32911	31916	32743	33676	32791	32891	32707	32738	
1889	0	32916	32647	32604	34239	32658	32903	32708	32831	
1890	0	32423	32914	32655	33858	32607	32743	32679	32739	
1891	0	31971	33460	32539	33222	32551	32617	32683	32623	
1892	0	32174	34155	32487	32595	32391	32605	32731	32620	
1893	0	32589	33855	32609	32406	32643	32599	32634	32647	
1894	0	32839	33459	32523	32455	32783	32637	32703	32626	
1895	0	33298	33110	32519	32065	32873	32630	32709	32621	
1896	0	33714	32604	32585	31810	32971	32681	32607	32659	
1897	0	33496	32686	32775	32263	33025	32823	32647	32599	
1898	0	33120	32719	32935	32391	33115	32775	32613	32756	
1899	0	32406	32836	33010	32598	33123	32775	32407	32675	
1900	0	32114	32845	33058	32639	33086	32817	32603	32671	
1901	0	31901	32950	33053	32571	32765	32835	32737	32673	
1902	0	31779	32739	33147	32740	32630	32855	32638	32786	
1903	0	32044	32532	33063	33067	32485	32852	32793	32783	
1904	0	32352	32457	32943	33203	32647	32839	32895	32902	
1905	0	32391	32279	32662	33151	32645	32892	32762	32959	
1906	0	32538	31945	32407	32860	32751	32767	32808	32663	
1907	0	32632	31965	32311	32391	32740	32679	32821	32453	
1908	0	32668	32123	32318	32455	32771	32679	32708	32573	
1909	0	32856	31927	32423	32799	32727	32614	32660	32586	
1910	0	33022	31834	32479	32341	32899	32391	32469	32639	
1911	0	33027	32343	32791	32471	32865	32591	32673	32518	
1912	0	33124	32623	32837	32809	32969	32624	32537	32487	
1913	0	33330	32753	32791	32987	32901	32735	32614	32687	
1914	0	33016	33019	32789	33149	32773	32763	32685	32755	
1915	0	32839	32821	32975	32877	32815	32726	32687	32721	
1916	0	32752	32658	33055	32850	32726	32759	32722	32715	
1917	0	32601	32436	33042	32838	32762	32806	32615	32607	
1918	0	32809	32161	33023	32839	32429	32773	32726	32635	
1919	0	33101	32527	32833	32836	32614	32855	32790	32771	
1920	0	32815	32466	32855	32775	32522	32839	32585	32631	
1921	0	32732	32790	32724	32935	32681	32834	32730	32547	
1922	0	33137	32891	32717	32959	32591	32731	32759	32629	
1923	0	33222	32839	32747	32963	32903	32677	32566	32645	
1924	0	33095	32895	32715	33158	32871	32637	32623	32711	
1925	0	33125	33283	32615	33332	32999	32670	32533	32540	
1926	0	32999	33473	32487	33050	32923	32677	32615	32601	
1927	0	32867	33251	32380	32327	33057	32742	32590	32606	
1928	0	32817	33281	32341	32711	32775	32785	32503	32749	
1929	0	32695	33351	32625	32799	32831	32660	32628	32749	
1930	0	32732	33187	32763	32471	32573	32604	32647	32771	
1931	0	32171	33415	32838	32870	32690	32718	32627	32960	
1932	0	31386	33299	32763	32745	32511	32723	32663	32719	
1933	0	31019	33098	32858	32367	32595	32713	32583	32737	
1934	0	31391	32755	32734	32189	32445	32655	32804	32685	
1935	0	32014	32391	32891	32487	32599	32729	32860	32762	
1936	0	32524	32479	32701	32560	32571	32738	32663	32767	
1937	0	33222	32722	32879	32455	32577	32740	32765	32789	
1938	0	34012	32471	32963	32483	32844	32806	32575	32469	
1939	0	34171	32191	32985	32685	32845	32828	32756	32535	
1940	0	33970	31901	32947	32646	32847	32747	32663	32510	
1941	0	33461	32475	32832	32583	32903	32759	32498	32543	
1942	0	32951	32767	32751	32935	32811	32801	32653	32723	
1943	0	32576	32961	32569	33258	32854	32773	32724	32694	
1944	0	32185	32903	32607	33351	32974	32638	32550	32615	
1945	0	32237	33155	32564	33511	33114	32607	32455	32772	
1946	0	32619	33078	32487	33287	33223	32595	32331	32527	
1947	0	32702	32743	32551	32903	32711	32629	32621	32631	
1948	0	32578	32315	32655	32959	32719	32575	32639	32641	
1949	0	32470	31903	32678	32831	32543	32607	32727	32679	
1950	0	32753	31538	32769	32359	32619	32559	32839	32605	
1951	0	33141	31043	32909	31989	32605	32439	32823	32625	
1952	0	33316	31836	32987	32103	32639	32599	32811	32623	
1953	0	33082	31919	32943	31855	32679	32605	32623	32765	
1954	0	32985	32007	32950	32187	32417	32639	32804	32786	
1955	0	33030	32555	32759	32484	32462	32783	32849	32655	
1956	0	33034	33087	32857	32863	32339	32754	32807	32611	
1957	0	33024	33071	32600	32807	32615	32879	32831	32734	
1958	0	32893	33723	32495	32862	32621	32903	32527	32727	
1959	0	32817	34125	32485	33210	32811	32933	32687	32775	
1960	0	32742	34195	32634	33335	32881	32879	32635	32789	
1961	0	32687	33895	32615	33238	32884	32757	32668	32607	
1962	0	32726	33298	32643	32885	32915	32735	32679	32562	
1963	0	32964	32855	32555	32887	32845	32717	32711	32407	
1964	0	32941	32583	32729	33027	32933	32719	32763	32711	
1965	0	32868	32687	32630	32986	32875	32754	32457	32711	
1966	0	32242	32743	32711	32775	33055	32669	32538	32660	
1967	0	31818	32633	32879	32518	32919	32631	32447	32827	
1968	0	31680	32614	32965	32333	33026	32563	32567	32527	
1969	0	31910	32450	32823	32423	32962	32629	32647	32647	
1970	0	31915	32367	32927	32582	33005	32647	32671	32669	
1971	0	32281	32743	32645	32743	32971	32738	32647	32743	
1972	0	32762	32775	32599	32959	32671	32596	32647	32699	
1973	0	33586	32747	32607	32635	32575	32671	32817	32756	
1974	0	34048	32541	32956	32407	32199	32711	32667	32510	
1975	0	33739	32441	32863	32615	32130	32797	32950	32725	
1976	0	33654	32228	32749	32859	32135	32879	32897	32756	
1977	0	33445	32054	32529	33039	32476	32951	32703	32807	
1978	0	33201	32076	32605	33167	32587	32931	32722	32815	
1979	0	33720	32274	32599	33153	32747	32919	32574	32807	
1980	0	33586	32441	32619	33319	32859	32863	32615	32801	
1981	0	32642	32925	32541	33212	32883	32759	32706	32644	
1982	0	31794	33215	32577	32788	33043	32770	32689	32775	
1983	0	31191	33223	32639	32854	32743	32701	32647	32703	
1984	0	30875	33316	32751	32466	32951	32647	32457	32582	
1985	0	31346	33607	32743	32455	32847	32647	32647	32546	
1986	0	31545	33603	32859	32633	32921	32709	32623	32578	
1987	0	32172	33211	32763	32862	32885	32772	32635	32663	
1988	0	32427	33663	32879	32669	32967	32653	32647	32629	
1989	0	32692	33871	32863	32586	32917	32493	32543	32597	
1990	0	32890	33594	32827	32609	32967	32387	32590	32615	
1991	0	33200	33088	32775	32837	33035	32343	32411	32663	
1992	0	33052	32762	32871	32551	32742	32324	32668	32471	
1993	0	33021	32430	32903	32263	32899	32538	32820	32439	
1994	0	33167	31995	32646	32525	32703	32591	32533	32463	
1995	0	33741	31850	32511	32751	32819	32685	32658	32566	
1996	0	33895	32015	32285	32451	32727	32837	32763	32639	
1997	0	33263	31939	32391	32391	32738	32773	32641	32743	
1998	0	33177	32143	32485	32956	32647	32850	32709	32799	
1999	0	33150	32423	32431	32854	32668	32775	32846	32715	
2000	0	32754	32799	32607	32699	32655	32807	32593	32677	
2001	0	32995	33010	32626	32803	32703	32839	32727	32871	
2002	0	33010	32993	32685	32518	32726	32895	32611	32711	
2003	0	32654	33086	32599	32354	32579	32902	32791	32871	
2004	0	32716	32829	32789	32533	32549	32807	32813	32873	
2005	0	32574	32725	32767	32543	32622	32723	32589	32735	
2006	0	32421	32902	32871	32635	32775	32623	32763	32739	
2007	0	32511	32956	32991	32959	32642	32561	32799	32615	
2008	0	32838	32623	32971	33190	32741	32612	32535	32532	
2009	0	32983	32189	33018	33043	32759	32662	32647	32666	
2010	0	32799	32413	33071	33120	32879	32706	32596	32813	
2011	0	32545	32863	33214	33055	32756	32673	32708	32699	
2012	0	32338	32771	32966	32881	32921	32711	32666	32623	
2013	0	32180	32806	33001	33143	32869	32556	32525	32594	
2014	0	32293	32583	32962	32911	32991	32587	32615	32571	
2015	0	32717	32487	32790	32871	32903	32694	32619	32487	
2016	0	33129	32511	32733	32855	32927	32775	32563	32515	
2017	0	33311	32598	32658	32786	32598	32819	32727	32631	
2018	0	33292	32570	32443	32769	32738	32867	32515	32602	
2019	0	33057	32603	32455	32762	32686	32775	32621	32727	
2020	0	32839	32711	32402	32551	32799	32791	32555	32631	
2021	0	32726	32800	32343	32603	32823	32761	32636	32571	
2022	0	32463	33043	32146	32710	32807	32839	32678	32757	
2023	0	32459	33223	32247	32745	32927	32855	32847	32810	
2024	0	32599	33314	32479	32567	32743	32775	32737	32854	
2025	0	32705	33199	32538	32495	32835	32727	32693	32877	
2026	0	32947	32671	32543	32806	32886	32759	32749	32606	
2027	0	32799	33026	32731	32884	32610	32663	32517	32599	
2028	0	32903	32703	32720	32787	32751	32722	32751	32711	
2029	0	32925	32479	32847	32765	32613	32571	32495	32583	
2030	0	33023	32439	32731	32635	32809	32469	32681	32629	
2031	0	33030	32423	32879	32661	32917	32539	32719	32743	
2032	0	33139	32719	32963	32943	32801	32620	32507	32620	
2033	0	32998	32739	33135	32851	32843	32615	32589	32551	
2034	0	33025	32659	33223	32743	32555	32584	32647	32734	
2035	0	32722	32951	33223	32727	32767	32687	32749	32581	
2036	0	32640	32831	33174	32380	32655	32806	32694	32580	
2037	0	31847	32863	33108	32343	32817	32791	32543	32645	
2038	0	31608	32754	33116	32805	32815	32903	32677	32831	
2039	0	31991	32607	32879	32871	32819	32903	32766	32659	
2040	0	32398	32315	33007	32795	32863	32873	32535	32533	
2041	0	32656	32467	32799	32925	32823	32895	32685	32783	
2042	0	32679	32311	32719	33143	32871	32859	32599	32837	
2043	0	32925	32221	32151	33052	32743	32821	32775	32685	
2044	0	33175	32563	32095	33362	32717	32772	32756	32727	
2045	0	32930	33213	31956	33751	32641	32786	32685	32855	
2046	0	33033	33348	32199	33639	32847	32764	32807	32903	
2047	0	32841	33321	32190	33141	32507	32681	32751	32815	
2048	0	32387	33339	32413	31913	32898	32577	32608	32743	
2049	0	32292	33102	32731	31799	32591	32506	32667	32501	
2050	0	32708	32679	32860	31913	32927	32367	32532	32439	
2051	0	32930	32295	32764	31431	32661	32299	32630	32378	
2052	0	32937	32319	32805	31437	32815	32468	32711	32564	
2053	0	32899	32375	32775	32099	32639	32694	32566	32668	
2054	0	32772	32415	32708	32695	32811	32683	32703	32755	
2055	0	32949	32619	32743	32835	32704	32766	32690	32641	
2056	0	33156	32829	32773	32807	32798	32799	32545	32679	
2057	0	33083	32959	32882	32887	32627	32783	32687	32679	
2058	0	33138	32845	32762	33254	32706	32855	32747	32839	
2059	0	33018	32855	32795	33287	32511	32851	32693	32655	
2060	0	32575	32807	32807	33143	32695	32775	32716	32516	
2061	0	32084	32607	32903	33391	32655	32783	32543	32708	
2062	0	31935	32676	32703	33329	32775	32783	32679	32624	
2063	0	32331	32452	32852	33015	32947	32763	32567	32655	
2064	0	32763	32367	32758	32993	32773	32759	32681	32511	
2065	0	33308	32630	32901	32999	32941	32710	32687	32640	
2066	0	33587	33099	32754	32887	32739	32801	32601	32700	
2067	0	33637	33459	32841	32814	32775	32775	32690	32687	
2068	0	33327	33711	32789	32635	32647	32687	32693	32671	
2069	0	33143	33467	32803	32375	32679	32655	32709	32886	
2070	0	32895	33606	32853	32231	32673	32679	32833	32665	
2071	0	32557	33551	32806	32271	32635	32548	32743	32663	
2072	0	32403	32915	32647	32493	32644	32573	32755	32598	
2073	0	32094	32700	32624	32508	32647	32589	32673	32738	
2074	0	31860	32819	32735	32591	32863	32589	32795	32562	
2075	0	32221	32301	32595	32791	32884	32843	32669	32655	
2076	0	32542	31853	32775	33006	32903	32827	32733	32822	
2077	0	32806	31716	32724	32855	33071	32899	32527	32850	
2078	0	33119	31731	32789	32867	32916	32823	32599	32631	
2079	0	33143	32383	32557	32895	32951	32829	32675	32551	
2080	0	32982	32506	32607	32869	32823	32855	32543	32636	
2081	0	32839	32711	32551	33006	32867	32868	32647	32812	
2082	0	33102	32951	32727	32763	32647	32655	32619	32647	
2083	0	33267	32347	32711	32711	32621	32684	32767	32719	
2084	0	32982	32069	32773	32879	32332	32647	32749	32501	
2085	0	32766	32254	32600	32815	32566	32727	32775	32687	
2086	0	32580	32579	32689	32847	32647	32743	32765	32602	
2087	0	32734	31929	32547	32658	32569	32767	32702	32703	
2088	0	32932	31859	32679	32447	32787	32737	32749	32566	
2089	0	32820	32642	32700	33019	32734	32692	32647	32579	
2090	0	32858	33203	32879	33019	32735	32663	32659	32609	
2091	0	32768	33635	32900	32771	32818	32487	32647	32487	
2092	0	32876	33652	33117	32687	32895	32591	32647	32687	
2093	0	33106	33499	32975	33014	32982	32687	32739	32711	
2094	0	33345	32983	33039	32983	33218	32743	32511	32757	
2095	0	33246	32918	32815	33031	33258	32734	32548	32787	
2096	0	33332	32903	32742	33337	33357	32703	32619	32775	
2097	0	33092	32735	32535	33022	32983	32767	32619	32663	
2098	0	32532	32959	32543	32959	32995	32866	32683	32639	
2099	0	32050	33149	32327	32564	33083	32823	32671	32751	
2100	0	32015	32570	32455	32487	32951	32887	32690	32748	
2101	0	32038	32391	32438	32899	32806	32806	32579	32699	
2102	0	31888	32806	32565	32927	32436	32815	32807	32803	
2103	0	31910	33303	32525	32741	32145	32765	32769	32525	
2104	0	32260	33575	32509	33015	31718	32682	32911	32749	
2105	0	32374	33695	32628	32678	31983	32607	32931	32666	
2106	0	32726	33159	32792	31483	32191	32473	32871	32566	
2107	0	33283	32623	32967	31018	32519	32391	32843	32429	
2108	0	33552	32332	33068	31711	32665	32463	32614	32431	
2109	0	33215	32361	33010	32103	32935	32635	32748	32591	
2110	0	32876	32603	33093	32518	32927	32631	32621	32775	
2111	0	32510	32551	33067	32671	33101	32567	32557	32668	
2112	0	32229	32599	33098	32933	33143	32539	32599	32663	
2113	0	32413	32391	32935	33038	33088	32595	32639	32591	
2114	0	32452	32836	32903	33023	33181	32639	32655	32484	
2115	0	32615	32884	32879	32937	33075	32665	32421	32477	
2116	0	32802	32799	32775	32957	33115	32681	32607	32691	
2117	0	32731	32643	32815	32911	32677	32727	32607	32603	
2118	0	32830	32508	32839	32849	32743	32825	32735	32889	
2119	0	32804	32583	32845	32783	32487	32839	32768	32899	
2120	0	32637	32389	32763	32919	32549	32771	32647	32479	
2121	0	32013	32391	32643	33073	32420	32738	32739	32669	
2122	0	31899	32423	32447	32901	32539	32639	32561	32535	
2123	0	32567	32006	32627	33055	32743	32731	32700	32686	
2124	0	33166	31971	32564	33019	32610	32739	32531	32603	
2125	0	33361	32513	32647	33095	32861	32724	32644	32686	
2126	0	33352	32903	32655	33019	32773	32759	32545	32846	
2127	0	33610	33333	32789	32775	32910	32808	32687	32876	
2128	0	33956	33065	32707	32943	32857	32823	32687	33014	
2129	0	33663	33051	32765	33005	32955	32695	32580	32731	
2130	0	33139	32852	32843	32943	33003	32722	32699	32719	
2131	0	33036	32447	32874	32973	32711	32683	32525	32658	
2132	0	33207	32283	32839	33110	32895	32716	32658	32863	
2133	0	33303	32220	32971	33074	33047	32743	32515	32666	
2134	0	33255	32372	33099	32915	32749	32723	32671	32751	
2135	0	32509	32423	33015	32773	32869	32677	32515	32639	
2136	0	31866	32482	32986	32815	32884	32716	32631	32717	
2137	0	31649	33142	32799	32703	32692	32703	32527	32463	
2138	0	31268	33314	32735	32495	32731	32634	32658	32535	
2139	0	32031	32928	32583	32175	32791	32543	32605	32543	
2140	0	32948	32783	32454	32463	32511	32659	32702	32558	
2141	0	32925	33141	32515	32578	32485	32647	32715	32553	
2142	0	32926	33410	32429	32631	32314	32694	32891	32681	
2143	0	32619	33395	32367	32605	32204	32789	32826	32719	
2144	0	32417	33281	32469	32235	32171	32767	32950	32663	
2145	0	32700	32823	32493	32050	32407	32635	32687	32603	
2146	0	33223	32013	32839	32291	32466	32707	32743	32692	
2147	0	33220	31955	32865	32549	32757	32683	32615	32775	
