# OpenSignals Text File Format
# {"00:07:80:3B:46:38": {"sensor": ["CUSTOM/0.5/1.0/V", "CUSTOM/0.5/1.0/V", "CUSTOM/0.5/1.0/V", "CUSTOM/0.5/1.0/V", "CUSTOM/0.5/1.0/V", "CUSTOM/0.5/1.0/V", "CUSTOM/0.5/1.0/V", "CUSTOM/0.5/1.0/V"], "device name": "EMGs", "column": ["nSeq", "DI", "RA_L", "RA_R", "OE_L", "OE:R", "IL_L", "IL_R", "MF_L", "MF_R"], "sync interval": 2, "time": "16:13:19.901", "comments": "", "device connection": "BTH00:07:80:3B:46:38", "channels": [1, 2, 3, 4, 5, 6, 7, 8], "date": "2017-5-22", "mode": 0, "digital IO": [0, 1], "firmware version": 772, "device": "biosignalsplux", "position": 0, "sampling rate": 1000, "label": ["RA_L", "RA_R", "OE_L", "OE:R", "IL_L", "IL_R", "MF_L", "MF_R"], "resolution": [16, 16, 16, 16, 16, 16, 16, 16], "special": [{}, {}, {}, {}, {}, {}, {}, {}]}}
# EndOfHeader
0	0	32846	33029	33159	32787	33039	32663	32743	32439	
1	0	32865	33022	33037	32914	32682	32973	32720	32734	
2	0	32793	33128	33023	33357	32581	32863	32758	32614	
3	0	32544	33159	32951	33431	32681	33051	32710	32983	
4	0	32523	33135	32770	33259	32879	32973	32753	32927	
5	0	32379	33175	32741	33015	33003	32659	32663	32807	
6	0	31935	33548	32525	33095	32708	32647	32529	32887	
7	0	31798	33728	32763	32827	32713	32663	32847	32612	
8	0	32000	33782	33031	32506	32831	32493	32715	32719	
9	0	32194	33863	33117	32123	32751	32617	32609	32791	
10	0	32279	33973	33239	32064	32815	32729	32639	32818	
11	0	32455	33844	32951	32391	32923	32684	32767	32676	
12	0	32676	33653	32903	31799	32738	32695	32673	32741	
13	0	32988	32971	32791	31841	32623	32741	32851	32753	
14	0	33476	32435	32263	32303	32603	32810	32839	32754	
15	0	34105	31818	32127	32323	32870	32725	32823	32755	
16	0	34306	31331	32227	32318	32804	32754	32567	32821	
17	0	34228	30581	32584	32493	32670	32671	32453	32762	
18	0	34029	30214	32350	32590	32487	32855	32759	32887	
19	0	33519	30739	32518	32863	32609	32843	32825	32791	
20	0	33070	31431	32359	32991	32865	32775	32767	32818	
21	0	32652	32429	32326	32949	32845	32725	32954	32629	
22	0	32276	33619	32415	32948	32893	32671	32958	32813	
23	0	32366	34063	32642	32883	32903	32501	32918	32594	
24	0	32679	33795	32179	32734	32900	32619	32775	32564	
25	0	32482	33591	32263	32735	32967	32593	32753	32734	
26	0	32452	33159	32361	32551	32819	32722	32797	32647	
27	0	32637	32941	32561	32226	32731	32784	32763	32699	
28	0	32818	32372	32659	32020	32677	32775	32742	32695	
29	0	32956	32043	32679	32125	32743	32967	32723	32879	
30	0	33044	31803	32275	32297	32466	33013	32747	32903	
31	0	32768	32116	32634	32423	32521	32925	32613	32855	
32	0	32577	32791	32815	32811	32919	32637	32757	32739	
33	0	32597	32847	32931	33031	32923	32583	33045	32611	
34	0	32796	32711	32799	33146	32707	32429	33045	32643	
35	0	32927	32775	32811	33215	32791	32599	32803	32604	
36	0	32933	32691	32579	33093	32799	32567	32643	32799	
37	0	33087	32578	32510	32995	32737	32591	32775	32647	
38	0	32923	32274	32247	32677	32731	32607	32836	32590	
39	0	32873	32093	32382	32487	32711	32638	32647	32700	
40	0	32871	32227	32852	32591	32783	32587	32551	32610	
41	0	32935	32471	33061	32859	32903	32583	32705	32690	
42	0	32608	32671	33086	33039	32775	32645	32525	32831	
43	0	32563	32951	33029	33013	32839	32775	32508	32693	
44	0	32663	33584	33085	32511	32695	32923	32399	32751	
45	0	32607	33647	33103	32388	32607	32797	32644	32656	
46	0	32637	33515	32747	32797	32806	32767	32959	32631	
47	0	32511	33485	32461	32893	32823	32775	32917	32627	
48	0	32429	33124	32263	32540	32825	32731	32809	32735	
49	0	32362	32593	32418	32242	32774	32690	32819	32879	
50	0	32468	32839	32533	32337	32807	32710	32796	32743	
51	0	32289	32917	32495	32419	32813	32670	32748	32851	
52	0	32324	32805	32659	32447	32790	32814	32685	32763	
53	0	32457	32983	32499	32631	32771	32775	32766	32695	
54	0	32562	33079	32503	32807	32815	32726	32605	32679	
55	0	32903	33021	32562	33043	32839	32735	32727	32637	
56	0	33122	32923	32802	33031	32758	32748	32820	32711	
57	0	33207	33011	32994	32845	32741	32719	32877	32740	
58	0	33156	32821	32954	32821	32818	32679	32885	32679	
59	0	33010	32519	32887	32711	32773	32679	32847	32841	
60	0	32880	32237	32946	32775	32820	32721	32819	32765	
61	0	32825	32295	32719	32851	32869	32745	33015	32787	
62	0	32730	32253	32811	32811	32851	32931	32817	32854	
63	0	32735	32471	32735	32760	32775	32695	32727	32832	
64	0	32647	32509	32639	32836	32733	32631	32607	32915	
65	0	32754	32559	32647	32727	32593	32594	32503	32807	
66	0	32827	32589	32450	32636	32627	32634	32415	32763	
67	0	32818	32871	32363	32687	32876	32445	32839	32439	
68	0	32814	32993	32586	32743	32642	32771	32553	32850	
69	0	32869	32941	32463	32567	32613	32647	32215	32903	
70	0	32873	32897	32643	32669	32871	32731	32679	32739	
71	0	32899	32703	32505	32699	32979	32684	32951	32743	
72	0	32862	32691	32514	32655	32807	32647	32767	32443	
73	0	32844	32645	32575	32634	32712	32631	32763	32436	
74	0	32802	32805	32607	32639	32903	32585	32973	32694	
75	0	32700	32955	32463	32598	32773	32771	32839	32735	
76	0	32647	33119	32695	32711	32717	32940	32439	32869	
77	0	32624	32863	32716	32679	32711	32900	32347	32799	
78	0	32679	32873	32747	32733	32923	32759	32598	32775	
79	0	32634	32803	32703	32791	32758	32591	32903	32775	
80	0	32636	32623	32867	32683	32763	32759	33051	32615	
81	0	32669	32706	32613	32722	32700	32711	32992	32783	
82	0	32679	32849	32647	32733	32694	32801	32797	32703	
83	0	32758	32932	32805	32755	32813	32789	32687	32863	
84	0	32810	32919	32771	32681	32855	32675	32695	32703	
85	0	32702	32837	32667	32627	32677	32647	32814	32638	
86	0	32689	32975	32627	32603	32823	32582	32739	32694	
87	0	32718	33119	32727	32597	32826	32433	32775	32543	
88	0	32682	32930	32452	32559	32575	32756	32692	32659	
89	0	32722	32882	32343	32519	32433	32695	32575	32647	
90	0	32796	33003	32329	32631	32391	32834	32470	32595	
91	0	32807	32831	32356	32658	32541	32620	32767	32695	
92	0	32841	32629	32495	32521	33319	32281	33314	32519	
93	0	32794	32515	32586	32619	33082	32677	32917	32749	
94	0	32820	32350	32555	32698	32977	32759	32764	32775	
95	0	32797	32452	32727	32718	32795	32758	32743	32687	
96	0	32742	32411	32749	32743	32823	32823	32629	32677	
97	0	32788	32437	32565	32576	32799	32882	32621	32631	
98	0	32722	32583	32719	32573	32637	32924	32629	32759	
99	0	32668	32690	32807	32507	32459	32978	32799	32821	
100	0	32729	32549	32903	32543	32751	32919	33055	32607	
101	0	32732	32735	32941	32621	32998	32647	32979	32695	
102	0	32730	32879	32951	32644	33017	32535	32949	32663	
103	0	32717	32822	32903	32697	32855	32715	32739	32717	
104	0	32689	32727	32923	32835	32812	32773	32631	32687	
105	0	32588	32799	32901	32835	32771	32630	32590	32573	
106	0	32683	32647	32821	32830	32775	32799	32847	32709	
107	0	32749	32699	32489	32895	32692	32786	32691	32723	
108	0	32771	32871	32314	32991	32751	32742	32583	32903	
109	0	32819	32851	32383	33133	32903	32564	32601	32734	
110	0	32840	32863	32370	33103	32827	32715	32566	32647	
111	0	32785	32847	32647	32841	32578	32775	32647	32764	
112	0	32828	32823	32689	32642	32939	32722	32866	32692	
113	0	32864	32743	32647	32459	32899	32660	32863	32551	
114	0	32860	32739	32687	32029	32772	32525	32925	32667	
115	0	32847	32692	32707	31919	32681	32726	32895	32628	
116	0	32758	32807	32859	32226	32603	32733	32839	32722	
117	0	32679	33069	32967	32279	32666	32903	32581	32700	
118	0	32656	33415	33015	32038	32803	32663	32677	32647	
119	0	32594	33403	32855	32130	32797	32748	32721	32853	
120	0	32698	33234	32911	32132	32647	32535	32863	32781	
121	0	32731	33030	32858	32167	32583	32695	32999	32571	
122	0	32757	32645	32689	32359	32613	32493	33031	32562	
123	0	32854	32498	32509	32479	32743	32466	33055	32541	
124	0	32895	32566	32479	32543	32918	32449	32827	32647	
125	0	32824	32551	32493	32814	32594	32799	32431	32826	
126	0	32765	32487	32220	32867	32620	32626	32572	32719	
127	0	32775	32242	32231	32747	32966	32683	32911	32730	
128	0	32725	32491	32231	32722	33004	32613	32831	32814	
129	0	32632	32983	32274	32694	32423	33015	32443	32971	
130	0	32607	33050	32329	32839	32338	32933	32382	33039	
131	0	32688	32745	32447	32982	32413	32740	33245	32509	
132	0	32729	32511	32209	33007	32775	32773	33049	32607	
133	0	32710	32475	32475	32935	32886	32727	33142	32501	
134	0	32746	32263	32469	32829	32982	32797	33111	32637	
135	0	32748	32626	32609	32701	32815	32545	32748	32786	
136	0	32782	32707	32751	32681	32518	32679	32559	32671	
137	0	32771	32646	32993	32967	32635	32775	32679	32767	
138	0	32665	32903	32847	33187	32835	32841	32871	32663	
139	0	32628	33231	32788	33122	32655	32887	32823	32788	
140	0	32655	33477	32791	33086	32439	32871	32967	32547	
141	0	32775	33629	32962	33005	32695	32763	32714	32755	
142	0	32975	33327	33031	32799	32794	32707	32367	32677	
143	0	33054	33391	33079	32563	32839	32703	32366	32740	
144	0	33001	33238	32687	32503	32879	32795	32481	32845	
145	0	32896	32887	32478	32727	32923	32460	32711	32647	
146	0	32823	32587	32605	32511	32675	32639	32812	32769	
147	0	32765	32475	32615	32541	32877	32477	32699	32704	
148	0	32605	32327	32590	32539	32962	32583	32677	32703	
149	0	32677	32439	32494	32727	32861	32783	32466	32806	
150	0	32758	32477	32684	32684	32815	32635	32492	32855	
151	0	32771	32494	32679	32231	32698	32810	32481	32866	
152	0	32647	32555	32515	32055	32635	32951	32548	32903	
153	0	32646	32334	32423	32073	32919	32702	32753	32707	
154	0	32785	32407	32303	32303	33254	32475	32934	32738	
155	0	33062	32375	32373	32635	33369	32563	33149	32795	
156	0	33117	32223	32541	32979	32991	32679	33004	32759	
157	0	32999	32319	32631	33155	32852	32900	32786	32852	
158	0	32946	32500	32743	32903	32691	32986	32686	32967	
159	0	32997	32740	32629	32838	32647	32817	32824	32767	
160	0	33015	33063	32902	32411	32601	32775	32807	32655	
161	0	33044	33082	32821	31959	32701	32611	32828	32526	
162	0	33098	33059	32833	32095	32754	32873	32763	32541	
163	0	32983	32837	32958	32387	32903	32695	32765	32566	
164	0	32879	32743	32758	32575	32759	32739	32675	32647	
165	0	32823	32919	32557	32647	32763	32584	32721	32606	
166	0	32703	32831	32683	32773	32806	32699	32567	32699	
167	0	32738	32639	32727	32821	32707	32747	32595	32973	
168	0	32835	32540	32789	32807	32593	32852	32479	32979	
169	0	32742	32383	32592	32869	32583	32762	32447	32873	
170	0	32663	32573	32605	32823	32491	32801	33042	32870	
171	0	32612	32739	32623	32917	32863	32687	33015	32791	
172	0	32540	32903	32554	32931	32943	32579	32607	32743	
173	0	32621	33011	32532	32975	32959	32655	32725	32698	
174	0	32655	32877	32567	32943	32727	32749	32619	32691	
175	0	32682	33059	32622	32829	32551	32871	33086	32599	
176	0	32733	32871	32613	33031	32714	32767	33127	32489	
177	0	32687	32829	32553	33106	32791	32695	32963	32607	
178	0	32567	33054	32773	33103	32626	32763	32862	32669	
179	0	32484	32967	32879	33154	32644	32645	32821	32775	
180	0	32489	33140	32877	33231	32823	32473	32852	32869	
181	0	32519	33190	32847	33439	32813	32743	32834	32710	
182	0	32397	33015	32901	33473	32674	32839	32863	32877	
183	0	32335	32919	32807	33043	32722	32724	32838	32761	
184	0	32386	32606	32719	32637	32834	32495	32858	32451	
185	0	32533	32167	32630	32676	32775	32335	32626	32580	
186	0	32711	32043	32511	32599	32839	32597	32587	32743	
187	0	32620	31893	32366	32451	32804	32713	32486	32773	
188	0	32780	32130	32412	32087	32839	32725	32551	32659	
189	0	32890	32489	32263	31872	32854	32527	32839	32615	
190	0	32858	33055	32285	31783	32773	32695	32630	32898	
191	0	32756	33415	32274	31751	32812	32722	32400	32959	
192	0	32820	33229	32347	31616	32662	32931	32518	32852	
193	0	32940	33055	32551	31732	32687	32816	33031	32804	
194	0	32903	32858	32527	32011	32998	32775	33127	32615	
195	0	32938	33122	32642	32143	33013	32647	33159	32558	
196	0	33067	33175	32527	32391	32935	32671	32863	32543	
197	0	33036	33042	32911	32691	32823	32895	32687	32743	
198	0	32757	32935	32954	32711	32575	32798	32496	32675	
199	0	32620	32583	32891	32675	32791	32841	32719	32775	
200	0	32721	32628	32983	32733	32543	32829	32738	32807	
201	0	32572	32411	32711	33001	32775	32705	32801	32763	
202	0	32466	32179	32838	32998	32821	32549	32655	32681	
203	0	32468	31975	32885	33037	32751	32690	32687	32643	
204	0	32420	32263	32869	33007	32683	32847	32887	32755	
205	0	32566	32683	32798	32849	32692	32908	32951	32612	
206	0	32502	33367	32669	32639	32797	32681	32785	32573	
207	0	32559	33603	32226	32489	32855	32581	32735	32612	
208	0	32759	33795	32263	32338	32859	32711	32730	32642	
209	0	33004	33639	32302	32100	32795	32927	32343	32843	
210	0	33332	33533	32339	32527	32962	32754	32326	32711	
211	0	33038	33316	32445	32621	32885	32623	32378	32820	
212	0	33028	32499	32643	32708	32612	32686	32966	32615	
213	0	33287	31695	32967	32867	32484	32814	32999	32770	
214	0	33431	31513	32873	33039	32711	32763	32631	32818	
215	0	33227	31621	32871	33154	32567	32735	32597	32762	
216	0	33262	31519	32762	33343	32582	32761	32575	32679	
217	0	33283	31735	32613	33300	32726	32930	32503	32726	
218	0	33285	32108	32659	33263	32799	32501	32977	32663	
219	0	33105	32492	32655	33242	33045	32381	32945	32749	
220	0	32901	33154	32639	33023	33158	32495	32903	32887	
221	0	32731	33088	32755	32575	33055	32549	32519	32727	
222	0	32775	32919	32903	32291	32727	32519	32435	32621	
223	0	32695	32763	32642	31999	32540	32724	32699	32535	
224	0	32780	32807	32576	32151	32635	32669	32846	32751	
225	0	32668	33167	32581	32623	32663	32806	33013	32751	
226	0	32540	33661	32583	33111	32793	32688	33055	32543	
227	0	32599	33875	32523	32775	32799	32755	32871	32668	
228	0	32383	33953	32430	32743	32727	32706	32834	32759	
229	0	32332	33927	32059	32699	32641	32851	32535	32805	
230	0	32495	33283	32191	32481	32724	32691	32694	32714	
231	0	32406	33003	32203	32449	32731	32791	32732	32733	
232	0	32495	32694	32287	32445	32628	32671	32819	32634	
233	0	32623	32355	32519	32263	32679	32706	32690	32724	
234	0	32564	32207	32775	32335	32629	32847	32495	32837	
235	0	32647	32134	32775	32454	32831	32560	32669	32548	
236	0	32642	31738	32871	32669	32567	32719	32658	32711	
237	0	32692	32103	32903	32889	32245	32507	32839	32475	
238	0	32734	32154	32775	32715	32255	32823	33029	32818	
239	0	32931	32119	32818	32626	32766	32782	33039	32839	
240	0	33057	32237	32770	32751	33344	32515	33139	32766	
241	0	33050	32683	32567	32629	33023	32655	32775	32808	
242	0	33048	32971	32613	32834	32715	32614	32810	32659	
243	0	32962	33024	32756	32821	32750	32655	32989	32783	
244	0	32622	33287	32471	32671	33133	32471	33043	32671	
245	0	32490	33309	32607	32697	33021	32467	32871	32591	
246	0	32519	33263	32791	32764	32805	32666	32663	32491	
247	0	32542	33391	32689	32698	32769	32774	32558	32599	
248	0	32454	33301	32723	32555	32884	32629	32687	32571	
249	0	32740	32941	33021	32540	32763	32836	32615	32823	
250	0	32855	32803	32751	32628	32757	32735	32541	32759	
251	0	32769	32741	32601	32578	32623	32841	32553	32823	
252	0	32774	32661	32551	32553	32639	32790	32566	32844	
253	0	32775	32820	32559	32775	32775	32735	32795	32745	
254	0	32851	33026	32726	32933	32818	32707	32847	32871	
255	0	32990	32949	32633	32948	32859	32710	32743	32937	
256	0	33069	32736	32629	32859	32815	32670	32747	32818	
257	0	33239	32735	32669	32745	32774	32811	32626	32930	
258	0	33163	32626	32701	32535	32823	32735	32503	32743	
259	0	33014	32745	32723	32429	32811	32679	32749	32775	
260	0	32837	32675	32688	32525	32821	32726	32867	32811	
261	0	32719	32519	32757	32553	32740	32663	32673	32691	
262	0	32659	32423	32812	32499	32692	32815	32647	32785	
263	0	32647	32313	32833	32691	32745	32811	32703	32740	
264	0	32564	32467	32855	32901	32681	32914	32789	32751	
265	0	32649	32477	32791	32884	32727	32815	32703	32739	
266	0	32679	32567	32895	32623	32660	32819	32762	32685	
267	0	32772	32527	32598	32587	32711	32823	32590	32748	
268	0	32820	32679	32509	32599	32675	32795	32615	32726	
269	0	32830	32773	32469	32563	32594	32843	32725	32886	
270	0	32964	32770	32525	32667	32687	32903	32638	33007	
271	0	33042	32861	32391	32620	32887	32863	32782	32915	
272	0	33060	32751	32375	32615	32913	32731	32809	32875	
273	0	33104	32891	32431	32567	32735	32871	32501	32799	
274	0	33036	32981	32285	32725	32642	32738	32647	32839	
275	0	32916	32898	32538	32783	32803	32968	32690	32836	
276	0	32885	32891	32685	32751	32748	32671	32583	32691	
277	0	32924	32729	32694	32668	32739	32658	32587	32758	
278	0	32997	32773	32838	32721	32786	32583	32595	32775	
279	0	32994	32930	32683	32671	32847	32637	32770	32711	
280	0	33044	32741	32535	32681	32559	32775	32775	32667	
281	0	32983	32717	32527	32630	32567	32841	32570	32934	
282	0	32943	32567	32690	32743	32633	32723	32757	32771	
283	0	32937	32643	32721	32871	32671	32876	32711	32935	
284	0	32922	32535	32785	32795	32743	32665	32757	32711	
285	0	32921	32819	32823	32795	32775	32643	32607	32859	
286	0	32856	32771	32499	32855	32878	32615	32778	32703	
287	0	32791	33060	32572	32759	32854	32567	32823	32815	
288	0	32551	33365	32439	32679	32570	32865	32639	32809	
289	0	32300	33555	32458	32710	32706	32519	32698	32605	
290	0	32038	33695	32447	32749	32822	32615	32666	32567	
291	0	31923	33538	32317	32754	32935	32597	32855	32463	
292	0	31853	33151	32359	32658	32941	32550	33041	32523	
293	0	31757	33254	32348	32664	32891	32344	32915	32475	
294	0	31841	33204	32507	32731	32895	32439	33083	32487	
295	0	31931	33043	32503	32786	32844	32583	32973	32599	
296	0	31968	33173	32663	32825	32841	32647	32879	32529	
297	0	32100	32919	32806	32646	32887	32682	32847	32527	
298	0	32179	33172	32647	32630	32919	32795	33032	32380	
299	0	32157	33327	32773	32701	32903	32659	32967	32430	
300	0	32089	33193	32828	32645	32903	32643	33011	32315	
301	0	31964	33223	32911	32603	32977	32525	33006	32437	
302	0	31679	33068	33037	32617	32925	32773	32983	32418	
303	0	31349	33199	32751	32357	33043	32631	33157	32304	
304	0	31220	33255	32665	32234	32738	32647	33159	32535	
305	0	31304	33019	32803	32212	32999	32583	32942	32375	
306	0	31551	32802	32836	32363	33047	32583	32882	32702	
307	0	31829	32702	32775	32487	32726	32811	32877	32603	
308	0	32135	32402	32775	32430	32662	32721	33171	32619	
309	0	32349	32624	32615	32471	32629	32724	33231	32503	
310	0	32575	32539	32647	32335	32631	32552	32929	32589	
311	0	32854	32485	32757	32351	32787	32621	32898	32631	
312	0	33068	32452	32877	32405	32935	32607	32986	32783	
313	0	33170	32292	32746	32511	32886	32756	33047	32893	
314	0	33368	32479	32839	32749	32743	32694	32637	32812	
315	0	33600	32378	32587	32706	32763	32607	32431	32865	
316	0	33693	32102	32765	32759	33050	32551	32634	32949	
317	0	33769	32338	32730	32751	32605	32773	32661	32850	
318	0	33978	32197	32771	32619	32519	32935	32773	32797	
319	0	34162	32078	32869	32563	32479	32891	32723	32691	
320	0	34275	32009	32557	32831	32799	32733	32871	32553	
321	0	34395	32022	32745	32897	32827	32805	32775	32509	
322	0	34438	32135	32647	32923	32751	32745	32532	32511	
323	0	34287	32247	32692	32855	32727	32823	32336	32645	
324	0	34091	32117	32500	32855	32861	32743	32353	32511	
325	0	33990	32135	32733	32803	32877	32759	32498	32605	
326	0	33835	31998	32611	32755	32803	32676	32387	32619	
327	0	33742	32135	32607	32629	32642	32849	32453	32775	
328	0	33481	32343	32643	32762	32391	32967	32468	32775	
329	0	33274	32343	32447	32887	32610	32975	32387	32860	
330	0	33093	32295	32471	32801	32660	32895	32438	32845	
331	0	33063	32279	32531	32672	32732	32715	32519	32831	
332	0	33102	32355	32469	32727	32757	32765	32324	32818	
333	0	33030	32626	32635	32599	32630	32751	32119	32839	
334	0	33014	32531	32534	32677	32671	32824	32250	32766	
335	0	32941	32555	32687	32820	32645	32903	32527	32887	
336	0	32851	32369	32684	32850	32711	32655	32687	32758	
337	0	32726	32667	32679	32687	32787	32708	32774	32839	
338	0	32591	32903	32863	32775	32615	32773	32690	32815	
339	0	32594	32755	32951	32783	32791	32679	32917	32851	
340	0	32568	32887	32887	32947	32837	32711	32559	32937	
341	0	32535	32875	32903	32834	32743	32725	32749	32877	
342	0	32554	33127	32751	32714	32767	32727	32594	32867	
343	0	32618	32999	32775	32838	32903	32797	32703	32939	
344	0	32687	32966	32711	32647	32919	32838	32563	33002	
345	0	32778	33255	32546	32717	32825	32931	32439	33124	
346	0	32839	33063	32699	32523	33031	32499	32878	32815	
347	0	32798	32734	32567	32359	33043	32359	32967	32729	
348	0	32715	32919	32455	32663	33037	32587	33210	32739	
349	0	32630	33243	32631	32579	32803	32642	33341	32765	
350	0	32652	33156	32636	32371	32679	32663	33049	32631	
351	0	32602	33110	32740	32493	32663	32711	32731	32770	
352	0	32555	33139	32471	32511	32375	32599	32689	32687	
353	0	32644	32845	32485	32575	32343	32854	32389	32711	
354	0	32654	32685	32465	32596	32551	32660	32391	32502	
355	0	32566	32619	32563	32555	32301	33042	32205	32567	
356	0	32473	32551	32516	32447	32671	32775	32615	32557	
357	0	32422	32388	32475	32567	32815	32731	32541	32571	
358	0	32373	32551	32575	32689	32639	33061	32445	32951	
359	0	32363	32583	32295	32477	32829	32751	32512	32932	
360	0	32374	32795	32415	32567	32775	32598	32511	33018	
361	0	32478	32799	32669	32641	32887	32457	32749	32797	
362	0	32468	32892	32655	32709	32827	32608	32788	32975	
363	0	32391	32919	32709	32759	32811	32751	32807	32847	
364	0	32391	32967	32523	32833	32659	32725	32759	32887	
365	0	32391	33127	32607	32711	32591	32891	32639	32902	
366	0	32492	33133	32435	32855	32584	32887	32559	32903	
367	0	32613	32885	32571	32811	32567	32943	32661	32868	
368	0	32641	33039	32559	32663	32742	32871	32759	32762	
369	0	32688	33015	32511	32749	32845	32825	32821	32719	
370	0	32635	33023	32391	32635	32877	32615	32727	32679	
371	0	32534	32893	32655	32439	32885	32727	32691	32647	
372	0	32592	32879	32831	32613	32767	32763	32539	32621	
373	0	32699	32900	33127	32711	32646	32659	32855	32510	
374	0	32852	32941	33127	32660	32903	32579	32956	32517	
375	0	32949	32686	33247	32819	33170	32466	32967	32447	
376	0	32927	32593	33235	32949	33065	32500	32995	32499	
377	0	32730	32703	33063	32790	32847	32621	33069	32483	
378	0	32829	32631	33071	32935	33026	32557	33133	32378	
379	0	32805	32689	32850	32724	32596	32727	32822	32615	
380	0	32884	32715	32567	32587	32532	32847	32642	32831	
381	0	32935	32899	32739	32750	32463	32743	32919	32755	
382	0	32993	32959	32434	32854	32843	32626	33235	32679	
383	0	32903	32925	32483	32858	33131	32771	33219	32820	
384	0	32820	32923	32496	32693	32881	32923	33041	32791	
385	0	32771	33191	32443	32511	33045	32433	32789	32647	
386	0	32866	33259	32391	32505	33119	32511	32690	32775	
387	0	33031	33111	32407	32567	33067	32759	32685	32848	
388	0	33055	33207	32451	32611	32703	32791	32511	32775	
389	0	32910	33170	32623	32647	32703	32790	32535	32863	
390	0	32824	32886	32567	32791	32734	32603	32726	32541	
391	0	32757	32647	32526	32775	32599	32694	32969	32646	
392	0	32709	32213	32695	32631	32663	32803	32828	32807	
393	0	32725	32379	32661	32539	32647	32675	32676	32869	
394	0	32495	32523	32515	32407	32547	32807	32542	32787	
395	0	32348	32303	32583	32519	32709	32711	32547	32991	
396	0	32181	32246	32351	32555	32591	32698	32669	32731	
397	0	32238	32135	32463	32727	32636	32647	32911	32756	
398	0	32374	32363	32469	32862	32989	32889	32587	32903	
399	0	32490	32627	32603	32879	32791	33167	32279	32951	
400	0	32692	32447	32483	32503	32613	33189	32315	33065	
401	0	32838	32499	32450	32295	32531	32939	32365	32876	
402	0	33011	32439	32868	32409	32639	32316	32685	32840	
403	0	33142	32306	32635	32365	33133	32319	33105	32670	
404	0	33226	32471	32567	32335	32946	32463	32931	32727	
405	0	33304	32534	32608	32447	32647	32354	32967	32495	
406	0	33202	32469	32489	32734	32921	32391	33447	32590	
407	0	33076	32566	32361	32699	32863	32717	33006	32583	
408	0	32982	32751	32127	32943	32822	32741	32594	32483	
409	0	32914	32727	32165	32863	32601	32879	32305	32535	
410	0	32770	32829	32415	33047	32284	33159	32199	32535	
411	0	32637	33039	32595	33095	32423	32981	32301	32617	
412	0	32647	33347	32751	33213	32620	32757	32823	32431	
413	0	32738	33138	32941	33519	33143	32615	33203	32548	
414	0	32760	33014	33044	33629	33038	32698	33373	32516	
415	0	32794	32927	32929	33245	32898	32717	33391	32567	
416	0	32841	32775	32773	33063	33155	32503	33187	32549	
417	0	32661	33051	32917	32655	32991	32509	32794	32495	
418	0	32647	32955	32487	32404	32821	32445	33007	32375	
419	0	32775	32731	32203	31847	32903	32391	32679	32565	
420	0	32774	32359	32695	31724	32827	32511	32674	32826	
421	0	32895	32511	32706	31766	32683	32594	32549	32775	
422	0	33082	32707	32798	31908	32647	32823	32512	32865	
423	0	33018	32815	33039	32365	32551	32954	32434	32839	
424	0	32927	32903	32719	32643	32503	33073	32735	32959	
425	0	32848	32903	32683	32647	32797	32759	32859	32987	
426	0	32847	33083	32757	32711	32951	32559	32927	33031	
427	0	32769	33159	32811	32735	32850	32687	32751	32847	
428	0	32764	33063	32723	32631	32750	32879	32535	32835	
429	0	32762	33047	32545	32599	32787	32919	32541	32919	
430	0	32667	32911	32247	32719	32863	32587	32599	32763	
431	0	32666	32903	32057	32860	32695	32967	32773	32900	
432	0	32767	32981	32247	33192	32612	32921	32775	32677	
433	0	32620	32989	32535	33413	32559	32657	32633	32627	
434	0	32645	33039	33063	33247	32679	32431	32963	32590	
435	0	32602	32887	33068	33087	32677	32572	32882	32590	
436	0	32675	32745	32663	32775	32721	32715	32855	32387	
437	0	32722	32577	32534	32282	32647	32647	32997	32423	
438	0	32802	32351	32837	31903	32592	32839	32830	32343	
439	0	32690	32045	32751	31839	32588	32694	32639	32431	
440	0	32557	31931	32866	31919	32662	32667	32551	32671	
441	0	32527	32231	32992	32335	32891	32737	32741	32741	
442	0	32662	32183	32923	33077	32850	32783	32629	32703	
443	0	32875	32391	32799	33734	32934	32858	32706	32821	
444	0	32722	32921	32766	34047	32837	32831	32791	32815	
445	0	32465	33105	32735	34002	32775	33014	32713	32855	
446	0	32212	33441	32895	33474	32854	32751	32726	32831	
447	0	32295	33603	32557	33022	32736	32679	32655	32827	
448	0	32220	33638	32314	32327	32643	32613	32803	32931	
449	0	32386	33549	32237	31581	32743	32718	32711	32791	
450	0	32581	33042	32145	31143	33089	32439	32975	32725	
451	0	32647	32690	32119	31170	32879	32629	33091	32765	
452	0	32740	32205	32049	31763	32581	32735	32963	32817	
453	0	32633	32029	32310	32349	32767	32647	32927	32759	
454	0	32490	32287	32694	33123	32783	32559	32915	32721	
455	0	32512	32500	32959	33509	32727	32709	32694	32703	
456	0	32635	32745	33247	33378	32683	32725	32391	32821	
457	0	32799	33238	33127	33042	32731	32759	32326	32677	
458	0	32806	33263	33005	32663	32743	32582	32479	32623	
459	0	32802	33254	32834	32429	32685	32775	32632	32625	
460	0	32919	33245	32511	32610	32647	32983	32727	32737	
461	0	33329	33054	32116	32911	32687	32966	32599	32769	
462	0	33524	32623	32026	33151	32762	32788	32506	32751	
463	0	33795	32382	32150	33207	32775	32647	32551	32791	
464	0	33958	32375	32542	32883	32838	32707	32937	32758	
465	0	33746	32518	32735	32811	32677	32847	32701	32913	
466	0	33627	32343	32373	32479	32595	32759	32647	32757	
467	0	33198	32743	32418	32591	32559	32804	32427	32871	
468	0	32869	32938	32602	32500	32583	32719	32535	32795	
469	0	32772	32763	32819	32135	32692	32640	33151	32519	
470	0	32720	32714	32455	31665	32955	32609	33231	32551	
471	0	32617	33071	32263	31868	33206	32287	33251	32477	
472	0	32406	33015	32275	32562	33013	32519	33087	32726	
473	0	32239	33367	32263	32692	32814	32571	32841	32703	
474	0	32263	33982	32334	32659	32703	32921	32655	32926	
475	0	32052	33940	32337	32719	32699	32699	32691	32794	
476	0	31958	33663	32551	32799	32667	32546	32821	32839	
477	0	32353	33006	32819	32719	32839	32647	32951	32955	
478	0	32350	32278	32925	32603	32847	32663	32734	32793	
479	0	32487	31998	32963	32391	32775	32935	32612	32822	
480	0	32699	31855	32990	32527	32598	33047	32486	32895	
481	0	32842	31604	33063	32756	32519	33223	32587	32758	
482	0	33152	31205	32860	32331	32597	32767	32859	32518	
483	0	33213	31187	32767	32375	32743	32407	32891	32431	
484	0	33079	31690	32909	32369	33031	32562	33079	32577	
485	0	33095	32247	32834	32615	33063	32694	32963	32554	
486	0	32806	32915	32747	33071	33004	32638	32823	32644	
487	0	32828	33271	32672	33458	32850	32847	32644	32647	
488	0	32922	33525	32373	33411	32660	32894	32715	32839	
489	0	32695	33053	32343	33271	32671	32771	32711	32763	
490	0	32604	32594	32299	32807	32711	32713	32791	32743	
491	0	32349	32375	32411	32175	32477	33094	32827	32767	
492	0	32586	32347	32569	31789	32719	32935	33143	32569	
493	0	32640	32238	32362	31901	32839	32602	32919	32453	
494	0	32512	32263	32377	32245	32891	32535	32987	32410	
495	0	32487	32293	32445	32471	32807	32476	32827	32607	
496	0	32573	32436	32519	32741	32382	32787	32535	32828	
497	0	32731	32833	32583	33179	32517	32763	32925	32911	
498	0	32870	33399	32619	33431	33009	32671	32847	32809	
499	0	32989	33603	32619	33619	32895	32588	32647	32590	
500	0	32647	33458	33005	33469	32855	32739	32614	32707	
501	0	32661	32903	33137	33207	33108	32455	32653	32447	
502	0	32840	32539	33275	32715	32758	32578	32775	32518	
503	0	32948	32367	32837	32029	32658	32615	32743	32601	
504	0	33113	32503	32679	32183	32595	32847	32801	32537	
505	0	33264	32587	33015	32391	32823	32511	32759	32434	
506	0	33375	32690	33309	32838	32751	32823	32815	32492	
507	0	33446	32727	32989	32901	32885	32663	32525	32825	
508	0	33583	32887	32759	32482	33134	32701	32749	32821	
509	0	33925	32823	32498	31979	32765	32621	32642	32807	
510	0	33641	32819	32351	31675	32631	32492	33189	32693	
511	0	33223	33021	32237	31913	33117	32470	33031	32612	
512	0	32847	33141	32509	32147	33189	32598	32628	32871	
513	0	32439	33191	32463	32702	32933	32741	32631	32763	
514	0	32480	33364	32455	33127	32663	32923	32495	32894	
515	0	32159	33215	32623	33319	32575	32845	32985	32693	
516	0	31899	33079	32819	33198	32470	32874	32695	32775	
517	0	31727	33207	32647	32979	32415	32743	32642	32551	
518	0	31728	33331	32308	32387	32629	32771	32707	32679	
519	0	31826	33146	32583	32468	32839	32959	32967	32738	
520	0	32015	32915	32569	32837	33235	32510	33053	32927	
521	0	32263	32815	32958	33293	33133	32551	32783	32759	
522	0	32604	32995	33262	33535	32963	32308	32639	32647	
523	0	32647	32937	33407	32924	32719	32767	32685	32591	
524	0	32787	32836	33055	33029	32877	32809	32963	32652	
525	0	33113	32743	32915	33321	32893	32531	33335	32327	
526	0	33362	32951	32873	32994	32775	32535	33063	32487	
527	0	33495	33009	32527	32157	32647	32551	32862	32410	
528	0	33332	33052	32263	32111	32599	32919	32937	32620	
529	0	33339	32871	32237	32435	32615	33005	32919	32647	
530	0	33255	32523	32343	33004	32719	32814	32815	32702	
531	0	33071	32547	32451	32711	32815	32565	32623	32655	
532	0	32903	32567	32535	32282	32599	32775	32501	32711	
533	0	32755	32349	32507	32052	32525	32835	32639	32669	
534	0	32757	32299	32449	31719	32479	32749	32463	32655	
535	0	32496	32146	32299	30843	32551	32882	32503	32867	
536	0	32335	32251	32367	31030	32917	32531	32807	32694	
537	0	32212	32346	32471	31607	32933	32436	32823	32607	
538	0	32039	32391	32494	32339	32886	32391	32766	32457	
539	0	32074	32623	32491	33215	32930	32642	32620	32719	
540	0	32344	32484	32147	33491	32735	32858	32919	32690	
541	0	32730	32695	32023	33539	32505	32943	32621	32797	
542	0	32562	33154	32447	33318	32533	32894	32633	32791	
543	0	32359	33087	32855	32775	32623	32820	32703	32775	
544	0	32342	33127	32903	32885	32839	32519	32783	32559	
545	0	32419	32943	33079	32263	32940	32738	32731	32879	
546	0	32559	32916	32903	32296	32771	32855	32681	32901	
547	0	32558	33067	32775	32718	32766	33005	32751	32707	
548	0	32677	33029	32826	32845	32669	33159	32615	32933	
549	0	32999	33007	32621	33071	32647	33177	32557	32859	
550	0	33435	32871	32495	32751	32598	32815	32585	32877	
551	0	33495	32991	32381	32763	32575	32331	33047	32518	
552	0	33439	32966	32349	32587	32867	31779	33074	32543	
553	0	33498	33129	32630	32258	32902	32383	32877	32726	
554	0	33277	33111	32756	32343	32677	32647	32639	32745	
555	0	33084	32782	32799	32817	32645	32743	32743	32647	
556	0	32996	32722	32927	33119	32681	32674	32939	32685	
557	0	32919	32584	32882	33181	32454	32745	32679	32647	
558	0	32848	32511	32807	33151	32531	32767	32673	32722	
559	0	32690	32511	32769	33093	32742	32751	32731	32723	
560	0	32639	32611	32687	33158	32943	32702	32676	32846	
561	0	32656	32771	32691	32948	33185	32495	33181	32628	
562	0	32715	32775	32615	32503	32967	32687	32999	32809	
563	0	32291	33082	32463	32263	32819	32804	32721	32773	
564	0	32338	32883	32451	32018	32757	32811	32740	32947	
565	0	32310	32883	32527	31806	32647	32834	32803	32831	
566	0	32433	32991	32513	31860	32574	32895	32569	32692	
567	0	32473	33036	32443	32134	32498	32927	32471	32675	
568	0	32412	33449	32621	32390	32679	32755	32581	32603	
569	0	32541	33187	32871	32413	32671	32877	32487	32873	
570	0	32590	32950	32957	32371	32730	32983	32420	32741	
571	0	32742	32749	33018	32433	32810	32767	32579	32847	
572	0	32890	32308	32947	32439	32775	32891	32515	32826	
573	0	33056	32247	32797	32435	32861	32751	32899	32833	
574	0	33242	32231	32562	32565	32950	32698	32869	32851	
575	0	33195	31742	32723	32901	33019	32533	32879	32663	
576	0	32996	31751	32593	33023	32727	32783	32679	32775	
577	0	32712	32019	32457	33202	32731	32819	32643	32681	
578	0	32646	32071	32573	33124	32674	33023	32679	32767	
579	0	32747	32165	32670	32882	32959	32716	32966	32726	
580	0	32576	32431	32738	32679	32994	32495	32946	32749	
581	0	32557	32535	32745	32580	32983	32439	32759	32719	
582	0	32585	32786	32869	32871	32774	32407	32675	32786	
583	0	32671	32991	32764	32773	32934	32581	32887	32766	
584	0	32719	33191	32615	32763	32871	32679	32861	32844	
585	0	32834	33443	32503	32883	32755	32735	32751	32668	
586	0	32735	33463	32561	32858	32591	32589	32623	32710	
587	0	32587	33427	32615	32636	32387	32886	32493	32663	
588	0	32775	33807	32375	32343	32709	32681	32659	32745	
589	0	32916	33924	32605	32127	33044	32533	32549	32646	
590	0	32963	33748	32718	32487	32903	32567	32483	32647	
591	0	32836	33078	32991	33069	32607	32705	32347	32562	
592	0	33022	32799	32759	33335	32673	32743	33027	32535	
593	0	32800	32527	32647	33644	32783	32725	32851	32581	
594	0	32589	32245	32775	33603	32747	32667	32671	32891	
595	0	32405	31466	32638	33191	32541	32983	32543	32775	
596	0	32484	31229	32511	32895	32607	32643	32546	32623	
597	0	32647	31407	32413	32663	32797	32469	32996	32575	
598	0	32647	32278	32279	32391	32621	32751	32943	32647	
599	0	32645	33215	32367	32045	32647	32590	32963	32758	
600	0	32666	33645	32327	31707	32726	32732	33049	32900	
601	0	32477	33719	32175	32063	32881	32565	32915	32831	
602	0	32534	33315	32705	31926	32903	32795	33148	32791	
603	0	32627	33035	32833	31676	32943	32983	32852	32909	
604	0	32827	32642	32669	31887	32575	32853	32307	33019	
605	0	32981	32135	32191	32143	32014	32887	32300	32967	
606	0	33003	31887	32351	32003	32363	32694	32819	32647	
607	0	33170	31532	32466	32263	32926	32599	33083	32563	
608	0	33481	31799	32743	32645	33468	32336	33061	32620	
609	0	33597	32095	32783	33103	33207	32558	32634	32711	
610	0	33325	32358	32663	33217	32812	32545	32819	32682	
611	0	33036	32647	32884	33559	32771	32775	33046	32723	
612	0	32942	33006	32839	33476	32715	32759	32900	32723	
613	0	32868	33283	32671	33145	32860	32691	32919	32689	
614	0	32854	33645	32717	33147	32818	32961	32999	32924	
615	0	32732	33620	32528	33037	32998	32763	32647	32960	
616	0	32524	33831	32827	33044	32823	32543	32517	32767	
617	0	32531	34155	32865	32999	32503	32668	32584	32767	
618	0	32366	34283	32902	32883	32439	32759	32549	32751	
619	0	32441	33895	33029	32615	32659	32687	32814	32791	
620	0	32717	33260	32763	32644	32918	32556	32884	32729	
621	0	32890	32439	32775	32639	32995	32575	32741	32769	
622	0	32791	31879	32676	32415	32879	32891	32711	32754	
623	0	32808	31509	32647	32165	32847	32967	32619	32523	
624	0	32751	31751	32877	31935	32457	32871	32405	32743	
625	0	32764	31581	32775	32367	32423	32675	32475	32703	
626	0	32790	31725	32493	32775	32933	32525	32974	32683	
627	0	32617	31879	32511	32771	33239	32615	32941	32627	
628	0	32788	32198	32335	32747	32935	32775	32621	32835	
629	0	32769	32596	32201	32603	32875	32951	32489	32703	
630	0	32710	33047	32338	32858	32817	32671	32527	32699	
631	0	32688	32899	32423	32975	32849	32711	32315	32623	
632	0	32588	33231	32498	32911	32879	32692	32437	32755	
633	0	32654	32951	32459	32646	32767	32697	32485	32723	
634	0	32732	33095	32592	32666	32679	32709	32671	32698	
635	0	32761	32935	32671	32742	32621	32663	32707	32611	
636	0	32715	33053	32703	32751	32551	32710	32669	32754	
637	0	32839	33185	32711	32567	32454	32700	32425	32743	
638	0	32793	33095	32775	32799	32684	32667	32659	32759	
639	0	32713	33121	32855	32999	32748	32662	32634	32882	
640	0	32601	33287	32583	32927	32820	32820	32669	32775	
641	0	32492	33207	32799	32647	32826	32970	32693	32820	
642	0	32495	33373	32881	32631	32646	33127	32583	32839	
643	0	32549	33231	32831	32615	32615	32987	32762	32703	
644	0	32681	32948	32823	32670	32935	32335	32967	32543	
645	0	32763	32862	32621	32597	32966	32283	32898	32739	
646	0	32734	32604	32561	32607	32773	32612	32548	32970	
647	0	32638	32755	32575	32658	32710	32943	32535	32881	
648	0	32658	32683	32535	32435	32823	32743	32519	32999	
649	0	32788	32478	32483	32703	32823	32562	32659	32949	
650	0	32743	32427	32389	32669	32507	32831	32479	33204	
651	0	32747	32841	32577	32839	32602	32571	32575	32751	
652	0	32829	33031	32593	32836	32967	32445	32871	32647	
653	0	32814	32973	32603	32730	32759	32668	33023	32582	
654	0	32833	32903	32653	32687	32775	32566	32993	32485	
655	0	32812	32738	32719	32703	32471	32805	32903	32353	
656	0	32854	32695	32623	32498	32675	32663	32871	32411	
657	0	32864	32959	32836	32715	32807	32891	32993	32687	
658	0	32830	32939	32878	32933	33023	32839	33010	32677	
659	0	32847	32919	32826	32879	32976	32822	32903	32793	
660	0	32854	32766	32772	32647	32975	32303	33127	32477	
661	0	32918	32484	32883	32631	32847	32199	33350	32671	
662	0	32893	32483	32751	32530	32567	32527	33151	32730	
663	0	32860	32619	32595	32443	32749	32430	33069	32815	
664	0	32863	32725	32568	32742	32821	32365	32839	32822	
665	0	32847	32607	32515	32659	32582	32838	32739	32815	
666	0	32743	32562	32531	32479	32675	32931	32807	32903	
667	0	32771	32431	32367	32427	32793	33012	33044	32693	
668	0	32690	32685	32323	32111	32658	32975	32727	32911	
669	0	32598	32773	32613	31911	32598	32818	32441	32749	
670	0	32647	32759	32630	32575	32727	32735	32412	32809	
671	0	32726	32581	32503	32775	32885	32562	32555	32550	
672	0	32708	32687	32684	32981	32719	32818	32335	32671	
673	0	32754	32847	32532	33079	32722	32647	32503	32607	
674	0	32726	32775	32699	32873	32843	32581	32533	32827	
675	0	32686	32829	33015	32679	32903	32594	32749	32599	
676	0	32680	32551	33127	32587	32857	32549	32791	32748	
677	0	32684	32775	33218	32611	32592	32935	32819	32639	
678	0	32812	32834	32990	32561	32611	32784	33119	32630	
679	0	32834	32862	32758	32805	32806	32789	32983	32631	
680	0	32893	32745	32980	32950	32847	32815	32903	32797	
681	0	32925	32858	32829	33223	32871	32865	32681	32916	
682	0	32845	32985	32737	33423	32718	33015	32635	33021	
683	0	32872	32921	32807	33191	32715	32831	32558	32754	
684	0	32775	32913	32637	32903	32775	32367	32767	32747	
685	0	32658	32743	32353	32511	32603	32775	32883	32923	
686	0	32704	32799	32337	32391	32587	33035	32391	33234	
687	0	32740	32831	32493	32325	33247	32506	32717	32903	
688	0	32647	32775	32582	32311	32971	32494	32735	32709	
689	0	32640	32718	32514	32666	32628	32763	32463	32878	
690	0	32641	32737	32535	32745	32599	32929	32425	32763	
691	0	32719	32571	32423	32558	32793	32879	32471	32614	
692	0	32765	32667	32135	32473	32735	32615	32703	32455	
693	0	32769	32871	32293	32380	32821	32525	32962	32707	
694	0	32775	33099	32351	32166	32931	32583	32877	32707	
695	0	32767	33591	32419	32347	32790	32621	32802	32807	
696	0	32735	33575	32647	32503	32701	32749	32758	32867	
697	0	32860	33663	32717	32973	32615	32695	32527	32715	
698	0	32839	33527	32797	32975	32790	32647	32379	32823	
699	0	32835	33590	32735	32759	32731	32751	32378	32839	
700	0	32753	33423	32955	32303	32736	32740	32643	32815	
701	0	32711	33149	33022	31932	32557	32939	32359	32818	
702	0	32801	32863	32853	31869	32871	32847	32791	32850	
703	0	32686	32317	32535	31943	33135	32596	33111	32837	
704	0	32505	31959	32563	32587	33031	32640	32933	32825	
705	0	32564	31671	32525	32837	32898	32591	32695	32607	
706	0	32583	31719	32709	32859	32726	32762	32711	32609	
707	0	32492	31891	32420	32887	32780	32903	32540	32647	
708	0	32675	31795	32415	32941	32590	32929	32455	32566	
709	0	32797	32043	32615	32775	32471	32876	32461	32695	
710	0	33120	32231	32422	32815	32498	32573	32523	32583	
711	0	33179	32123	32591	32789	32823	32347	33010	32455	
712	0	33012	32257	32751	32879	32879	32413	32998	32730	
713	0	32820	32690	32747	33181	32679	32721	32675	32942	
714	0	32775	32919	32673	33157	32629	32809	32612	32871	
715	0	32877	32908	32518	32813	32803	32935	32599	32715	
716	0	32879	32853	32450	32615	32759	32882	32539	32756	
717	0	32871	32571	32436	32549	32716	32900	32661	32559	
718	0	32802	32217	32541	32450	32807	32538	32841	32551	
719	0	32797	32223	32463	32559	32791	32519	32847	32622	
720	0	32945	32285	32479	32759	32605	32443	32838	32647	
721	0	32890	32231	32573	32694	32789	32702	32674	32734	
722	0	32813	32327	32751	32551	32751	32658	32555	32623	
723	0	32685	32439	32775	32631	32427	32857	32438	32761	
724	0	32485	32351	32839	32620	32613	32663	32725	32583	
725	0	32593	33047	32823	32461	32965	32580	33083	32627	
726	0	32473	33476	32698	32461	32962	32711	32855	32634	
727	0	32609	33835	32666	32621	32849	32611	32751	32647	
728	0	32683	34113	32759	32791	32799	32747	32775	32742	
729	0	32579	33539	32751	32771	32715	32591	32890	32592	
730	0	32610	33359	32679	32749	32763	32626	32882	32734	
731	0	32609	33300	32529	32583	32612	32662	32607	32775	
732	0	32786	32579	32452	32541	32407	32807	32550	32911	
733	0	32804	32159	32426	32679	32687	32615	32839	32845	
734	0	32684	31975	32477	32615	33062	32641	32899	32671	
735	0	32775	31662	32582	32763	32883	32676	32731	32760	
736	0	32969	31895	32493	32857	32807	32715	32919	32594	
737	0	33223	32207	32813	32635	32670	32839	32599	32726	
738	0	33159	32631	32885	32661	32643	32860	32388	32714	
739	0	33049	33011	32931	32667	32763	32743	32473	32803	
740	0	33034	33322	33108	32516	32719	32623	32717	32700	
741	0	33065	33655	32855	32559	32771	32611	33302	32711	
742	0	33019	33543	32883	32663	32863	32513	33229	32515	
743	0	32848	33513	32783	32804	32671	32783	32799	32635	
744	0	32535	33191	32735	32719	32614	32842	32579	32679	
745	0	32599	33168	32751	32631	32612	32821	32575	32567	
746	0	32586	33159	32659	32607	32791	32537	32603	32681	
747	0	32553	33095	32543	32583	32646	32586	32844	32564	
748	0	32533	32875	32731	32927	32858	32727	32869	32663	
749	0	32583	32765	32519	33007	33127	32854	32556	32762	
750	0	32476	32679	32471	32903	33031	32647	32466	32933	
751	0	32479	32554	32387	32867	32941	32447	32623	32893	
752	0	32832	32687	32380	32949	32871	32415	32729	32707	
753	0	32945	32775	32843	32927	32534	32774	32749	32870	
754	0	32870	32839	33048	32535	32515	32852	32587	32852	
755	0	32838	32871	32871	32503	32603	32679	32923	32805	
756	0	32879	32707	32589	32538	32979	32615	33250	32693	
757	0	32696	33207	32551	32471	33111	32438	33073	32767	
758	0	32486	33404	32541	32677	32963	32759	32993	32687	
759	0	32477	33266	32631	32851	32941	32927	32767	32787	
760	0	32552	33079	32630	32879	32854	32766	32615	32691	
761	0	32617	32747	32775	32675	32723	32775	32359	32877	
762	0	32661	32791	32671	32667	32631	32802	32279	32743	
763	0	32655	32549	32621	32405	32719	32731	32900	32679	
764	0	32787	32175	32591	32293	32922	32594	33046	32623	
765	0	33043	32151	32425	32077	33041	32627	33117	32591	
766	0	33063	32039	32263	32114	32772	32727	33119	32583	
767	0	32915	32127	32275	32154	32687	32799	32933	32660	
768	0	32820	32511	32084	32261	32717	32663	32815	32679	
769	0	32839	32615	32468	32367	32820	32749	32832	32615	
770	0	32791	32679	32543	32612	32709	32766	32807	32623	
771	0	32743	32772	32753	32491	32731	32735	32775	32672	
772	0	32724	32743	32903	32263	32799	32791	32683	32735	
773	0	32691	32929	32647	32303	32736	32638	32661	32638	
774	0	32748	33181	32601	32275	32548	32786	32644	32839	
775	0	32785	33047	32673	32375	32775	32694	32733	32703	
776	0	32707	33069	32687	32559	32676	32549	32754	32718	
777	0	32628	32870	32742	32843	32806	32583	32827	32659	
778	0	32598	33159	32919	32918	32471	32831	32991	32769	
779	0	32665	33323	32940	33150	32647	32943	32797	32804	
780	0	32761	33229	32701	33213	32675	32647	32263	32676	
781	0	32831	32935	32617	32775	32767	32674	32719	32710	
782	0	33037	32729	32628	32511	32807	32807	32761	32725	
783	0	33031	32326	32497	32391	32815	32733	32798	32723	
784	0	33040	32385	32571	32463	32903	32612	32805	32639	
785	0	32914	32575	32849	32436	32975	32551	32851	32763	
786	0	32775	32617	32599	32631	32863	32773	32805	32797	
787	0	32820	32575	32566	32647	32687	32878	32781	32771	
788	0	32758	32533	32435	32685	32659	32875	33021	32887	
789	0	32580	32598	32375	32851	32690	32972	32931	32875	
790	0	32606	32559	32493	33035	32815	32881	32903	32679	
791	0	32543	32835	32454	32799	32609	32918	32647	32799	
792	0	32594	32823	32583	32668	32679	32647	32493	32799	
793	0	32514	32675	32607	32655	32703	32459	32535	32703	
794	0	32644	32611	32637	32870	32771	32355	32815	32452	
795	0	32647	32356	32565	32954	32711	32343	32722	32443	
796	0	32614	32571	32876	33134	32975	32559	32799	32439	
797	0	32668	32765	33044	33243	32929	32791	32443	32786	
798	0	32585	32863	33095	33223	33075	32843	32467	32741	
799	0	32725	32999	33064	33061	33031	32747	33063	32551	
800	0	32704	33167	32939	33078	32867	32709	32645	32711	
801	0	32631	33066	32895	32933	32623	32478	32973	32727	
802	0	32583	33110	32835	32711	32668	32903	32955	32627	
803	0	32682	33155	32751	32383	32743	32789	32847	32655	
804	0	32748	33043	32587	32071	32671	32671	32895	32783	
805	0	32921	32609	32403	32244	32647	32765	32875	32855	
806	0	32921	32407	32330	32493	32595	32684	32831	32822	
807	0	32831	32429	32195	32471	32646	32835	32894	32819	
808	0	32694	32415	32087	32585	32819	32575	32919	32679	
809	0	32668	32607	32131	32583	32663	33010	32677	32835	
810	0	32749	32979	32311	32475	32518	32871	32358	32763	
811	0	32841	33075	32637	32446	32749	32743	32485	32735	
812	0	32851	33023	32687	32487	32843	32605	32724	32691	
813	0	32862	32950	32687	32509	32775	32722	32741	32647	
814	0	32844	32655	32587	32501	32787	32671	32742	32763	
815	0	32830	33039	32695	32647	32860	32807	32914	32717	
816	0	32799	33477	32667	32823	32807	32442	32925	32676	
817	0	32942	33431	32701	32903	32786	32605	32756	32911	
818	0	32912	33159	32738	32819	32931	32748	32703	32711	
819	0	32956	32893	32839	32679	32826	32791	32773	32609	
820	0	32992	32430	32991	32591	32789	32731	32735	32571	
821	0	32961	32125	32695	32695	32823	32513	32827	32583	
822	0	32929	31879	32655	32717	32672	32819	32548	32762	
823	0	32935	31693	32709	32791	32505	32960	32474	32791	
824	0	32887	31733	32701	32763	32635	32623	32711	32605	
825	0	32743	31767	32647	32999	32549	32647	32639	32807	
826	0	32807	31943	32615	32806	32726	32641	32839	32703	
827	0	32712	32457	32692	33015	33053	32739	32799	32863	
828	0	32660	32915	32775	32769	32935	32891	32763	32751	
829	0	32674	33122	32541	32735	32611	32971	32849	32839	
830	0	32671	32935	32554	32591	32642	32791	32855	32807	
831	0	32822	32709	32759	32405	32817	32447	33127	32627	
832	0	32731	32903	32890	32500	32567	32519	32847	32671	
833	0	32719	32973	32902	32634	32901	32703	32935	32625	
834	0	32749	33012	32916	32769	32871	32751	32773	32757	
835	0	32756	32975	32795	32797	32767	32769	32911	32743	
836	0	32823	32655	32631	32738	32775	32704	33054	32711	
837	0	32873	32559	32764	33005	32639	32775	32843	32690	
838	0	32869	32495	32867	33350	32576	32765	32646	32612	
839	0	32807	32820	32871	33350	32667	32890	32566	32749	
840	0	32767	32847	32775	33471	32807	32783	32887	32783	
841	0	32802	32858	32617	33405	32903	32535	32814	32555	
842	0	32729	33022	32786	33063	32891	32529	32573	32667	
843	0	32687	33191	32805	32342	32983	32690	32624	32692	
844	0	32783	33143	32643	31975	32925	32621	32540	32838	
845	0	32705	33303	32503	31514	32982	32677	32391	32807	
846	0	32741	33559	32461	31159	32927	32645	32598	32815	
847	0	32706	33739	32322	31161	32795	32748	32855	32743	
848	0	32617	33563	32183	31445	32601	32756	32703	32548	
849	0	32583	33321	32135	31693	32507	32855	33151	32605	
850	0	32593	33027	32206	32239	32634	32773	33135	32671	
851	0	32587	32931	32507	32567	32804	32827	32963	32599	
852	0	32567	32359	32711	32783	32739	32718	32821	32735	
853	0	32677	32210	32815	32731	32739	32813	32796	32818	
854	0	32727	31899	32803	32916	32639	32687	32743	32878	
855	0	32775	31941	32827	33103	32718	32807	32596	32916	
856	0	32987	32135	32743	33027	32755	32815	32621	32810	
857	0	32868	32373	32893	32979	32671	32769	32633	32795	
858	0	32773	32790	32851	33015	32563	32623	32491	32681	
859	0	32925	32791	32999	33243	32617	32763	32843	32642	
860	0	32970	32964	32988	33231	32694	32713	32745	32826	
861	0	33065	32978	32707	32875	32719	32877	32735	32869	
862	0	33167	32843	32587	32821	32757	32939	32790	32745	
863	0	33436	32751	32494	32647	32879	32786	32939	32767	
864	0	33463	32686	32358	32613	32877	32607	32627	32577	
865	0	33351	32383	32263	32639	32847	32903	32463	32795	
866	0	33335	32157	32306	32637	32858	32875	32810	32721	
867	0	33142	31983	32295	32505	33053	32596	32919	32531	
868	0	32910	31874	32175	32425	33037	32590	32762	32537	
869	0	32948	31927	32325	32370	32711	32639	32679	32399	
870	0	32966	32099	32527	32639	32702	32727	32751	32717	
871	0	33036	32323	32571	32841	32799	32511	32717	32711	
872	0	33033	32775	32431	32999	32507	32633	32494	32679	
873	0	33119	32855	32541	33097	32557	32695	32460	32831	
874	0	33266	32871	32743	33197	32951	32589	32861	32855	
875	0	33369	32647	32647	33301	33122	32575	33334	32647	
876	0	33391	32827	32770	33339	32807	32783	32965	32788	
877	0	33202	33039	32883	33195	32732	32751	32754	32701	
878	0	33012	33429	33063	33010	32812	32738	32677	32879	
879	0	32832	33499	32973	32531	32694	32826	32611	32732	
880	0	32796	33393	32730	32338	32663	32743	32687	32615	
881	0	32541	33468	32743	32530	32807	32621	32863	32677	
882	0	32127	33644	32599	32741	32898	32617	32821	32677	
883	0	31589	34033	32491	32562	32853	32700	32698	32807	
884	0	31335	33991	32135	32287	32863	32630	32533	32724	
885	0	31214	33745	31953	32311	32807	32694	32516	32743	
886	0	31191	33839	31985	32503	32709	32639	32757	32659	
887	0	31367	33911	31959	32697	32687	32681	32811	32584	
888	0	31332	33500	32131	32847	32631	32729	32769	32623	
889	0	31604	33381	32367	32917	32702	32627	32791	32518	
890	0	32166	33209	32474	32621	32765	32574	32903	32612	
891	0	32292	33079	32743	32476	32741	32687	32775	32647	
892	0	32396	32903	32734	32340	32887	32591	32847	32602	
893	0	32335	32823	32854	32064	32797	32703	32987	32495	
894	0	31794	33701	33007	32157	32799	32657	33298	32418	
895	0	31255	33751	33063	32482	32858	32707	33207	32363	
896	0	30870	33549	32890	32599	32996	32679	33323	32247	
897	0	30610	33442	32903	32901	33079	32495	33381	32183	
898	0	30625	33414	33026	33107	33006	32542	33511	32299	
899	0	31029	33093	33031	33083	32935	32543	33247	32308	
900	0	31673	32473	33087	32887	32964	32667	32978	32731	
901	0	32159	32179	33203	32605	32903	32615	33135	32683	
902	0	32641	31955	33348	32619	32775	32807	33285	32673	
903	0	33159	31505	33551	33071	32679	32863	33015	32732	
904	0	33383	31718	33607	32801	32681	32933	32879	32871	
905	0	33484	32212	33427	32735	32725	33039	32759	32897	
906	0	33373	33477	33030	32815	32843	32860	32525	32883	
907	0	33236	34140	32706	33089	32831	32615	32366	32915	
908	0	33237	34431	32518	33003	32919	32487	32599	32955	
909	0	33399	34225	32305	32689	32709	32541	33087	33124	
910	0	33618	33191	32271	32459	32708	32507	33015	33071	
911	0	33819	32367	32151	32057	32583	32791	32485	32923	
912	0	34246	31047	32025	31701	32389	32913	32149	32766	
913	0	34691	29710	32027	31557	32551	33019	32318	32635	
914	0	35061	28863	32237	31620	32712	32860	32475	32818	
915	0	35061	28415	32055	31549	32775	32743	32658	32775	
916	0	34719	29274	32403	31866	32487	32807	32231	32810	
917	0	34650	30102	32677	32163	32423	32813	32059	32903	
918	0	34453	30914	32903	32639	32170	32877	32226	33119	
919	0	34085	31503	32743	33185	33251	32655	32756	32955	
920	0	34002	32397	32699	33355	33245	32631	32443	32982	
921	0	33956	32859	32553	33372	33191	32763	32545	32943	
922	0	33710	33157	32411	33259	32797	32770	32619	33014	
923	0	33171	33271	32263	33085	32543	32923	32413	33175	
924	0	32887	33379	32167	32746	32671	32887	32326	33071	
925	0	32694	33171	32254	32775	32598	32903	32327	33174	
926	0	32630	33287	32086	32959	32402	32941	32495	33137	
927	0	32671	33308	32263	32999	32473	32959	32455	33047	
928	0	32766	33175	32487	33030	32263	32820	32401	33021	
929	0	32853	32991	32751	33421	32359	32947	32466	32935	
930	0	32656	32850	32623	33091	32866	32690	32663	32863	
931	0	32556	32790	32695	32741	33135	32534	32715	32727	
932	0	32405	33139	32701	32583	32988	32391	32783	32623	
933	0	32535	33435	32787	32151	32955	32477	33126	32637	
934	0	32527	33591	32734	32197	32775	32733	32903	32751	
935	0	32279	33670	32895	32646	32707	32679	32567	32632	
936	0	32319	33260	33183	33030	32733	32627	32695	32703	
937	0	32402	32859	32978	33143	32646	32663	32865	32685	
938	0	32285	32783	32830	33083	32623	32858	32867	32615	
939	0	32208	32719	32827	33127	32567	32845	32757	32826	
940	0	32199	32711	33015	32965	32692	32687	32879	32545	
941	0	32277	32804	32910	32758	32999	32449	32811	32415	
942	0	32317	32775	32889	32682	32854	32775	32673	32493	
943	0	32422	32903	32804	32831	32765	32719	32859	32437	
944	0	32359	32966	32787	32656	32861	32683	32786	32519	
945	0	32279	33133	32743	32411	33123	32489	32799	32593	
946	0	32263	33353	32495	32379	33191	32587	32764	32591	
947	0	32338	33078	32317	32471	33024	32539	32711	32589	
948	0	32577	32959	32317	32283	32807	32631	32804	32486	
949	0	32635	32807	32311	32436	32575	32743	32815	32629	
950	0	32761	32775	32531	32455	32695	32669	32877	32674	
951	0	32830	32948	32603	32559	32819	32615	32714	32711	
952	0	32775	33046	32589	32659	32565	32829	32516	32743	
953	0	32694	33213	32663	32754	32535	32867	32403	32745	
954	0	32663	33254	32621	32837	32933	32615	32691	32638	
955	0	32771	33083	32751	32809	32775	32803	32842	32803	
956	0	32887	32989	32667	32843	32871	32659	32956	32775	
957	0	32903	32903	32557	32751	32847	32559	32966	32529	
958	0	32830	32911	32621	32719	32885	32494	32825	32743	
959	0	32647	32771	32681	32794	32743	32927	32527	32773	
960	0	32707	32727	32607	32919	32583	32707	32475	32674	
961	0	32730	32775	32429	32997	32711	32642	32433	32879	
962	0	32633	32949	32439	32937	32894	32505	32797	32799	
963	0	32685	32753	32543	32903	32878	32728	32865	32845	
964	0	32717	32619	32749	32827	32671	32783	33103	32625	
965	0	32775	32647	32711	32767	32853	32496	33083	32623	
966	0	32711	32463	32822	32735	32758	32687	32931	32813	
967	0	32786	32608	32695	32612	32626	32755	32979	32713	
968	0	32807	32775	32553	32471	32636	32759	32967	32739	
969	0	32716	32647	32541	32441	32518	32890	32823	32713	
970	0	32694	32635	32519	32495	32591	32775	32775	32718	
971	0	32708	32765	32391	32477	32671	32857	32761	32893	
972	0	32694	32639	32375	32407	32669	33023	32758	32833	
973	0	32640	32844	32587	32551	32799	32871	32903	32732	
974	0	32589	32869	32557	32543	32962	32819	32971	32679	
975	0	32686	32766	32711	32499	33023	32549	32775	32787	
976	0	32728	32850	32555	32487	32955	32303	32647	32685	
977	0	32756	32683	32788	32563	32939	32399	32881	32692	
978	0	32773	32882	32701	32421	32897	32735	32799	32570	
979	0	32826	32805	32815	32506	32773	32839	32681	32797	
980	0	32843	32723	32873	32635	32821	32727	32846	32669	
981	0	32967	32535	32564	32775	32691	32629	32733	32799	
982	0	33006	32756	32725	32723	32815	32717	32902	32535	
983	0	32976	32653	32679	32767	32813	32647	32762	32710	
984	0	33000	32719	32738	32647	32801	32676	32719	32626	
985	0	32967	32631	32679	32620	32805	32733	32715	32690	
986	0	32871	32847	32612	32679	32813	32607	32511	32615	
987	0	32735	32822	32623	32722	32847	32749	32595	32731	
988	0	32671	32877	32615	32723	32871	32727	32535	32709	
989	0	32632	32566	32583	32691	32735	32823	32517	32788	
990	0	32612	32612	32703	32761	32751	32771	32594	32719	
991	0	32660	32791	32493	32647	32736	32740	32687	32743	
992	0	32720	32687	32586	32457	32733	32759	32685	32673	
993	0	32798	32801	32607	32631	32743	32735	32735	32713	
994	0	32741	32611	32567	32703	32687	32859	32708	32759	
995	0	32711	32663	32727	32711	32674	32758	32573	32686	
996	0	32748	32803	32773	32739	32691	32764	32583	32710	
997	0	32802	32751	32583	32717	32847	32615	32786	32617	
998	0	32758	32815	32822	32639	32829	32717	32837	32698	
999	0	32759	32754	32867	32663	32647	32615	32775	32704	
1000	0	32797	32935	32839	32631	32689	32628	32615	32721	
1001	0	32800	33083	32887	32687	32807	32631	32620	32698	
1002	0	32879	33021	32935	32607	32737	32600	32687	32662	
1003	0	32882	32951	32671	32541	32631	32719	32587	32773	
1004	0	32794	32827	32773	32668	32553	32587	32461	32662	
1005	0	32678	32720	32683	32739	32642	32751	32598	32775	
1006	0	32601	32669	32743	32959	32855	32831	32727	32734	
1007	0	32692	32755	32584	33243	32919	32467	32765	32802	
1008	0	32557	32575	32543	33390	32659	32607	32756	32735	
1009	0	32563	32751	32398	33335	32534	32679	33068	32711	
1010	0	32620	32967	32583	33080	32598	32812	32730	32763	
1011	0	32703	33311	32471	32735	32935	32749	32733	32805	
1012	0	32746	33279	32463	32556	32946	32479	32953	32563	
1013	0	32632	33431	32591	32390	32875	32701	33031	32699	
1014	0	32773	33319	32543	32249	32881	32762	33047	32799	
1015	0	32828	33082	32599	32111	32692	32787	32887	32917	
1016	0	32937	32850	32634	32019	32631	32745	32877	32793	
1017	0	32830	32484	32564	31830	32773	32731	32919	32825	
1018	0	32781	32407	32443	31515	32815	32775	32749	32719	
1019	0	32812	32445	32421	31751	32743	32787	32297	32681	
1020	0	32916	32501	32402	32127	32783	32686	32503	32677	
1021	0	32978	32607	32594	32640	32811	32590	32591	32482	
1022	0	32975	32939	32771	32900	32831	32647	32459	32845	
1023	0	32973	33271	32511	32915	33011	32709	32615	32959	
1024	0	32884	33503	32599	33139	33103	32551	32995	32983	
1025	0	32856	33183	32487	33079	32791	32670	32913	32895	
1026	0	32775	32823	32601	33067	32571	32775	33103	32929	
1027	0	32763	32135	32739	32759	32804	32739	33248	32633	
1028	0	32726	31805	32815	32547	32903	32672	33191	32717	
1029	0	32543	31715	32495	32567	32607	33069	32903	32739	
1030	0	32455	31517	32511	32559	32790	32767	32881	32463	
1031	0	32490	31943	32576	32531	32788	32635	32643	32496	
1032	0	32506	32471	32658	32566	32790	32635	32470	32421	
1033	0	32567	32716	32645	32767	32562	32903	32583	32591	
1034	0	32690	32679	32759	32523	32803	32694	32631	32702	
1035	0	32633	33111	32741	32807	32903	32433	32835	32731	
1036	0	32401	33229	32903	33026	32995	32556	32903	32695	
1037	0	32374	33167	32971	32955	32751	32647	32863	32775	
1038	0	32374	32962	32995	32967	32678	32807	32607	32690	
1039	0	32423	32743	32809	32759	32634	32903	32699	32767	
1040	0	32586	32647	32807	32871	32663	32854	32911	32703	
1041	0	32836	32697	32729	32695	32775	32797	32747	32855	
1042	0	33132	32599	32727	32352	32815	32749	32410	32951	
1043	0	33376	32966	32545	32621	32627	32677	32821	32710	
1044	0	33375	33431	32639	32703	32643	32639	33007	32786	
1045	0	33291	33583	32611	32647	32931	32501	32767	32823	
1046	0	33355	33599	32263	32743	33183	32540	32813	32743	
1047	0	33492	33205	32367	32743	32943	32804	32682	32902	
1048	0	33454	32775	32481	32850	32449	32775	32799	32751	
1049	0	33355	32679	32382	32765	32371	32719	32943	32711	
1050	0	33113	32339	32467	32693	32406	32733	32967	32782	
1051	0	32796	31927	32431	32645	32399	32747	32493	32772	
1052	0	32616	32015	32532	32127	32647	32854	32647	32660	
1053	0	32326	32279	32454	32135	32916	32719	32695	32518	
1054	0	32263	32647	32419	32364	32941	32724	32619	32672	
1055	0	32256	32937	32612	32519	32955	32603	32655	32743	
1056	0	32090	33111	32738	32747	32891	32806	32647	32798	
1057	0	32089	33431	32525	32943	32819	32919	32644	32829	
1058	0	32251	33121	32771	32979	32655	32931	32615	32923	
1059	0	32525	32857	33012	33013	32711	32702	32597	32787	
1060	0	32683	32662	32957	32873	32836	32663	32575	32782	
1061	0	32854	32119	32679	32687	32749	32547	32535	32767	
1062	0	32965	32080	32903	32587	32709	32647	32937	32581	
1063	0	32934	31999	32663	32619	32721	32567	32786	32663	
1064	0	32964	32103	32671	32771	32982	32423	32982	32571	
1065	0	32909	32255	32831	32823	33067	32274	32980	32665	
1066	0	33039	32975	32663	32687	32834	32469	32933	32631	
1067	0	33297	32855	32629	32727	32698	32903	32767	32703	
1068	0	33404	32807	32692	32787	32659	32720	32639	32653	
1069	0	33090	32764	32331	32830	33012	32519	32722	32611	
1070	0	32756	33147	32413	32655	32631	32943	32655	32751	
1071	0	32727	33203	32543	32584	32765	32663	32887	32785	
1072	0	32646	33271	32638	32701	32679	32693	32587	32835	
1073	0	32792	33026	32834	32919	32687	32807	32542	32859	
1074	0	32794	32911	32919	32890	32629	32807	32354	32775	
1075	0	32816	32898	32903	32863	32583	32646	32724	32732	
1076	0	32782	32835	32859	32879	32615	32781	32718	32686	
1077	0	32828	33071	32642	32918	32703	32799	32567	32633	
1078	0	32634	33347	32866	32877	32463	32975	32495	32810	
1079	0	32535	33225	32805	33035	32383	32845	33143	32621	
1080	0	32652	33415	32757	33295	33079	32687	33226	32727	
1081	0	32543	33303	32900	33179	33325	32683	32861	32894	
1082	0	32623	33113	33055	32882	33047	32783	32925	32807	
1083	0	32755	32775	32620	32491	32911	32661	32876	32855	
1084	0	32804	32351	32519	31983	32799	32775	32731	32823	
1085	0	32752	32151	32671	31735	32859	32695	32612	32939	
1086	0	32724	32171	32663	31733	32791	32791	32604	32793	
1087	0	32768	32071	32478	31831	32957	32628	32802	32821	
1088	0	32747	31991	32391	32105	32846	32723	32668	32879	
1089	0	32720	32015	32114	32295	32919	32617	32795	32643	
1090	0	32644	32303	32039	32487	32789	32671	32781	32575	
1091	0	32573	32861	32319	32578	32383	32869	32879	32553	
1092	0	32562	33106	32459	32886	32396	32931	32679	32758	
1093	0	32572	33191	32499	33117	32729	32846	32743	32655	
1094	0	32569	33268	32527	33221	32863	32759	33093	32703	
1095	0	32609	32979	32578	33031	32890	32541	33185	32689	
1096	0	32736	32927	32726	32743	32807	32437	32814	32595	
1097	0	32567	32854	32975	32599	32786	32455	32535	32671	
1098	0	32638	32775	32901	32619	32738	32609	32583	32791	
1099	0	32613	32611	33091	32829	32763	32687	32594	33019	
1100	0	32711	32495	33119	32978	32836	32647	32775	33017	
1101	0	32643	32531	33015	33025	32822	32647	32839	32831	
1102	0	32647	32524	32898	33055	32820	32771	32759	32679	
1103	0	32679	32799	32775	33183	32754	32843	32647	32811	
1104	0	32671	33111	32763	33217	32721	32911	32499	32839	
1105	0	32639	33079	32775	32941	32783	32821	32327	32860	
1106	0	32647	33226	32349	32287	32759	32871	32455	32543	
1107	0	32634	32902	32335	31431	32599	32775	32713	32636	
1108	0	32629	32826	32434	31087	32694	32834	33038	32598	
1109	0	32604	32983	32487	31895	32833	32727	32775	32500	
1110	0	32716	32804	32375	32369	33005	32717	32689	32460	
1111	0	32788	32757	32347	32363	32895	32671	32681	32567	
1112	0	32805	32903	32399	32473	32786	32603	32839	32743	
1113	0	32743	32771	32531	32391	32646	32731	32747	32723	
1114	0	32775	32643	32391	32339	32574	32574	32759	32733	
1115	0	32840	32743	32551	32307	32689	32738	32863	32559	
1116	0	32946	32822	32715	32546	32748	32811	32955	32607	
1117	0	32852	33010	32639	32771	32946	32555	32815	32525	
1118	0	32500	33039	32751	32811	32775	32717	32775	32763	
1119	0	32397	32757	32860	32903	32807	32623	32759	32663	
1120	0	32468	32632	32814	32970	32835	32619	32671	32773	
1121	0	32583	32713	32862	32990	32839	32655	32699	32703	
1122	0	32681	32454	32855	32919	32621	32695	32765	32759	
1123	0	32732	32429	32559	32979	32541	32991	32743	32655	
1124	0	33001	32447	32641	32967	32723	32791	32694	32759	
1125	0	33157	32731	32693	32970	32823	32791	32739	32731	
1126	0	33117	32773	32680	32820	32829	32743	32673	32685	
1127	0	32942	32911	32503	32719	32807	32692	32803	32647	
1128	0	32867	32862	32508	32711	32869	32619	32957	32527	
1129	0	32960	33071	32621	32583	32899	32622	32647	32740	
1130	0	32932	33274	32383	32607	33019	32621	32501	32690	
1131	0	32876	33149	32374	32743	32861	32647	32407	32927	
1132	0	32841	32966	32589	32775	32707	32679	32421	32887	
1133	0	32773	32587	32799	32729	32751	32646	32956	32706	
1134	0	32746	32162	32647	32612	32640	32642	32862	32558	
1135	0	32665	32213	32635	32561	32327	32851	32615	32633	
1136	0	32590	32331	32734	32507	32423	32764	32845	32775	
1137	0	32736	32174	32887	32584	32687	32790	32735	32795	
1138	0	32715	32213	32647	32589	32973	32519	32987	32591	
1139	0	32810	32386	32926	32719	33017	32635	32885	32661	
1140	0	32789	32699	32911	32711	32832	32723	32758	32747	
1141	0	32641	33135	32804	32742	32973	32619	32671	32839	
1142	0	32810	33335	32711	32743	32799	32641	32727	32903	
1143	0	32775	33502	32749	32898	32807	32685	32766	32805	
1144	0	32535	33367	32479	32863	32887	32775	32889	32708	
1145	0	32407	33567	32450	32915	32877	32754	32621	32691	
1146	0	32571	33570	32628	32820	32551	32823	32367	32738	
1147	0	32662	33315	32603	32683	32831	32540	32566	32839	
1148	0	32668	33021	32381	32516	32815	32663	32844	32794	
1149	0	32713	32627	32327	32385	32361	32875	32794	32743	
1150	0	32792	32399	32301	32590	32563	32871	32942	32711	
1151	0	32926	32263	32375	32759	32663	32859	32731	32751	
1152	0	32975	32127	32571	32775	32757	32855	32655	32818	
1153	0	32935	32023	32522	32798	32683	32695	32391	32773	
1154	0	32885	31773	32491	32803	32787	32547	33057	32615	
1155	0	32833	31829	32475	32823	32903	32471	33171	32571	
1156	0	32865	32155	32543	32643	32615	32723	32868	32607	
1157	0	32789	32423	32731	32633	32567	32827	32933	32583	
1158	0	32751	32734	32525	32508	32599	32967	32797	32751	
1159	0	32671	32918	32558	32391	32859	32911	32628	32725	
1160	0	32656	32959	32775	32353	32887	33106	32817	32599	
1161	0	32858	33089	32923	32717	32895	32775	32771	32667	
1162	0	32914	33159	32952	32663	32815	32571	32633	32583	
1163	0	32848	32887	33055	32418	32764	32301	32958	32569	
1164	0	32871	32743	33031	32356	32507	32759	32854	32679	
1165	0	32793	32839	33006	32319	32559	32679	32775	32703	
1166	0	32718	32824	33031	32420	32763	32563	32919	32451	
1167	0	32696	33039	33077	32435	32981	32693	32827	32788	
1168	0	32629	33131	32963	32732	32995	32820	32619	32935	
1169	0	32624	33298	32617	32939	32973	32844	32818	32773	
1170	0	32504	33243	32479	32895	32789	32545	32763	32581	
1171	0	32554	33092	32662	32882	32850	32543	32674	32692	
1172	0	32647	32919	32726	32852	32836	32631	32635	32863	
1173	0	32741	32690	32647	32711	32711	32637	32871	32807	
1174	0	32824	32516	32585	32741	32749	32579	32887	32687	
1175	0	32782	32548	32679	32823	32719	32645	32647	32852	
1176	0	32855	32675	32787	33063	32609	32751	32467	32879	
1177	0	32807	32838	32889	33091	32857	32615	32590	32581	
1178	0	32794	33015	32807	33204	33005	32450	32765	32533	
1179	0	32887	33287	32839	33063	32671	33206	32751	32699	
1180	0	33080	33460	32571	33029	32519	33197	32703	32775	
1181	0	33023	33909	32543	32823	32721	32823	32681	32681	
1182	0	32860	34111	32487	32447	32808	32586	32663	32591	
1183	0	32793	33799	32405	32123	32759	32775	32743	32789	
1184	0	32687	33245	32543	32231	32767	32751	32557	32967	
1185	0	32593	32679	32507	32343	32757	32708	32455	32923	
1186	0	32518	32102	32446	32375	32815	32562	32775	32915	
1187	0	32415	31451	32279	32462	32903	32598	32737	32742	
1188	0	32516	31042	32499	32399	32932	32690	32711	32863	
1189	0	32611	30790	32423	32281	32967	32653	32687	32813	
1190	0	32746	30855	32318	32277	32780	32863	32607	32825	
1191	0	33021	31439	32438	32219	32603	32775	32631	32755	
1192	0	33000	32171	32583	32422	32851	32647	32805	32580	
1193	0	32998	32727	32529	32495	32515	32676	32583	32663	
1194	0	32993	33199	32588	32421	32722	32775	32919	32647	
1195	0	33126	33207	32807	32437	32921	32634	33153	32531	
1196	0	33103	33167	32937	32619	33103	32611	33007	32571	
1197	0	32999	33031	33095	32890	32791	32658	32551	32593	
1198	0	32888	33157	32871	32946	32725	32769	32775	32679	
1199	0	32718	33159	32854	33071	32631	32818	32831	32623	
1200	0	32598	32927	32874	33197	32834	32710	32832	32679	
1201	0	32677	32848	32898	33332	32775	32647	32747	32617	
1202	0	32671	32767	32687	33351	32505	32775	32647	32839	
1203	0	32798	33022	32742	32866	32808	32596	32620	32679	
1204	0	32860	32971	32455	32647	32911	32663	32743	32793	
1205	0	32775	32938	32530	32685	32787	32727	32594	32745	
1206	0	32663	32887	32399	32687	32629	32754	32599	32803	
1207	0	32677	32956	32383	32487	32583	32826	32773	32711	
1208	0	32653	33067	32380	32505	32540	32846	33025	32767	
1209	0	32647	33075	32371	32535	32635	32583	32807	32687	
1210	0	32682	33037	32535	32893	32684	32578	32895	32654	
1211	0	32730	32900	32447	32867	32709	32715	33079	32623	
1212	0	32740	33006	32795	32721	32967	32583	33087	32749	
1213	0	32665	33095	33043	32769	32969	32583	33046	32615	
1214	0	32642	32862	33007	32706	32655	32748	32807	32603	
1215	0	32699	32635	32758	32801	32685	32719	32689	32724	
1216	0	32654	32511	32811	32671	32661	32773	32583	32599	
1217	0	32743	32619	32623	32421	32671	32756	32595	32775	
1218	0	32756	32822	32581	32437	32676	32799	32787	32755	
1219	0	32815	32797	32575	32550	32647	32701	32935	32748	
1220	0	32828	32844	32759	32535	32679	32745	32955	32805	
1221	0	32847	33003	32698	32551	32855	32675	32885	32597	
1222	0	32838	32867	32687	32421	32871	32617	32847	32615	
1223	0	32789	32943	32764	32549	32775	32743	32620	32686	
1224	0	32710	32999	32571	32587	32662	32998	32689	32851	
1225	0	32730	32837	32407	32455	32807	32891	32999	32723	
1226	0	32796	32823	32351	32503	32735	32839	32895	32687	
1227	0	32814	32721	32319	32525	32703	32862	32496	32775	
1228	0	32914	32647	32364	32343	32725	32883	32535	32711	
1229	0	32911	32342	32310	32421	32814	32803	32551	32699	
1230	0	32706	32319	32447	32503	32755	32797	32623	32724	
1231	0	32666	32557	32532	32683	32783	32812	32659	32844	
1232	0	32647	32647	32233	32695	32870	32595	32711	32679	
1233	0	32767	32642	32347	32743	32988	32767	32736	32815	
1234	0	32818	32638	32467	32785	32869	32671	32690	32850	
1235	0	32843	32553	32581	32782	32901	32634	32919	32615	
1236	0	32796	32548	32621	32885	32919	32611	32686	32745	
1237	0	32762	32556	32758	32787	32862	32679	32566	32861	
1238	0	32741	32795	32935	32775	32950	32617	32807	32659	
1239	0	32839	32955	32863	32767	32953	32679	32879	32682	
1240	0	32863	33062	32839	32863	32823	32719	32682	32763	
1241	0	32799	33027	32605	32903	32885	32615	32589	32687	
1242	0	32718	32957	32685	32835	32789	32735	32607	32755	
1243	0	32586	32701	32663	32703	32757	32743	32493	32756	
1244	0	32537	32613	32660	32749	32713	32621	32711	32711	
1245	0	32612	32634	32661	32687	32647	32691	32850	32699	
1246	0	32660	32609	32746	32847	32397	32989	32738	32839	
1247	0	32642	32715	32771	32797	32374	32913	32883	32647	
1248	0	32811	32659	32525	32807	32775	32627	33287	32511	
1249	0	32937	32590	32464	32686	32767	32668	33071	32765	
1250	0	32927	32643	32466	32621	32669	32871	32852	32863	
1251	0	32841	32679	32555	32725	32639	32898	32799	32775	
1252	0	32985	32956	32595	32662	32726	32263	32731	32639	
1253	0	32991	33405	32686	32514	32790	32447	32507	32627	
1254	0	32937	33503	32698	32540	32751	32787	32627	32762	
1255	0	32845	33478	32607	32513	32765	32842	32965	32610	
1256	0	32827	33257	32677	32450	32767	32711	32802	32755	
1257	0	32707	32869	32566	32201	32829	32668	32585	32732	
1258	0	32583	32487	32711	31975	32797	32597	32842	32647	
1259	0	32688	32444	32685	32000	32802	32690	33063	32867	
1260	0	32739	32551	32556	32391	32771	32735	32814	32830	
1261	0	32764	32514	32878	32477	32823	32783	32799	32835	
1262	0	32775	32331	33014	32391	32850	32607	32775	32775	
1263	0	32775	32223	33055	32540	32831	32582	32619	32698	
1264	0	32586	32447	32891	32525	32863	32703	32903	32647	
1265	0	32684	32715	32590	32527	32742	32835	32699	32647	
1266	0	32745	32682	32677	32607	32751	32729	32598	32611	
1267	0	32822	32711	32551	32789	32692	32837	32607	32796	
1268	0	32813	32671	32443	32939	32637	32935	32727	32831	
1269	0	32878	32642	32227	32941	32690	32775	32708	32659	
1270	0	32870	32751	32133	32941	32825	32743	32775	32772	
1271	0	32800	32811	32166	32790	32670	32615	32741	32673	
1272	0	32903	32629	32199	32541	32762	32751	32823	32623	
1273	0	33109	32558	32459	32503	32743	32695	32703	32714	
1274	0	33047	32627	32633	32707	32799	32683	32607	32647	
1275	0	33044	33117	32687	32797	32583	32681	32717	32791	
1276	0	32935	33468	32807	32935	32564	32735	33151	32683	
1277	0	32615	33623	32902	32963	32861	32548	33173	32504	
1278	0	32454	33741	33059	32596	32799	32679	32831	32647	
1279	0	32359	33671	32899	32317	32780	32738	32775	32743	
1280	0	32317	33332	32855	31858	32870	32606	32813	32654	
1281	0	32391	32955	32877	31958	32971	32637	32967	32815	
1282	0	32493	32695	32723	32277	32855	32626	33063	32743	
1283	0	32692	32367	32863	32381	32900	32788	32922	32725	
1284	0	32729	31781	32773	32407	32941	32886	32813	32751	
1285	0	32639	31471	32735	32549	32765	32886	32602	32807	
1286	0	32646	31343	32807	32591	32858	32711	32621	32716	
1287	0	32557	31405	32583	32567	32705	32590	32719	32709	
1288	0	32525	31730	32621	32747	32502	32775	32775	32692	
1289	0	32522	32423	32567	32763	32790	32735	32791	32713	
1290	0	32644	32877	32590	32742	32831	32700	32709	32787	
1291	0	32843	32754	32646	32687	32679	32601	32697	32599	
1292	0	32841	32722	32623	32573	32550	32695	32676	32647	
1293	0	32883	32871	32599	32763	32301	32899	32621	32727	
1294	0	32887	32903	32597	32873	32319	32933	32683	32797	
1295	0	32917	32924	32540	33007	32998	32609	32918	32647	
1296	0	32698	32943	32535	32951	33010	32655	32885	32747	
1297	0	32647	32900	32639	32759	32939	32765	32727	32615	
1298	0	32512	32903	32743	32639	32917	32782	32660	32738	
1299	0	32647	32791	32735	32654	32911	32767	32707	32719	
1300	0	32745	32823	32562	32677	32855	32767	32759	32708	
1301	0	32903	32819	32521	32671	32845	32559	32775	32635	
1302	0	33008	32711	32739	32695	32775	32542	32582	32469	
1303	0	32788	32771	32799	32716	32766	32549	32570	32595	
1304	0	32662	33038	32742	32903	32515	32879	32503	32919	
1305	0	32771	33250	32606	32903	32502	32759	32444	32879	
1306	0	32943	33265	32583	32951	32574	32839	32274	32559	
1307	0	33221	33367	32631	33007	32530	32868	32559	32630	
1308	0	33182	33583	32558	33037	32711	33129	32775	32765	
1309	0	33134	33925	32431	33090	33285	32791	32930	32727	
1310	0	33036	33767	32407	33159	33527	32195	32919	32639	
1311	0	32910	33367	32359	32917	32991	32535	32671	32685	
1312	0	32865	32999	32327	32846	32865	32511	32735	32584	
1313	0	32733	32647	32481	32743	32659	32575	32655	32709	
1314	0	32759	32390	32683	32567	32441	32739	32756	32732	
1315	0	32665	32231	32643	32710	32567	32837	32634	32950	
1316	0	32642	32175	32769	32663	32923	32636	32879	32852	
1317	0	32652	32058	32903	32349	32839	32623	32941	32887	
1318	0	32655	32087	33127	32278	32799	32663	32609	32968	
1319	0	32708	32365	33138	32391	32791	32903	32563	32705	
1320	0	32481	32842	32935	32135	32593	32893	32637	32826	
1321	0	32495	33041	32755	32023	32930	32597	32994	32751	
1322	0	32445	33191	32759	31922	32885	32596	32564	32591	
1323	0	32344	33159	32661	32318	32729	32533	32511	32850	
1324	0	32363	32927	32655	32351	33027	32501	32656	32818	
1325	0	32548	32726	32611	32303	32927	32479	32661	32742	
1326	0	32764	32671	32100	32493	32613	32601	32831	32663	
1327	0	32784	32237	32175	32701	32434	32592	32766	32434	
1328	0	32831	32210	32419	32839	32534	32775	32933	32447	
1329	0	33022	32279	32343	32895	32723	32791	32877	32530	
1330	0	33279	32191	32437	32802	32647	32759	32846	32667	
1331	0	33353	32519	32591	32796	32700	32678	32789	32723	
1332	0	33164	32797	32487	32921	32811	32663	32916	32527	
1333	0	32871	32719	32643	32950	32962	32631	32970	32596	
1334	0	32793	32791	32710	33001	32772	32673	32711	32413	
1335	0	32970	32678	33003	33004	32707	32845	32495	32703	
1336	0	32923	32775	32903	32903	32723	32712	32479	32671	
1337	0	32903	32876	33063	32787	32759	32863	32567	32863	
1338	0	32792	32771	33018	32775	32746	32727	32663	32759	
1339	0	32638	32909	32948	32805	32595	32791	32775	32727	
1340	0	32461	33079	32944	32615	32687	32689	32845	32684	
1341	0	32389	33197	32807	32759	32879	32871	32645	32758	
1342	0	32431	33039	32831	32957	32615	32833	32829	33035	
1343	0	32431	33023	32903	33045	32719	33031	32747	32925	
1344	0	32335	33127	32863	33125	32899	32767	32898	32743	
1345	0	32301	33221	32715	32991	32951	32517	32850	32721	
1346	0	32454	33393	32460	32607	32727	32386	32647	32687	
1347	0	32510	33087	32419	32311	32583	32547	32871	32595	
1348	0	32640	32994	32313	32251	32551	32603	32983	32726	
1349	0	32900	33076	32342	32612	32671	32757	33123	32459	
1350	0	33107	32867	32313	32711	32980	32647	32967	32591	
1351	0	32974	33053	32359	32823	32987	32620	32829	32610	
1352	0	32818	33151	32559	32683	32803	32558	32611	32687	
1353	0	32785	32935	32443	32547	32767	32769	32691	32763	
1354	0	32762	32671	32701	32487	32822	32727	32525	32764	
1355	0	32740	32519	32797	32391	32790	32899	32391	32903	
1356	0	32793	32108	32924	32183	32860	32813	32574	32698	
1357	0	32773	32103	32891	32086	32828	32699	32854	32749	
1358	0	32791	32167	32898	32191	32726	32902	32815	32762	
1359	0	32667	32262	32918	32427	32799	32980	32669	32911	
1360	0	32631	32373	32679	32629	32724	32807	32687	32932	
1361	0	32655	32493	32646	32757	32811	32775	32413	32871	
1362	0	32685	32639	32581	32822	32811	32743	33047	32785	
1363	0	32639	32805	32606	32807	32967	32561	33108	32559	
1364	0	32545	32751	32646	32765	32757	32740	33013	32647	
1365	0	32647	32711	32557	32655	32611	32837	32762	32647	
1366	0	32626	32443	32397	32667	32475	32882	32715	32837	
1367	0	32890	32436	32445	32659	32627	32787	32922	32719	
1368	0	33074	32563	32471	32593	32763	32807	33255	32591	
1369	0	33026	32607	32458	32547	32747	32615	32833	32745	
1370	0	33175	32665	32550	32515	32883	32663	32807	32685	
1371	0	33457	32739	32615	32763	32845	32678	32645	32525	
1372	0	33265	32951	32475	32979	32805	32715	32471	32755	
1373	0	33049	33197	32454	32870	32749	32773	32775	32760	
1374	0	33086	33191	32607	32783	32887	32631	32759	32775	
1375	0	32967	33397	32763	32599	32767	32683	32643	32647	
1376	0	32959	33589	32549	32540	32735	32763	32567	32817	
1377	0	32663	33359	32399	32663	32854	32583	32475	32750	
1378	0	32372	33124	32379	32709	32767	32577	32702	32658	
1379	0	32331	32975	32567	32775	32660	32727	32763	32710	
1380	0	32239	32885	32630	32617	32615	32773	32739	32711	
1381	0	32271	32595	32717	32679	32681	32747	32694	32631	
1382	0	32481	32539	32822	32701	32773	32658	32895	32739	
1383	0	32643	32253	32663	32705	32831	32591	32822	32775	
1384	0	32702	31931	32658	32695	32692	32685	32734	32765	
1385	0	32628	32039	32775	32708	32767	32694	32863	32775	
1386	0	32694	32379	32611	32747	32663	32771	32767	32724	
1387	0	32843	32910	32749	32587	32674	32655	32861	32695	
1388	0	32775	33316	32591	32532	32685	32741	32943	32621	
1389	0	32895	33004	32519	32783	32833	32644	32901	32679	
1390	0	32852	33159	32539	32763	32859	32668	32599	32631	
1391	0	32730	33029	32519	32711	32863	32751	32599	32631	
1392	0	32903	32695	32690	32754	32807	32661	32527	32765	
1393	0	32942	32591	32641	32548	32853	32713	32527	32722	
1394	0	32867	32417	32621	32471	32719	32455	32381	32647	
1395	0	32783	32176	32671	32359	32837	32714	32497	32679	
1396	0	32708	31987	32681	32388	32689	32911	32551	32859	
1397	0	32693	31933	32743	32447	32871	32803	33038	32771	
1398	0	32813	32223	32587	32515	32719	32740	32731	32739	
1399	0	32773	32485	32572	32564	32799	32708	32943	32806	
1400	0	32774	32567	32903	32647	32887	32805	33110	32809	
1401	0	32917	32974	32930	32641	32806	32850	32971	32759	
1402	0	33090	33133	32787	32771	32727	32789	32797	32711	
1403	0	33156	33058	32711	32847	32717	32736	32772	32703	
1404	0	33005	33159	32755	32823	32863	32627	32583	32715	
1405	0	32758	33031	32959	32935	32670	32751	32289	32743	
1406	0	32679	33199	32590	33031	32638	32646	32295	32846	
1407	0	32690	33155	32715	33071	32903	32599	32607	32785	
1408	0	32694	33119	32673	33069	32708	32718	32606	32818	
1409	0	32668	33191	32613	32987	32644	32831	33111	32655	
1410	0	32609	32949	32543	32966	32615	32855	32735	32615	
1411	0	32628	33123	32711	32902	32694	32765	32833	32753	
1412	0	32838	33151	32583	32726	32700	32775	32687	32727	
1413	0	32890	32859	32607	32575	32694	32743	32742	32957	
1414	0	32874	32847	32591	32620	32684	32860	32935	32971	
1415	0	32828	32861	32575	32794	33117	32615	32935	32732	
1416	0	33002	32706	32717	32781	33125	32473	32786	32607	
1417	0	32925	32439	32634	32815	32915	32603	32787	32639	
1418	0	32854	32727	32761	32483	32863	32655	32719	32615	
1419	0	32741	32930	32853	32351	32541	32820	32607	32745	
1420	0	32578	33133	32829	32386	32515	32791	32621	32772	
1421	0	32632	32871	32828	32620	32381	32895	32823	32706	
1422	0	32692	32786	32773	32534	32663	32815	33107	32679	
1423	0	32729	32759	32457	32561	32845	32747	33143	32634	
1424	0	32675	32511	32327	32667	33223	32439	32978	32703	
1425	0	32711	32406	32351	32695	33039	32533	32669	32647	
1426	0	32699	32463	32327	32621	32735	32559	32557	32676	
1427	0	32655	32383	32375	32499	32638	32726	32430	32775	
1428	0	32668	32151	32263	32435	32722	32614	32567	32961	
1429	0	32642	32327	32438	32354	32775	32775	32557	32918	
1430	0	32693	32355	32405	32301	32847	32722	32667	32823	
1431	0	32687	32575	32439	32483	32871	32668	32690	32804	
1432	0	32720	32735	32423	32727	32639	32773	32623	32935	
1433	0	32753	32854	32447	32879	32555	32638	32879	32787	
1434	0	32703	32895	32621	32968	32525	32637	32987	32543	
1435	0	32745	32775	32775	32955	32835	32647	32967	32535	
1436	0	32844	32775	32885	33009	33151	32731	33111	32683	
1437	0	32835	32865	33071	32979	32898	32893	32871	32655	
1438	0	32846	33010	33075	32878	32706	32871	32839	32813	
1439	0	32855	33017	32942	32838	32717	32887	32928	32707	
1440	0	32879	32937	32768	32803	32706	32896	32917	32647	
1441	0	32883	32890	32707	32807	32612	32755	32859	32759	
1442	0	32842	32861	32817	32733	32667	32758	32711	32710	
1443	0	32807	32687	32855	32726	32885	32599	32791	32511	
1444	0	32710	32647	32829	32692	32949	32647	32797	32610	
1445	0	32722	32791	32809	32603	32647	32942	32482	32829	
1446	0	32728	32979	32863	32585	32423	32974	32197	33101	
1447	0	32722	33005	32734	32617	32423	32941	32583	32867	
1448	0	32753	32852	32609	32615	32975	32655	32839	32976	
1449	0	32839	32902	32513	32657	32975	32727	32733	32963	
1450	0	32911	32767	32344	32543	32743	32729	32599	32940	
1451	0	32909	32639	32487	32582	32638	32762	32663	32871	
1452	0	33080	32543	32495	32646	32647	32721	32775	32695	
1453	0	33173	32327	32383	32642	32743	32732	32511	32671	
1454	0	33181	32235	32375	32524	32720	32594	32606	32722	
1455	0	33167	32254	32491	32679	32783	32749	32804	32679	
1456	0	33199	32387	32773	32813	32805	32715	32671	32759	
1457	0	33144	32495	32899	32785	32775	32713	32559	32844	
1458	0	33031	32633	32687	32726	32813	32603	32567	32825	
1459	0	32998	32671	32647	32695	32711	32726	32556	32691	
1460	0	32956	32743	32559	32791	32621	32763	32486	32795	
1461	0	33083	32677	32519	32871	32595	32719	32407	32817	
1462	0	33119	32702	32675	32935	32847	32771	32412	32797	
1463	0	33230	32666	32967	32806	32927	32631	32615	32596	
1464	0	33210	32753	32967	32767	32855	32701	32707	32707	
1465	0	33159	32803	32855	32767	32822	32859	32683	32839	
1466	0	33174	32794	32647	32826	32747	32807	32541	32873	
1467	0	33125	32863	32547	32695	32786	32722	32579	32799	
1468	0	33127	32957	32391	32541	32819	32836	32420	32775	
1469	0	33046	33437	32135	32391	32436	32966	32419	32838	
1470	0	32913	33503	32183	32285	32532	32823	32662	32766	
1471	0	32643	33358	32243	32173	32753	32687	33055	32690	
1472	0	32381	33669	32226	32133	32851	32509	32790	32642	
1473	0	32053	33641	32391	32539	32815	32647	32765	32596	
1474	0	31815	33603	32661	32773	32903	32495	32939	32647	
1475	0	31569	33645	32730	32847	33113	32479	32679	32607	
1476	0	31495	33695	32663	32909	33255	32252	32903	32535	
1477	0	31357	33855	32703	32854	33175	32415	32881	32554	
1478	0	31382	33501	32429	32671	32668	32681	32386	32751	
1479	0	31486	33587	32679	32325	32535	32757	33075	32775	
1480	0	31602	33531	32655	32519	32567	32695	33085	32735	
1481	0	31916	33063	32507	32710	32881	32477	33279	32347	
1482	0	32077	32415	32583	32601	33079	32367	33309	32295	
1483	0	32125	32300	32780	32413	32703	32617	33127	32339	
1484	0	31925	32610	32647	32311	32837	32567	33121	32316	
1485	0	31582	32676	32534	32327	32956	32451	33220	32150	
1486	0	31367	32903	32583	32359	33001	32489	33541	32007	
1487	0	31361	33131	32667	32391	33084	32549	33490	32214	
1488	0	31507	33199	32794	32513	33123	32685	33321	32199	
1489	0	31585	32987	32932	32557	32903	32663	33164	32303	
1490	0	31737	33009	32783	32791	32871	32738	33191	32407	
1491	0	31692	33047	32724	32903	32842	32641	33067	32487	
1492	0	31795	32903	32815	32959	32775	32669	32998	32455	
1493	0	32251	32791	32763	32871	32743	32607	33103	32647	
1494	0	32545	32646	32711	32559	32711	32725	32966	32750	
1495	0	32540	32636	32732	32399	32805	32631	32725	32729	
1496	0	32711	32444	32831	32623	32803	32789	32735	32843	
1497	0	33072	32199	32839	32647	32559	32910	32658	33057	
1498	0	33542	32111	32791	32669	32583	32783	32775	32847	
1499	0	33769	32255	32819	32756	32678	32898	32585	33159	
1500	0	34019	32195	32783	32855	32621	32809	32447	33179	
1501	0	34304	32029	32739	32845	32707	32903	32349	33002	
1502	0	34651	31684	32751	32781	32599	32895	32207	33089	
1503	0	34791	31301	32694	32673	32534	32837	32291	33127	
1504	0	34570	31065	32699	32703	32503	32989	32327	32951	
1505	0	34500	31051	32775	32942	32491	32771	32335	32887	
1506	0	34431	31287	32589	32919	32615	32855	32391	32967	
1507	0	34292	31359	32548	32775	32557	32929	32343	33039	
1508	0	34191	31327	32579	32979	32643	33031	32375	32845	
1509	0	34017	31605	32620	32947	32679	33071	32404	32927	
1510	0	34015	31901	32639	32770	32759	32895	32390	32966	
1511	0	33751	32302	32775	32722	32710	32955	32261	32994	
1512	0	33414	32588	32773	32461	32639	32867	32525	32987	
1513	0	33115	32962	32541	32439	32606	32754	32559	32851	
1514	0	33020	33151	32507	32442	32679	32687	32431	32943	
1515	0	32949	33103	32551	32487	32703	32751	32373	33073	
1516	0	32690	33151	32497	32498	32594	32758	32462	33127	
1517	0	32770	33159	32591	32523	32567	32915	32487	32831	
1518	0	33082	33235	32677	32471	32531	32914	32797	32914	
1519	0	33018	33183	32739	32428	32655	32663	32719	32843	
1520	0	32749	33231	32751	32549	32903	32571	32935	32711	
1521	0	32730	33354	32723	32767	32703	32658	32742	32867	
1522	0	32697	33262	32630	32863	32595	32775	32586	32803	
1523	0	32678	32915	32686	32831	32711	32854	32732	32711	
1524	0	32481	32767	32526	32809	32971	32775	32663	32677	
1525	0	32304	32543	32431	32805	33094	32439	32634	32687	
1526	0	32308	32379	32423	32847	32897	32442	32743	32659	
1527	0	32366	32203	32278	32922	32797	32451	32903	32699	
1528	0	32431	32423	32427	33005	32835	32463	32771	32735	
1529	0	32391	32687	32450	33177	32676	32612	32875	32638	
1530	0	32498	32953	32428	33116	32613	32598	32869	32663	
1531	0	32690	33053	32484	33055	32783	32533	32646	32647	
1532	0	32810	33235	32391	32670	32838	32511	32597	32569	
1533	0	32620	33019	32269	32367	32861	32735	32791	32698	
1534	0	32630	33053	32405	32199	32966	32679	33198	32642	
1535	0	32764	33111	32461	32085	32621	32913	32909	32646	
1536	0	32743	33271	32455	32142	32717	32875	32802	32767	
1537	0	32731	33579	32631	32455	33127	32615	32811	32527	
1538	0	32640	33589	32722	32575	33069	32541	32883	32511	
1539	0	32504	33508	32812	32583	32871	32618	32661	32415	
1540	0	32586	33407	32999	32599	32769	32660	32943	32406	
1541	0	32551	32883	33127	32665	32962	32621	32850	32605	
1542	0	32620	32791	33024	32679	33121	32636	32847	32687	
1543	0	32658	32830	33082	32731	33012	32763	32895	32687	
1544	0	32647	32579	32932	32767	32827	32669	33135	32663	
1545	0	32518	32548	32725	32660	32455	32749	32903	32589	
1546	0	32606	32493	32602	32447	32687	32613	33037	32679	
1547	0	32688	32515	32535	32307	32549	32743	32831	32703	
1548	0	32699	32423	32477	32551	32532	32855	32789	32610	
1549	0	32643	32543	32665	32839	32647	32830	32666	32714	
1550	0	32518	32518	32695	32955	32771	32831	32511	32802	
1551	0	32642	32586	32481	32847	32995	32871	32941	32839	
1552	0	32812	32487	32525	33011	32855	32903	32699	32929	
1553	0	32754	32380	32637	33028	32571	32899	32591	32839	
1554	0	32726	32567	32722	32956	32687	32753	33021	32741	
1555	0	32726	32607	32699	32981	32341	32993	32789	32873	
1556	0	32827	32746	32644	32926	32717	32775	32639	32798	
1557	0	32787	33124	32615	32795	33031	32941	32705	32717	
1558	0	32722	33387	32548	32861	32947	32927	32558	32753	
1559	0	32655	33395	32595	32719	32901	32767	32519	32759	
1560	0	32684	33437	32630	32619	32845	32823	32614	32572	
1561	0	32625	33314	32604	32463	32711	32690	32510	32879	
1562	0	32628	33119	32695	32327	32596	32626	33243	32655	
1563	0	32569	33068	32723	32339	32667	32533	33230	32535	
1564	0	32540	32805	32764	32287	32735	32260	32959	32591	
1565	0	32444	32613	32643	32239	32895	32361	32895	32683	
1566	0	32512	32535	32655	32743	32967	32526	32731	32723	
1567	0	32489	32589	32559	33015	32851	32563	33058	32605	
1568	0	32565	32527	32623	32987	32804	32691	33010	32759	
1569	0	32541	32639	32631	32993	32655	32722	32686	32671	
1570	0	32626	32899	32759	33046	32623	32809	32491	32577	
1571	0	32685	33017	32679	33059	32703	32733	32548	32686	
1572	0	32672	33284	32723	32866	32599	32731	32595	32518	
1573	0	32751	33375	32786	32607	32671	32624	32662	32493	
1574	0	32743	33495	32805	32493	32733	32691	32596	32675	
1575	0	32705	33367	32783	32502	32759	32689	32701	32735	
1576	0	32750	33095	32817	32279	32790	32722	32593	32813	
1577	0	32834	32671	32659	32109	32854	32629	32563	32850	
1578	0	32974	32563	32609	32087	32742	32719	32413	32679	
1579	0	32948	32646	32685	32355	32687	32657	32467	32756	
1580	0	32840	32799	32727	32603	32621	32871	32471	32698	
1581	0	32771	32903	32571	32809	32587	32683	32351	32671	
1582	0	32756	33018	32449	33054	32711	33093	32548	32943	
1583	0	32828	32795	32492	33101	32883	33093	32621	32837	
1584	0	32713	32807	32569	33111	32829	32819	32845	32671	
1585	0	32794	32871	32557	33031	32846	32807	32939	32845	
1586	0	32878	32548	32513	32935	32795	32567	32933	32751	
1587	0	32914	32231	32531	32914	32597	32455	32839	32475	
1588	0	32855	32172	32531	32641	32846	32293	33069	32468	
1589	0	32824	32076	32553	32742	33047	32471	32805	32685	
1590	0	32758	32235	32588	32679	33075	32839	32979	32791	
1591	0	32892	32307	32596	32775	33206	32429	32917	32710	
1592	0	33004	32411	32753	32818	32771	32807	32691	32812	
1593	0	33026	32671	32830	32675	32735	32813	32829	32543	
1594	0	33048	32790	32949	32602	32791	32711	32885	32631	
1595	0	33093	33019	32799	32626	32783	32629	32807	32823	
1596	0	33065	33127	32700	32605	32839	32607	32727	32783	
1597	0	32983	32999	32557	32711	32757	32723	32715	32855	
1598	0	32899	32903	32807	32759	32831	32775	32756	32711	
1599	0	32825	32743	32875	32791	32599	32893	32236	32799	
1600	0	32803	32503	32711	32791	32423	32870	32282	32775	
1601	0	32741	32361	32614	32819	32223	32834	32635	32554	
1602	0	32731	32338	32415	32817	32403	32775	32987	32621	
1603	0	32683	32455	32576	32647	33133	32525	33297	32495	
1604	0	32576	32547	32538	32623	33126	32486	32903	32636	
1605	0	32512	32866	32503	32683	32575	32739	32527	32729	
1606	0	32550	33067	32365	32695	32679	32727	32379	32837	
1607	0	32546	33155	32223	32604	32738	32881	32503	32911	
1608	0	32508	33303	32155	32667	32899	32735	33068	32647	
1609	0	32607	33295	32263	32591	32935	32727	33014	32775	
1610	0	32812	33101	32396	32659	32671	32911	32911	32759	
1611	0	32691	33013	32415	32803	32739	32743	32795	32775	
1612	0	32369	33199	32422	32923	33110	32575	32979	32731	
1613	0	32391	33267	32540	32869	32925	32709	32705	32639	
1614	0	32564	33065	32747	32661	32734	32863	32581	32804	
1615	0	32666	32823	32791	32735	32895	32757	32894	32758	
1616	0	32988	32455	32775	32751	32703	32935	32726	32645	
1617	0	33215	32211	32787	32647	32631	32791	32903	32693	
1618	0	33411	31953	32951	32723	32903	32678	32775	32647	
1619	0	33394	31917	33061	32686	32855	32699	32500	32695	
1620	0	33225	31815	33087	32414	32951	32583	32523	32743	
1621	0	33058	31949	32875	31869	32855	32585	32711	32818	
1622	0	32765	32279	32710	31828	32486	32804	32607	32854	
1623	0	32474	32533	32815	32303	32559	32759	32529	32839	
1624	0	32255	32603	32679	32602	32935	32681	32919	32763	
1625	0	32333	32586	32559	32759	33053	32461	33059	32607	
1626	0	32312	32711	32583	33110	32751	32677	32797	32765	
1627	0	32263	32635	32566	33391	32767	32903	32667	32685	
1628	0	32645	32669	32543	33295	32687	32695	32479	32566	
1629	0	32854	32903	32220	32871	32809	32535	32791	32725	
1630	0	33082	33159	32382	32311	32831	32543	32891	32589	
1631	0	33300	33319	32493	31807	32660	32590	32930	32735	
1632	0	33231	33445	32511	31924	32647	32620	32883	32733	
1633	0	33151	33543	32503	32085	32847	32749	32732	32790	
1634	0	33060	33565	32583	32165	32759	32799	32759	32804	
1635	0	32957	33215	32542	32426	32491	32727	32701	32639	
1636	0	32826	33063	32711	32505	32500	32701	32499	32664	
1637	0	32734	32949	32719	32786	32587	32813	32662	32715	
1638	0	32717	32807	32732	32799	32775	32943	32847	32943	
1639	0	32683	32511	32691	32721	33086	32530	32876	32701	
1640	0	32654	32219	32695	32763	32916	32510	32716	32638	
1641	0	32710	32248	32842	32719	32791	32537	32457	32723	
1642	0	32684	32427	32811	32679	32849	32707	32427	32898	
1643	0	32562	32669	32759	32887	32879	32611	32667	32729	
1644	0	32565	32935	32887	32871	32711	32717	32803	32541	
1645	0	32446	33431	32865	32799	32711	32734	32617	32655	
1646	0	32589	33327	32790	32699	32443	32830	32471	32619	
1647	0	32617	33271	32861	32399	32341	32690	32935	32452	
1648	0	32441	33042	32679	32407	32667	32733	33011	32603	
1649	0	32351	32913	32503	32351	33013	32647	32957	32487	
1650	0	32233	32679	32533	32479	32887	32694	33173	32551	
1651	0	32108	32323	32539	32461	32666	32607	32935	32558	
1652	0	32143	32261	32455	32555	32578	32773	32687	32557	
1653	0	32318	32339	32502	32482	32921	32541	32631	32795	
1654	0	32559	32409	32541	32519	32963	32711	32367	33027	
1655	0	32846	32643	32463	32484	33106	32685	32535	32863	
1656	0	33083	32803	32559	32487	33059	32631	33115	32786	
1657	0	33145	33019	32595	32577	32980	32391	33091	32715	
1658	0	33259	33091	32637	32637	32586	32839	32919	32717	
1659	0	33287	33095	32535	32751	32535	32871	32831	32832	
1660	0	33375	32859	32535	32815	32575	32955	32643	32759	
1661	0	33404	32807	32595	32867	32735	32858	32615	32759	
1662	0	33154	32659	32703	32879	32711	32623	32575	32711	
1663	0	32973	32773	32834	32814	32797	32526	32647	32805	
1664	0	32824	32749	32823	32903	32673	32615	32775	32759	
1665	0	32690	32919	32975	32797	32623	32999	32765	32886	
1666	0	32609	33011	33059	32798	32627	33039	32639	32967	
1667	0	32578	32903	33027	32657	32670	32701	32743	32687	
1668	0	32662	32733	32885	32677	32719	32607	32721	32841	
1669	0	32580	32751	32684	32711	32759	32527	32658	32711	
1670	0	32630	32855	32534	32634	32915	32573	32723	32610	
1671	0	32647	32790	32446	32601	32847	32695	32710	32727	
1672	0	32656	32577	32615	32775	32691	32877	32677	32694	
1673	0	32681	32403	32703	32911	32783	32855	32887	32633	
1674	0	32652	32275	32788	32773	32875	32723	33001	32611	
1675	0	32782	32387	32723	32647	32787	32797	32807	32710	
1676	0	32725	32340	32495	32591	32615	32775	32767	32615	
1677	0	32921	32547	32511	32579	32743	32759	32925	32595	
1678	0	32868	32586	32517	32510	32717	32575	32827	32658	
1679	0	32822	32815	32535	32367	32879	32797	32923	32773	
1680	0	32858	33107	32667	32439	32740	32855	32782	32671	
1681	0	32927	33339	32655	32687	32876	32751	32710	32775	
1682	0	32902	33495	32662	32820	32891	32671	32824	32701	
1683	0	32898	33506	32759	32798	32709	32615	32802	32655	
1684	0	32829	33351	32807	32845	32759	32692	32833	32751	
1685	0	32749	33146	32869	32632	32841	32482	32884	32749	
1686	0	32716	33055	32945	32615	32894	32660	32783	32759	
1687	0	32692	32729	32964	32646	32863	32636	32682	32826	
1688	0	32734	32493	32758	32615	32862	32627	32807	32751	
1689	0	32700	32647	32705	32799	32847	32527	32807	32519	
1690	0	32812	33022	32523	32917	32835	32770	32793	32647	
1691	0	32766	33133	32363	32772	32844	32601	32623	32621	
1692	0	32662	33255	32323	32583	32726	32749	32540	32764	
1693	0	32470	33159	32321	32583	32711	32580	32667	32682	
1694	0	32461	32899	32443	32547	32863	32641	32738	32663	
1695	0	32535	32435	32647	32470	32835	32683	32711	32815	
1696	0	32599	32259	32647	32287	32647	32903	32729	32739	
1697	0	32709	31965	32647	32235	32711	32773	32702	32927	
1698	0	32828	31581	32739	32311	32787	32853	32619	32898	
1699	0	32892	31555	32775	32349	32851	32845	32677	32951	
1700	0	32980	31521	32714	32443	32627	32870	32846	32743	
1701	0	33010	31830	32754	32563	32675	32685	32698	32491	
1702	0	32916	32135	32742	32647	32775	32647	32671	32632	
1703	0	33063	32455	32738	32891	32827	32470	32591	32647	
1704	0	32987	32699	32558	33029	32871	32757	32655	32645	
1705	0	32966	32929	32607	33363	32698	33091	32660	32826	
1706	0	32681	33279	32711	33199	32687	32911	32748	32613	
1707	0	32532	33997	32613	32916	32841	32428	32845	32623	
1708	0	32508	34226	32669	32684	32806	32128	33125	32468	
1709	0	32455	34343	32508	32519	33013	32325	32966	32636	
1710	0	32434	34285	32507	32310	32879	32667	32642	32803	
1711	0	32335	33746	32437	32035	32495	32927	32375	32818	
1712	0	32277	33175	32584	31945	32061	32985	32307	32835	
1713	0	32270	32479	32790	32039	32271	32995	32901	32623	
1714	0	32236	31959	32757	32071	33471	32485	33543	32481	
1715	0	32376	31170	32535	32319	33574	32495	33356	32481	
1716	0	32477	31172	32323	32493	33103	32477	32822	32621	
1717	0	32615	31445	32415	32671	32738	32823	32485	32767	
1718	0	32836	31583	32627	32869	32675	32743	32716	32559	
1719	0	32937	32035	32455	33095	32927	32738	32941	32547	
1720	0	32969	32271	32459	33171	32838	32647	32663	32751	
1721	0	33112	32642	32567	33155	32751	32575	32763	32639	
1722	0	33183	32972	32647	32922	32791	32555	32961	32815	
1723	0	33189	33327	32736	32763	32679	32731	32691	32898	
1724	0	33141	33403	32703	32487	32727	32731	32636	32735	
1725	0	32962	33343	32685	32533	32503	32939	32595	32903	
1726	0	32951	33351	32647	32626	32639	32916	33095	32695	
1727	0	32862	33399	32671	32612	32623	32807	33279	32570	
1728	0	32887	33207	32631	32579	32723	32822	33083	32733	
1729	0	32743	33285	32535	32551	32783	32613	32810	32727	
1730	0	32763	33367	32483	32703	32663	32679	32590	32698	
1731	0	32788	33271	32621	32626	32626	32623	32694	32812	
1732	0	32748	32943	32687	32676	32715	32727	32839	32699	
1733	0	32632	32837	32635	32731	32751	32695	32493	32740	
1734	0	32596	32615	32685	32755	32677	32775	32391	32703	
1735	0	32679	32555	32599	32715	32753	32847	32701	32647	
1736	0	32701	32331	32563	32757	32719	32579	32871	32532	
1737	0	32773	32479	32677	32740	32711	32770	32931	32637	
1738	0	32735	32636	32734	32786	32607	32819	32827	32671	
1739	0	32738	32668	32643	32751	32713	32743	32643	32695	
1740	0	32763	32775	32559	32647	32883	32518	32647	32639	
1741	0	32749	32982	32615	32639	32631	32823	32567	32887	
1742	0	32762	33082	32525	32503	32870	32789	32567	32714	
1743	0	32751	33051	32647	32534	32903	32807	32415	32853	
1744	0	32804	33121	32706	32623	32709	32735	32283	32754	
1745	0	32809	33101	32557	32871	32604	32759	32287	32681	
1746	0	32880	32883	32723	32885	32633	32563	32902	32549	
1747	0	32868	32903	32835	32759	32789	32723	32892	32559	
1748	0	32838	32990	32959	32615	32855	32763	32795	32679	
1749	0	32790	32983	32918	32431	32789	32799	32545	32719	
1750	0	32775	32831	32957	32187	32663	32846	32579	32679	
1751	0	32741	32655	32971	32195	32919	32903	32685	32807	
1752	0	32617	32589	32789	32306	33143	32739	32718	32683	
1753	0	32572	32407	32717	32391	33035	32279	32807	32598	
1754	0	32519	32263	32831	32301	32751	32548	32869	32807	
1755	0	32529	32382	32791	32389	32681	32578	32919	32871	
1756	0	32567	32638	32604	32538	32599	32759	32812	32708	
1757	0	32659	32743	32615	32727	32623	32732	32673	32869	
1758	0	32660	32771	32494	32831	32806	32630	32571	32733	
1759	0	32548	32754	32531	32773	32607	32727	32519	32897	
1760	0	32635	32607	32540	32935	32557	32926	32463	32766	
1761	0	32703	32631	32543	32972	32559	32929	32438	32708	
1762	0	32909	32691	32517	33079	32971	32678	32939	32594	
1763	0	32935	32775	32615	32903	32962	32719	33031	32719	
1764	0	32889	32687	32821	32794	32807	32853	33018	32773	
1765	0	32916	32641	32642	32749	32708	32658	33159	32738	
1766	0	32914	32631	32599	32751	32743	32623	32901	32663	
1767	0	32886	32527	32605	32658	32658	32549	32647	32775	
1768	0	32887	32723	32702	32615	32583	32637	32558	32810	
1769	0	32857	33055	32617	32579	32735	32362	32858	32813	
1770	0	32853	33201	32643	32715	32869	32719	32946	32798	
1771	0	32756	33079	32570	32583	32999	32743	32838	32791	
1772	0	32807	32995	32501	32391	32847	32819	32534	32946	
1773	0	32759	32862	32423	32461	32689	32844	32407	32869	
1774	0	32651	32854	32343	32483	32845	32735	32723	32849	
1775	0	32839	32673	32311	32524	32999	32349	32978	32511	
1776	0	32896	32587	32391	32687	32949	32671	32839	32615	
1777	0	32928	32503	32558	32859	32943	32631	32823	32775	
1778	0	32869	32263	32565	32791	32727	32525	32702	32703	
1779	0	32986	32231	32786	32791	32815	32603	32662	32605	
1780	0	32946	32299	32991	32838	32678	32759	32771	32791	
1781	0	32953	32404	32941	32583	32479	33077	32705	32775	
1782	0	32902	32441	32839	32515	32903	32695	32793	32739	
1783	0	32884	32681	32775	32471	32967	32617	33063	32695	
1784	0	32775	33063	32726	32443	32767	32786	32859	32511	
1785	0	32717	33285	32763	32615	32735	32863	32834	32679	
1786	0	32686	33323	32921	32693	32803	32839	32731	32747	
1787	0	32579	33069	32913	32679	32663	32855	32655	32639	
1788	0	32551	33043	32830	32719	32695	32815	32633	32751	
1789	0	32487	32931	32919	32717	32679	32657	32749	32615	
1790	0	32464	32690	32911	32773	32492	32702	32775	32789	
1791	0	32442	32615	32706	32691	32487	32734	32811	32685	
1792	0	32249	32647	32711	32735	32689	32879	32722	32843	
1793	0	32082	32637	32743	32726	32861	32668	32786	32806	
1794	0	32303	32529	32598	32759	32744	32635	32687	32690	
1795	0	32457	32679	32583	32838	32717	32671	32900	32655	
1796	0	32580	32703	32525	32847	32831	32715	32638	32743	
1797	0	32613	33205	32621	32732	32754	32669	32612	32831	
1798	0	32647	33921	32463	32647	32711	32707	32663	32671	
1799	0	32791	33893	32574	32727	32750	32713	32639	32765	
1800	0	32868	33363	32495	32871	32802	32677	32647	32809	
1801	0	32943	33159	32579	32975	32827	32741	32647	32823	
1802	0	32892	33073	32486	32945	32839	32782	32647	32853	
1803	0	32859	32583	32359	33007	32902	32742	32723	32783	
1804	0	32978	32470	32564	33110	32850	32749	32518	32825	
1805	0	32891	32108	32599	32953	32771	32690	32510	32631	
1806	0	32877	31941	32733	32587	32743	32679	32443	32823	
1807	0	33065	31693	32739	32331	32695	32631	32415	32799	
1808	0	33132	31751	32475	31975	32847	32627	32867	32743	
1809	0	33235	32023	32507	31972	32827	32601	32743	32692	
1810	0	33218	32117	32706	32251	32655	32535	32551	32851	
1811	0	33223	32239	32564	32452	32850	32535	32485	32675	
1812	0	33232	32287	32754	32529	32655	32677	32580	32795	
1813	0	33223	32451	32519	32607	32878	32638	32731	32706	
1814	0	33077	32647	32479	32685	32771	32870	32738	32720	
1815	0	32823	32755	32703	32687	32587	33026	32775	32783	
1816	0	32759	33115	32754	32647	32639	32853	32887	32695	
1817	0	32703	33213	32775	32460	32775	32831	32931	32599	
1818	0	32579	33087	32911	32421	32847	32674	32890	32511	
1819	0	32324	33089	32919	32636	32813	32775	32551	32639	
1820	0	32209	32871	32612	32790	32995	32533	32635	32516	
1821	0	32356	32859	32516	32847	32855	32640	32599	32579	
1822	0	32541	33086	32423	32695	32583	32827	32619	32695	
1823	0	32568	32791	32375	32743	32824	32737	32730	32647	
1824	0	32804	32796	32534	32751	32903	32491	32803	32595	
1825	0	32908	32727	32519	32817	32789	32647	33103	32605	
1826	0	33032	32767	32715	32732	32775	32507	33159	32529	
1827	0	32989	33079	32805	32751	32678	32751	32957	32679	
1828	0	32936	33090	32847	32751	32787	32815	32695	32623	
1829	0	32876	33039	32615	32756	32761	32645	32581	32775	
1830	0	32735	32975	32798	32727	32755	32823	32471	32829	
1831	0	32745	32926	32690	32767	32915	32798	32478	32743	
1832	0	32738	32965	32739	32937	32690	32821	32661	32850	
1833	0	32576	33247	32729	32887	32745	32716	32838	32731	
1834	0	32575	33070	32802	32927	32799	32673	32919	32775	
1835	0	32529	32959	32847	32795	32822	32561	32891	32705	
1836	0	32681	32891	32531	32699	32775	32665	32829	32767	
1837	0	32749	32615	32539	32527	32823	32716	32836	32723	
1838	0	32854	32711	32571	32206	32735	32747	32775	32679	
1839	0	32871	32695	32579	32492	32585	32743	32630	32751	
1840	0	32825	32719	32510	32535	32469	32842	32415	32757	
1841	0	32773	32496	32612	32535	32598	32763	32439	32720	
1842	0	32923	32383	32487	32722	32676	32612	32756	32613	
1843	0	33082	32425	32381	32647	32919	32579	32860	32415	
1844	0	32909	32335	32547	32670	32790	32723	32949	32738	
1845	0	32687	32415	32434	32543	32799	33071	32723	32897	
1846	0	32676	32519	32507	32563	32647	32991	32461	32939	
1847	0	32581	32582	32461	32585	32510	32926	32391	32855	
1848	0	32581	32635	32407	32639	32750	32563	32701	32807	
1849	0	32567	32555	32639	32655	33006	32556	32900	32855	
1850	0	32502	32743	32826	32615	32993	32647	32771	32807	
1851	0	32749	33047	32814	32735	33053	32399	32967	32809	
1852	0	32910	33203	32919	32731	32846	32583	33012	32743	
1853	0	32899	33129	32827	32742	32613	32735	32993	32735	
1854	0	32908	33167	32735	32791	32495	32735	32695	32855	
1855	0	32991	32923	32707	32745	32743	32767	32695	32695	
1856	0	33117	33007	32682	32579	32743	32630	32540	32731	
1857	0	32991	32979	32687	32293	32830	32694	32825	32766	
1858	0	33044	32839	32647	32415	32999	32679	32950	32812	
1859	0	33112	32879	32718	32558	33095	32769	32754	32855	
1860	0	33124	32980	32786	32634	32796	32903	32549	32743	
1861	0	33023	32911	32807	32527	32623	32803	32647	32837	
1862	0	32817	32707	32591	32447	32683	32742	32927	32774	
1863	0	32807	32727	32749	32355	32669	32695	32903	32684	
1864	0	32764	32795	32534	32549	32931	32683	32855	32659	
1865	0	32710	32819	32631	32775	32759	32695	32798	32634	
1866	0	32679	32647	32669	32871	32633	32791	32919	32718	
1867	0	32711	32359	32581	33013	32479	32879	32831	32722	
1868	0	32806	32023	32543	32827	32751	32692	32708	32588	
1869	0	32799	32015	32531	32823	32915	32807	32724	32677	
1870	0	32749	32107	32457	32804	32919	32679	32775	32694	
1871	0	32620	32428	32575	32711	32706	32831	32675	32647	
1872	0	32608	32543	32647	32629	32695	32836	32463	32759	
1873	0	32566	32399	32637	32795	32702	32867	32647	32668	
1874	0	32608	32473	32554	32759	32875	32591	32598	32599	
1875	0	32580	32535	32351	32671	32959	32713	32662	32629	
1876	0	32574	32684	32367	32499	32573	32895	32470	32647	
1877	0	32518	33230	32364	32311	32599	32799	32415	32738	
1878	0	32492	33559	32423	32487	32703	32775	32661	32797	
1879	0	32612	33646	32699	32530	32871	32646	32775	32670	
1880	0	32646	33536	32715	32571	32967	32549	32937	32692	
1881	0	32613	33301	32822	32743	32993	32497	32985	32663	
1882	0	32706	33061	32722	32937	32869	32825	32775	32735	
1883	0	32711	32995	32818	32891	32816	32819	32523	32806	
1884	0	32631	32991	32795	32918	32878	32821	32495	32859	
1885	0	32710	32535	32820	33111	32851	32845	32751	32759	
1886	0	32797	32475	32637	33199	32791	32727	33003	32549	
1887	0	32796	32495	32555	33159	32692	32626	32834	32679	
1888	0	32838	32546	32718	32859	32639	32743	32853	32662	
1889	0	32784	32719	32786	32871	32657	32578	32759	32727	
1890	0	32762	32775	32876	32751	32671	32759	32647	32679	
1891	0	32711	32708	33017	32518	32735	32771	32756	32663	
1892	0	32696	32783	33126	32391	32787	32317	32885	32763	
1893	0	32797	33031	32998	32457	32599	32501	32834	32775	
1894	0	32830	33101	32609	32549	32529	32527	32671	32903	
1895	0	32738	32943	32598	32580	32635	32710	32701	32823	
1896	0	32671	33228	32513	32647	32975	32647	32811	32839	
1897	0	32578	32941	32563	32626	32773	32747	32625	32852	
1898	0	32660	33011	32493	32693	32775	32827	33095	32647	
1899	0	32530	33055	32614	32679	32931	32827	32751	32711	
1900	0	32535	33203	32690	32823	32819	32821	32645	32566	
1901	0	32753	33223	32685	32868	32459	32747	32799	32663	
1902	0	32791	33007	32450	32826	32690	32679	32983	32495	
1903	0	32898	32870	32541	32669	33043	32681	32726	32669	
1904	0	32978	32683	32695	32507	32759	32839	32300	32797	
1905	0	32913	32535	32739	32263	32799	32850	32461	32731	
1906	0	32876	32263	32723	32278	32788	32879	32671	32771	
1907	0	32920	32037	32852	32325	32655	32607	32775	32671	
1908	0	33035	31862	32941	32423	32750	32629	33029	32623	
1909	0	33029	31687	32563	32583	32845	32663	32960	32695	
1910	0	32999	31871	32471	32683	32962	32729	32796	32807	
1911	0	32941	32013	32391	32845	32847	32759	32775	32847	
1912	0	32819	32347	32349	32958	32829	32791	32679	32919	
1913	0	32678	32589	32387	32927	32589	32671	32729	32775	
1914	0	32593	33019	32563	32887	32466	32690	32823	32719	
1915	0	32521	33543	32447	32775	32454	32601	32971	32557	
1916	0	32366	33836	32477	32763	32599	32711	33065	32539	
1917	0	32349	34099	32479	32921	32783	32623	32935	32487	
1918	0	32330	34293	32303	32939	32716	32717	32791	32612	
1919	0	32549	34069	32442	32684	32757	32655	32698	32631	
1920	0	32559	33652	32668	32343	33011	32551	32719	32549	
1921	0	32564	33367	32663	32244	32705	32799	32513	32808	
1922	0	32573	32669	32693	32386	32689	32815	32527	32775	
1923	0	32681	31961	32879	32327	32707	32722	32757	32699	
1924	0	32775	31685	32538	32399	32727	32761	32727	32687	
1925	0	32678	31341	32549	32415	32543	32755	32855	32749	
1926	0	32634	30923	32654	32459	32783	32673	32762	32826	
1927	0	32740	30951	32747	32647	32999	32535	32925	32817	
1928	0	32722	31535	32610	32775	32767	32659	32911	32903	
1929	0	32735	32047	32717	32943	32684	32711	32882	32742	
1930	0	32762	32411	32862	32927	32663	32839	32805	32823	
1931	0	32910	32694	32708	33011	32839	32717	32655	32835	
1932	0	33055	32767	32815	32621	32978	32647	32751	32539	
1933	0	32955	33039	32803	32477	32807	32836	32575	32375	
1934	0	32789	33221	32491	32327	32791	32807	32888	32495	
1935	0	32732	33455	32535	32147	32852	32879	32787	32775	
1936	0	32668	33619	32655	32389	32741	32899	32721	32810	
1937	0	32701	33773	32718	32807	32654	32865	32647	32711	
1938	0	32743	34019	32413	33110	32695	32633	32659	32805	
1939	0	32700	33837	32559	33159	32551	32929	32597	32885	
1940	0	32753	33731	32581	32859	32915	32699	33111	32791	
1941	0	32575	33495	32573	32547	33347	32419	33499	32687	
1942	0	32574	32895	32334	32311	33095	32641	33019	32723	
1943	0	32501	32583	32433	32471	32982	32647	32775	32677	
1944	0	32532	32589	32445	32742	32987	32735	32743	32804	
1945	0	32548	32591	32453	33035	32845	32701	32775	32693	
1946	0	32751	32807	32576	32999	32707	32695	32775	32709	
1947	0	32849	32763	32613	32803	32735	32647	32619	32724	
1948	0	32998	32743	32429	32711	32791	32669	32627	32671	
1949	0	33223	32617	32658	32491	32525	32771	32623	32773	
1950	0	33300	32351	32589	32291	32485	32794	32447	32719	
1951	0	33415	31963	32639	32262	32523	32801	32486	32757	
1952	0	33402	32143	32775	32535	32559	32661	32614	32674	
1953	0	33321	32452	32519	32722	32620	32839	32471	32843	
1954	0	32911	32707	32783	32852	32455	32749	32581	32631	
1955	0	32768	32743	32797	32931	32631	32655	32795	32746	
1956	0	32775	32451	32658	32863	32715	32691	32947	32850	
1957	0	32803	32563	32850	32799	32804	32683	33063	32678	
1958	0	32687	32574	32551	32733	32876	32552	33057	32723	
1959	0	32576	32572	32759	32527	32989	32501	32727	32654	
1960	0	32749	32391	32875	32443	32997	32603	32695	32830	
1961	0	32941	32299	32879	32348	32887	32684	32508	32887	
1962	0	32976	32462	32662	32319	32750	32671	32473	32711	
1963	0	32909	32532	32677	32375	32783	32711	32636	32743	
1964	0	33073	32845	32767	32347	32662	32698	32503	32623	
1965	0	33084	32957	32766	32575	32551	32757	32602	32804	
1966	0	32937	32979	32695	32732	32626	32743	32671	32702	
1967	0	32775	33285	32851	32655	32620	32711	32803	32786	
1968	0	32505	33321	32791	32831	33074	32470	33265	32495	
1969	0	32409	33185	32829	33028	32955	32715	33159	32631	
1970	0	32358	32917	32551	33037	32751	32733	32967	32658	
1971	0	32372	33079	32511	32879	32673	32771	32795	32734	
1972	0	32338	32987	32711	32833	32750	32831	32687	32679	
1973	0	32443	32760	32751	32891	32679	32879	32559	32742	
1974	0	32655	32610	32675	33055	32913	32646	32681	32893	
1975	0	32710	32748	32647	32960	32970	32594	32755	32839	
1976	0	32545	32873	32637	33015	32957	32607	32517	32775	
1977	0	32530	32603	32707	32707	32926	32601	32642	32827	
1978	0	32558	32773	32607	32436	32897	32605	32663	32631	
1979	0	32707	32743	32811	32210	32743	32819	32699	32770	
1980	0	32821	32676	32859	32079	32743	32823	32855	32639	
1981	0	32877	32765	32734	32175	32723	32955	32703	32687	
1982	0	32844	32671	32700	32303	32685	32996	32597	32775	
1983	0	32968	32655	32577	32549	32691	32935	32681	32735	
1984	0	33058	32793	32645	32699	32623	32879	32912	32702	
1985	0	33002	32723	32811	32757	32719	32571	33093	32566	
1986	0	32989	32885	32566	32775	32713	32621	32935	32673	
1987	0	32899	32727	32629	32830	32775	32567	32706	32614	
1988	0	33053	32869	32542	32727	32817	32527	32821	32683	
1989	0	33095	32673	32511	32735	32628	32588	32823	32695	
1990	0	32918	32731	32472	32839	32715	32599	32871	32724	
1991	0	32863	32821	32493	32729	32845	32528	32887	32679	
1992	0	32874	32899	32427	33031	32795	32607	32841	32763	
1993	0	32790	33043	32391	33007	32911	32631	32903	32711	
1994	0	32735	32929	32431	32877	32943	32602	32879	32789	
1995	0	32638	33014	32683	33001	32669	32742	32467	32775	
1996	0	32652	32647	32559	33024	32583	32751	32583	32639	
1997	0	32588	32468	32491	33129	32623	32742	32501	32713	
1998	0	32583	32534	32787	32799	32658	32877	32754	32684	
1999	0	32590	32429	32780	32311	32755	32751	32855	32629	
2000	0	32487	32637	32603	32231	32797	32571	32845	32575	
2001	0	32302	32692	32719	32007	32845	32603	32811	32615	
2002	0	32175	32725	32835	31919	32876	32663	33215	32557	
2003	0	32263	32999	32691	31818	32855	32660	32751	32500	
2004	0	32475	33060	32623	31967	32771	32749	32634	32532	
2005	0	32554	33068	32745	32559	32599	32774	32503	32543	
2006	0	32894	32903	32810	32815	32831	32735	32551	32627	
2007	0	33093	32829	32721	32685	32741	32739	32686	32735	
2008	0	33110	32799	32606	32916	32832	32731	32826	32642	
2009	0	33221	32742	32775	32921	32803	32775	32839	32583	
2010	0	33135	32830	32819	32957	32791	32822	32667	32591	
2011	0	33100	32839	32791	32999	32663	32687	32430	32607	
2012	0	32903	33023	32713	32743	32583	32626	32759	32623	
2013	0	32866	32951	32747	32647	32711	32751	32855	32633	
2014	0	32923	32787	32627	32519	32555	32824	32647	32694	
2015	0	32855	32263	32401	32713	32579	32739	32511	32827	
2016	0	32798	32031	32471	32686	32703	32613	32518	32903	
2017	0	32698	32285	32411	32615	32850	32711	32829	32815	
2018	0	32729	32261	32391	32723	32885	32930	33053	32871	
2019	0	32586	32191	32161	32639	32924	32931	32899	32891	
2020	0	32600	32219	32239	32808	32892	32551	33135	32571	
2021	0	32619	32491	32195	32765	32793	32531	32941	32578	
2022	0	32701	32835	32381	32949	32711	32775	32669	32713	
2023	0	32716	33125	32427	33031	32639	32725	32355	32765	
2024	0	32681	33399	32445	32865	32764	32827	32687	32586	
2025	0	32775	33455	32567	32765	32798	32799	32877	32772	
2026	0	32771	33559	32832	32923	32658	32827	32885	32711	
2027	0	32834	33372	32815	32978	32636	32516	32822	32751	
2028	0	32851	32827	32893	32963	32785	32743	32910	32831	
2029	0	32895	32711	33007	32954	32883	32700	32847	32759	
2030	0	32847	32471	32997	32893	32697	32617	32558	32663	
2031	0	32772	32325	32751	32859	32796	32847	32413	32719	
2032	0	32829	32193	32839	32563	32925	32719	32660	32775	
2033	0	32841	32343	32767	32351	32967	33010	32555	32755	
2034	0	32897	32691	32845	32255	32930	32813	32715	32694	
2035	0	32823	33255	32855	32109	32658	32647	32767	32644	
2036	0	32869	33831	32676	32178	32583	32658	32798	32578	
2037	0	32862	33807	32621	32253	32531	32813	32567	32883	
2038	0	33031	33623	32679	32586	32482	32993	32447	32839	
2039	0	33040	33575	32707	32838	32662	32859	32383	32989	
2040	0	32981	33341	32804	32661	33167	32598	32829	32763	
2041	0	33095	32845	32807	32613	33042	32647	32831	32767	
2042	0	33327	32291	32583	32643	32665	32818	32827	32723	
2043	0	33498	31749	32660	32551	32666	32788	32915	32695	
2044	0	33547	30850	32596	32259	32743	32877	32831	32535	
2045	0	33576	30575	32637	32367	32867	32773	32784	32605	
2046	0	33560	30727	32437	32613	32859	32615	32602	32827	
2047	0	33476	31034	32407	32788	32813	32463	32774	32711	
2048	0	33494	31122	32391	33026	32919	32263	32699	32771	
2049	0	33202	31489	32203	32967	32911	32500	32513	32790	
2050	0	32935	32102	32357	32983	32757	32628	32759	32747	
2051	0	32812	32834	32359	32875	32773	32692	32869	32773	
2052	0	32671	33263	32495	32903	32589	32767	32882	32871	
2053	0	32375	33579	32694	32855	32633	32771	32633	32687	
2054	0	32050	34007	32621	32711	32696	32731	32567	32775	
2055	0	31886	34423	32647	32586	32733	32727	32508	32847	
2056	0	31633	34631	32643	32903	32723	32731	32615	32717	
2057	0	31075	34807	32619	32949	32885	32635	32562	32795	
2058	0	30781	35079	32543	33027	32806	32687	32567	32700	
2059	0	30982	35207	32638	32933	32678	32690	32463	32663	
2060	0	31347	35078	32746	32957	32695	32754	32546	32631	
2061	0	31525	34621	32790	32972	32679	32711	32495	32586	
2062	0	31699	33695	32486	32939	32793	32790	32549	32671	
2063	0	31941	33075	32443	32855	32799	32755	32791	32735	
2064	0	32183	32726	32711	32746	32815	32714	33078	32519	
2065	0	32320	32275	32711	32499	32665	32547	32983	32461	
2066	0	32287	32035	32738	32257	32555	32417	33219	32102	
2067	0	32095	32127	32971	31989	33053	32323	33551	32111	
2068	0	31897	32125	32633	31879	33095	32653	33275	32189	
2069	0	31570	32155	32726	32255	33031	32534	32954	32326	
2070	0	31733	32191	32839	32463	32887	32475	33018	32204	
2071	0	32127	31995	32727	32511	32607	32703	33143	32391	
2072	0	32293	32237	32791	32479	32935	32725	33614	32343	
2073	0	32211	32423	32632	32519	33458	32388	33719	32439	
2074	0	32434	32621	32955	32390	33231	32438	33485	32551	
2075	0	32639	32830	32819	32239	33127	32754	33287	32599	
2076	0	32865	32941	32713	31939	32878	32735	33069	32803	
2077	0	32961	32879	32935	31815	32791	32791	33373	32644	
2078	0	32940	33047	32767	32010	32854	32759	33118	32805	
2079	0	33044	32919	32863	32368	32647	32843	32731	32808	
2080	0	33231	32743	32699	32790	32615	32834	32723	32815	
2081	0	33644	32540	32607	33159	32709	32791	32661	32738	
2082	0	33973	32638	32640	33222	32773	32935	32547	32805	
2083	0	33957	32893	32572	32958	32555	32865	32343	33029	
2084	0	34120	32866	32775	32962	32575	32973	32386	32959	
2085	0	34297	32631	32879	33159	32701	32943	32343	33125	
2086	0	34267	32276	32695	33183	32587	32861	32263	32966	
2087	0	34207	32013	32659	33234	32527	32890	32287	33055	
2088	0	34201	31811	32647	33317	32591	32786	32350	32996	
2089	0	34070	31923	32741	33166	32702	32821	32463	33011	
2090	0	33956	31551	32591	33016	32639	32775	32495	32918	
2091	0	33796	31471	32419	32989	32596	32845	32271	33223	
2092	0	33775	31359	32550	32811	32962	32823	32500	33138	
2093	0	33583	31415	32583	32663	32820	32797	32577	33091	
2094	0	33321	31807	32447	32567	32647	32759	32474	33069	
2095	0	33123	32269	32602	32489	32524	32935	32311	33031	
2096	0	32989	32703	32742	32331	32423	32955	32285	33037	
2097	0	32790	33067	32684	32134	32507	32867	32461	32843	
2098	0	32612	33111	32687	32075	32637	32603	32534	32879	
2099	0	32528	32999	32703	32334	32847	32254	32539	32829	
2100	0	32647	33059	32741	32633	32703	32612	32412	33012	
2101	0	32801	33153	32503	32729	32566	32935	32531	32791	
2102	0	32754	32914	32660	32887	32598	32903	32722	32743	
2103	0	32629	32706	32709	33025	32551	32727	32683	32532	
2104	0	32760	32351	32615	32593	32803	32561	32918	32551	
2105	0	32680	32263	32727	32565	32567	32813	32695	32621	
2106	0	32475	32543	32612	32823	32739	32743	32627	32731	
2107	0	32535	32500	32503	32783	32935	32663	32730	32623	
2108	0	32578	32935	32540	32638	32965	32756	32839	32713	
2109	0	32692	33115	32518	32631	32902	32647	32903	32641	
2110	0	32679	33050	32543	32529	32839	32631	32863	32743	
2111	0	32684	33199	32519	32519	32866	32615	32819	32662	
2112	0	32670	33425	32533	32695	32919	32763	32796	32676	
2113	0	32615	33255	32738	32766	32769	32798	32879	32705	
2114	0	32535	33139	32755	32743	32772	32804	32991	32647	
2115	0	32412	33095	32687	32787	32724	32714	32863	32589	
2116	0	32261	32999	32374	32595	32775	32639	32539	32511	
2117	0	32189	33127	32371	32671	32729	32691	32487	32677	
2118	0	32164	33223	32519	32943	32704	32656	32785	32726	
2119	0	32387	33166	32999	32839	32891	32557	33372	32647	
2120	0	32672	33343	33027	32811	32982	32454	33215	32603	
2121	0	32683	33379	32995	32571	32634	32711	33047	32679	
2122	0	32711	33119	32861	32400	32677	32630	32903	32719	
2123	0	32748	32511	32565	32169	32681	32637	33077	32614	
2124	0	32737	32277	32551	32417	32662	32743	32823	32691	
2125	0	32538	32710	32623	32978	32757	32823	32837	32903	
2126	0	32530	33082	32471	33087	32827	32747	32891	32647	
2127	0	32555	32999	32383	32791	32852	32692	32829	32642	
2128	0	32708	32941	32403	32726	32914	32685	32807	32739	
2129	0	32610	32949	32461	32723	32903	32935	32762	32804	
2130	0	32500	32725	32343	32535	32811	32823	32669	32839	
2131	0	32532	32685	32527	32317	32735	32915	32711	32663	
2132	0	32719	32704	32679	32247	32821	32963	32735	32709	
2133	0	32815	32475	32615	32287	32935	32615	32647	32571	
2134	0	33068	32183	32726	32605	32999	32452	32755	32634	
2135	0	32921	31908	32615	32787	32615	32887	32685	32791	
2136	0	32824	32195	32877	32820	32469	32941	32731	32841	
2137	0	32866	32259	32863	32767	32921	32693	32883	32671	
2138	0	32835	32495	32859	32775	32903	32724	33159	32803	
2139	0	32761	32798	32719	32812	32762	32797	32748	32867	
2140	0	32778	33175	32927	32863	32623	32879	32384	32898	
2141	0	32871	33622	32846	32903	33091	32391	32943	32716	
2142	0	32677	34279	32647	32891	32771	32639	32910	32674	
2143	0	32775	34166	32775	32935	32732	32693	32835	32758	
2144	0	32817	34063	32711	32823	32775	32576	32755	32766	
2145	0	32855	33584	32641	32775	32785	32804	32731	32703	
2146	0	32868	33055	32318	32441	32927	32623	32763	32713	
2147	0	32879	32263	32282	32455	32855	32575	32846	32585	
