# OpenSignals Text File Format
# {"00:07:80:3B:46:38": {"sensor": ["CUSTOM/0.5/1.0/V", "CUSTOM/0.5/1.0/V", "CUSTOM/0.5/1.0/V", "CUSTOM/0.5/1.0/V", "CUSTOM/0.5/1.0/V", "CUSTOM/0.5/1.0/V", "CUSTOM/0.5/1.0/V", "CUSTOM/0.5/1.0/V"], "device name": "EMGs", "column": ["nSeq", "DI", "RA_L", "RA_R", "OE_L", "OE:R", "IL_L", "IL_R", "MF_L", "MF_R"], "sync interval": 2, "time": "16:51:38.628", "comments": "", "device connection": "BTH00:07:80:3B:46:38", "channels": [1, 2, 3, 4, 5, 6, 7, 8], "date": "2017-5-22", "mode": 0, "digital IO": [0, 1], "firmware version": 772, "device": "biosignalsplux", "position": 0, "sampling rate": 1000, "label": ["RA_L", "RA_R", "OE_L", "OE:R", "IL_L", "IL_R", "MF_L", "MF_R"], "resolution": [16, 16, 16, 16, 16, 16, 16, 16], "special": [{}, {}, {}, {}, {}, {}, {}, {}]}}
# EndOfHeader
0	0	32116	35031	32796	32820	32746	32695	32684	32597	
1	0	32751	34621	32863	32868	32793	32695	32527	32775	
2	0	33753	33957	32903	32852	32775	32679	32690	32738	
3	0	34072	32999	32700	32711	32815	32581	32703	32662	
4	0	33742	32495	32431	32727	32823	32657	32791	32690	
5	0	32861	32508	32475	32601	32862	32617	32846	32775	
6	0	31897	30990	32449	32431	32898	32627	32738	32621	
7	0	31638	31553	32543	32436	32831	32613	32855	32543	
8	0	31879	30855	32244	32493	32713	32727	32747	32463	
9	0	31890	30563	32417	32669	32732	32853	32982	32659	
10	0	32338	31037	32653	32771	32747	32813	32802	32621	
11	0	32613	31811	32996	32699	32751	32833	32919	32631	
12	0	33239	32403	32951	32807	32717	32753	32807	32470	
13	0	34183	34247	32723	32799	32811	32688	32910	32595	
14	0	35313	34055	32705	32887	32701	32738	32775	32498	
15	0	33829	34859	32599	32895	32663	32713	32775	32551	
16	0	31879	36465	32495	32701	32655	32745	32701	32684	
17	0	29510	36413	32421	32414	32628	32665	32775	32527	
18	0	29567	35435	32263	32404	32551	32661	32647	32420	
19	0	30340	34111	32102	32535	32606	32683	32687	32647	
20	0	31742	32606	32236	32564	32626	32740	32534	32712	
21	0	33518	31527	32159	32639	32748	32647	32723	32511	
22	0	35222	30647	32547	32718	32703	32617	32563	32628	
23	0	35700	30085	32459	32979	32765	32583	32570	32506	
24	0	35484	29727	32607	32951	32883	32439	32503	32438	
25	0	35166	30325	32592	32970	32934	32626	32373	32565	
26	0	34415	31149	32847	32955	32847	32749	32543	32757	
27	0	33837	31318	33080	33153	32790	32689	32537	32787	
28	0	33569	32069	33045	33099	32662	32759	32359	32699	
29	0	33298	32903	32956	33060	32708	32655	32429	32723	
30	0	32700	33027	32873	33179	32668	32847	32327	32806	
31	0	32397	32379	32815	33061	32647	32775	32364	32807	
32	0	31765	32615	32987	32703	32647	32858	32255	32714	
33	0	31950	33078	33154	32615	32640	32747	32362	32655	
34	0	32370	34691	33095	32639	32852	32659	32307	32764	
35	0	32725	34217	33213	32797	32876	32855	32467	32839	
36	0	32885	34031	33383	32823	32815	32879	32372	32861	
37	0	33292	32601	33189	32772	32863	32636	32391	32805	
38	0	33662	32043	33081	32690	32927	32673	32461	32519	
39	0	34076	31855	33223	32981	32821	32537	32412	32719	
40	0	33828	32131	33002	33074	32825	32662	32439	32702	
41	0	33878	32549	32959	32847	32861	32695	32423	32799	
42	0	33689	33202	33159	32791	32823	32606	32549	32863	
43	0	32328	33567	33150	32631	32831	32647	32505	32655	
44	0	32372	33235	32821	32539	32804	32711	32658	32842	
45	0	31998	34247	32891	32742	32735	32611	32679	32775	
46	0	31271	35493	32919	32815	32743	32747	32611	32751	
47	0	30894	35710	32915	32719	32743	32749	32755	32577	
48	0	30470	35298	32717	32839	32759	32709	32655	32719	
49	0	30967	34115	32743	32673	32707	32793	32895	32687	
50	0	31312	33789	32603	32711	32694	32775	32801	32608	
51	0	31972	33309	32684	32551	32558	32806	32771	32500	
52	0	32503	32391	32514	32607	32613	32724	32903	32738	
53	0	33028	31311	32623	32444	32629	32723	32773	32691	
54	0	33234	31519	32617	32511	32718	32802	32836	32478	
55	0	33415	31191	32646	32615	32735	32858	32817	32519	
56	0	33622	31455	32485	32591	32774	32703	32868	32657	
57	0	33867	30261	32569	32727	32799	32869	32963	32628	
58	0	34041	30957	32527	32621	32803	32813	32885	32772	
59	0	34015	31886	32539	32727	32775	32673	32835	32645	
60	0	33415	31871	32684	32811	32767	32710	32933	32671	
61	0	32401	32775	32613	32761	32775	32726	32672	32620	
62	0	31721	32839	32443	32871	32818	32660	32869	32738	
63	0	31271	33723	32642	32913	32875	32702	32895	32541	
64	0	30586	34212	32578	32885	32800	32629	32903	32709	
65	0	31057	33551	32735	32855	32698	32537	32807	32631	
66	0	31471	32863	32623	32850	32743	32679	32751	32767	
67	0	31382	32789	32709	32966	32807	32724	32747	32666	
68	0	31828	32941	32663	32861	32659	32813	32571	32738	
69	0	32308	32775	32813	32815	32647	32754	32806	32817	
70	0	32931	32282	32658	32671	32587	32895	32607	32619	
71	0	33439	32487	32827	32639	32679	32869	32710	32709	
72	0	33974	32755	33026	32663	32685	32709	32564	32679	
73	0	33702	32753	32935	32627	32850	32786	32676	32535	
74	0	33324	32287	32962	32496	32903	32731	32671	32527	
75	0	32695	32047	32629	32615	32815	32678	32775	32691	
76	0	32885	32486	32647	32742	32763	32748	32731	32639	
77	0	33989	32453	32647	32642	32807	32695	32694	32671	
78	0	34524	32927	32787	32815	32775	32684	32647	32647	
79	0	35052	33501	32826	32853	32765	32707	32587	32766	
80	0	35273	32439	32812	32751	32791	32735	32713	32717	
81	0	34453	32343	32842	32847	32795	32667	32551	32775	
82	0	32812	32069	32660	32802	32639	32629	32647	32803	
83	0	30248	33011	32717	32955	32647	32647	32485	32599	
84	0	29584	32711	32627	32834	32765	32595	32709	32694	
85	0	29806	32311	32674	32623	32869	32538	32658	32631	
86	0	29598	32595	32458	32557	32903	32655	32706	32567	
87	0	30578	32903	32628	32574	32770	32734	32640	32518	
88	0	32610	33693	32582	32822	32727	32743	32775	32717	
89	0	33436	33271	32567	33042	32757	32837	32555	32695	
90	0	32930	32903	32599	32854	32715	32786	32677	32721	
91	0	33078	32695	32438	32742	32765	32671	32493	32531	
92	0	33192	32756	32388	32694	32830	32813	32703	32687	
93	0	33447	32607	32239	32594	32623	32775	32551	32724	
94	0	33679	33947	32547	32677	32581	32755	32711	32637	
95	0	33510	34324	32916	32809	32569	32827	32662	32716	
96	0	33103	33526	33065	32594	32769	32739	32775	32774	
97	0	33415	32610	32965	32658	32783	32759	32673	32551	
98	0	34286	31484	32871	32856	32763	32647	32489	32596	
99	0	34288	29567	32903	32871	32854	32668	32605	32631	
100	0	33943	28346	32727	32675	32805	32711	32589	32597	
101	0	33423	29679	32759	32727	32783	32657	32683	32724	
102	0	32744	30767	32935	32577	32749	32735	32623	32796	
103	0	32228	32605	32945	32622	32807	32671	32735	32852	
104	0	31540	34679	32663	32640	32775	32573	32646	32574	
105	0	31150	37421	32580	32643	32870	32562	32492	32498	
106	0	31845	38109	32615	32855	32867	32635	32543	32489	
107	0	33850	35371	32694	32854	32813	32722	32633	32679	
108	0	34958	33394	32893	32738	32839	32741	32638	32676	
109	0	34096	33141	32933	32594	32860	32783	32705	32703	
110	0	33135	33215	32835	32655	32855	32742	32503	32679	
111	0	32976	32391	32849	32619	32835	32900	32714	32578	
112	0	32855	31783	32879	32603	32897	32815	32565	32703	
113	0	31892	32666	32839	32749	32863	32775	32734	32690	
114	0	31559	32961	32783	32771	32855	32775	32773	32634	
115	0	31892	32677	32807	32859	32837	32645	32687	32668	
116	0	32869	31900	32807	32891	32773	32811	32717	32642	
117	0	33259	30545	32743	32807	32711	32764	32643	32695	
118	0	33093	30657	32655	32700	32772	32659	32755	32699	
119	0	32148	31325	32758	32705	32838	32623	32493	32692	
120	0	32425	31135	32839	32751	32787	32593	32615	32511	
121	0	32008	31463	32563	32809	32789	32662	32514	32639	
122	0	32043	32543	32646	32871	32809	32647	32679	32615	
123	0	32202	33261	32647	33095	32795	32667	32583	32715	
124	0	32829	33141	32858	33039	32753	32620	32791	32590	
125	0	32360	33865	32818	32999	32581	32683	32802	32719	
126	0	32215	34420	32823	32999	32765	32596	32775	32623	
127	0	32098	32677	32962	32887	32617	32751	32591	32775	
128	0	32302	32609	32799	32771	32570	32839	32774	32635	
129	0	33159	32973	32527	32669	32587	32735	32543	32751	
130	0	32516	32535	32707	32432	32613	32851	32676	32694	
131	0	32747	32007	32575	32487	32663	32839	32579	32751	
132	0	33211	31835	32633	32335	32677	32709	32615	32557	
133	0	33566	31511	32609	32423	32647	32771	32499	32548	
134	0	32637	31838	32499	32485	32636	32695	32643	32711	
135	0	32220	31519	32529	32644	32769	32823	32647	32695	
136	0	32229	32297	32437	32927	32627	32775	32687	32682	
137	0	33607	33858	32775	32775	32585	32670	32569	32540	
138	0	33764	33635	32611	32899	32633	32719	32663	32613	
139	0	34422	33878	32690	32954	32775	32643	32491	32735	
140	0	34985	34373	32668	33001	32807	32594	32645	32697	
141	0	34899	34323	32742	33107	32731	32615	32647	32679	
142	0	33205	33775	32686	33159	32771	32644	32727	32541	
143	0	33198	34045	32655	32965	32773	32571	32475	32459	
144	0	32239	34575	32797	32972	32633	32626	32623	32644	
145	0	30909	34043	32853	32871	32717	32646	32743	32711	
146	0	31129	33110	32923	32663	32745	32711	32635	32667	
147	0	32243	32389	33011	32448	32726	32679	32786	32695	
148	0	32510	32423	32838	32285	32743	32679	32769	32566	
149	0	31887	32775	32851	32338	32727	32852	32833	32749	
150	0	32193	32476	32826	32342	32727	32868	32647	32775	
151	0	32630	32070	32847	32427	32788	32767	32723	32783	
152	0	32985	31709	32925	32323	32775	32867	32620	32691	
153	0	33313	31255	32775	32386	32730	32877	32711	32562	
154	0	33266	31829	32855	32595	32767	32775	32481	32754	
155	0	33293	31523	32974	32786	32807	32749	32571	32709	
156	0	33463	31471	32931	32727	32817	32749	32451	32679	
157	0	33231	31111	32892	32819	32801	32591	32621	32589	
158	0	33353	30906	32756	32849	32775	32751	32551	32727	
159	0	32608	31363	32737	32775	32807	32722	32617	32677	
160	0	32612	32324	32687	32947	32887	32538	32501	32691	
161	0	32538	32207	32811	32959	32871	32679	32727	32489	
162	0	32178	33455	32875	32910	32842	32718	32598	32623	
163	0	31584	35382	32691	33047	32871	32535	32683	32579	
164	0	30631	35295	32775	33013	32722	32621	32507	32662	
165	0	30358	36047	32773	32830	32727	32671	32671	32505	
166	0	30628	35776	32820	32879	32787	32639	32695	32697	
167	0	32058	34308	32562	32743	32679	32723	32796	32727	
168	0	33839	33029	32708	32751	32743	32787	32765	32574	
169	0	34611	31922	32527	32604	32706	32849	32807	32551	
170	0	34502	31502	32535	32645	32695	32743	32731	32732	
171	0	34118	32053	32383	32854	32667	32839	32629	32763	
172	0	33270	31509	32467	32835	32657	32788	32759	32811	
173	0	32695	31709	32503	32717	32671	32839	32563	32702	
174	0	32562	32047	32570	32863	32582	32775	32781	32767	
175	0	33524	31431	32621	32775	32647	32821	32563	32601	
176	0	34462	30332	32607	32699	32615	32784	32621	32603	
177	0	34774	30779	32806	32639	32605	32701	32519	32581	
178	0	34935	31203	32715	32647	32594	32695	32671	32711	
179	0	34492	32163	32746	32646	32839	32666	32663	32623	
180	0	32872	33511	32503	32903	32791	32596	32721	32638	
181	0	29650	35478	32534	32964	32762	32646	32583	32505	
182	0	28477	36623	32815	32818	32793	32631	32703	32676	
183	0	29155	35935	33062	32846	32823	32527	32527	32631	
184	0	29927	35101	33149	32836	32830	32559	32662	32635	
185	0	31028	34041	32921	32754	32849	32501	32567	32586	
186	0	32144	32511	32845	32727	32783	32645	32711	32566	
187	0	33222	30994	32755	32706	32839	32711	32700	32572	
188	0	33622	29475	32877	32669	32774	32762	32695	32693	
189	0	34610	29575	32834	32541	32898	32763	32723	32725	
190	0	34247	30423	32959	32514	32903	32788	32524	32663	
191	0	33706	31007	32933	32605	32763	32902	32715	32647	
192	0	34144	31919	32789	32711	32647	32821	32749	32751	
193	0	34642	32647	32706	32679	32603	32775	32708	32577	
194	0	34732	33213	32893	32831	32731	32815	32507	32647	
195	0	34470	33743	32933	32674	32871	32767	32611	32727	
196	0	34247	33895	32711	32727	32903	32759	32566	32626	
197	0	34032	32421	32547	32603	32896	32731	32671	32700	
198	0	32617	32363	32751	32631	32879	32711	32502	32719	
199	0	32019	33118	32859	32739	32929	32647	32663	32541	
200	0	31771	32621	32865	32823	32887	32587	32514	32660	
201	0	31134	33047	32628	32867	32895	32706	32727	32643	
202	0	31182	33076	32621	32855	32749	32644	32619	32687	
203	0	31813	33903	32415	32967	32854	32615	32738	32647	
204	0	31759	33855	32500	32959	32807	32627	32647	32767	
205	0	31623	33576	32726	32830	32790	32637	32759	32723	
206	0	32571	32571	32871	32763	32797	32628	32675	32759	
207	0	33129	32237	32807	32679	32769	32775	32762	32636	
208	0	32876	31679	32487	32468	32713	32786	32749	32678	
209	0	33231	31787	32454	32375	32772	32687	32646	32713	
210	0	33512	32590	32668	32455	32843	32803	32801	32647	
211	0	32763	33467	32593	32678	32815	32762	32628	32593	
212	0	31479	34879	32519	32775	32881	32700	32572	32622	
213	0	30687	35951	32386	32903	32843	32715	32383	32626	
214	0	32351	34527	32567	32815	32850	32763	32581	32695	
215	0	33755	32998	32725	32895	32775	32751	32454	32515	
216	0	33917	31947	32723	32927	32812	32843	32610	32655	
217	0	33826	30997	32806	32859	32799	32823	32519	32661	
218	0	33954	30121	32596	32895	32757	32687	32758	32531	
219	0	33016	30590	32799	32901	32822	32684	32787	32775	
220	0	33159	30998	32607	32791	32829	32731	32671	32679	
221	0	33263	31709	32711	32884	32804	32663	32723	32539	
222	0	33832	31042	32789	32921	32766	32665	32678	32643	
223	0	34262	31637	32895	32829	32605	32683	32787	32605	
224	0	33709	32507	33159	32751	32567	32573	32723	32613	
225	0	32839	32863	32974	32775	32549	32652	32663	32653	
226	0	31600	33731	32989	32567	32620	32717	32663	32727	
227	0	30842	33573	32787	32563	32615	32669	32551	32555	
228	0	31000	33247	32823	32605	32628	32727	32659	32767	
229	0	31102	33555	32617	32543	32727	32751	32617	32716	
230	0	31026	33935	32591	32597	32759	32699	32703	32598	
231	0	31031	35053	32481	32591	32858	32679	32615	32605	
232	0	31279	34742	32563	32694	32931	32839	32565	32718	
233	0	32563	33857	32530	32610	32893	32809	32647	32642	
234	0	33207	33783	32751	32701	32783	32745	32564	32689	
235	0	33687	33119	32834	32951	32815	32788	32719	32661	
236	0	34273	32668	33011	32919	32775	32772	32567	32703	
237	0	34564	32647	32786	32950	32766	32667	32615	32463	
238	0	33285	32957	32775	32810	32636	32830	32611	32762	
239	0	33011	32399	32895	32887	32633	32765	32708	32668	
240	0	32647	30481	32999	32771	32733	32751	32679	32615	
241	0	32843	31143	33071	32754	32756	32655	32775	32638	
242	0	33502	30551	33111	32667	32732	32623	32782	32711	
243	0	34009	31623	33287	32547	32799	32722	32684	32739	
244	0	33635	33052	33261	32659	32771	32711	32732	32487	
245	0	33132	34035	32827	32765	32747	32558	32694	32481	
246	0	32672	34525	32587	32901	32843	32647	32683	32671	
247	0	31876	34549	32540	32925	32804	32571	32659	32645	
248	0	30965	33775	32343	32766	32685	32756	32511	32700	
249	0	30845	32943	32214	32749	32612	32703	32663	32775	
250	0	31250	33079	32289	32815	32811	32839	32588	32850	
251	0	33039	33099	32415	32838	32830	32834	32775	32671	
252	0	33334	33367	32402	32703	32819	32719	32726	32553	
253	0	32887	33681	32123	32804	32763	32847	32677	32674	
254	0	33150	32679	32375	32786	32769	32846	32638	32823	
255	0	33607	31469	32609	32789	32807	32805	32685	32719	
256	0	33345	31685	32742	32595	32843	32812	32731	32667	
257	0	33436	31870	32837	32694	32871	32647	32574	32674	
258	0	33637	31455	32930	32623	32875	32683	32647	32676	
259	0	33242	31919	32993	32559	32847	32681	32447	32615	
260	0	32887	30919	32937	32518	32827	32647	32587	32647	
261	0	33159	30423	33147	32623	32839	32711	32532	32679	
262	0	32967	31295	33100	32844	32863	32519	32589	32445	
263	0	32398	32771	33115	32914	32879	32647	32530	32555	
264	0	32572	32115	33012	33005	32811	32591	32629	32607	
265	0	32983	32533	32903	33095	32805	32605	32647	32535	
266	0	32840	32029	33035	32836	32813	32676	32727	32670	
267	0	33013	32805	33045	32799	32775	32738	32617	32729	
268	0	33734	32796	33127	32641	32789	32704	32697	32716	
269	0	34218	32725	33079	32554	32663	32689	32647	32519	
270	0	33682	33863	32963	32497	32772	32804	32676	32727	
271	0	33516	33891	32899	32643	32727	32732	32613	32751	
272	0	32474	33611	32806	32805	32754	32889	32733	32797	
273	0	32044	33377	32645	32829	32716	32829	32666	32707	
274	0	31759	33492	32487	32927	32751	32807	32791	32763	
275	0	32009	31874	32339	32833	32756	32884	32698	32703	
276	0	32551	31623	31983	32775	32767	32767	32711	32791	
277	0	32578	33671	32183	32834	32602	32735	32526	32703	
278	0	31394	35635	32167	32883	32690	32685	32587	32770	
279	0	29764	35248	32271	32851	32679	32762	32583	32489	
280	0	29724	35126	32467	32735	32630	32797	32732	32693	
281	0	30289	34823	32709	32547	32605	32587	32603	32659	
282	0	31759	33407	32774	32855	32678	32691	32703	32604	
283	0	34098	31325	32909	32799	32743	32607	32607	32726	
284	0	35245	30283	32786	32549	32750	32615	32635	32647	
285	0	34568	30695	32730	32601	32694	32535	32511	32763	
286	0	34759	32633	32903	32549	32661	32615	32579	32583	
287	0	34337	34471	32971	32567	32654	32523	32530	32577	
288	0	32687	34693	32895	32526	32599	32683	32587	32647	
289	0	31554	34621	32922	32647	32683	32663	32705	32537	
290	0	31018	33651	32751	32742	32633	32726	32721	32564	
291	0	31605	32380	32764	32743	32643	32903	32803	32694	
292	0	32006	31682	32771	32827	32845	32818	32713	32647	
293	0	32280	31111	32738	32754	32863	32790	32582	32439	
294	0	32780	31442	32956	32743	32841	32743	32647	32599	
295	0	32711	31783	32751	32714	32775	32757	32533	32747	
296	0	32870	31694	32526	32693	32751	32757	32695	32559	
297	0	33050	32156	32522	32692	32841	32687	32572	32694	
298	0	32972	32529	32775	32799	32887	32735	32775	32668	
299	0	33132	32291	33069	32863	32775	32668	32799	32695	
300	0	33348	32018	33015	32951	32727	32751	32519	32775	
301	0	33871	31639	32935	32934	32682	32645	32734	32621	
302	0	33822	31603	33019	32775	32629	32735	32751	32687	
303	0	33876	31925	32839	32886	32663	32683	32775	32726	
304	0	34177	31906	33037	32847	32715	32553	32598	32572	
305	0	32914	32559	32581	32743	32775	32551	32738	32687	
306	0	32059	32860	32438	32929	32863	32706	32631	32679	
307	0	32070	33430	32535	32895	32631	32685	32797	32775	
308	0	32839	32814	32647	32871	32609	32811	32785	32887	
309	0	34191	33363	32757	32817	32593	32821	32599	32666	
310	0	33951	33631	32975	32767	32588	32871	32771	32787	
311	0	34036	33011	32959	32765	32583	32812	32601	32683	
312	0	33633	32909	32725	32687	32619	32775	32727	32751	
313	0	32885	31993	32711	32751	32677	32739	32635	32535	
314	0	32769	32003	32571	32773	32835	32831	32635	32677	
315	0	32866	32671	32793	32679	32807	32775	32609	32707	
316	0	33845	31527	32879	32615	32807	32797	32698	32730	
317	0	33446	31668	32914	32583	32831	32713	32698	32512	
318	0	32332	33693	32580	32749	32942	32706	32643	32625	
319	0	31031	35143	32258	32786	32930	32551	32695	32615	
320	0	29382	34603	32694	32734	32871	32683	32735	32518	
321	0	29001	34603	32705	32797	32877	32677	32688	32486	
322	0	30153	33465	32802	32851	32830	32562	32743	32551	
323	0	31522	31459	32759	32775	32798	32641	32693	32631	
324	0	32773	30875	32735	32775	32775	32635	32743	32553	
325	0	34370	30911	32799	32727	32759	32583	32749	32477	
326	0	33662	32467	32647	32690	32767	32607	32735	32663	
327	0	34178	32617	32642	32820	32793	32690	32727	32647	
328	0	34070	34665	32509	32818	32770	32647	32711	32555	
329	0	31954	36473	32679	32932	32740	32678	32631	32705	
330	0	31458	36231	32683	32852	32790	32839	32711	32731	
331	0	32628	35247	32853	32845	32607	32767	32743	32966	
332	0	33490	33986	33093	32673	32639	32855	32787	32647	
333	0	33540	32421	32887	32623	32663	32829	32743	32743	
334	0	32628	32070	32663	32767	32802	32834	32655	32757	
335	0	32454	32023	32669	32726	32846	32797	32751	32647	
336	0	32018	30887	32615	32726	32833	32839	32629	32717	
337	0	32177	30411	32799	32690	32809	32783	32717	32894	
338	0	33623	29670	32699	32671	32903	32679	32501	32695	
339	0	33364	30022	32903	32639	32817	32727	32659	32514	
340	0	32779	29822	33181	32594	32813	32707	32515	32535	
341	0	32770	30687	33323	32412	32919	32563	32615	32666	
342	0	32374	31715	33143	32437	32807	32701	32583	32647	
343	0	33082	32647	32860	32787	32857	32687	32671	32497	
344	0	34043	33842	33022	32967	32757	32518	32582	32727	
345	0	34050	34642	32914	33079	32787	32647	32748	32647	
346	0	33082	36261	32895	33007	32810	32661	32642	32591	
347	0	32431	35743	32570	33047	32791	32553	32727	32518	
348	0	32101	34399	32359	32935	32854	32655	32715	32626	
349	0	32350	33877	32403	32458	32821	32725	32747	32699	
350	0	33601	32335	32463	32388	32835	32883	32719	32731	
351	0	33889	31374	32103	32521	32759	32845	32551	32583	
352	0	33468	30271	31791	32557	32653	32833	32695	32628	
353	0	32842	29380	31658	32539	32662	32879	32527	32661	
354	0	31527	30354	31719	32675	32738	32726	32647	32670	
355	0	31342	30423	32351	32671	32757	32829	32431	32482	
356	0	31351	32305	32670	32935	32871	32735	32591	32595	
357	0	31875	33463	33269	33133	32830	32663	32620	32655	
358	0	32527	34923	33572	33066	32775	32717	32740	32693	
359	0	32327	36047	33723	32935	32899	32721	32679	32692	
360	0	32647	36055	33479	32932	32805	32692	32542	32629	
361	0	33340	34868	33607	32749	32767	32613	32685	32835	
362	0	33796	33539	33159	32687	32762	32735	32685	32765	
363	0	33953	33003	32935	32786	32717	32676	32783	32773	
364	0	34092	32806	32483	32807	32719	32577	32765	32660	
365	0	34461	31687	32391	32759	32723	32597	32628	32703	
366	0	35020	30071	32135	32740	32797	32708	32695	32772	
367	0	34543	29654	32314	32647	32839	32719	32557	32567	
368	0	33104	30871	32294	32645	32877	32700	32586	32732	
369	0	31408	32869	31803	32708	32851	32763	32535	32700	
370	0	30307	35020	32071	32592	32647	32791	32714	32711	
371	0	29967	34665	32173	32607	32643	32711	32572	32439	
372	0	30396	34447	32339	32511	32574	32805	32613	32694	
373	0	30847	32123	32810	32554	32646	32775	32463	32558	
374	0	31354	31543	32930	32644	32703	32711	32667	32749	
375	0	32354	32319	33018	32722	32641	32839	32631	32717	
376	0	33451	32875	33204	32875	32598	32722	32795	32675	
377	0	33705	32747	33553	32886	32572	32673	32590	32833	
378	0	34365	32962	33887	33031	32647	32831	32748	32655	
379	0	34277	31705	33791	32962	32669	32775	32643	32711	
380	0	34066	32093	33355	32847	32603	32679	32747	32735	
381	0	33679	33759	32931	32821	32647	32759	32612	32593	
382	0	32877	34179	32887	32741	32671	32727	32690	32485	
383	0	31550	32941	32457	32437	32629	32567	32573	32627	
384	0	31226	32389	32220	32374	32613	32571	32677	32609	
385	0	31928	31953	32057	32492	32675	32557	32577	32701	
386	0	33220	31513	32194	32711	32679	32509	32612	32466	
387	0	34296	32950	32081	32937	32663	32598	32698	32623	
388	0	33507	32862	32135	32938	32557	32711	32684	32646	
389	0	32699	32935	32412	32723	32581	32806	32829	32871	
390	0	31192	34675	32692	32919	32634	32798	32759	32646	
391	0	30939	35015	32879	32943	32684	32887	32645	32679	
392	0	31446	34439	32991	32858	32688	32751	32695	32715	
393	0	32706	32543	32967	32917	32609	32834	32749	32615	
394	0	34796	31783	32901	32803	32585	32830	32637	32647	
395	0	34238	31623	33188	32813	32743	32901	32718	32807	
396	0	33529	31479	33671	32879	32793	32851	32541	32741	
397	0	33189	32259	33366	32933	32751	32727	32771	32756	
398	0	32557	32020	33173	32919	32803	32756	32742	32555	
399	0	31711	31690	33135	32647	32799	32775	32705	32647	
400	0	32039	31474	32987	32245	32735	32658	32740	32687	
401	0	32561	32303	32739	32295	32767	32663	32551	32743	
402	0	33627	31803	32465	32555	32783	32553	32695	32553	
403	0	33719	32103	32343	32531	32838	32635	32551	32610	
404	0	33698	32503	32254	32621	32878	32631	32663	32647	
405	0	34330	33151	32206	32687	32855	32495	32635	32621	
406	0	34439	32631	32299	32722	32947	32526	32644	32519	
407	0	34157	32087	32469	32898	32926	32593	32672	32705	
408	0	33505	33258	32687	33025	32916	32793	32525	32556	
409	0	31966	33927	32789	32959	32844	32839	32759	32663	
410	0	30810	34194	32767	32821	32869	32745	32596	32676	
411	0	30487	34167	32886	32828	32835	32861	32703	32711	
412	0	31802	34103	33307	32737	32807	32820	32711	32695	
413	0	32713	32940	33551	32646	32804	32738	32767	32701	
414	0	33588	31461	33470	32466	32827	32839	32823	32668	
415	0	33712	29125	33023	32462	32843	32849	32763	32671	
416	0	34625	29041	32738	32599	32807	32795	32726	32738	
417	0	34277	31495	32599	32799	32788	32879	32610	32671	
418	0	32148	33726	32658	33044	32773	32703	32743	32839	
419	0	30377	36853	32476	33189	32775	32743	32539	32775	
420	0	28725	39603	32364	33182	32765	32685	32711	32767	
421	0	29402	38911	32642	33043	32747	32623	32617	32641	
422	0	30941	34917	32420	32834	32815	32661	32599	32621	
423	0	31655	30807	32212	32671	32663	32655	32765	32775	
424	0	32306	30399	31861	32427	32679	32627	32731	32767	
425	0	33496	29305	31702	32499	32734	32647	32669	32540	
426	0	34008	28675	31781	32637	32687	32607	32425	32551	
427	0	33509	30359	31924	32751	32615	32621	32661	32595	
428	0	33460	32375	32164	32727	32629	32673	32607	32633	
429	0	33088	34631	33019	32749	32630	32706	32735	32453	
430	0	34684	34548	33303	32878	32681	32773	32755	32671	
431	0	35676	33590	33119	32821	32718	32786	32750	32564	
432	0	35282	32470	32759	32599	32783	32735	32727	32455	
433	0	34168	33089	32391	32617	32809	32771	32655	32566	
434	0	31549	33428	32357	32771	32795	32790	32775	32595	
435	0	29804	32500	32245	32735	32903	32775	32623	32593	
436	0	31172	32251	32727	32863	32898	32727	32642	32738	
437	0	33354	31399	33069	32823	32925	32797	32511	32726	
438	0	33712	31285	33415	32676	32892	32740	32645	32775	
439	0	32582	32223	33309	32642	32895	32759	32577	32567	
440	0	31751	33223	33003	32738	32892	32743	32715	32704	
441	0	31890	33974	32885	32689	32839	32642	32754	32667	
442	0	32081	34614	32934	32669	32847	32621	32455	32670	
443	0	32681	34543	32870	32412	32754	32543	32598	32542	
444	0	33292	33391	32862	32751	32682	32631	32590	32673	
445	0	34438	33586	32923	32726	32817	32626	32715	32639	
446	0	34455	31771	33028	32655	32807	32679	32579	32789	
447	0	34218	31288	32786	32815	32821	32594	32683	32722	
448	0	33213	30413	32807	32802	32851	32735	32603	32691	
449	0	31906	29815	32785	32811	32801	32831	32731	32839	
450	0	31143	30171	32893	32813	32789	32754	32673	32713	
451	0	31045	31343	33136	32839	32723	32887	32787	32759	
452	0	31810	32439	32839	33018	32803	32831	32694	32629	
453	0	32740	33423	33061	32925	32823	32846	32735	32718	
454	0	33028	32343	32903	32834	32751	32715	32735	32765	
455	0	32847	31429	32500	32927	32783	32869	32734	32775	
456	0	32385	32263	32429	32623	32603	32775	32708	32719	
457	0	32305	33491	32495	32623	32655	32711	32559	32639	
458	0	32265	33302	32535	32798	32661	32654	32706	32543	
459	0	31376	33983	32449	33019	32676	32743	32555	32611	
460	0	31717	35794	32717	33189	32807	32743	32688	32598	
461	0	32543	36604	32983	33007	32895	32580	32621	32676	
462	0	34066	36975	33159	32453	32868	32543	32661	32509	
463	0	35389	35791	33431	32391	32919	32591	32647	32519	
464	0	35423	33603	33414	32431	32834	32567	32798	32639	
465	0	34351	32567	33102	32390	32738	32675	32614	32583	
466	0	33260	32769	32874	32404	32731	32765	32685	32678	
467	0	33547	32639	32702	32526	32730	32696	32559	32698	
468	0	34783	30343	33015	32669	32735	32786	32599	32798	
469	0	34428	29145	33375	32950	32749	32775	32471	32690	
470	0	33164	28713	33055	32903	32897	32726	32593	32647	
471	0	32348	28875	32823	32775	32775	32820	32553	32638	
472	0	31266	30671	32647	32518	32788	32677	32695	32521	
473	0	29536	33019	32613	32743	32855	32855	32700	32685	
474	0	29870	34927	32375	33119	32795	32840	32741	32746	
475	0	30918	35761	32055	33155	32807	32810	32687	32515	
476	0	32059	35146	32021	33309	32757	32767	32715	32740	
477	0	34285	33839	32329	33271	32815	32858	32771	32801	
478	0	34537	30899	32623	32989	32783	32735	32611	32767	
479	0	34396	30796	32683	32863	32743	32715	32730	32655	
480	0	33700	32475	32898	32655	32806	32711	32541	32692	
481	0	32400	32500	32529	32790	32821	32684	32699	32694	
482	0	31420	32531	32927	32470	32929	32629	32499	32807	
483	0	30719	34135	32971	32327	32959	32543	32641	32606	
484	0	29596	35003	32531	32342	32911	32391	32521	32630	
485	0	29772	33254	32342	32470	32887	32535	32655	32747	
486	0	32319	31519	32557	32413	32823	32663	32646	32507	
487	0	34056	31151	32735	32477	32918	32647	32685	32557	
488	0	34525	31100	32639	32431	32903	32707	32703	32635	
489	0	34614	31975	32745	32492	32850	32667	32579	32611	
490	0	34488	32767	32727	32647	32791	32806	32671	32687	
491	0	33812	33287	32571	32739	32799	32775	32653	32590	
492	0	33671	34277	32419	32643	32727	32804	32591	32494	
493	0	32775	33671	32230	32749	32671	32815	32681	32695	
494	0	31774	33283	32237	32669	32699	32775	32666	32613	
495	0	31444	33099	32495	32783	32603	32814	32707	32695	
496	0	31100	33539	32484	32955	32573	32847	32567	32543	
497	0	30839	33942	32438	33022	32573	32753	32740	32756	
498	0	31751	33391	32743	32783	32533	32767	32721	32731	
499	0	33043	32535	33127	32871	32589	32742	32734	32631	
500	0	34183	31681	33143	32873	32718	32591	32612	32732	
501	0	34119	31386	33206	32673	32693	32687	32715	32607	
502	0	33910	31103	33235	32607	32721	32718	32647	32775	
503	0	34034	30643	33194	32843	32615	32595	32724	32518	
504	0	34183	30635	33107	33035	32635	32727	32679	32756	
505	0	35335	30013	33279	33129	32742	32671	32717	32713	
506	0	35284	30050	32887	33055	32822	32551	32527	32507	
507	0	34194	31047	32502	33263	32903	32638	32607	32535	
508	0	32978	32845	32204	33439	32903	32735	32491	32726	
509	0	33063	35023	32167	33423	32841	32771	32638	32658	
510	0	31690	37341	32236	32827	32931	32839	32543	32834	
511	0	29746	39273	32371	32775	32945	32780	32686	32685	
512	0	29422	39554	32637	32567	32999	32667	32497	32583	
513	0	29796	38287	32865	32351	32900	32827	32667	32659	
514	0	30272	34631	33102	32185	32835	32925	32615	32702	
515	0	30168	30743	33117	32119	32767	32771	32728	32660	
516	0	30352	29791	33251	32183	32711	32819	32743	32727	
517	0	31655	29155	33287	32254	32701	32751	32711	32709	
518	0	33675	29930	33333	32573	32732	32694	32635	32691	
519	0	34977	31427	33159	32772	32795	32684	32615	32671	
520	0	34529	32031	32823	32743	32809	32700	32679	32613	
521	0	34799	31847	32913	32820	32807	32666	32469	32698	
522	0	34724	32485	33039	32903	32754	32547	32634	32557	
523	0	34212	32205	32647	32927	32762	32621	32489	32646	
524	0	34179	32459	32475	33025	32591	32609	32773	32749	
525	0	33534	32748	32391	32947	32647	32559	32609	32623	
526	0	32220	33266	32836	32823	32590	32615	32771	32679	
527	0	30267	32964	33063	32615	32611	32724	32775	32668	
528	0	32076	32434	33243	32561	32593	32700	32815	32843	
529	0	34600	30103	33287	32690	32630	32800	32750	32613	
530	0	35302	30263	33607	32742	32863	32789	32702	32608	
531	0	35677	30567	33346	32919	32786	32795	32741	32615	
532	0	35167	31829	33107	33009	32773	32807	32502	32743	
533	0	34230	33911	32325	32867	32703	32827	32711	32669	
534	0	33279	35666	32055	32895	32738	32858	32623	32548	
535	0	31012	36988	31444	32869	32773	32755	32738	32699	
536	0	28866	35994	31239	32795	32687	32767	32671	32668	
537	0	28371	35235	31124	32802	32807	32639	32663	32534	
538	0	27527	34559	31482	32979	32763	32668	32500	32716	
539	0	27981	32167	31967	32867	32809	32711	32639	32647	
540	0	30471	30522	32514	32511	32806	32711	32739	32564	
541	0	33252	30035	33321	32453	32863	32685	32571	32615	
542	0	34789	30342	33296	32375	32822	32581	32663	32785	
543	0	35580	31445	33941	32468	32723	32655	32533	32566	
544	0	36033	31591	33919	32815	32806	32641	32582	32705	
545	0	35430	32047	33763	33015	32780	32571	32591	32716	
546	0	33961	32263	33311	33057	32759	32679	32791	32819	
547	0	33056	32586	32783	33002	32743	32759	32694	32679	
548	0	31661	33775	32154	32951	32753	32723	32785	32721	
549	0	30273	33639	31895	32783	32761	32741	32819	32726	
550	0	31534	33494	32167	32607	32775	32732	32829	32679	
551	0	33725	33846	32313	32532	32557	32878	32647	32677	
552	0	34397	34407	32391	32407	32590	32869	32766	32737	
553	0	34019	33789	32357	32112	32573	32689	32685	32708	
554	0	33548	32263	32593	32162	32599	32787	32711	32478	
555	0	32714	33319	32871	32373	32583	32845	32607	32699	
556	0	32500	31223	33014	32589	32691	32705	32711	32699	
557	0	32500	30155	33395	32807	32707	32723	32655	32623	
558	0	33089	31143	33207	33027	32701	32701	32534	32587	
559	0	33867	32091	32686	33121	32739	32673	32639	32556	
560	0	34512	32821	32569	33327	32873	32707	32646	32595	
561	0	35077	33869	32722	33255	32919	32687	32423	32559	
562	0	33887	34233	32671	33140	32903	32605	32645	32665	
563	0	31746	34483	32607	32890	32671	32698	32685	32711	
564	0	30092	34662	32495	33004	32662	32527	32620	32692	
565	0	29196	34007	32210	32839	32567	32590	32675	32775	
566	0	30100	32251	32135	32548	32702	32643	32605	32604	
567	0	30618	31903	32687	32514	32527	32670	32747	32733	
568	0	32467	30983	33052	32647	32535	32687	32564	32663	
569	0	34279	31009	33303	32726	32519	32729	32743	32493	
570	0	34386	31879	33407	32748	32727	32881	32641	32549	
571	0	34123	33185	33309	32929	32593	32825	32738	32766	
572	0	34150	32838	33725	32625	32562	32823	32575	32874	
573	0	33359	33191	33665	32119	32626	32733	32690	32662	
574	0	32628	34299	33347	32150	32599	32762	32647	32703	
575	0	32818	34287	32995	32507	32583	32751	32743	32775	
576	0	34444	33333	32935	32726	32727	32828	32775	32843	
577	0	35165	32663	32375	32633	32791	32839	32707	32719	
578	0	33684	32619	32279	32887	32614	32669	32599	32723	
579	0	31896	31599	32071	32975	32649	32706	32685	32679	
580	0	29842	31535	31933	32978	32719	32684	32477	32433	
581	0	28484	33207	31795	33191	32639	32703	32623	32573	
582	0	29956	32366	32359	33198	32674	32742	32567	32647	
583	0	32476	31994	32873	32903	32758	32571	32621	32679	
584	0	33554	32263	32996	32885	32775	32461	32581	32524	
585	0	34852	31695	33343	32787	32753	32559	32634	32667	
586	0	35406	31979	33254	32594	32644	32591	32671	32535	
587	0	34576	32647	32839	32621	32615	32621	32647	32681	
588	0	33263	33277	32799	32605	32660	32820	32727	32703	
589	0	31630	32889	32470	32630	32647	32858	32766	32551	
590	0	30350	32703	32444	32583	32615	32731	32807	32793	
591	0	30548	33302	32493	32505	32623	32882	32663	32756	
592	0	30967	33782	32533	32575	32694	32903	32758	32631	
593	0	31367	35396	32597	32507	32798	32762	32673	32745	
594	0	33670	34351	32903	32813	32874	32771	32775	32764	
595	0	34616	31989	32967	32951	32783	32923	32742	32645	
596	0	34798	29223	33185	32967	32775	32823	32580	32736	
597	0	34760	29299	32662	32799	32735	32743	32797	32801	
598	0	33972	29599	32647	32727	32775	32841	32571	32653	
599	0	32289	31615	32676	32818	32835	32757	32734	32655	
600	0	30656	33906	32604	32815	32743	32617	32562	32626	
601	0	30770	36534	32787	32879	32775	32740	32791	32716	
602	0	32076	36676	33062	32834	32743	32629	32719	32595	
603	0	33156	34979	33159	32715	32711	32607	32895	32739	
604	0	33140	33547	32789	32575	32583	32495	32858	32615	
605	0	33775	33571	33222	32383	32562	32679	32863	32599	
606	0	34313	32903	32801	32317	32579	32677	32887	32717	
607	0	34579	31207	32525	32599	32615	32659	32722	32711	
608	0	34348	29145	32417	32743	32691	32815	32897	32506	
609	0	33242	29268	32214	32704	32773	32820	32925	32583	
610	0	31375	31286	31894	32878	32815	32867	32983	32559	
611	0	29716	33509	31644	33043	32852	32708	32879	32486	
612	0	29235	35239	31746	33143	32775	32647	32703	32471	
613	0	29658	36727	31749	32967	32847	32647	32759	32319	
614	0	29877	35871	31986	32647	32884	32727	32594	32554	
615	0	30828	35421	32291	32275	32864	32599	32826	32533	
616	0	32622	33362	32943	32099	32813	32756	32773	32459	
617	0	34262	30813	33183	32121	32815	32743	32843	32699	
618	0	35011	30167	33047	32185	32756	32663	32775	32723	
619	0	35021	30295	32773	32550	32791	32788	32830	32490	
620	0	34977	30191	32943	32623	32775	32679	32704	32642	
621	0	34639	29855	32959	32721	32613	32679	32548	32639	
622	0	35047	29101	32711	32891	32654	32575	32535	32382	
623	0	35608	29223	33075	33107	32734	32662	32391	32559	
624	0	35545	29759	33271	33154	32899	32587	32508	32698	
625	0	35437	30815	33539	33191	32943	32505	32380	32621	
626	0	33444	33811	33522	33060	32959	32549	32411	32639	
627	0	31719	34735	33340	33207	32873	32583	32404	32809	
628	0	30479	35910	33127	33063	32799	32685	32382	32763	
629	0	30773	35447	32887	32839	32851	32723	32388	32727	
630	0	31796	34582	32685	32827	32786	32834	32293	32859	
631	0	32359	34321	32605	32870	32846	32829	32293	32799	
632	0	32501	33367	32631	32891	32658	32864	32167	32799	
633	0	32133	32786	32795	32977	32717	32743	32340	32631	
634	0	32479	33587	32765	32991	32734	32873	32271	32839	
635	0	33460	32679	32843	32903	32841	32767	32220	32783	
636	0	34477	31479	33159	32877	32858	32711	32229	32631	
637	0	34120	31894	32897	33037	32935	32799	32402	32767	
638	0	32824	32555	32735	32948	32895	32719	32326	32774	
639	0	33042	33271	32870	33057	32859	32683	32421	32775	
640	0	33159	32948	32933	33088	32635	32773	32543	32855	
641	0	33775	33487	32854	33098	32707	32634	32537	32690	
642	0	33128	34679	32743	32891	32690	32756	32639	32874	
643	0	31872	34321	32818	32935	32790	32619	32469	32709	
644	0	31472	33517	32864	32632	32775	32489	32607	32527	
645	0	31979	32705	33017	32598	32863	32555	32756	32703	
646	0	33305	31764	33055	32391	32711	32531	32764	32703	
647	0	34093	31540	33159	32225	32732	32671	32815	32589	
648	0	33596	32813	32627	32283	32731	32623	32685	32619	
649	0	32702	32699	32753	32430	32571	32749	32875	32583	
650	0	32049	33083	32734	32679	32615	32783	32811	32697	
651	0	30942	34427	32955	32775	32655	32815	32916	32691	
652	0	31467	34847	32925	32699	32739	32803	32920	32549	
653	0	32420	33043	32971	32591	32743	32919	32959	32695	
654	0	31997	31348	32941	32677	32678	32903	32847	32677	
655	0	31331	32295	32941	32647	32735	32835	32982	32760	
656	0	32387	32359	33085	32827	32789	32837	32815	32575	
657	0	32871	33187	33015	32756	32723	32831	32851	32706	
658	0	31549	35023	32327	32591	32731	32700	32919	32741	
659	0	30790	35847	31631	32645	32743	32767	32847	32614	
660	0	30599	35142	31719	32631	32605	32681	32805	32757	
661	0	32293	33415	32093	32751	32623	32675	32697	32759	
662	0	33026	31823	32241	32703	32682	32615	32828	32799	
663	0	32322	31429	32286	32726	32862	32739	32790	32807	
664	0	32662	31353	32459	32775	32797	32634	32857	32602	
665	0	33179	30653	32727	32643	32802	32582	32716	32782	
666	0	34360	30723	33060	32495	32676	32739	32836	32766	
667	0	34850	31527	32887	32743	32682	32767	32647	32785	
668	0	34951	32079	32783	32731	32687	32734	32795	32615	
669	0	33423	32391	32663	32719	32735	32775	32727	32645	
670	0	32321	32057	32518	32756	32799	32693	32733	32577	
671	0	30463	31783	32400	32797	32841	32727	32573	32477	
672	0	30815	31615	32763	32695	32751	32775	32685	32757	
673	0	31945	31434	32973	32582	32743	32894	32671	32701	
674	0	31858	32797	32852	32731	32748	32775	32724	32625	
675	0	32765	33949	32891	32839	32863	32723	32670	32644	
676	0	32549	34175	33047	32751	32804	32745	32668	32620	
677	0	33610	32343	33137	32842	32639	32727	32731	32820	
678	0	34463	32015	33189	32799	32598	32838	32687	32698	
679	0	34402	32279	32623	32775	32671	32669	32727	32635	
680	0	33959	32879	32479	33095	32783	32643	32647	32555	
681	0	33159	33799	32179	33213	32797	32647	32679	32703	
682	0	32716	34167	32255	33103	32730	32589	32615	32626	
683	0	32311	33199	32372	33198	32743	32608	32775	32539	
684	0	32419	33520	32424	32934	32927	32609	32677	32674	
685	0	31766	35303	32626	32787	32954	32579	32589	32636	
686	0	31439	34564	32823	32655	33045	32601	32572	32557	
687	0	31791	32796	33119	32482	32962	32583	32610	32642	
688	0	33102	31209	33463	32257	32858	32695	32715	32727	
689	0	34003	30527	33325	32263	32742	32793	32638	32691	
690	0	33480	31155	33245	32343	32748	32743	32655	32639	
691	0	33032	31751	33035	32601	32766	32900	32596	32827	
692	0	32775	32883	32999	32807	32725	32891	32695	32665	
693	0	33279	33188	32663	32903	32731	32775	32575	32647	
694	0	34178	33327	32454	33027	32687	32735	32701	32719	
695	0	35167	30823	32315	32731	32646	32807	32598	32548	
696	0	35226	29817	32199	32708	32802	32775	32742	32627	
697	0	34214	30721	32023	32621	32775	32677	32754	32589	
698	0	32688	32079	32074	32329	32858	32721	32711	32602	
699	0	32447	33586	32111	32326	32751	32711	32690	32629	
700	0	30816	34458	32527	32467	32751	32580	32687	32575	
701	0	29719	34463	32701	32609	32690	32647	32508	32702	
702	0	30152	34731	33203	32611	32758	32683	32751	32685	
703	0	30587	35129	33687	32775	32766	32621	32775	32708	
704	0	30930	34583	33455	32850	32828	32647	32783	32669	
705	0	31343	33469	33191	32950	32737	32679	32775	32723	
706	0	32149	32903	32935	32963	32761	32564	32727	32831	
707	0	33952	31905	32895	32930	32775	32678	32751	32548	
708	0	34387	31414	32887	32822	32785	32719	32751	32663	
709	0	34452	31570	32747	32873	32849	32711	32673	32639	
710	0	34351	31135	32519	32791	32882	32813	32613	32703	
711	0	33721	30276	32610	32731	32927	32883	32492	32565	
712	0	33067	30289	32495	32821	32859	32767	32622	32715	
713	0	32098	31011	32445	32823	32933	32871	32607	32582	
714	0	31774	32179	32375	32903	32871	32815	32699	32655	
715	0	31985	34490	32327	33029	32866	32707	32468	32623	
716	0	31789	35206	32404	33120	32863	32789	32615	32706	
717	0	33322	34063	32813	32903	32775	32759	32444	32515	
718	0	34321	33085	33042	32783	32789	32697	32663	32723	
719	0	33866	33950	33015	32918	32708	32769	32612	32775	
720	0	34051	32839	33175	32835	32773	32713	32739	32673	
721	0	33257	33295	32914	32727	32682	32711	32885	32621	
722	0	32209	33141	32293	32847	32818	32681	32741	32717	
723	0	32612	33103	32135	32757	32847	32573	32655	32714	
724	0	31735	33412	32087	32727	32871	32611	32686	32570	
725	0	31766	32302	32511	32951	32903	32642	32775	32593	
726	0	32406	32119	32671	32938	32973	32571	32663	32735	
727	0	33919	32277	33077	33095	32839	32615	32769	32668	
728	0	34102	33104	33520	33065	32756	32626	32730	32613	
729	0	34464	33645	33833	32717	32807	32791	32763	32684	
730	0	32936	33687	33831	32612	32794	32839	32784	32717	
731	0	31179	33603	33220	32161	32816	32787	32758	32775	
732	0	31255	33117	32831	32054	32914	32695	32594	32510	
733	0	31356	32319	32365	32029	32902	32807	32661	32615	
734	0	33030	31757	32100	32084	32923	32708	32525	32687	
735	0	33756	31695	32231	32174	32945	32742	32644	32647	
736	0	34194	31035	32338	32479	32910	32743	32595	32685	
737	0	33933	30397	32463	32555	32847	32815	32743	32570	
738	0	33060	30047	32534	32692	33041	32709	32549	32607	
739	0	32162	30617	32575	32863	32884	32775	32575	32682	
740	0	32450	32573	32447	32815	32787	32711	32527	32832	
741	0	32319	34081	32847	33205	32751	32727	32791	32707	
742	0	31924	35519	32903	33235	32790	32707	32694	32679	
743	0	31804	36397	32798	33276	32759	32722	32659	32540	
744	0	31705	36397	32679	33095	32735	32633	32727	32815	
745	0	31383	34543	32762	33092	32687	32647	32781	32707	
746	0	32391	33460	32855	32891	32786	32619	32762	32730	
747	0	30962	32898	32709	33074	32815	32586	32772	32525	
748	0	31442	32123	33010	33095	32636	32727	32710	32708	
749	0	33426	31831	32815	32943	32591	32834	32575	32784	
750	0	33805	30117	32579	32775	32577	32765	32623	32699	
751	0	34356	30031	32708	32694	32619	32967	32571	32715	
752	0	34700	29951	32591	32413	32625	32847	32695	32716	
753	0	34586	30645	32487	32327	32785	32639	32755	32631	
754	0	33362	32323	32543	32427	32858	32739	32767	32481	
755	0	32204	33575	32223	32658	32610	32759	32820	32641	
756	0	31455	32847	32807	32577	32775	32749	32801	32690	
757	0	32166	31431	33426	32583	32615	32861	32735	32592	
758	0	33447	31137	33679	32647	32699	32711	32627	32607	
759	0	34391	30927	33374	32655	32834	32671	32647	32647	
760	0	33999	31516	33372	32639	32619	32770	32719	32723	
761	0	34784	33549	33335	32671	32775	32767	32647	32732	
762	0	35421	32530	32995	32847	32832	32559	32629	32671	
763	0	34201	32641	32647	32975	32647	32606	32583	32567	
764	0	31836	34166	32194	33078	32903	32575	32623	32502	
765	0	30166	34719	31879	33103	32804	32624	32630	32532	
766	0	28519	36017	32383	32957	32795	32541	32673	32764	
767	0	27076	38251	32865	33047	32895	32595	32633	32721	
768	0	28193	37681	32903	33151	32658	32678	32559	32662	
769	0	30776	34847	33022	33066	32780	32751	32751	32795	
770	0	34296	33957	33078	32751	32654	32772	32823	32611	
771	0	35719	32995	32711	32429	32775	32818	32867	32724	
772	0	35094	31887	31975	32411	32837	32843	32756	32807	
773	0	34375	31079	31427	32588	32762	32935	32726	32714	
774	0	33918	31257	31442	32527	32951	32914	32839	32786	
775	0	33224	32551	31957	32549	32748	32867	32658	32745	
776	0	32498	32940	32225	32445	32799	32731	32613	32669	
777	0	32521	32711	32351	32412	32863	32638	32657	32552	
778	0	32287	32167	32943	32353	32615	32637	32685	32437	
779	0	32757	32127	33122	32521	32783	32647	32667	32719	
780	0	33181	31040	33927	32789	32712	32662	32631	32681	
781	0	34676	29389	33989	32871	32791	32663	32607	32571	
782	0	35308	29463	33799	33004	32850	32703	32730	32639	
783	0	34870	29959	33107	32903	32718	32639	32679	32445	
784	0	33744	29791	32635	32805	32692	32556	32742	32583	
785	0	32656	31326	32335	32871	32718	32683	32588	32656	
786	0	31465	34025	31958	32903	32839	32599	32589	32674	
787	0	30793	34999	31725	32967	32830	32593	32615	32576	
788	0	30598	34375	31827	32898	32579	32647	32767	32607	
789	0	30768	34878	32247	32719	32655	32679	32599	32699	
790	0	31344	35149	32578	32655	32839	32685	32681	32612	
791	0	31720	34454	32571	32587	32765	32827	32583	32773	
792	0	32775	32165	32679	32550	32599	32863	32727	32698	
793	0	33393	31381	32846	32823	32607	32899	32639	32663	
794	0	33710	31058	32701	33037	32522	32918	32743	32747	
795	0	33824	31637	33021	32974	32611	32731	32647	32771	
796	0	33888	33251	33481	32892	32623	32775	32718	32677	
797	0	33474	34433	33667	32773	32575	32775	32595	32507	
798	0	33860	34751	33651	32685	32623	32791	32685	32711	
799	0	35036	34018	33583	32307	32695	32643	32585	32709	
800	0	35109	33453	33655	32503	32717	32561	32647	32524	
801	0	33775	32025	33215	32679	32832	32725	32711	32705	
802	0	32423	30775	32475	32577	32887	32741	32739	32784	
803	0	30755	30595	32375	32850	32871	32634	32620	32583	
804	0	30235	31317	32175	32863	32765	32583	32509	32679	
805	0	30327	31399	32218	32731	32783	32698	32679	32631	
806	0	30832	32167	32062	32884	32767	32695	32773	32767	
807	0	31085	33467	32615	32903	32659	32711	32740	32698	
808	0	31606	34302	32734	32845	32695	32543	32687	32550	
809	0	32722	33890	32540	32758	32700	32745	32567	32689	
810	0	33799	32374	32465	32614	32711	32739	32767	32677	
811	0	34156	32934	32882	32341	32739	32733	32711	32551	
812	0	34305	33127	33103	32441	32850	32751	32747	32676	
813	0	34027	33050	32871	32611	32775	32866	32751	32733	
814	0	34599	32919	33027	32719	32736	32812	32775	32708	
815	0	34141	32447	33045	32775	32747	32847	32775	32717	
816	0	33369	32130	32935	32755	32791	32755	32572	32547	
817	0	32962	31122	32957	32868	32631	32796	32684	32614	
818	0	32331	32172	32687	32845	32669	32732	32583	32679	
819	0	32223	32483	32509	32947	32730	32679	32685	32603	
820	0	30842	34134	32463	32935	32731	32683	32655	32623	
821	0	29462	35188	32643	32972	32759	32631	32719	32551	
822	0	30055	35064	32663	33193	32821	32667	32677	32645	
823	0	31877	34391	32949	33050	32817	32550	32676	32674	
824	0	32615	33206	33159	33022	32817	32633	32647	32630	
825	0	32711	33101	32887	32815	32845	32733	32749	32694	
826	0	32343	33396	32359	32647	32823	32605	32591	32586	
827	0	33016	32903	32222	32535	32887	32647	32686	32701	
828	0	34270	31435	32173	32335	32819	32707	32639	32586	
829	0	36608	28875	32679	32303	32871	32764	32742	32741	
830	0	37599	28207	32671	32335	32829	32862	32735	32795	
831	0	36452	30331	32524	32559	32839	32774	32836	32511	
832	0	33890	33559	32717	32839	32893	32643	32608	32642	
833	0	32537	33763	32689	32993	32919	32743	32676	32623	
834	0	31607	32562	32871	32951	32890	32862	32695	32626	
835	0	30868	32951	32603	32985	32756	32876	32557	32822	
836	0	29446	34159	32509	32896	32789	32789	32751	32769	
837	0	28921	35703	32413	32924	32854	32791	32583	32636	
838	0	29762	35135	32935	32985	32827	32755	32615	32694	
839	0	31111	33835	33459	32701	32766	32664	32567	32694	
840	0	32355	33129	33817	32689	32671	32731	32735	32765	
841	0	34700	31446	33687	32759	32703	32775	32743	32834	
842	0	35734	30662	33335	32927	32797	32671	32607	32733	
843	0	34274	31149	33159	32991	32876	32647	32471	32639	
844	0	33239	32313	32667	32893	32796	32561	32570	32748	
845	0	32679	33207	32489	32730	32711	32524	32487	32639	
846	0	31971	34386	31879	32852	32885	32479	32700	32666	
847	0	31647	34482	31827	32802	32831	32607	32713	32566	
848	0	32060	34159	32391	32683	32797	32703	32551	32615	
849	0	32514	34390	32623	32630	32866	32741	32615	32738	
850	0	32756	32263	32630	32637	32895	32693	32612	32503	
851	0	32884	32083	32794	32227	32799	32789	32754	32708	
852	0	33149	32627	32647	32255	32759	32805	32588	32705	
853	0	33366	32519	32601	32527	32789	32739	32616	32670	
854	0	33226	32191	32787	32708	32756	32871	32665	32731	
855	0	33548	31751	32983	32592	32759	32798	32810	32631	
856	0	34398	31563	33006	32695	32839	32759	32551	32801	
857	0	34724	31217	32973	32599	32738	32825	32683	32693	
858	0	34233	31599	32663	32803	32625	32727	32559	32714	
859	0	34008	31407	32751	32804	32775	32647	32647	32575	
860	0	33040	30782	32591	32893	32621	32743	32569	32751	
861	0	31537	31047	32551	32926	32640	32739	32731	32823	
862	0	30121	31554	31943	32975	32679	32695	32596	32511	
863	0	30220	32967	31937	32967	32679	32535	32713	32577	
864	0	30751	34355	32020	33031	32836	32595	32769	32590	
865	0	31993	34902	32382	32997	32879	32647	32593	32706	
866	0	32602	35380	32476	32979	32859	32646	32579	32647	
867	0	32446	36183	32646	32847	32821	32611	32564	32571	
868	0	32452	36181	32663	32929	32775	32743	32659	32643	
869	0	33189	34137	33029	32764	32801	32738	32573	32692	
870	0	34160	32107	33295	32459	32763	32758	32647	32774	
871	0	34770	30419	33243	32562	32759	32827	32506	32692	
872	0	34577	28948	33174	32763	32775	32807	32703	32788	
873	0	34621	28039	33429	32729	32745	32863	32543	32819	
874	0	33460	31001	33373	32866	32803	32903	32639	32655	
875	0	32605	34325	33243	32875	32773	32813	32583	32514	
876	0	31349	36525	33265	32903	32775	32687	32663	32674	
877	0	31184	35303	33085	32735	32740	32631	32719	32604	
878	0	31255	34423	33125	32583	32729	32653	32773	32559	
879	0	32127	34898	33185	32645	32757	32642	32715	32662	
880	0	33082	33658	33300	32799	32775	32727	32751	32663	
881	0	32552	32571	33309	32775	32731	32798	32662	32604	
882	0	31892	31503	33007	32581	32749	32671	32677	32773	
883	0	31893	30429	32996	32419	32767	32647	32763	32671	
884	0	32286	30503	32647	32231	32738	32559	32759	32743	
885	0	32973	30497	32229	32466	32754	32698	32813	32599	
886	0	32558	31559	32045	32844	32767	32673	32716	32682	
887	0	32949	33571	31837	33023	32771	32647	32723	32717	
888	0	33304	34587	31844	33159	32845	32759	32662	32588	
889	0	33145	35003	32035	33019	32869	32734	32662	32645	
890	0	33340	34991	32178	32901	32634	32763	32730	32663	
891	0	33260	34481	32619	32571	32585	32803	32724	32551	
892	0	34126	31506	32743	32583	32767	32847	32686	32723	
893	0	33780	31229	33008	32493	32775	32790	32573	32749	
894	0	32486	31955	32961	32553	32807	32679	32629	32581	
895	0	32397	32499	32623	32831	32828	32773	32535	32564	
896	0	32286	32559	32607	33103	32797	32799	32671	32631	
897	0	32338	33027	32557	32991	32815	32807	32551	32762	
898	0	32064	32711	32583	32871	32675	32806	32647	32735	
899	0	32512	32307	32863	32916	32747	32775	32739	32451	
900	0	33078	31087	33136	32647	32738	32631	32671	32695	
901	0	32793	32303	33090	32516	32735	32699	32719	32662	
902	0	32229	32743	32799	32692	32867	32603	32662	32623	
903	0	31787	34559	32898	32851	32935	32687	32483	32676	
904	0	32932	34532	33147	33123	32989	32607	32647	32622	
905	0	33401	33385	32855	33172	32833	32591	32583	32607	
906	0	33315	31975	32617	32844	32859	32625	32691	32679	
907	0	33492	31719	32463	32481	32807	32647	32578	32775	
908	0	33607	31775	32506	32487	32884	32685	32727	32441	
909	0	33532	31325	32549	32694	32947	32693	32637	32647	
910	0	33462	30919	32613	32775	32903	32811	32759	32726	
911	0	33708	31454	32967	32641	32871	32793	32699	32540	
912	0	33272	32689	32951	32623	32863	32695	32775	32687	
913	0	32109	33949	32668	32581	32787	32740	32775	32695	
914	0	30638	34025	32559	32596	32858	32807	32816	32591	
915	0	30908	33445	32861	32285	32850	32647	32775	32563	
916	0	31218	32903	32877	32399	32845	32729	32742	32637	
917	0	32254	32275	32623	32455	32775	32743	32506	32540	
918	0	33667	32359	32255	32635	32786	32739	32599	32615	
919	0	34062	32636	32480	32765	32815	32700	32519	32639	
920	0	34368	33231	32645	32918	32817	32750	32543	32715	
921	0	33562	33639	32316	32969	32759	32713	32415	32546	
922	0	31524	33884	32131	33229	32762	32647	32669	32719	
923	0	30948	33407	32455	33135	32771	32702	32630	32775	
924	0	31500	33250	32731	33037	32806	32685	32634	32613	
925	0	32564	32405	32881	32927	32811	32573	32695	32706	
926	0	33053	32391	32791	32871	32764	32774	32855	32781	
927	0	33924	32235	33006	32783	32695	32662	32843	32663	
928	0	33172	32437	32955	32679	32775	32735	32603	32735	
929	0	32720	32739	33183	32647	32515	32743	32727	32787	
930	0	32805	32695	33063	32626	32532	32836	32627	32583	
931	0	32093	33274	33055	32514	32643	32855	32711	32722	
932	0	32592	32471	33134	32391	32727	32733	32799	32710	
933	0	33355	31267	33159	32493	32807	32863	32674	32578	
934	0	33350	31698	33051	32719	32827	32834	32751	32699	
935	0	34066	31730	32847	32833	32765	32755	32647	32647	
936	0	34593	31988	32951	32993	32823	32799	32743	32785	
937	0	33449	33431	32378	33238	32881	32736	32614	32658	
938	0	31403	34741	32209	33255	32767	32652	32692	32659	
939	0	30528	34492	32279	33052	32869	32706	32567	32626	
940	0	31055	33607	32230	32910	32903	32719	32594	32539	
941	0	32078	32251	32723	32580	32887	32619	32407	32655	
942	0	32722	32845	32738	32391	32822	32525	32639	32655	
943	0	32374	32412	32903	32066	32775	32551	32477	32415	
944	0	32551	31307	33149	32293	32799	32525	32641	32628	
945	0	32826	32330	33077	32511	32757	32557	32519	32695	
946	0	32808	31589	33159	32883	32793	32698	32660	32615	
947	0	33038	32821	33153	32927	32754	32735	32605	32753	
948	0	33608	33898	32878	32863	32775	32702	32658	32677	
949	0	34367	32739	32333	32865	32735	32731	32587	32531	
950	0	34386	32612	32399	32890	32735	32821	32775	32723	
951	0	33019	32815	32415	32767	32671	32826	32775	32822	
952	0	31727	32135	32481	32753	32583	32753	32615	32679	
953	0	32000	33191	32610	32675	32709	32866	32663	32711	
954	0	32903	33191	32746	32719	32895	32751	32421	32527	
955	0	34227	32719	32691	32769	32911	32711	32644	32671	
956	0	34532	32351	32622	32911	32871	32709	32631	32843	
957	0	35096	30457	32383	32863	32810	32743	32771	32783	
958	0	34786	31325	32359	32887	32735	32771	32804	32655	
959	0	33334	32703	32255	32903	32749	32671	32767	32518	
960	0	32288	32191	32491	33063	32749	32731	32670	32685	
961	0	32180	32885	32700	33229	32583	32732	32594	32809	
962	0	31342	34083	32719	33110	32614	32719	32687	32629	
963	0	31166	33550	32580	32947	32655	32626	32511	32691	
964	0	31307	33735	32823	32815	32663	32685	32617	32795	
965	0	31262	34219	32855	32379	32613	32658	32627	32599	
966	0	31556	33687	32931	32304	32695	32647	32811	32739	
967	0	31600	33693	33151	31835	32775	32698	32751	32663	
968	0	31387	33080	33415	31746	32820	32647	32745	32598	
969	0	30972	32691	33530	32039	32848	32626	32711	32607	
970	0	31530	32863	33541	32473	32865	32640	32599	32691	
971	0	32713	32549	33451	32822	32861	32727	32771	32525	
972	0	33750	32295	33361	33047	32877	32782	32665	32615	
973	0	33806	33313	33062	33155	32837	32751	32643	32620	
974	0	33260	34224	32721	33078	32794	32823	32563	32759	
975	0	32450	34311	32607	33071	32782	32808	32705	32740	
976	0	32850	32740	32191	33007	32766	32747	32691	32623	
977	0	33123	31933	31955	32933	32795	32764	32709	32683	
978	0	33298	31494	31879	32775	32853	32757	32701	32591	
979	0	32979	31775	31735	32932	32731	32757	32439	32621	
980	0	33179	32230	32108	32891	32797	32703	32679	32711	
981	0	33655	32359	32482	32663	32879	32665	32617	32615	
982	0	33799	32071	32739	32759	32834	32732	32812	32684	
983	0	33784	31719	32967	32527	32803	32711	32789	32621	
984	0	32556	32309	33119	32547	32855	32534	32732	32658	
985	0	31867	31599	33024	32478	32775	32643	32702	32679	
986	0	32794	31046	32881	32699	32753	32623	32735	32591	
987	0	32794	31038	32341	32645	32803	32574	32711	32679	
988	0	33218	32599	32517	32767	32799	32694	32607	32683	
989	0	33954	33277	32839	32891	32756	32769	32747	32621	
990	0	34224	33509	32979	33029	32711	32759	32822	32534	
991	0	34182	33949	32831	33031	32700	32927	32807	32692	
992	0	33304	34131	33103	33116	32740	32885	32797	32762	
993	0	31924	33444	33239	32966	32775	32707	32715	32476	
994	0	31843	33108	33015	32761	32790	32682	32734	32636	
995	0	31092	33133	32770	32587	32787	32724	32765	32683	
996	0	31076	32683	32527	32594	32751	32745	32743	32591	
997	0	31124	33335	32525	32583	32673	32775	32788	32814	
998	0	32431	32235	32623	32658	32735	32804	32686	32623	
999	0	33256	33331	32436	32543	32749	32783	32775	32691	
1000	0	33440	34131	32613	32559	32803	32719	32710	32681	
1001	0	33571	33111	32703	32526	32819	32702	32669	32735	
1002	0	32532	32299	32735	32621	32647	32647	32519	32681	
1003	0	32011	31751	32919	32735	32628	32729	32611	32735	
1004	0	31574	31693	33159	32855	32685	32583	32535	32575	
1005	0	32785	32512	32987	32998	32765	32681	32575	32749	
1006	0	33640	32775	32804	33014	32854	32718	32545	32771	
1007	0	34215	33415	32762	33223	32903	32647	32693	32626	
1008	0	34009	33379	32967	33035	32884	32745	32487	32729	
1009	0	33244	32161	32987	32741	32959	32756	32570	32687	
1010	0	33019	31336	33387	32484	32815	32707	32593	32557	
1011	0	33088	30142	33527	32507	32817	32739	32690	32681	
1012	0	32398	32047	33243	32647	32812	32763	32572	32548	
1013	0	31269	32972	32835	32759	32829	32703	32617	32647	
1014	0	30516	34247	32338	32688	32843	32817	32647	32570	
1015	0	29893	35303	31711	32775	32965	32799	32711	32606	
1016	0	29697	36079	31530	32688	32943	32695	32725	32727	
1017	0	31444	35295	31802	32533	32836	32807	32783	32534	
1018	0	33690	34213	31922	32658	32901	32749	32775	32641	
1019	0	35487	33509	32175	32801	32871	32671	32722	32783	
1020	0	36326	32439	32765	32935	32806	32647	32509	32751	
1021	0	35718	31196	33079	32802	32743	32723	32647	32690	
1022	0	34727	31565	33140	32775	32739	32681	32671	32687	
1023	0	34477	31791	32791	32743	32775	32658	32735	32673	
1024	0	33181	31655	32682	32614	32759	32679	32595	32679	
1025	0	31603	30916	32675	32567	32795	32591	32679	32527	
1026	0	32071	30199	32559	32918	32767	32723	32696	32673	
1027	0	31800	29895	32560	32884	32754	32647	32722	32723	
1028	0	31772	30810	32735	32818	32852	32719	32567	32677	
1029	0	32169	32063	32691	32562	32751	32739	32711	32783	
1030	0	32683	32351	32755	32624	32829	32708	32551	32718	
1031	0	32779	33587	32941	32639	32686	32772	32751	32730	
1032	0	31324	36629	32999	32429	32775	32715	32676	32454	
1033	0	31259	35751	33047	32591	32791	32644	32675	32564	
1034	0	32391	34532	33023	32539	32839	32825	32562	32710	
1035	0	34180	32709	33180	32703	32791	32845	32681	32559	
1036	0	34601	30689	33319	32701	32735	32742	32527	32655	
1037	0	34032	31697	33299	32773	32722	32746	32694	32675	
1038	0	32336	32775	32719	33115	32647	32756	32646	32711	
1039	0	30615	33534	32733	33257	32719	32723	32601	32741	
1040	0	30361	34246	32579	33135	32749	32623	32724	32573	
1041	0	31405	33444	32617	33005	32723	32738	32713	32722	
1042	0	32926	32157	32541	33095	32735	32711	32759	32751	
1043	0	34552	31405	33036	32927	32759	32735	32667	32775	
1044	0	34713	31079	32623	32662	32829	32614	32775	32687	
1045	0	34413	31853	32359	32577	32797	32662	32699	32767	
1046	0	33477	33271	32317	32415	32816	32644	32653	32710	
1047	0	32496	33335	32802	32375	32828	32598	32617	32661	
1048	0	31973	33662	33435	32359	32807	32686	32687	32627	
1049	0	32381	32671	33577	32391	32806	32647	32623	32763	
1050	0	33911	31687	33567	32565	32759	32699	32775	32477	
1051	0	34589	31061	32965	32660	32775	32682	32727	32629	
1052	0	33191	31811	32174	32612	32735	32841	32658	32775	
1053	0	32771	31503	31827	32627	32823	32891	32663	32508	
1054	0	33357	31285	31574	32749	32841	32809	32711	32615	
1055	0	32885	32551	31623	32967	32806	32815	32671	32703	
1056	0	30804	35030	31979	33159	32861	32761	32628	32671	
1057	0	29150	37071	32247	33183	32933	32655	32526	32716	
1058	0	29511	37303	32356	33185	32901	32630	32658	32509	
1059	0	31805	34088	32489	33095	32951	32818	32735	32775	
1060	0	33799	32767	33117	32933	32825	32802	32727	32856	
1061	0	34584	32071	33179	32881	32855	32782	32834	32599	
1062	0	35037	31419	33615	32803	32845	32787	32767	32795	
1063	0	34790	31431	34173	32731	32753	32775	32765	32749	
1064	0	34956	31095	34051	32653	32771	32530	32629	32796	
1065	0	34646	31435	33559	32839	32826	32535	32742	32525	
1066	0	32647	32412	33234	32647	32897	32619	32592	32627	
1067	0	31257	33693	32977	32617	32859	32487	32709	32489	
1068	0	30876	34887	32767	32420	32890	32636	32715	32564	
1069	0	30246	35164	32233	32561	32943	32642	32767	32604	
1070	0	29612	33475	31730	32647	32911	32653	32716	32571	
1071	0	30806	31423	31595	32735	32951	32735	32799	32690	
1072	0	33190	30749	31971	32647	32793	32867	32775	32582	
1073	0	34618	31215	32093	32699	32802	32876	32605	32723	
1074	0	34551	32369	31987	32743	32807	32791	32742	32715	
1075	0	33879	32203	32118	32769	32729	32819	32626	32643	
1076	0	33028	31044	32615	32804	32703	32825	32647	32687	
1077	0	32607	30551	33027	32898	32711	32763	32551	32641	
1078	0	32630	30187	32918	32683	32793	32762	32612	32670	
1079	0	31429	31743	32903	32578	32765	32731	32445	32684	
1080	0	30374	33695	32759	32727	32844	32591	32667	32471	
1081	0	31087	34854	32818	32820	32832	32647	32599	32618	
1082	0	32482	36315	33151	32706	32791	32737	32727	32711	
1083	0	33692	36901	33151	32863	32621	32591	32541	32574	
1084	0	34219	34951	33083	32836	32638	32609	32686	32783	
1085	0	33634	32118	33045	32967	32629	32636	32500	32687	
1086	0	33129	31906	33092	32833	32820	32623	32665	32583	
1087	0	32825	31205	32799	32711	32838	32589	32663	32683	
1088	0	33368	29733	32881	32701	32761	32718	32747	32655	
1089	0	35084	29237	32887	32734	32653	32761	32587	32807	
1090	0	35463	29508	32463	32826	32698	32837	32723	32580	
1091	0	35324	31255	32445	32767	32821	32791	32463	32638	
1092	0	33988	32925	32415	32910	32811	32740	32709	32662	
1093	0	32654	34514	32431	32687	32821	32811	32638	32546	
1094	0	31491	35509	32582	32455	32775	32703	32754	32635	
1095	0	30444	36653	32515	32364	32803	32707	32687	32685	
1096	0	29954	36468	32854	32415	32847	32647	32619	32503	
1097	0	29394	34363	32975	32581	32858	32713	32679	32637	
1098	0	30425	32174	33025	32615	32775	32733	32647	32717	
1099	0	32155	31391	33334	32566	32748	32671	32775	32564	
1100	0	34307	31031	33159	32597	32727	32774	32847	32773	
1101	0	34556	31355	33065	32709	32775	32731	32775	32846	
1102	0	34093	32663	32889	32711	32871	32647	32725	32566	
1103	0	33592	32461	32861	32615	32644	32723	32647	32743	
1104	0	32647	32065	32639	32775	32577	32775	32595	32842	
1105	0	33356	31863	33155	32807	32683	32559	32720	32758	
1106	0	34376	31595	33037	32790	32805	32586	32711	32703	
1107	0	34281	31062	32645	32858	32851	32583	32701	32501	
1108	0	34033	30989	32647	33029	32866	32573	32639	32619	
1109	0	33574	31781	32758	32931	32890	32759	32749	32583	
1110	0	33656	32471	32791	32855	32815	32775	32681	32639	
1111	0	32548	33067	32534	32845	32839	32816	32605	32635	
1112	0	31471	34319	32370	32980	32751	32798	32671	32595	
1113	0	30686	33095	32258	32837	32794	32864	32635	32698	
1114	0	30342	32679	32410	32939	32807	32889	32715	32555	
1115	0	29570	32558	32359	32935	32734	32789	32781	32741	
1116	0	29857	32743	32631	32807	32611	32864	32623	32759	
1117	0	30918	34277	33063	32927	32683	32802	32490	32655	
1118	0	31519	35901	32839	32894	32658	32629	32551	32591	
1119	0	32349	36269	32553	32807	32658	32692	32516	32743	
1120	0	32972	34730	32695	32511	32703	32751	32683	32551	
1121	0	34229	33230	32977	32381	32647	32724	32507	32775	
1122	0	35243	32219	33071	32388	32690	32718	32627	32784	
1123	0	35724	30948	33425	32367	32756	32693	32606	32694	
1124	0	35527	30215	33287	32566	32775	32579	32707	32831	
1125	0	34605	30790	33229	32605	32829	32605	32595	32710	
1126	0	34052	31843	33043	32797	32885	32559	32695	32573	
1127	0	32485	32919	32511	32919	32887	32571	32621	32715	
1128	0	31149	33631	32271	32995	32862	32699	32818	32726	
1129	0	30481	34267	32016	32909	32877	32741	32771	32775	
1130	0	30898	34527	32059	32862	32919	32695	32847	32537	
1131	0	31099	33799	31997	32963	32839	32803	32719	32630	
1132	0	32008	32837	32114	32847	32796	32846	32837	32663	
1133	0	33687	31967	32532	32791	32771	32851	32766	32647	
1134	0	35207	31195	32775	32703	32775	32802	32757	32631	
1135	0	36207	29999	32628	32831	32791	32870	32647	32749	
1136	0	35258	30535	32821	32687	32783	32749	32670	32541	
1137	0	33457	30855	33183	32895	32727	32703	32647	32637	
1138	0	31724	31943	33213	33023	32813	32747	32671	32684	
1139	0	30672	32967	32950	33088	32790	32662	32677	32519	
1140	0	29671	35254	32901	32991	32605	32647	32570	32740	
1141	0	30861	35423	32719	32975	32627	32725	32711	32844	
1142	0	32361	34684	32711	32857	32643	32671	32623	32598	
1143	0	32601	34103	32446	32535	32559	32578	32687	32679	
1144	0	33637	32594	32365	32415	32614	32659	32515	32749	
1145	0	34119	32131	32417	32355	32789	32639	32647	32583	
1146	0	33770	32079	32741	32495	32751	32569	32599	32685	
1147	0	33347	32583	32643	32361	32695	32663	32713	32721	
1148	0	32987	32655	32871	32631	32831	32714	32519	32575	
1149	0	32039	32935	32838	32669	32620	32695	32623	32679	
1150	0	32483	32235	32895	32791	32540	32775	32589	32615	
1151	0	33107	31581	33223	32735	32590	32821	32743	32815	
1152	0	33756	31462	33058	32668	32719	32717	32499	32657	
1153	0	33056	32063	33039	32903	32775	32835	32581	32685	
1154	0	32557	31659	32555	32911	32743	32823	32507	32513	
1155	0	32400	32047	32513	32803	32783	32756	32673	32607	
1156	0	31793	31940	32498	32817	32887	32823	32690	32523	
1157	0	31239	33110	32430	32861	32964	32699	32718	32509	
1158	0	30533	34421	32644	32839	32916	32675	32718	32638	
1159	0	31559	34646	32839	32653	32815	32679	32615	32690	
1160	0	32598	35155	33436	32435	32717	32695	32693	32621	
1161	0	33682	34028	33426	32458	32743	32631	32787	32647	
1162	0	34294	32033	32981	32541	32786	32567	32743	32639	
1163	0	33566	31586	32647	32695	32783	32631	32613	32679	
1164	0	34252	30998	32599	32775	32821	32611	32615	32695	
1165	0	35019	31639	32461	32807	32812	32590	32686	32775	
1166	0	34428	31511	32699	32715	32732	32679	32711	32779	
1167	0	34095	32156	32659	32787	32829	32557	32495	32535	
1168	0	33110	33027	32835	32845	32807	32563	32671	32643	
1169	0	32423	33463	32805	32839	32828	32613	32647	32487	
1170	0	32058	32595	32799	32707	32677	32775	32599	32647	
1171	0	32047	32391	32858	32685	32766	32836	32666	32739	
1172	0	31580	33575	33009	32787	32883	32751	32491	32583	
1173	0	31047	34205	32974	32727	32953	32830	32709	32724	
1174	0	31065	34123	32914	32703	32751	32903	32731	32675	
1175	0	30873	33967	32564	32647	32723	32959	32710	32787	
1176	0	31494	33895	32390	32644	32775	32750	32639	32783	
1177	0	32453	33185	32492	32679	32614	32745	32489	32660	
1178	0	32858	32503	32391	32802	32675	32763	32734	32642	
1179	0	33114	32227	32283	32935	32759	32813	32732	32685	
1180	0	33704	31723	32203	32717	32871	32642	32762	32775	
1181	0	34382	30967	32583	32799	32869	32679	32711	32686	
1182	0	34397	31101	32642	32890	32831	32695	32711	32631	
1183	0	33808	30846	32827	32679	32746	32551	32687	32627	
1184	0	33455	31239	32954	32742	32759	32567	32526	32695	
1185	0	32965	32007	32808	32879	32741	32615	32715	32647	
1186	0	32861	32157	32963	32858	32775	32572	32562	32647	
1187	0	32549	34273	33017	32875	32781	32623	32775	32683	
1188	0	32484	33718	33111	32669	32767	32647	32807	32627	
1189	0	31428	35260	32903	32759	32683	32699	32803	32767	
1190	0	30397	36444	32833	32868	32695	32727	32683	32597	
1191	0	30509	35785	32626	32871	32823	32827	32705	32591	
1192	0	30520	33943	32658	32839	32658	32863	32631	32747	
1193	0	29955	32647	32254	32951	32754	32823	32775	32692	
1194	0	30464	32157	32093	32853	32726	32739	32660	32606	
1195	0	33766	31180	32495	32744	32763	32839	32660	32631	
1196	0	37047	30530	32962	32599	32661	32880	32607	32749	
1197	0	37277	30465	32822	32771	32721	32830	32747	32775	
1198	0	36907	31198	32671	32609	32803	32829	32521	32639	
1199	0	35622	31727	32643	32655	32843	32775	32677	32757	
1200	0	34491	31906	32671	32727	32932	32663	32684	32747	
1201	0	32788	31796	32733	32962	32892	32765	32683	32553	
1202	0	32002	32773	32748	32763	32821	32679	32748	32771	
1203	0	31111	33769	32639	32948	32871	32519	32685	32695	
1204	0	31157	33831	32719	32690	32846	32549	32541	32527	
1205	0	31470	34045	32911	32533	32916	32556	32668	32634	
1206	0	31284	34177	32815	32663	32873	32517	32615	32621	
1207	0	31535	34099	32867	32761	32847	32599	32708	32671	
1208	0	32417	33308	33283	32591	32767	32703	32645	32647	
1209	0	34477	32339	33319	32647	32735	32775	32775	32555	
1210	0	33951	32980	33434	32722	32734	32708	32831	32643	
1211	0	33702	32047	33189	32647	32791	32785	32847	32775	
1212	0	33207	31958	32967	32826	32662	32818	32773	32491	
1213	0	32186	31735	32673	32647	32674	32903	32871	32655	
1214	0	30929	32135	32339	32518	32759	32924	32694	32702	
1215	0	30217	33283	32218	32537	32812	32807	32878	32767	
1216	0	30177	33877	32300	32358	32807	32862	32727	32646	
1217	0	31234	33229	32142	32399	32842	32903	32881	32661	
1218	0	31996	32375	32209	32503	32853	32767	32775	32683	
1219	0	32135	31671	32550	32514	32645	32833	32913	32692	
1220	0	32315	31547	32722	32581	32593	32647	32911	32487	
1221	0	32690	30979	32639	32799	32554	32571	32723	32525	
1222	0	32711	31327	32679	32801	32708	32626	32833	32535	
1223	0	32722	32189	32605	32959	32743	32621	32925	32612	
1224	0	33052	32972	32729	32976	32742	32517	32971	32519	
1225	0	33140	33301	32775	32867	32775	32551	32914	32590	
1226	0	33189	33356	32579	32797	32793	32543	32839	32519	
1227	0	33819	33061	32299	32683	32851	32519	32811	32466	
1228	0	34033	32725	32443	32621	32819	32633	32683	32505	
1229	0	33964	32346	32655	32647	32818	32675	32722	32575	
1230	0	34066	31655	32859	32663	32791	32646	32583	32583	
1231	0	34176	31215	32506	32647	32795	32807	32700	32460	
1232	0	34503	31311	32407	32723	32851	32867	32637	32537	
1233	0	34271	31146	32613	32845	32839	32750	32493	32518	
1234	0	34155	31559	32991	32902	32787	32794	32583	32664	
1235	0	34027	31837	33027	32827	32719	32803	32589	32684	
1236	0	32986	32231	32867	32937	32783	32775	32467	32815	
1237	0	32690	33031	32749	32827	32828	32835	32436	32715	
1238	0	32775	33059	32766	32727	32815	32735	32474	32831	
1239	0	31952	32355	32551	33009	32850	32688	32463	32807	
1240	0	31423	33511	32503	33311	32815	32718	32319	32639	
1241	0	31550	34635	32574	33346	32860	32629	32359	32807	
1242	0	31440	35362	32799	33437	32922	32621	32278	32726	
1243	0	30974	36343	32921	33227	32863	32663	32327	32739	
1244	0	32490	35828	33215	32927	32871	32552	32217	32884	
1245	0	33292	35205	33243	32983	32900	32646	32335	32911	
1246	0	33687	34270	33059	33014	32879	32663	32185	32984	
1247	0	33420	33825	32845	32767	32883	32557	32351	32775	
1248	0	33612	32839	32913	32639	32860	32573	32291	32694	
1249	0	33967	32015	33207	32338	32846	32639	32459	32519	
1250	0	34669	31271	33298	32443	32855	32605	32492	32658	
1251	0	34560	31399	33495	32406	32663	32761	32375	32621	
1252	0	34486	32051	33746	32511	32745	32759	32391	32739	
1253	0	33350	32411	33374	32689	32757	32738	32346	32871	
1254	0	32543	32643	33254	32675	32754	33004	32611	32635	
1255	0	32007	32899	33015	32475	32863	32885	32547	32710	
1256	0	32015	32507	32694	32714	32769	32867	32740	32637	
1257	0	32359	31861	32701	32822	32732	32863	32711	32703	
1258	0	32114	31799	32507	32964	32694	32767	32847	32617	
1259	0	31554	32175	32278	32989	32735	32785	32871	32595	
1260	0	31233	32607	32253	32775	32725	32751	32899	32710	
1261	0	30790	33207	32070	32567	32754	32683	32911	32689	
1262	0	30591	33541	32422	32453	32759	32686	32929	32658	
1263	0	31275	33095	32871	32564	32766	32583	32881	32647	
1264	0	32101	32703	32847	32563	32555	32543	32995	32581	
1265	0	32974	32161	32468	32551	32535	32561	32919	32659	
1266	0	33563	30640	32575	32685	32503	32535	33031	32647	
1267	0	33596	31543	32647	32727	32487	32715	32978	32783	
1268	0	33542	31143	32518	32761	32807	32638	32931	32689	
1269	0	33167	31599	32518	32745	32671	32695	32829	32525	
1270	0	32455	32858	32247	32903	32717	32721	32967	32642	
1271	0	31742	33651	32299	32971	32755	32863	32714	32675	
1272	0	31009	35103	32391	33023	32773	32939	32773	32791	
1273	0	31906	35561	32317	32893	32786	32835	32719	32643	
1274	0	32605	34559	32399	32859	32743	32975	32852	32747	
1275	0	33136	32599	32599	32915	32541	32954	32769	32666	
1276	0	32962	32130	32669	32837	32595	32854	32851	32775	
1277	0	32556	33665	32807	32667	32604	32911	32683	32723	
1278	0	33474	33377	33006	32748	32607	32862	32763	32775	
1279	0	34551	33618	32919	32775	32583	32705	32603	32549	
1280	0	34083	33234	32775	32501	32663	32743	32743	32705	
1281	0	33792	32967	32903	32301	32647	32703	32511	32719	
1282	0	32269	33061	32846	32331	32633	32623	32663	32516	
1283	0	30931	32762	32711	32496	32857	32595	32685	32675	
1284	0	31094	31439	32506	32535	32775	32487	32603	32643	
1285	0	32104	31251	32533	32615	32823	32498	32615	32689	
1286	0	32643	31291	32802	32843	32883	32551	32431	32690	
1287	0	33424	32175	32870	32874	32838	32583	32623	32671	
1288	0	34945	31731	32732	32935	32804	32659	32525	32691	
1289	0	35608	31095	32858	32921	32789	32687	32677	32589	
1290	0	34614	31667	32943	32903	32786	32887	32671	32733	
1291	0	33295	32407	32914	32885	32791	32858	32743	32694	
1292	0	32070	32714	33115	32739	32731	32738	32735	32487	
1293	0	31695	32787	33134	32784	32711	32846	32654	32673	
1294	0	32515	33058	33348	32878	32786	32948	32740	32703	
1295	0	33350	32135	33317	32759	32807	32775	32565	32738	
1296	0	32887	31959	33015	32762	32845	32834	32735	32475	
1297	0	32617	32775	32445	32631	32930	32727	32554	32677	
1298	0	32194	33651	32509	32837	32903	32686	32703	32722	
1299	0	31710	34131	32519	32751	32903	32710	32525	32663	
1300	0	31390	34327	32367	32691	32876	32711	32671	32639	
1301	0	31174	34639	32283	32678	32879	32607	32534	32577	
1302	0	31050	34078	32236	32814	32900	32663	32623	32667	
1303	0	31432	33090	32338	32695	32875	32678	32663	32677	
1304	0	32220	32775	32611	32721	32811	32471	32711	32640	
1305	0	32023	33199	32663	32990	32775	32620	32727	32557	
1306	0	31582	33023	32542	33311	32694	32598	32667	32645	
1307	0	31642	32698	32452	33311	32841	32605	32699	32748	
1308	0	31799	32745	32475	32969	32843	32647	32644	32579	
1309	0	32935	32433	32666	32751	32791	32647	32720	32647	
1310	0	34036	32001	32724	32487	32898	32690	32622	32743	
1311	0	34520	31398	32571	32227	32934	32718	32663	32699	
1312	0	35334	31137	33023	32135	32892	32889	32621	32701	
1313	0	34946	31171	33447	32108	32892	32748	32673	32551	
1314	0	34284	31687	33616	32100	32855	32790	32623	32690	
1315	0	34770	31715	33562	32452	32839	32871	32769	32742	
1316	0	34177	31831	33495	32663	32677	32751	32687	32545	
1317	0	34081	30691	33534	32829	32674	32785	32708	32702	
1318	0	33343	30987	33447	32964	32631	32751	32447	32707	
1319	0	32378	32003	32979	32935	32578	32733	32701	32527	
1320	0	32133	33223	32571	33159	32675	32719	32603	32733	
1321	0	31849	35975	31974	33181	32662	32733	32565	32773	
1322	0	31290	36711	31751	32984	32681	32740	32593	32543	
1323	0	31079	36908	31438	32927	32791	32681	32575	32551	
1324	0	31172	35089	31311	32767	32813	32525	32749	32719	
1325	0	31750	33287	31963	32703	32811	32528	32515	32719	
1326	0	32369	32391	32543	32743	32815	32559	32621	32543	
1327	0	33041	31135	32575	32759	32827	32562	32474	32684	
1328	0	33053	31223	32549	32710	32799	32642	32655	32711	
1329	0	32734	32003	32927	32683	32799	32743	32626	32458	
1330	0	32573	32571	33095	32903	32765	32717	32793	32671	
1331	0	32307	32596	33157	32815	32700	32922	32667	32639	
1332	0	32015	33447	33142	32784	32755	32871	32731	32733	
1333	0	32308	32831	32947	32738	32722	32892	32694	32713	
1334	0	32992	32207	33113	32827	32750	32773	32775	32592	
1335	0	34178	32579	33050	32918	32747	32891	32657	32727	
1336	0	34624	32667	32727	32885	32801	32882	32735	32807	
1337	0	34038	32713	32471	32787	32833	32787	32724	32738	
1338	0	33785	32289	32666	32692	32586	32677	32614	32711	
1339	0	33898	31599	33003	32566	32586	32803	32700	32578	
1340	0	34003	31284	33159	32429	32745	32746	32775	32706	
1341	0	34290	31054	32927	32609	32565	32647	32695	32694	
1342	0	33260	31751	32647	32725	32775	32595	32685	32635	
1343	0	31981	33049	32767	32599	32600	32631	32662	32615	
1344	0	31358	33095	32695	32647	32643	32615	32549	32477	
1345	0	31631	33287	32786	32647	32625	32546	32723	32674	
1346	0	31373	34149	32711	32858	32716	32524	32607	32563	
1347	0	30999	35503	32643	32950	32839	32594	32791	32647	
1348	0	31111	33875	32487	32892	32815	32671	32775	32647	
1349	0	31488	31951	32486	32847	32751	32751	32643	32811	
1350	0	32502	31949	32885	32749	32807	32729	32715	32809	
1351	0	33072	32647	33057	32751	32775	32935	32775	32625	
1352	0	33576	32011	32994	32633	32742	32881	32735	32602	
1353	0	33628	32612	33143	32807	32797	32853	32763	32505	
1354	0	32841	32569	33027	32751	32775	32742	32707	32647	
1355	0	32023	32710	33171	32805	32839	32799	32615	32591	
1356	0	32225	32203	32985	32741	32767	32895	32501	32596	
1357	0	32775	31751	32795	32591	32814	32751	32621	32661	
1358	0	32793	32421	32429	32685	32815	32836	32564	32677	
1359	0	33053	32795	32130	32661	32786	32723	32596	32690	
1360	0	33592	33554	31917	32633	32788	32681	32503	32678	
1361	0	33256	32901	32039	32626	32757	32679	32663	32684	
1362	0	33702	31367	32356	32763	32803	32647	32557	32687	
1363	0	33902	31527	32839	32893	32607	32631	32646	32727	
1364	0	33404	31909	33013	32803	32667	32551	32620	32583	
1365	0	32709	32671	33239	33019	32689	32543	32769	32558	
1366	0	32464	34046	33035	32981	32877	32629	32635	32631	
1367	0	31501	34478	32817	32763	32827	32558	32642	32695	
1368	0	30230	34327	32590	32711	32755	32543	32655	32647	
1369	0	29599	34391	32356	32619	32799	32790	32567	32671	
1370	0	30935	34199	32647	32525	32831	32703	32703	32740	
1371	0	32354	33442	32741	32534	32765	32660	32569	32509	
1372	0	33507	32584	32717	32713	32833	32866	32659	32632	
1373	0	33972	33007	32827	32734	32834	32862	32491	32628	
1374	0	34361	33174	33213	32747	32791	32786	32647	32647	
1375	0	34390	33635	33255	32757	32559	32759	32538	32686	
1376	0	34238	33119	33063	32911	32567	32851	32775	32582	
1377	0	33038	32201	33014	32818	32607	32839	32620	32703	
1378	0	32270	31418	32383	32847	32581	32748	32703	32759	
1379	0	32153	31095	32230	32743	32662	32771	32615	32573	
1380	0	32533	30797	32062	32919	32815	32747	32645	32615	
1381	0	33190	31087	32221	32962	32830	32643	32647	32679	
1382	0	33311	32101	32159	32953	32847	32723	32668	32788	
1383	0	33415	32749	32522	32807	32720	32681	32684	32694	
1384	0	33690	33391	33147	32531	32751	32543	32665	32615	
1385	0	33842	33055	33229	32552	32719	32571	32807	32732	
1386	0	34748	32455	33366	32495	32695	32667	32647	32695	
1387	0	34502	32727	33495	32479	32789	32541	32790	32610	
1388	0	33556	32313	33197	32597	32647	32607	32514	32671	
1389	0	32966	32045	32883	32887	32632	32631	32671	32587	
1390	0	31874	32073	32811	32965	32623	32747	32626	32729	
1391	0	31818	31979	32691	32945	32615	32821	32706	32655	
1392	0	31783	32699	32416	32564	32719	32881	32543	32711	
1393	0	31543	33455	32183	32683	32893	32845	32685	32591	
1394	0	31391	34295	32095	32734	32804	32797	32638	32647	
1395	0	31501	34363	32237	32574	32815	32835	32719	32571	
1396	0	31786	34165	32197	32639	32831	32798	32655	32603	
1397	0	32071	33647	32499	32877	32839	32682	32769	32630	
1398	0	33203	32111	32999	32871	32775	32804	32603	32491	
1399	0	34406	30493	33074	32786	32740	32703	32655	32647	
1400	0	34339	30087	33285	32839	32756	32683	32566	32806	
1401	0	33644	31506	32979	32646	32773	32723	32687	32514	
1402	0	33306	32223	32790	32637	32822	32717	32570	32734	
1403	0	33354	32807	32845	32663	32799	32647	32683	32799	
1404	0	32857	33319	32796	32878	32818	32647	32623	32569	
1405	0	31824	34514	32663	32991	32751	32626	32637	32636	
1406	0	31124	34839	32733	33137	32804	32615	32527	32755	
1407	0	30360	33911	32454	33217	32792	32535	32700	32623	
1408	0	30155	33275	32551	32999	32850	32589	32711	32690	
1409	0	31619	32879	32574	32671	32619	32711	32783	32565	
1410	0	33052	32969	32787	32331	32599	32788	32759	32683	
1411	0	33726	32481	32807	32242	32599	32740	32731	32639	
1412	0	34213	32178	32883	32323	32673	32823	32676	32557	
1413	0	34083	32455	32859	32402	32830	32810	32727	32699	
1414	0	33215	32050	32647	32557	32855	32775	32736	32607	
1415	0	32420	33191	32873	32743	32942	32858	32743	32719	
1416	0	31879	33415	32791	32887	32877	32875	32723	32743	
1417	0	31892	32871	32919	32850	32827	32843	32790	32829	
1418	0	32007	33053	33099	32971	32803	32723	32691	32711	
1419	0	31935	33330	32941	32754	32803	32775	32767	32727	
1420	0	31919	32671	32937	32655	32812	32742	32627	32513	
1421	0	32332	32346	32722	32708	32749	32588	32635	32655	
1422	0	33223	32004	32717	32723	32742	32683	32740	32815	
1423	0	33702	31830	32719	32797	32783	32639	32713	32577	
1424	0	34122	31604	32577	32807	32802	32583	32727	32647	
1425	0	34311	31165	32787	32967	32791	32515	32551	32578	
1426	0	33367	31975	32795	33082	32797	32621	32708	32599	
1427	0	32660	32679	32699	32943	32767	32551	32737	32626	
1428	0	32837	32991	33103	32827	32807	32622	32553	32742	
1429	0	33028	33399	33255	32879	32727	32695	32695	32635	
1430	0	33188	34107	33357	32895	32775	32775	32503	32674	
1431	0	33355	34801	33346	32766	32773	32687	32631	32562	
1432	0	33528	33959	33194	32751	32621	32933	32562	32701	
1433	0	33328	32116	32623	32637	32763	32859	32615	32781	
1434	0	32350	31810	32391	32507	32746	32695	32532	32498	
1435	0	32523	31863	31991	32571	32729	32775	32775	32655	
1436	0	33102	32331	31803	32679	32807	32799	32647	32610	
1437	0	32837	32893	31781	32807	32850	32662	32647	32725	
1438	0	32994	32567	31873	32639	32871	32732	32711	32663	
1439	0	32816	31023	31916	32537	32855	32786	32716	32739	
1440	0	32882	30511	32085	32519	32788	32743	32658	32743	
1441	0	33225	30715	32487	32607	32762	32735	32692	32695	
1442	0	32684	31309	32591	32762	32767	32685	32863	32757	
1443	0	31549	32068	32787	32855	32743	32628	32679	32687	
1444	0	31770	33127	33063	32793	32762	32645	32719	32575	
1445	0	32388	34111	33153	32775	32769	32647	32519	32647	
1446	0	32263	34642	33100	32806	32762	32547	32692	32647	
1447	0	32349	34527	33209	32772	32795	32724	32540	32799	
1448	0	33106	34603	33245	32825	32811	32647	32695	32730	
1449	0	33654	34311	32959	32837	32797	32666	32518	32647	
1450	0	33625	33655	32995	32962	32835	32647	32679	32530	
1451	0	33287	32911	32830	32870	32826	32839	32654	32626	
1452	0	32434	32643	32895	32859	32807	32834	32685	32655	
1453	0	32012	32647	32775	32775	32800	32767	32580	32495	
1454	0	31970	32784	32461	32813	32818	32891	32623	32717	
1455	0	31849	33135	32455	32503	32765	32871	32475	32766	
1456	0	32786	32669	32551	32343	32812	32847	32663	32639	
1457	0	33230	32199	32675	32543	32775	32716	32590	32671	
1458	0	32817	32173	32887	32745	32789	32743	32676	32685	
1459	0	32663	32708	32999	32839	32774	32827	32550	32721	
1460	0	33118	31084	32882	32789	32756	32623	32647	32645	
1461	0	33138	31791	33063	32751	32783	32725	32515	32806	
1462	0	33204	32319	33145	32775	32829	32703	32695	32726	
1463	0	32824	32958	33015	32791	32775	32708	32527	32689	
1464	0	32553	33791	32941	32810	32747	32586	32711	32543	
1465	0	31925	34579	32804	32775	32737	32591	32615	32677	
1466	0	31519	33776	32929	32893	32775	32615	32739	32601	
1467	0	31487	33231	32965	32997	32643	32559	32611	32525	
1468	0	32180	32673	32979	32853	32711	32615	32711	32631	
1469	0	32808	32803	32683	32743	32748	32771	32799	32587	
1470	0	33141	32699	32359	32811	32769	32721	32751	32714	
1471	0	32996	32823	32493	32783	32772	32722	32751	32684	
1472	0	32935	32715	32391	32786	32786	32895	32687	32583	
1473	0	33326	32767	32471	32925	32799	32843	32687	32751	
1474	0	33371	32775	32579	32911	32819	32793	32679	32703	
1475	0	33743	32985	32775	32805	32871	32790	32527	32635	
1476	0	33100	32447	33078	32695	32899	32795	32660	32647	
1477	0	31682	32876	33105	32715	32903	32806	32549	32700	
1478	0	31689	34045	33055	32789	32832	32677	32679	32775	
1479	0	32299	33671	33251	32821	32758	32742	32559	32627	
1480	0	33115	32773	33311	32751	32811	32726	32701	32695	
1481	0	33746	32175	33043	32613	32812	32642	32637	32615	
1482	0	34512	31667	32578	32871	32737	32647	32722	32559	
1483	0	34649	30996	32306	32863	32771	32691	32775	32718	
1484	0	34781	29831	32293	32470	32711	32605	32735	32705	
1485	0	33779	29575	32311	32359	32804	32717	32610	32610	
1486	0	32415	30274	32006	32551	32925	32639	32647	32707	
1487	0	31471	32274	31890	32755	32935	32647	32473	32791	
1488	0	31212	33757	31839	32717	32967	32639	32671	32669	
1489	0	32407	33337	31981	32671	32930	32719	32485	32611	
1490	0	33177	33533	32391	32612	32903	32771	32695	32740	
1491	0	33241	33862	32643	32511	32887	32679	32543	32547	
1492	0	32809	33833	32755	32629	32844	32858	32725	32660	
1493	0	32876	33378	32986	32783	32854	32843	32604	32767	
1494	0	32573	34019	33178	32805	32846	32775	32675	32561	
1495	0	32378	34061	33128	32914	32771	32699	32727	32695	
1496	0	32120	33767	33037	32878	32799	32799	32715	32698	
1497	0	31987	33630	32979	32860	32717	32832	32729	32624	
1498	0	31866	33685	32991	33029	32742	32683	32628	32719	
1499	0	31376	33599	33058	32963	32807	32637	32647	32663	
1500	0	31777	32797	33117	32977	32807	32699	32559	32623	
1501	0	32892	32308	32747	32894	32769	32696	32743	32713	
1502	0	33372	32354	32810	32807	32716	32703	32677	32547	
1503	0	33323	31830	32767	32767	32603	32695	32823	32687	
1504	0	33402	32062	32507	32733	32647	32685	32662	32729	
1505	0	33285	31961	32566	32539	32683	32581	32482	32659	
1506	0	33054	32165	32702	32210	32671	32511	32685	32684	
1507	0	32728	32423	32935	32135	32733	32543	32491	32578	
1508	0	32380	32819	32871	32227	32667	32562	32654	32479	
1509	0	31988	33387	33015	32623	32747	32599	32532	32682	
1510	0	31895	33709	32965	32719	32711	32663	32693	32710	
1511	0	32251	33489	32730	32623	32678	32827	32727	32538	
1512	0	32989	32927	32669	32643	32629	32884	32731	32675	
1513	0	33344	32049	32551	32738	32635	32764	32554	32765	
1514	0	32742	31647	32493	32895	32631	32874	32679	32711	
1515	0	32727	30957	32391	32956	32599	32823	32557	32569	
1516	0	32876	31814	32541	32978	32621	32786	32627	32719	
1517	0	32327	32231	32543	33053	32629	32747	32554	32592	
1518	0	32423	32895	32611	32947	32804	32690	32691	32660	
1519	0	32223	34483	32939	32919	32763	32735	32730	32474	
1520	0	32811	33799	33010	33119	32621	32654	32759	32621	
1521	0	33449	33030	33186	33093	32645	32695	32743	32703	
1522	0	33457	32967	33336	32948	32627	32759	32671	32639	
1523	0	33860	33215	33327	32831	32767	32703	32685	32669	
1524	0	33191	33535	33252	33019	32723	32623	32665	32685	
1525	0	33456	32871	33471	32815	32681	32717	32711	32775	
1526	0	33581	32929	33575	32370	32723	32546	32773	32559	
1527	0	33486	31971	33227	32489	32737	32655	32731	32679	
1528	0	33518	31355	32983	32763	32791	32702	32758	32802	
1529	0	33047	32127	32789	32559	32806	32775	32667	32717	
1530	0	33346	30985	32205	32469	32749	32711	32687	32647	
1531	0	33199	30709	31807	32447	32759	32845	32747	32757	
1532	0	32614	31583	31367	32746	32839	32771	32647	32726	
1533	0	31165	33415	31083	32831	32743	32799	32711	32708	
1534	0	30956	34333	31319	33071	32683	32767	32711	32589	
1535	0	30463	35629	31538	33061	32646	32791	32788	32749	
1536	0	30911	35153	31959	33055	32759	32766	32705	32694	
1537	0	32434	34301	32724	32727	32786	32832	32581	32735	
1538	0	33201	33627	33115	32646	32831	32678	32695	32739	
1539	0	33763	32577	33355	32483	32789	32767	32635	32662	
1540	0	34207	31863	33633	32385	32703	32747	32679	32748	
1541	0	34330	31249	33567	32527	32791	32662	32502	32687	
1542	0	33638	30955	33452	32573	32830	32634	32659	32540	
1543	0	33363	29894	33407	32639	32804	32646	32539	32643	
1544	0	33176	29875	33123	32707	32786	32633	32679	32655	
1545	0	32116	30937	32893	32731	32765	32647	32551	32723	
1546	0	31230	32181	32738	32794	32683	32583	32699	32434	
1547	0	31510	33671	32610	32807	32647	32583	32631	32639	
1548	0	31663	35143	32543	32810	32609	32687	32775	32674	
1549	0	31505	35937	32213	32950	32661	32666	32731	32567	
1550	0	32343	35670	32276	33071	32681	32687	32727	32567	
1551	0	33252	34231	32241	32999	32647	32811	32711	32657	
1552	0	34019	32799	32615	32921	32772	32841	32634	32797	
1553	0	34355	32656	33029	32789	32791	32843	32759	32670	
1554	0	33326	32639	33189	32487	32791	32852	32646	32775	
1555	0	32610	32191	32875	32509	32835	32775	32657	32742	
1556	0	32053	32015	32817	32579	32749	32839	32574	32607	
1557	0	32031	31637	33039	32525	32735	32703	32647	32715	
1558	0	32147	31862	33010	32633	32731	32685	32629	32727	
1559	0	32732	32097	32775	32742	32756	32639	32643	32481	
1560	0	33223	32391	32710	32703	32786	32674	32510	32583	
1561	0	33256	33199	32805	32756	32818	32723	32684	32647	
1562	0	33208	33201	32967	32815	32815	32687	32575	32588	
1563	0	32862	33455	32999	32659	32901	32726	32647	32726	
1564	0	33087	32971	33133	32783	32895	32621	32630	32681	
1565	0	33254	32503	33223	32712	32789	32694	32695	32599	
1566	0	33167	32172	32917	32775	32775	32643	32546	32707	
1567	0	32357	32245	32930	32844	32740	32601	32695	32775	
1568	0	32420	32911	32645	32863	32756	32615	32607	32539	
1569	0	31974	33431	32427	32668	32769	32621	32746	32643	
1570	0	31645	33739	31831	32599	32771	32799	32775	32484	
1571	0	31940	33645	31751	32737	32727	32775	32763	32562	
1572	0	32197	33653	31977	32775	32721	32808	32767	32742	
1573	0	33260	33355	32410	32775	32775	32765	32717	32772	
1574	0	33703	31929	32711	32933	32619	32851	32807	32775	
1575	0	33632	31139	32673	32918	32605	32839	32803	32633	
1576	0	33947	31143	32998	32775	32791	32699	32710	32711	
1577	0	34108	30975	32855	32773	32891	32807	32703	32715	
1578	0	33902	31485	32999	32647	32589	32759	32710	32647	
1579	0	34136	30666	33195	32711	32679	32809	32639	32679	
1580	0	33923	31507	33107	32855	32653	32612	32705	32573	
1581	0	33006	32644	32815	32914	32684	32731	32493	32706	
1582	0	32375	33714	32818	32855	32706	32643	32587	32647	
1583	0	32075	35153	32987	32768	32799	32695	32553	32487	
1584	0	32428	34967	32939	32630	32762	32555	32691	32686	
1585	0	31696	34923	32927	32665	32735	32647	32571	32743	
1586	0	30887	34021	32916	32679	32815	32655	32679	32493	
1587	0	31327	32658	32683	32761	32773	32619	32642	32663	
1588	0	31810	32789	32767	32733	32835	32642	32629	32751	
1589	0	32324	32095	32638	32623	32822	32751	32517	32663	
1590	0	32935	31598	32773	32553	32846	32833	32729	32711	
1591	0	32898	31823	32506	32491	32845	32749	32599	32626	
1592	0	32756	31438	32229	32982	32865	32775	32717	32658	
1593	0	32975	32155	32540	33065	32775	32791	32543	32647	
1594	0	33159	32115	32721	33053	32775	32743	32708	32530	
1595	0	32966	32607	33031	32889	32751	32695	32551	32735	
1596	0	32284	33129	33223	32731	32743	32731	32679	32701	
1597	0	32673	33671	33167	32863	32790	32815	32543	32595	
1598	0	32567	34265	32935	32646	32815	32691	32638	32707	
1599	0	32709	33553	32703	32470	32859	32703	32543	32767	
1600	0	33202	33665	32527	32439	32860	32741	32633	32555	
1601	0	32910	33279	32325	32523	32804	32629	32543	32658	
1602	0	32686	33579	32587	32724	32839	32695	32667	32583	
1603	0	32311	33367	32746	32703	32658	32675	32647	32551	
1604	0	32149	33455	32884	32765	32627	32517	32711	32670	
1605	0	31947	33685	32975	32903	32669	32647	32637	32562	
1606	0	32190	33295	32598	32767	32782	32570	32703	32630	
1607	0	32466	32379	32707	32941	32839	32722	32711	32626	
1608	0	33496	31063	32735	32918	32747	32705	32775	32763	
1609	0	33705	30674	32375	32993	32622	32725	32711	32647	
1610	0	33426	30772	32086	33012	32607	32741	32775	32807	
1611	0	34028	30439	32110	32931	32613	32820	32641	32590	
1612	0	34297	30559	32114	32637	32654	32820	32734	32625	
1613	0	33704	30881	32020	32334	32709	32684	32597	32663	
1614	0	33269	32031	32303	32463	32681	32801	32683	32495	
1615	0	32997	33485	32718	32687	32605	32863	32571	32683	
1616	0	32769	34951	32890	32764	32787	32711	32609	32636	
1617	0	32346	34951	32979	32596	32797	32738	32534	32773	
1618	0	32543	33905	33061	32662	32775	32767	32631	32717	
1619	0	32303	33759	33138	32775	32775	32757	32501	32719	
1620	0	31877	34338	32925	32929	32793	32734	32679	32727	
1621	0	31641	34117	32871	32882	32775	32603	32671	32562	
1622	0	31819	33159	32851	32868	32787	32694	32736	32703	
1623	0	31966	32199	32967	32834	32783	32715	32607	32695	
1624	0	32125	31733	33095	32714	32807	32646	32647	32811	
1625	0	33120	31779	33227	32562	32772	32679	32691	32509	
1626	0	33193	31829	33254	32311	32735	32669	32783	32742	
1627	0	32847	32591	33054	32489	32763	32552	32734	32711	
1628	0	32071	32750	32743	32597	32821	32735	32844	32567	
1629	0	32647	33174	32646	32769	32775	32699	32673	32683	
1630	0	34367	32830	33074	32731	32743	32762	32743	32626	
1631	0	35149	32513	32743	32919	32804	32683	32575	32711	
1632	0	34107	32742	32588	32875	32787	32839	32677	32775	
1633	0	33275	32727	32461	32839	32759	32839	32607	32547	
1634	0	32644	33449	32275	32706	32785	32797	32668	32730	
1635	0	31212	32583	32367	32587	32775	32829	32551	32679	
1636	0	30959	32221	32660	32668	32766	32751	32659	32594	
1637	0	31034	31649	32767	32699	32727	32735	32576	32731	
1638	0	31875	31259	32838	32914	32791	32785	32617	32717	
1639	0	32617	31863	33095	32876	32733	32691	32534	32535	
1640	0	32815	32429	33079	32749	32699	32643	32715	32679	
1641	0	33095	32717	32863	32751	32725	32730	32647	32687	
1642	0	33159	33423	32743	32846	32749	32687	32694	32551	
1643	0	34308	33695	32731	32867	32805	32663	32495	32643	
1644	0	34128	32579	32516	32867	32823	32621	32687	32715	
1645	0	33231	32891	32683	32851	32815	32518	32658	32730	
1646	0	32075	33759	32623	32845	32833	32671	32703	32680	
1647	0	31034	34123	32483	32953	32902	32653	32627	32630	
1648	0	30599	35037	32429	33011	32687	32681	32587	32623	
1649	0	30549	34807	32709	32903	32866	32631	32611	32733	
1650	0	31220	34364	32685	32791	32767	32709	32687	32730	
1651	0	32545	32992	32647	32695	32823	32802	32692	32708	
1652	0	34149	31702	32489	32599	32822	32868	32812	32757	
1653	0	34655	30943	32788	32457	32609	32949	32667	32775	
1654	0	34569	30068	32775	32423	32838	32786	32599	32629	
1655	0	34258	30215	32457	32610	32599	32757	32605	32643	
1656	0	34215	30875	32612	32790	32811	32867	32555	32663	
1657	0	34338	30999	32531	32795	32708	32714	32579	32642	
1658	0	33725	31375	32862	32839	32775	32804	32555	32739	
1659	0	33517	31989	32915	32767	32775	32701	32575	32661	
1660	0	33687	32417	32841	32663	32821	32643	32735	32483	
1661	0	33498	32879	33223	32797	32812	32711	32583	32621	
1662	0	32682	32999	33111	32889	32775	32637	32735	32455	
1663	0	31817	34081	33159	32661	32791	32592	32734	32615	
1664	0	31341	35427	33111	32662	32799	32628	32615	32646	
1665	0	31446	35390	32967	32820	32806	32647	32647	32629	
1666	0	32055	34271	32717	32855	32645	32615	32581	32687	
1667	0	32228	33519	32583	32727	32669	32519	32763	32596	
1668	0	31659	32727	32303	32822	32677	32679	32673	32699	
1669	0	31004	32615	32421	32631	32703	32727	32829	32517	
1670	0	31592	32303	32447	32463	32806	32767	32722	32653	
1671	0	32534	32539	32431	32434	32895	32823	32565	32655	
1672	0	33293	31819	32514	32327	32845	32823	32677	32679	
1673	0	33850	30991	32848	32558	32775	32834	32687	32583	
1674	0	33319	31239	33031	32735	32775	32775	32713	32681	
1675	0	32903	31291	32951	32854	32769	32811	32711	32549	
1676	0	33074	32159	32991	33028	32717	32759	32495	32692	
1677	0	33377	31380	33113	32831	32725	32754	32647	32759	
1678	0	33770	32743	32847	32861	32739	32727	32535	32607	
1679	0	33362	34095	32583	32883	32582	32703	32731	32654	
1680	0	33127	34651	32350	32717	32615	32620	32684	32673	
1681	0	32224	34883	32285	32695	32665	32593	32742	32708	
1682	0	30518	35846	32253	32903	32656	32623	32719	32558	
1683	0	30501	35113	32365	32927	32783	32715	32527	32695	
1684	0	31286	33647	32581	33093	32893	32647	32671	32658	
1685	0	32598	31751	32711	33010	32854	32722	32675	32698	
1686	0	33517	30789	32965	33039	32922	32706	32698	32655	
1687	0	33855	30109	33179	32974	32871	32713	32591	32717	
1688	0	33757	30727	32900	32874	32911	32604	32734	32799	
1689	0	33422	31419	32821	32799	32859	32785	32663	32646	
1690	0	32968	32407	32748	32658	32850	32759	32775	32657	
1691	0	32492	32975	32597	32617	32773	32775	32756	32533	
1692	0	32850	33026	32711	32597	32837	32739	32759	32701	
1693	0	32823	33407	32932	32483	32807	32802	32773	32718	
1694	0	32194	33468	32801	32575	32756	32763	32598	32679	
1695	0	32263	33563	32655	32806	32811	32749	32647	32713	
1696	0	32153	33765	32603	32713	32749	32749	32559	32551	
1697	0	32018	33863	32513	32701	32711	32795	32747	32647	
1698	0	32090	33311	32609	32858	32806	32740	32611	32655	
1699	0	32324	32951	32903	32903	32755	32669	32679	32719	
1700	0	33004	32592	33213	32891	32773	32681	32584	32657	
1701	0	33639	32007	33415	32620	32723	32647	32693	32533	
1702	0	33783	31679	33298	32443	32787	32602	32590	32660	
1703	0	33655	30996	33267	32487	32719	32679	32715	32647	
1704	0	34316	30999	33244	32659	32719	32753	32795	32722	
1705	0	34189	31811	32987	32563	32751	32573	32797	32668	
1706	0	33750	32067	32975	32475	32613	32595	32679	32718	
1707	0	34031	32709	32545	32557	32607	32669	32509	32761	
1708	0	33806	33426	32429	32571	32635	32702	32727	32637	
1709	0	34359	32007	32155	32781	32692	32627	32678	32691	
1710	0	33644	32143	32051	32871	32794	32663	32783	32576	
1711	0	33376	32637	32146	32862	32883	32759	32707	32646	
1712	0	33373	33047	32159	32959	33017	32831	32597	32537	
1713	0	31425	32967	32253	32847	32937	32750	32738	32661	
1714	0	29954	33715	32481	32875	32862	32861	32615	32725	
1715	0	29808	34355	32557	32771	32795	32871	32767	32599	
1716	0	30465	33367	33015	32893	32894	32787	32517	32713	
1717	0	30831	33027	33319	32793	32887	32807	32586	32709	
1718	0	31748	32619	33379	32791	32855	32733	32500	32742	
1719	0	32300	33343	33203	32749	32848	32757	32626	32543	
1720	0	33287	33090	32795	32859	32742	32694	32605	32708	
1721	0	33384	33223	32685	32878	32687	32788	32709	32735	
1722	0	33677	32969	32431	32812	32839	32756	32667	32754	
1723	0	33647	33453	32415	32757	32810	32646	32697	32731	
1724	0	33902	33197	32671	32591	32708	32629	32555	32523	
1725	0	33732	32775	32838	32629	32809	32663	32631	32729	
1726	0	33633	32770	32642	32870	32845	32559	32551	32771	
1727	0	33258	31839	32439	32871	32793	32613	32711	32511	
1728	0	32924	31387	32450	32743	32786	32647	32669	32578	
1729	0	32014	31367	32642	32707	32837	32607	32751	32727	
1730	0	31639	31719	32526	32749	32758	32803	32754	32637	
1731	0	31299	32619	32557	32703	32831	32799	32635	32659	
1732	0	31128	34170	32743	32757	32783	32787	32660	32686	
1733	0	31601	34471	32678	32829	32837	32852	32635	32647	
1734	0	32406	34543	32663	32737	32873	32791	32639	32663	
1735	0	32978	33795	32855	32420	32917	32720	32535	32727	
1736	0	33470	32447	33105	32461	32918	32879	32671	32663	
1737	0	33224	31879	32945	32687	32822	32773	32628	32767	
1738	0	32966	31316	32917	32741	32828	32775	32759	32607	
1739	0	33159	31711	32877	32823	32793	32717	32658	32775	
1740	0	33159	32299	32847	32823	32877	32738	32719	32711	
1741	0	33190	32263	32678	32743	32875	32687	32667	32535	
1742	0	33319	32243	32811	32863	32887	32680	32715	32679	
1743	0	33647	32359	32773	32775	32858	32787	32675	32605	
1744	0	33075	32207	32859	32671	32823	32671	32735	32723	
1745	0	32927	31879	32715	32726	32791	32638	32762	32633	
1746	0	32851	32237	32811	32751	32711	32539	32839	32743	
1747	0	33233	32447	32919	32628	32717	32638	32759	32635	
1748	0	32631	32711	32929	32593	32733	32695	32692	32562	
1749	0	32030	33367	33012	32743	32727	32647	32741	32578	
1750	0	32118	33303	32994	32850	32756	32687	32535	32503	
1751	0	32279	33510	32943	32967	32575	32756	32711	32706	
1752	0	32534	33855	32885	32799	32663	32801	32719	32523	
1753	0	32461	33885	32801	32803	32684	32815	32739	32606	
1754	0	32057	33965	32619	32866	32775	32723	32598	32677	
1755	0	32211	33487	32189	32745	32822	32837	32574	32713	
1756	0	32685	33287	32319	32535	32743	32753	32582	32719	
1757	0	33030	32503	32300	32533	32835	32727	32591	32704	
1758	0	33436	32487	32391	32629	32775	32791	32607	32645	
1759	0	33657	32067	32711	32733	32853	32755	32607	32619	
1760	0	33869	31622	32932	32795	32801	32751	32719	32581	
1761	0	33812	32023	33046	32716	32811	32613	32747	32605	
1762	0	33889	32041	33227	32943	32603	32669	32695	32839	
1763	0	33335	32709	33287	32983	32727	32718	32719	32803	
1764	0	33178	32415	33489	32819	32727	32698	32710	32705	
1765	0	32590	31427	33131	32867	32730	32628	32772	32674	
1766	0	31743	31866	32975	32751	32903	32507	32743	32565	
1767	0	31361	33171	32695	32810	32607	32636	32583	32501	
1768	0	31779	33301	32287	32988	32855	32690	32511	32519	
1769	0	32190	33851	32221	33014	32804	32735	32717	32663	
1770	0	33302	33951	32157	33207	32834	32698	32519	32804	
1771	0	33869	34153	32131	33089	32819	32827	32643	32799	
1772	0	33584	33650	32327	32823	32822	32773	32519	32767	
1773	0	32653	31886	32331	32685	32839	32828	32641	32701	
1774	0	33132	30877	32425	32702	32836	32695	32533	32742	
1775	0	32942	31102	32817	32349	32621	32797	32707	32515	
1776	0	31430	31558	32431	32103	32613	32759	32696	32710	
1777	0	31601	32679	32466	32133	32647	32775	32775	32607	
1778	0	31980	33395	32631	32305	32754	32767	32813	32717	
1779	0	31775	33940	32770	32587	32877	32688	32647	32611	
1780	0	32061	33739	32834	32647	32837	32786	32759	32747	
1781	0	32489	33867	32559	32849	32855	32726	32647	32749	
1782	0	32850	33631	32810	33011	32815	32663	32709	32601	
1783	0	32472	33283	32911	33045	32859	32595	32471	32587	
1784	0	32333	32834	33223	33115	32831	32675	32611	32599	
1785	0	32277	32525	33223	32987	32834	32703	32446	32723	
1786	0	32669	32167	32935	33204	32796	32679	32671	32739	
1787	0	33044	31527	32999	33046	32807	32709	32533	32735	
1788	0	33294	30718	33198	32942	32803	32636	32678	32671	
1789	0	34183	31171	32978	32607	32775	32654	32495	32595	
1790	0	34738	31689	33045	32405	32775	32615	32717	32498	
1791	0	35113	32890	33019	32501	32788	32799	32633	32711	
1792	0	34848	34279	32749	32423	32747	32862	32709	32677	
1793	0	34471	33900	32901	32419	32703	32676	32551	32519	
1794	0	33232	33943	32846	32481	32795	32775	32703	32726	
1795	0	32298	33153	32625	32499	32834	32711	32647	32679	
1796	0	31282	33373	32387	32668	32821	32771	32749	32794	
1797	0	30620	32647	32663	32811	32854	32799	32711	32556	
1798	0	30141	32151	32667	32939	32918	32793	32671	32663	
1799	0	30586	32460	32807	33015	32890	32675	32719	32746	
1800	0	32076	33014	32951	32929	32877	32749	32685	32475	
1801	0	33428	32451	32775	32884	32843	32735	32711	32679	
1802	0	33735	32876	32708	32911	32855	32691	32626	32703	
1803	0	33102	32201	32573	32875	32926	32751	32730	32541	
1804	0	32740	31159	32398	32891	32883	32608	32719	32706	
1805	0	32662	30980	32887	33005	32898	32637	32655	32713	
1806	0	31858	31283	32713	32993	32839	32555	32675	32687	
1807	0	31750	32075	32501	32818	32751	32716	32647	32686	
1808	0	32718	33465	32465	32960	32807	32655	32671	32525	
1809	0	33887	33710	32799	32615	32775	32684	32643	32665	
1810	0	34580	33267	33037	32567	32775	32740	32749	32815	
1811	0	33870	34199	33274	32451	32709	32879	32583	32855	
1812	0	32926	34526	33051	32306	32775	32797	32727	32737	
1813	0	32569	34914	32894	32350	32807	32772	32623	32732	
1814	0	33020	34614	32850	32451	32826	32846	32717	32635	
1815	0	33586	33685	32505	32627	32757	32811	32784	32629	
1816	0	32875	33321	32322	32717	32865	32759	32680	32623	
1817	0	31983	32855	31981	32927	32755	32815	32647	32759	
1818	0	31660	31981	32093	32803	32741	32769	32627	32592	
1819	0	31932	31629	32558	32759	32775	32567	32674	32667	
1820	0	32231	31459	32727	32804	32771	32719	32653	32687	
1821	0	32700	30759	32869	32823	32830	32668	32699	32505	
1822	0	33093	30871	32775	32741	32775	32612	32515	32605	
1823	0	33626	30851	32945	32733	32902	32688	32729	32754	
1824	0	33520	30775	33295	32764	32883	32690	32756	32671	
1825	0	33645	31066	33127	32847	32885	32581	32723	32551	
1826	0	32727	32155	33069	32976	32869	32645	32627	32732	
1827	0	31620	33910	32687	32978	32841	32646	32674	32767	
1828	0	31049	34543	32639	32903	32871	32643	32534	32487	
1829	0	31907	34599	32437	32899	32815	32639	32647	32565	
1830	0	32382	34279	32314	32661	32775	32731	32535	32701	
1831	0	32617	33922	32215	32637	32759	32773	32775	32607	
1832	0	32766	33311	32111	32775	32807	32703	32644	32690	
1833	0	32557	32401	32172	32756	32726	32903	32722	32605	
1834	0	32530	32307	32603	32900	32767	32879	32623	32731	
1835	0	32492	33127	32867	32954	32748	32851	32711	32772	
1836	0	32438	33475	32971	33023	32740	32775	32647	32719	
1837	0	33036	33335	33135	32941	32739	32854	32757	32710	
1838	0	33260	32925	33023	32925	32793	32807	32646	32639	
1839	0	33759	32383	33271	32861	32751	32697	32692	32727	
1840	0	34351	31835	33003	32586	32810	32583	32727	32767	
1841	0	34340	31954	32951	32212	32811	32662	32699	32599	
1842	0	33782	32237	33060	32128	32684	32628	32519	32709	
1843	0	33039	31429	33254	32362	32749	32707	32653	32767	
1844	0	32980	30708	32995	32487	32797	32653	32479	32514	
1845	0	33359	31597	33065	32588	32711	32591	32727	32724	
1846	0	33224	32171	33025	32738	32747	32607	32623	32743	
1847	0	33189	32287	33003	32890	32773	32685	32693	32535	
1848	0	32710	33737	32937	32840	32775	32717	32558	32596	
1849	0	31987	34831	32595	32797	32806	32628	32554	32647	
1850	0	31657	35099	32397	32895	32935	32699	32532	32575	
1851	0	30981	34837	32175	32859	32915	32691	32745	32732	
1852	0	30365	34525	32119	32903	32882	32838	32787	32815	
1853	0	30769	34227	32016	32875	32895	32843	32711	32612	
1854	0	31560	34071	31943	32839	32807	32839	32769	32839	
1855	0	32279	33927	32191	32765	32759	32913	32702	32755	
1856	0	33395	32981	32428	32711	32655	32855	32783	32852	
1857	0	34130	32285	32615	32638	32588	32860	32831	32876	
1858	0	34649	31943	32734	32647	32575	32835	32775	32647	
1859	0	34145	31621	32883	32884	32619	32687	32755	32757	
1860	0	33192	31879	33159	32701	32577	32739	32625	32755	
1861	0	31733	31895	33356	32748	32551	32723	32703	32575	
1862	0	31446	31699	33343	32828	32805	32687	32585	32701	
1863	0	31211	31650	33390	32791	32835	32594	32789	32775	
1864	0	31423	31660	33159	32587	32545	32658	32755	32631	
1865	0	32215	31824	33113	32670	32557	32662	32885	32679	
1866	0	32321	33257	32690	32797	32511	32555	32811	32518	
1867	0	32674	33287	32410	32839	32709	32575	32911	32587	
1868	0	33024	32357	32167	32867	32703	32683	32921	32719	
1869	0	33250	31541	32169	32795	32579	32694	32982	32597	
1870	0	33497	31107	31995	32692	32507	32623	32970	32677	
1871	0	33959	30383	31806	32527	32571	32887	33054	32646	
1872	0	34002	30303	31825	32574	32577	32839	32996	32606	
1873	0	33522	31295	31959	32543	32579	32727	33035	32595	
1874	0	32714	32356	32358	32484	32614	32730	32847	32595	
1875	0	31894	33271	32713	32331	32677	32730	32844	32515	
1876	0	31959	34209	33089	32358	32679	32647	32525	32470	
1877	0	32738	34587	33063	32585	32861	32735	32612	32589	
1878	0	33145	33412	33127	32873	32864	32707	32562	32505	
1879	0	32756	33559	33127	32870	32794	32610	32675	32367	
1880	0	32998	32231	33036	32753	32749	32589	32519	32529	
1881	0	33574	31383	33068	32715	32775	32647	32680	32493	
1882	0	33559	31571	32832	32663	32603	32691	32575	32647	
1883	0	32877	32083	32615	32937	32635	32615	32623	32575	
1884	0	33250	32329	32587	32887	32707	32735	32527	32629	
1885	0	33780	32923	32655	32809	32767	32617	32559	32742	
1886	0	34098	33187	32806	32759	32892	32647	32455	32581	
1887	0	33397	33975	32719	32886	32901	32598	32331	32751	
1888	0	32621	33981	32605	32935	32871	32730	32391	32738	
1889	0	32533	33075	32756	32935	32759	32775	32283	32887	
1890	0	32583	32094	33025	32921	32783	32811	32375	32899	
1891	0	32879	31455	33041	32899	32877	32659	32249	32762	
1892	0	32956	32157	33330	32999	32863	32743	32324	32775	
1893	0	33513	32391	33108	33098	32914	32684	32199	32540	
1894	0	34185	33473	33218	32976	32882	32670	32294	32763	
1895	0	34658	35223	33360	32963	32844	32812	32190	32839	
1896	0	34847	35403	33197	32590	32935	32743	32319	32611	
1897	0	34287	34624	32878	32530	32897	32722	32171	32787	
1898	0	33240	33558	32572	32626	32918	32647	32423	32685	
1899	0	31519	33193	32339	32882	32861	32791	32423	32775	
1900	0	30548	33407	32467	32903	32780	32813	32503	32818	
1901	0	30212	33521	32679	32930	32882	32681	32582	32635	
1902	0	30375	35251	32926	32954	32745	32647	32511	32763	
1903	0	31660	34799	33279	32871	32727	32723	32646	32722	
1904	0	32403	33263	33301	32738	32514	32659	32566	32761	
1905	0	31826	33174	33414	32679	32584	32642	32773	32543	
1906	0	32103	32839	33317	32679	32687	32574	32645	32683	
1907	0	33595	31702	33069	32730	32669	32647	32803	32717	
1908	0	33014	30887	32567	32719	32593	32707	32734	32621	
1909	0	32580	30551	32165	32687	32615	32647	32837	32668	
1910	0	32815	30023	32191	32747	32758	32819	32692	32503	
1911	0	33278	31058	32359	32791	32767	32869	32810	32727	
1912	0	33619	31239	32621	32747	32741	32871	32877	32740	
1913	0	32734	31987	32530	32679	32839	32692	32967	32676	
1914	0	32634	32581	32487	32743	32858	32790	32818	32711	
1915	0	32319	33031	32391	32802	32901	32823	32863	32543	
1916	0	32283	32331	32692	32727	32797	32811	32732	32671	
1917	0	32320	32391	32921	32722	32757	32919	32852	32855	
1918	0	33054	32869	33047	32802	32749	32867	32775	32773	
1919	0	33038	34477	32975	32811	32711	32687	32918	32565	
1920	0	32477	34307	32487	32939	32786	32747	32775	32725	
1921	0	32120	33770	32445	32731	32830	32731	32866	32766	
1922	0	32053	33359	32403	32571	32881	32588	32717	32639	
1923	0	31810	33492	32356	32563	32918	32684	32839	32667	
1924	0	32039	33234	32351	32575	32791	32679	32663	32543	
1925	0	33012	33261	32583	32495	32775	32647	32726	32707	
1926	0	33108	33467	32747	32370	32743	32599	32612	32711	
1927	0	33319	33123	32469	32463	32738	32623	32742	32564	
1928	0	33245	32812	32507	32583	32851	32674	32575	32634	
1929	0	32948	32391	32851	32575	32827	32675	32679	32694	
1930	0	32978	32129	32997	32613	32770	32725	32493	32599	
1931	0	32870	31623	33170	32617	32784	32762	32694	32715	
1932	0	32634	31811	32911	32764	32791	32775	32665	32743	
1933	0	32963	31649	32775	32994	32822	32682	32661	32686	
1934	0	33529	31671	32869	33037	32846	32787	32464	32576	
1935	0	33287	32459	32607	32994	32757	32805	32701	32667	
1936	0	32781	33343	32391	33069	32763	32811	32673	32699	
1937	0	32856	33351	32155	33037	32742	32734	32722	32671	
1938	0	32935	32621	32470	32743	32614	32726	32739	32685	
1939	0	32262	32407	32807	32673	32535	32701	32721	32583	
1940	0	32387	32421	32818	32559	32789	32742	32679	32629	
1941	0	31803	32531	32861	32464	32756	32579	32712	32659	
1942	0	30980	32887	33004	32557	32716	32695	32578	32530	
1943	0	31444	31811	32829	32790	32811	32647	32699	32706	
1944	0	32271	30897	32733	32783	32763	32599	32583	32696	
1945	0	32897	30334	32117	32841	32773	32695	32698	32670	
1946	0	33375	31451	32022	33079	32791	32686	32601	32627	
1947	0	33471	33730	32331	33063	32762	32551	32707	32595	
1948	0	33710	34319	32794	33078	32799	32670	32531	32724	
1949	0	34033	34178	33122	32799	32815	32759	32714	32775	
1950	0	32999	33971	33235	32837	32767	32785	32639	32636	
1951	0	32428	33518	33185	32819	32767	32687	32757	32663	
1952	0	32221	32967	32980	32525	32786	32834	32573	32543	
1953	0	32154	33775	32783	32455	32788	32810	32690	32748	
1954	0	32342	33833	32807	32407	32807	32705	32626	32658	
1955	0	33662	33191	32802	32359	32787	32810	32724	32546	
1956	0	33778	33287	32555	32403	32737	32788	32767	32703	
1957	0	33098	32183	32455	32431	32832	32644	32598	32637	
1958	0	32837	32195	32599	32827	32845	32727	32591	32612	
1959	0	33028	31742	32846	32772	32955	32639	32501	32688	
1960	0	32929	31735	33156	32676	32919	32715	32612	32647	
1961	0	33360	32214	33428	32743	32791	32731	32647	32804	
1962	0	33145	33180	33740	32701	32641	32694	32441	32599	
1963	0	33336	32769	33763	32703	32607	32722	32615	32714	
1964	0	32988	32847	33261	32775	32591	32669	32559	32633	
1965	0	31431	32919	32751	32788	32647	32527	32715	32655	
1966	0	31156	32371	32375	32835	32727	32683	32805	32602	
1967	0	31900	32159	31977	32895	32754	32639	32710	32598	
1968	0	33339	32087	31927	32855	32742	32723	32766	32683	
1969	0	34173	32097	32167	32738	32763	32694	32725	32751	
1970	0	33432	32429	32331	32923	32759	32691	32699	32569	
1971	0	32398	32941	32868	32815	32879	32871	32601	32836	
1972	0	31739	33069	33117	32951	32885	32838	32619	32710	
1973	0	31982	33559	32985	32978	32854	32715	32554	32407	
1974	0	32775	32846	32638	32927	32827	32819	32685	32639	
1975	0	32995	32479	32515	32836	32875	32831	32524	32623	
1976	0	33255	32876	32493	32559	32871	32775	32713	32699	
1977	0	33268	32676	32363	32551	32759	32827	32607	32698	
1978	0	33324	32511	32181	32806	32749	32742	32685	32583	
1979	0	33959	32587	32319	32807	32667	32705	32731	32710	
1980	0	34061	32355	32439	32850	32721	32688	32723	32689	
1981	0	33270	33110	32365	32903	32637	32695	32724	32591	
1982	0	32213	34238	32339	32973	32567	32643	32628	32647	
1983	0	31380	33771	32647	32960	32596	32655	32693	32742	
1984	0	31017	33001	32794	32748	32639	32743	32576	32619	
1985	0	31288	32022	32903	32574	32555	32647	32669	32771	
1986	0	31423	31698	32812	32417	32623	32567	32597	32711	
1987	0	31919	31489	32903	32514	32583	32699	32665	32543	
1988	0	32413	32273	33075	32501	32605	32717	32498	32698	
1989	0	33015	32863	33114	32534	32771	32667	32667	32743	
1990	0	33697	33045	33063	32615	32757	32766	32607	32617	
1991	0	34052	32423	32829	32721	32791	32815	32724	32707	
1992	0	34222	31794	32639	32863	32829	32713	32599	32740	
1993	0	34157	32081	32687	32831	32837	32738	32743	32631	
1994	0	34079	32453	32975	32758	32798	32742	32725	32535	
1995	0	33522	33454	33012	32804	32831	32711	32658	32687	
1996	0	32063	33506	32883	32732	32799	32839	32738	32725	
1997	0	30164	34484	32705	32863	32855	32810	32623	32699	
1998	0	30187	34575	32557	32822	32873	32687	32698	32629	
1999	0	30968	33927	32637	32869	32929	32717	32587	32679	
2000	0	31285	33438	32721	32965	32937	32755	32771	32554	
2001	0	32231	32534	32829	32844	32823	32631	32518	32756	
2002	0	33346	32519	32943	32674	32741	32743	32743	32726	
2003	0	34614	31770	32804	32567	32690	32713	32669	32551	
2004	0	34966	31290	33069	32508	32644	32620	32743	32633	
2005	0	34852	30910	33345	32376	32662	32662	32815	32627	
2006	0	34512	31447	33263	32583	32723	32695	32690	32789	
2007	0	33680	31995	32932	32822	32773	32567	32715	32646	
2008	0	33055	31703	32921	32895	32767	32684	32663	32479	
2009	0	33247	32434	33026	33039	32855	32771	32757	32639	
2010	0	32810	33551	32678	33071	32878	32763	32710	32572	
2011	0	32431	34415	32511	32939	32900	32735	32673	32570	
2012	0	31588	34233	32509	32962	32882	32775	32603	32645	
2013	0	31239	33715	32601	33014	32708	32759	32692	32883	
2014	0	31235	34387	32423	33059	32766	32755	32535	32699	
2015	0	32201	33223	32389	32824	32786	32809	32623	32735	
2016	0	32891	32205	32578	32509	32711	32725	32543	32723	
2017	0	32493	31675	32633	32361	32725	32785	32720	32535	
2018	0	32114	31963	32413	32419	32767	32685	32551	32641	
2019	0	32665	32748	32438	32263	32663	32621	32687	32716	
2020	0	33700	32741	32474	32247	32641	32660	32731	32495	
2021	0	34636	31855	32631	32551	32603	32667	32742	32565	
2022	0	35006	31747	32495	32839	32674	32599	32715	32563	
2023	0	34174	31111	32580	32895	32639	32758	32714	32677	
2024	0	32921	30951	32629	32871	32617	32727	32799	32647	
2025	0	30772	32036	32427	32896	32630	32611	32775	32530	
2026	0	29913	33678	32487	32727	32667	32647	32743	32631	
2027	0	31232	34711	32562	32693	32626	32667	32583	32723	
2028	0	32198	34818	32743	32638	32817	32623	32647	32575	
2029	0	32066	34879	33183	32671	32747	32676	32587	32669	
2030	0	31373	34115	33375	32855	32773	32767	32711	32706	
2031	0	32210	32774	33062	33010	32775	32726	32551	32611	
2032	0	32640	32327	33390	32999	32753	32877	32707	32735	
2033	0	32835	32615	33247	32775	32495	32885	32579	32733	
2034	0	33359	31847	32941	32802	32565	32775	32734	32791	
2035	0	33639	31620	32837	32804	32631	32829	32703	32794	
2036	0	33562	30390	32715	32727	32607	32822	32725	32623	
2037	0	33047	30855	33063	32675	32567	32831	32658	32719	
2038	0	32985	32222	32985	32661	32623	32663	32715	32735	
2039	0	33488	32045	32839	32773	32611	32684	32633	32522	
2040	0	34196	33700	32531	32870	32805	32667	32647	32530	
2041	0	33846	34295	32525	32919	32869	32590	32719	32484	
2042	0	33320	34803	32532	32775	32903	32607	32563	32595	
2043	0	32439	34367	32355	32775	32923	32725	32645	32543	
2044	0	31862	34399	32247	32823	32775	32647	32551	32637	
2045	0	32139	33863	32223	32840	32795	32550	32647	32701	
2046	0	33231	32107	32342	32785	32797	32522	32699	32674	
2047	0	34218	30987	32289	32567	32785	32708	32719	32715	
2048	0	34368	31311	32525	32726	32855	32711	32749	32479	
2049	0	34493	31863	32667	32807	32827	32591	32763	32667	
2050	0	33532	32013	32292	32774	32782	32722	32743	32668	
2051	0	32451	32231	32271	32658	32735	32815	32827	32667	
2052	0	31364	32866	32318	32671	32716	32794	32660	32615	
2053	0	30702	33115	32470	32679	32730	32876	32784	32647	
2054	0	30784	32959	32691	32445	32767	32845	32724	32763	
2055	0	31433	32815	33087	32463	32731	32775	32824	32775	
2056	0	32418	32548	33272	32527	32749	32797	32737	32705	
2057	0	32924	32596	33167	32738	32748	32698	32763	32583	
2058	0	32557	32791	33098	32839	32843	32665	32718	32631	
2059	0	32587	33147	33063	32878	32775	32773	32709	32583	
2060	0	33186	32711	32971	32822	32774	32751	32482	32647	
2061	0	33762	32631	32845	32783	32809	32647	32642	32686	
2062	0	33528	32783	32773	32742	32811	32695	32516	32732	
2063	0	32887	32975	32854	32658	32767	32677	32711	32681	
2064	0	32791	32211	32983	32575	32822	32647	32535	32655	
2065	0	32877	32487	32839	32689	32757	32647	32634	32694	
2066	0	32775	33242	32789	32763	32743	32598	32519	32690	
2067	0	32150	33567	32979	32737	32725	32644	32629	32751	
2068	0	31985	33550	32871	32813	32767	32715	32583	32723	
2069	0	31887	33655	32663	32831	32791	32751	32658	32733	
2070	0	32286	33151	32802	32855	32662	32715	32733	32609	
2071	0	33218	32711	32829	33050	32609	32787	32796	32662	
2072	0	33415	32247	32943	33023	32615	32804	32751	32765	
2073	0	32903	32163	32951	33043	32619	32759	32647	32727	
2074	0	32051	32207	32766	32884	32691	32871	32666	32735	
2075	0	31988	32311	32949	32838	32796	32797	32551	32571	
2076	0	32752	32343	32878	32832	32814	32683	32710	32658	
2077	0	33047	32499	32850	32451	32861	32787	32662	32555	
2078	0	33071	32573	32717	32135	32877	32747	32775	32705	
2079	0	33048	32658	32461	32330	32903	32644	32574	32635	
2080	0	32807	33115	32323	32573	32836	32666	32667	32783	
2081	0	32584	33058	32407	32515	32822	32567	32511	32647	
2082	0	32587	32403	32443	32647	32919	32647	32611	32662	
2083	0	32863	32359	32815	32743	32914	32732	32455	32615	
2084	0	33700	31421	32966	32935	32959	32679	32715	32690	
2085	0	33846	30795	32838	32879	32775	32647	32726	32599	
2086	0	33332	31415	32931	32715	32713	32647	32503	32583	
2087	0	32806	31623	32861	32843	32783	32685	32718	32736	
2088	0	32622	33063	33095	32903	32739	32706	32619	32679	
2089	0	31386	34663	32869	32834	32615	32683	32719	32751	
2090	0	30361	36338	32916	32959	32526	32763	32748	32619	
2091	0	30930	36166	33207	32923	32659	32751	32659	32721	
2092	0	32454	34195	33215	33062	32598	32751	32683	32631	
2093	0	33469	32731	33095	33063	32631	32799	32607	32671	
2094	0	33891	31993	32756	32877	32631	32825	32794	32807	
2095	0	34444	31783	32307	32913	32653	32845	32785	32738	
2096	0	34295	31798	32103	32783	32638	32741	32785	32745	
2097	0	33964	32227	31799	32563	32655	32759	32742	32731	
2098	0	34388	31262	31587	32415	32631	32727	32686	32773	
2099	0	34744	30823	31719	32423	32699	32644	32687	32502	
2100	0	33852	31474	32116	32516	32671	32751	32645	32569	
2101	0	33047	33053	32391	32629	32647	32658	32631	32657	
2102	0	32828	33375	32567	32654	32647	32707	32628	32626	
2103	0	31641	33870	32722	32604	32740	32540	32612	32647	
2104	0	30572	35247	32969	32643	32691	32677	32727	32585	
2105	0	30225	34662	33030	32783	32653	32629	32775	32711	
2106	0	30994	33695	33121	33003	32671	32596	32671	32727	
2107	0	32225	33101	33327	33091	32702	32647	32685	32581	
2108	0	32279	32823	33366	32935	32629	32675	32813	32734	
2109	0	32457	32773	33213	32838	32607	32646	32717	32688	
2110	0	32775	32475	32977	32791	32615	32825	32690	32831	
2111	0	32969	32045	32898	32647	32597	32739	32630	32733	
2112	0	32894	32775	32846	32493	32614	32837	32717	32705	
2113	0	33574	32534	32591	32575	32677	32747	32698	32581	
2114	0	33193	32311	32410	32770	32731	32759	32727	32607	
2115	0	32356	32090	32502	32638	32679	32755	32690	32532	
2116	0	32065	30711	32606	32775	32630	32677	32681	32635	
2117	0	32201	30375	32775	32799	32610	32749	32506	32676	
2118	0	32805	30851	33039	32811	32596	32759	32647	32647	
2119	0	32807	32039	32955	32868	32620	32685	32647	32627	
2120	0	33153	33069	32991	32838	32686	32638	32719	32621	
2121	0	34390	33692	32941	32925	32731	32831	32595	32751	
2122	0	34646	33706	33059	32885	32682	32757	32706	32783	
2123	0	34156	34093	33007	32804	32647	32679	32537	32735	
2124	0	32494	34588	32964	32925	32735	32741	32695	32749	
2125	0	31968	34357	32991	32887	32839	32673	32555	32747	
2126	0	31815	33476	32803	32719	32844	32599	32711	32647	
2127	0	32029	32615	32559	32663	32891	32637	32567	32671	
2128	0	32223	32495	32399	32515	32933	32585	32700	32775	
2129	0	32578	31895	32435	32602	32925	32671	32685	32551	
2130	0	32973	32155	32479	32666	32843	32727	32647	32575	
2131	0	33177	32589	32527	32558	32775	32663	32713	32471	
2132	0	33099	32915	32638	32551	32709	32775	32610	32695	
2133	0	32893	32998	32838	32730	32755	32839	32663	32647	
2134	0	32539	32645	33133	32771	32663	32783	32573	32679	
2135	0	33303	31956	33055	32871	32782	32859	32661	32589	
2136	0	34191	30910	32859	32854	32756	32791	32580	32770	
2137	0	34141	30783	32803	32897	32799	32791	32671	32745	
2138	0	33156	30694	32755	32975	32695	32799	32742	32633	
2139	0	31740	32177	32552	33030	32695	32647	32647	32707	
2140	0	31330	33535	32507	32819	32722	32623	32686	32727	
2141	0	31705	34883	32516	32614	32764	32722	32549	32535	
2142	0	32002	35596	32663	32678	32895	32644	32667	32529	
2143	0	32162	35732	32871	32757	32857	32567	32690	32743	
2144	0	31949	34791	32971	32759	32882	32687	32691	32643	
2145	0	32217	33645	32931	32767	32865	32690	32515	32641	
2146	0	32577	33351	32802	32575	32883	32523	32727	32549	
2147	0	33486	32742	32685	32727	32858	32676	32629	32733	
