# OpenSignals Text File Format
# {"00:07:80:3B:46:38": {"sensor": ["CUSTOM/0.5/1.0/V", "CUSTOM/0.5/1.0/V", "CUSTOM/0.5/1.0/V", "CUSTOM/0.5/1.0/V", "CUSTOM/0.5/1.0/V", "CUSTOM/0.5/1.0/V", "CUSTOM/0.5/1.0/V", "CUSTOM/0.5/1.0/V"], "device name": "EMGs", "column": ["nSeq", "DI", "RA_L", "RA_R", "OE_L", "OE:R", "IL_L", "IL_R", "MF_L", "MF_R"], "sync interval": 2, "time": "16:12:29.771", "comments": "", "device connection": "BTH00:07:80:3B:46:38", "channels": [1, 2, 3, 4, 5, 6, 7, 8], "date": "2017-5-22", "mode": 0, "digital IO": [0, 1], "firmware version": 772, "device": "biosignalsplux", "position": 0, "sampling rate": 1000, "label": ["RA_L", "RA_R", "OE_L", "OE:R", "IL_L", "IL_R", "MF_L", "MF_R"], "resolution": [16, 16, 16, 16, 16, 16, 16, 16], "special": [{}, {}, {}, {}, {}, {}, {}, {}]}}
# EndOfHeader
0	0	32662	32327	32342	32751	32782	32619	32751	32690	
1	0	32787	31813	32445	32679	32693	32574	32685	32701	
2	0	32764	31479	32285	32581	32692	32721	32875	32759	
3	0	32821	31451	32263	32495	32823	32751	32790	32807	
4	0	32837	31291	32413	32298	32837	32655	32775	32775	
5	0	32935	31495	32429	32379	32783	32662	32467	32830	
6	0	32941	31879	32338	32363	32839	32671	32436	32759	
7	0	32942	32673	32647	32591	32935	32742	32903	32613	
8	0	32979	32971	32834	32545	32926	32678	32899	32559	
9	0	32899	33261	32775	32607	32783	32647	32519	32759	
10	0	32866	33089	32855	32813	32629	32925	32607	32831	
11	0	33034	33063	32763	32749	32623	32903	32743	32789	
12	0	32998	32935	32815	32710	32713	32821	32775	32739	
13	0	32835	32733	32671	32727	32797	32689	32660	32763	
14	0	32863	33019	32843	32743	32823	32733	32775	32775	
15	0	32804	32991	32587	32655	32730	32775	32786	32810	
16	0	32847	33046	32692	32853	32703	32799	32885	32677	
17	0	32762	33139	32751	32755	32676	32743	32759	32715	
18	0	32679	33383	32461	32805	32726	32663	32699	32801	
19	0	32574	33447	32601	32563	32757	32805	32647	32796	
20	0	32496	33501	32635	32791	32719	32807	32671	32813	
21	0	32444	33359	32423	32669	32741	32738	32643	32791	
22	0	32527	33491	32495	32658	32687	32687	32623	32734	
23	0	32666	33231	32391	32773	32694	32711	32541	32807	
24	0	32786	32930	32538	32722	32599	32803	32623	32789	
25	0	32742	32681	32404	32517	32676	32669	32615	32635	
26	0	32621	32535	32579	32594	32702	32807	32582	32723	
27	0	32505	32575	32573	32728	32850	32671	32685	32715	
28	0	32484	32859	32807	32671	32767	32739	32771	32587	
29	0	32717	32567	32826	32555	32889	32709	32749	32553	
30	0	32711	32257	32739	32581	32818	32765	32743	32713	
31	0	32775	32421	32879	32559	32943	32671	32729	32723	
32	0	32879	32301	32850	32431	32738	32743	32527	32711	
33	0	32987	32221	32841	32430	32853	32791	32559	32720	
34	0	33071	32386	32818	32507	32997	32647	32847	32715	
35	0	33113	32295	33018	32765	33005	32850	32695	32707	
36	0	33098	32647	32895	32837	32797	32903	32619	32711	
37	0	33060	33115	32868	32805	33215	32551	32895	32739	
38	0	32985	33211	32795	32613	33159	32639	32549	32874	
39	0	32762	33095	32483	32775	32631	32799	32466	32799	
40	0	32699	32958	32505	32692	32603	32879	32633	32775	
41	0	32692	32847	32405	32615	32710	32577	32967	32549	
42	0	32796	32471	32471	32647	32583	32884	32893	32588	
43	0	32896	32214	32501	32479	32283	33042	32615	32578	
44	0	32919	32076	32535	32614	32502	32475	32585	32421	
45	0	32878	32295	32420	32687	32903	32439	32703	32551	
46	0	32799	32703	32643	32807	32853	32433	32658	32822	
47	0	32843	32899	32615	32771	32959	32607	32725	32646	
48	0	32842	32799	32491	32682	32787	32690	33147	32567	
49	0	32867	33106	32659	32759	32831	32723	32855	32701	
50	0	32914	32991	32833	32671	32647	32575	32959	32695	
51	0	32816	32823	32747	32687	32829	32579	32918	32599	
52	0	32762	32899	32839	32705	32660	32855	32615	32690	
53	0	32731	33007	32801	32620	32639	32732	32647	32783	
54	0	32546	32955	32822	32694	32831	32662	32939	32743	
55	0	32582	32891	32676	32583	32835	32674	32838	32754	
56	0	32578	33051	32607	32793	32588	32831	32705	32717	
57	0	32567	32935	32514	32739	32658	32701	32797	32610	
58	0	32653	32775	32583	32708	32911	32749	32863	32639	
59	0	32637	32735	32516	32747	32961	32839	32644	32914	
60	0	32727	32759	32167	32596	32890	32738	32603	32951	
61	0	32736	32659	32404	32809	32795	32861	32578	33023	
62	0	32742	32703	32331	32797	32769	32863	32841	32775	
63	0	32771	32647	32423	32655	32719	32799	32915	32573	
64	0	32749	32551	32263	32775	32719	32591	32789	32615	
65	0	32679	32935	32423	32671	32619	32605	32732	32711	
66	0	32658	33159	32470	32705	32791	32603	32773	32927	
67	0	32714	33147	32723	32407	32711	32644	32859	32855	
68	0	32572	33171	32747	32669	32663	32980	32685	32850	
69	0	32519	32983	32843	32607	32681	32859	32575	32954	
70	0	32679	33023	32993	32615	32951	32431	32643	32590	
71	0	32715	32799	32815	32455	32858	32555	32514	32495	
72	0	32664	32453	33031	32539	32903	32609	32637	32502	
73	0	32770	32467	33057	32591	32855	32659	33055	32615	
74	0	32740	32376	32845	32679	32831	32632	32919	32599	
75	0	32702	32563	32972	32491	32844	32668	32727	32662	
76	0	32669	32740	32741	32687	32885	32803	32658	32655	
77	0	32707	32747	32782	32608	32799	32818	32439	32697	
78	0	32673	32799	32802	32647	32890	32613	32804	32739	
79	0	32640	33119	32579	32559	32937	32656	32833	32749	
80	0	32614	33423	32519	32558	32887	32769	32791	32846	
81	0	32726	33321	32293	32742	32831	32807	32711	32775	
82	0	32840	32937	32383	32683	32596	32947	32472	32827	
83	0	32903	32815	32452	32775	32211	32895	32391	32845	
84	0	33043	32543	32386	32639	32583	32738	32730	32687	
85	0	33051	32217	32474	32762	32562	32715	32818	32655	
86	0	33038	31923	32607	32719	32593	32831	33015	32676	
87	0	33091	31689	32426	32767	32827	32599	33102	32586	
88	0	33062	32022	32611	32577	32838	32655	32995	32631	
89	0	33011	31879	32839	32723	32748	32541	32869	32819	
90	0	32942	32244	32698	32839	32936	32715	32831	32813	
91	0	32769	32607	32900	32765	32903	32689	32727	32855	
92	0	32643	33139	33104	32767	32677	32823	32759	32804	
93	0	32582	33503	32935	32625	32710	32923	32603	32845	
94	0	32756	33243	32887	32756	32874	32751	32883	32764	
95	0	32714	32881	32775	32815	32959	32479	32769	32749	
96	0	32737	32759	32834	32955	32989	32421	32701	32799	
97	0	32755	32843	32827	32605	32605	32673	32625	32740	
98	0	32572	32547	32605	32541	32642	32890	32774	32727	
99	0	32690	32097	32556	32665	32983	32681	32866	32663	
100	0	32710	32282	32537	32790	32935	32685	32855	32659	
101	0	32772	32967	32291	32703	32885	32727	32805	32759	
102	0	32809	33335	32303	32790	32727	32775	32743	32823	
103	0	32887	33411	32447	32655	32741	32805	32589	32757	
104	0	32935	33350	32402	32609	32692	32833	32577	32715	
105	0	32775	33502	32517	32541	32690	32775	32647	32793	
106	0	32709	33234	32399	32551	32725	32887	32679	32943	
107	0	32784	33191	32714	32514	32708	32740	32867	32788	
108	0	32872	32935	32799	32683	32823	32749	32819	32670	
109	0	32958	32923	32765	32663	32767	32751	32747	32825	
110	0	32958	32703	32966	32731	32769	32687	32748	32732	
111	0	32858	32708	32947	32559	32803	32706	32694	32759	
112	0	32844	32530	32827	32805	32702	32756	32653	32775	
113	0	32711	32279	32847	32756	32818	32671	32694	32751	
114	0	32647	32367	32711	32831	32747	32754	32743	32674	
115	0	32635	32775	32810	32609	32775	32719	32700	32775	
116	0	32532	33431	32941	32695	32766	32817	32612	32763	
117	0	32486	33279	32669	32715	32631	32875	32591	32855	
118	0	32594	33415	32613	32570	32613	32885	32518	32775	
119	0	32628	33370	32527	32436	32619	32669	32623	32603	
120	0	32825	32806	32503	32455	32819	32487	32675	32647	
121	0	32939	32068	32151	32391	32735	32356	32677	32583	
122	0	33047	31635	32191	32673	32756	32453	32571	32551	
123	0	32940	31599	32298	32671	32850	32678	32885	32628	
124	0	32783	31890	32538	32639	32895	32885	32809	32769	
125	0	32719	32281	32515	32703	32844	32699	32501	32751	
126	0	32821	32724	32621	32532	32757	32314	32229	32850	
127	0	32805	32955	32718	32847	32973	32413	32462	32839	
128	0	32767	33082	32639	32794	32853	32751	33333	32635	
129	0	32739	32679	32751	32857	32653	32811	32911	32403	
130	0	32754	32684	32663	32686	32587	32485	33005	32386	
131	0	32647	32795	32687	32765	32677	32421	32978	32615	
132	0	32647	32943	32567	32838	32935	32411	32687	32590	
133	0	32734	33055	32943	32813	32932	32647	32623	32703	
134	0	32790	33255	33095	32874	32767	32771	32829	32615	
135	0	32911	33193	32933	32659	32799	32757	33087	32612	
136	0	33063	32743	32989	32694	33001	32679	32954	32503	
137	0	32957	32767	32775	32715	32743	32935	32655	32735	
138	0	32959	32681	32690	32775	32701	32974	32599	32828	
139	0	32969	32535	32427	32827	32658	32799	32719	32762	
140	0	32933	32343	32431	32607	32559	32949	32767	32655	
141	0	32898	32551	32509	32749	32647	32871	32818	32621	
142	0	32725	32706	32327	32532	32658	32734	32743	32734	
143	0	32690	32853	32375	32546	32731	32734	32803	32793	
144	0	32659	32863	32563	32359	32767	32647	32731	32823	
145	0	32571	32774	32353	32543	32693	32685	32575	32699	
146	0	32639	32943	32679	32561	32759	32713	32701	32740	
147	0	32669	33091	32835	32458	32767	32714	32699	32731	
148	0	32708	33079	32833	32579	32743	32734	32698	32809	
149	0	32671	33090	32887	32623	32863	32711	32703	32807	
150	0	32711	32934	32983	32679	32767	32675	32703	32763	
151	0	32689	33039	32787	32556	32847	32681	32667	32739	
152	0	32668	32949	32831	32621	32935	32758	32775	32740	
153	0	32634	32932	32687	32734	32967	32672	32855	32831	
154	0	32607	32775	32739	32767	32927	32683	32297	33031	
155	0	32515	32855	32743	32743	32419	32754	32230	32807	
156	0	32647	32691	32628	32599	32875	32484	32763	32692	
157	0	32671	32487	32583	32707	32971	32858	33060	32844	
158	0	32713	32191	32607	32785	32423	33150	33061	32718	
159	0	32754	32387	32410	32852	32823	32949	33069	32474	
160	0	32871	32487	32502	32619	32980	32231	33373	32476	
161	0	32878	32579	32533	32638	32711	32471	33339	32590	
162	0	32772	32694	32471	32747	32415	32719	33003	32613	
163	0	32684	33077	32501	32719	32511	32610	33055	32721	
164	0	32471	33054	32419	32828	32642	32735	33470	32727	
165	0	32412	33095	32399	32711	32679	32825	33089	32693	
166	0	32541	32814	32491	32641	32745	32659	32839	32573	
167	0	32711	32851	32735	32804	32757	32635	32679	32679	
168	0	32609	32559	32851	32785	32711	32719	32479	32754	
169	0	32660	32487	32807	32759	32739	32899	32413	32775	
170	0	32675	32535	32869	32731	32759	32847	32597	32766	
171	0	32841	32875	32967	32599	32965	32613	32799	32645	
172	0	32919	32861	32835	32737	32891	32807	32719	32757	
173	0	33076	33063	32820	32643	32842	32743	32519	32859	
174	0	33065	32999	32762	32471	32796	32643	32613	32885	
175	0	32996	33037	32959	32443	32823	32711	32629	32767	
176	0	32947	33078	33005	32412	32790	32647	32722	32647	
177	0	32903	33207	32751	32503	32775	32807	32595	32687	
178	0	32914	32903	32685	32511	32732	32864	32592	32815	
179	0	32903	32887	32557	32771	32789	32909	32615	32854	
180	0	32879	32631	32223	32839	32749	32839	32674	32813	
181	0	32862	32407	32370	32860	32700	32891	32791	32663	
182	0	32811	32600	32519	32694	32726	32850	32718	32670	
183	0	32686	33053	32455	32699	32789	32775	32690	32593	
184	0	32784	32971	32535	32821	32783	32775	32719	32642	
185	0	32730	32747	32315	32739	32839	32639	32782	32693	
186	0	32748	32966	32535	32676	32639	32735	32797	32711	
187	0	32737	32503	32371	32605	32843	32614	32731	32603	
188	0	32718	32343	32583	32659	32740	32694	32819	32690	
189	0	32699	32310	32658	32515	32763	32675	32703	32687	
190	0	32759	32219	32844	32615	32773	32647	32541	32922	
191	0	32726	32111	32874	32671	32719	32791	32614	32775	
192	0	32694	32405	32764	32611	32812	32750	32722	32785	
193	0	32495	32743	32847	32640	32723	32739	32690	32647	
194	0	32603	33211	32798	32626	32883	32614	32647	32583	
195	0	32582	33105	32911	32615	32927	32461	32607	32539	
196	0	32578	33011	32927	32615	32882	32555	32629	32681	
197	0	32661	33153	32653	32827	32847	32730	32343	32789	
198	0	32626	33063	32486	32775	32667	32765	32373	32795	
199	0	32663	32810	32639	32773	32617	32818	32461	32644	
200	0	32682	32573	32483	32615	32645	32749	32578	32699	
201	0	32913	32383	32413	32798	32839	32634	33297	32549	
202	0	33009	32151	32229	32727	32959	32454	33363	32599	
203	0	32932	32119	32466	32833	32945	32615	33335	32639	
204	0	32804	32455	32617	32730	33062	32655	33041	32467	
205	0	32775	32804	32738	32613	33138	32591	32845	32655	
206	0	32815	33111	32877	32675	32891	32663	32775	32562	
207	0	32876	33231	32757	32742	32575	32767	32806	32695	
208	0	32991	33274	32839	32655	32679	32681	32964	32717	
209	0	33012	33266	32609	32673	32679	32742	32840	32871	
210	0	32937	32913	32714	32575	32695	32793	32913	32934	
211	0	32829	33029	32836	32453	32802	32811	32860	32929	
212	0	32876	32623	32869	32690	32711	32663	32817	32727	
213	0	33016	32379	32903	32639	32715	32679	32673	32762	
214	0	32994	32255	33099	32743	32765	32831	32679	32903	
215	0	32900	32539	32814	32711	32709	32775	32690	32863	
216	0	32738	32893	32655	32559	32774	32759	32566	32815	
217	0	32587	33063	32435	32679	32679	32671	32803	32815	
218	0	32552	33207	32507	32703	32607	32823	32863	32966	
219	0	32520	33713	32507	32771	32647	32969	32794	32899	
220	0	32538	33623	32326	32731	32669	32755	32713	32813	
221	0	32613	33218	32385	32625	32727	32647	32413	32839	
222	0	32702	32617	32391	32711	32799	32734	32510	32797	
223	0	32788	32421	32567	32837	32822	32579	32627	32595	
224	0	32775	32455	32385	32775	32791	32493	32627	32508	
225	0	32807	32195	32483	32855	32834	32815	32677	32658	
226	0	32807	32013	32694	32771	32828	32835	32775	32735	
227	0	32806	32131	32599	32543	32845	32703	32812	32669	
228	0	32775	32759	32675	32391	32935	32711	32735	32735	
229	0	32677	32975	32711	32517	32770	32875	32675	32658	
230	0	32710	33074	32943	32380	32807	32769	32615	32747	
231	0	32709	32811	32943	32341	32807	32892	32739	32775	
232	0	32889	32827	33052	32351	32715	32786	32743	32695	
233	0	32909	32787	32807	32582	32738	32482	32775	32694	
234	0	32834	32742	32918	32639	32799	32586	32775	32735	
235	0	32832	32975	32859	32509	32833	32679	32807	32664	
236	0	32847	33151	32807	32485	32775	32671	32665	32725	
237	0	32711	33196	32455	32639	32607	32711	32583	32687	
238	0	32492	33415	32676	32535	32863	32839	32797	32802	
239	0	32543	33325	32532	32639	32825	32765	32871	32855	
240	0	32633	32919	32239	32639	32567	32788	32751	32948	
241	0	32727	32443	32367	32686	32573	32859	32741	32890	
242	0	32791	31983	32421	32551	32796	32638	32903	32695	
243	0	32858	32027	32298	32567	32935	32330	32971	32562	
244	0	32900	32039	32495	32603	32967	32643	32898	32887	
245	0	32829	32236	32701	32605	32661	32775	32809	32903	
246	0	32783	32599	32795	32635	32569	32947	32851	32939	
247	0	32705	32743	32867	32623	32620	33100	32613	32923	
248	0	32660	33143	32738	32863	32543	33381	32679	32819	
249	0	32607	32861	32943	33014	32706	32982	33051	32517	
250	0	32662	32699	32803	32789	33043	32151	33287	32059	
251	0	32663	32431	32821	33071	33042	32119	33101	32175	
252	0	32633	32655	32829	32986	32663	32675	32628	32619	
253	0	32703	32503	32765	32991	32695	32675	32619	32517	
254	0	32733	32431	32626	32742	32775	32532	32659	32695	
255	0	32819	32507	32642	32867	32775	32535	32583	32766	
256	0	32848	32797	32550	32957	32767	32838	32715	32875	
257	0	32848	33245	32285	32831	32927	32967	32775	32722	
258	0	32783	33332	32371	32581	32903	32721	32735	32610	
259	0	32792	33303	32237	32831	32831	32595	32603	32703	
260	0	32804	33049	32071	32646	32621	32727	32499	32735	
261	0	32754	33095	32311	32586	32571	32699	32572	32819	
262	0	32787	32931	32281	32372	32535	32773	32647	32687	
263	0	32757	32775	32470	32535	32727	32717	32821	32685	
264	0	32881	32423	32571	32447	32671	32852	32751	32803	
265	0	32806	32646	32454	32455	32811	32623	32786	32802	
266	0	32762	33027	32666	32341	32879	32509	32741	32748	
267	0	32775	32999	32637	32367	32804	32640	32855	32647	
268	0	32730	32903	32844	32655	32714	32916	32724	32735	
269	0	32653	33052	32857	32535	32694	32862	32795	32757	
270	0	32647	32862	33062	32731	32883	32847	32631	32731	
271	0	32477	32917	33110	32647	33031	32785	32581	32833	
272	0	32552	32711	32962	32581	32935	32639	32335	32711	
273	0	32627	32706	32887	32695	32868	32431	32357	32661	
274	0	32630	32681	32807	32783	32791	32549	32726	32760	
275	0	32621	32607	32708	32735	32857	32503	32946	32815	
276	0	32692	32740	32719	32885	32763	32771	32983	32850	
277	0	32757	32660	32690	32812	32748	32831	32793	32743	
278	0	32775	32583	32610	32713	32655	32799	32754	32759	
279	0	32769	32671	32503	32783	32690	32621	32703	32689	
280	0	32743	32604	32429	32726	32551	32859	32510	32735	
281	0	32798	32925	32196	32693	32663	32766	32588	32751	
282	0	32855	33015	32351	32646	32726	32847	32710	32621	
283	0	32925	32975	32402	32703	32663	32783	32727	32551	
284	0	32819	32893	32725	32663	32775	32635	32843	32674	
285	0	32777	32837	32758	32559	32767	32740	33015	32694	
286	0	32775	32588	32790	32671	32601	32775	32719	32770	
287	0	32877	32333	32871	32858	32571	32767	32788	32718	
288	0	32992	31895	32726	32813	32798	32633	32866	32716	
289	0	32908	32131	32916	32775	32903	32739	32935	32703	
290	0	33036	32349	32729	32641	32855	32667	32795	32663	
291	0	33096	32401	32845	32715	32767	32594	32511	32710	
292	0	32999	32374	32635	32711	32703	32699	32542	32885	
293	0	33001	32671	32775	32590	32765	32770	32695	32861	
294	0	32954	32859	32911	32631	32663	32895	32660	32849	
295	0	32985	32695	32613	32573	32668	32742	32671	32579	
296	0	32997	32572	32647	32706	32673	32663	32423	32853	
297	0	32887	32966	32502	32643	32753	32924	32671	32806	
298	0	32945	32955	32592	32647	32967	32637	32823	32573	
299	0	33106	32951	32533	32487	33046	32439	32751	32351	
300	0	33188	33001	32340	32607	32860	32455	32679	32391	
301	0	33281	32751	32377	32766	32751	32579	32767	32667	
302	0	33399	32898	32583	32800	32641	32598	32871	32834	
303	0	33476	32775	32695	32575	32569	32723	33025	32958	
304	0	33396	32575	32713	32775	32609	32971	32775	32940	
305	0	33415	32353	32661	32775	32700	32818	33073	32806	
306	0	33465	32420	32697	32807	32968	32591	32983	32814	
307	0	33459	32476	32389	32625	32759	32584	32770	32845	
308	0	33398	32482	32531	32575	32850	32724	32646	32818	
309	0	33190	32389	32662	32814	32702	32751	32413	33069	
310	0	33085	32565	32799	32839	32678	32747	32511	33063	
311	0	32794	32836	32828	32885	32676	32668	32479	32999	
312	0	32285	33283	32591	32684	32643	32703	32737	32751	
313	0	31922	33342	32687	32879	32631	32679	32770	32851	
314	0	31623	33732	32734	32982	32759	32711	32846	32755	
315	0	31204	34125	32548	32887	32771	32773	32591	32703	
316	0	31032	34167	32551	32751	32975	32617	32420	32718	
317	0	31011	34151	32479	32711	32955	32629	32366	32605	
318	0	30900	34327	32242	32911	32993	32605	32297	32703	
319	0	30924	34157	32379	32692	32756	32743	32195	32647	
320	0	31350	33636	32418	32677	32734	32775	32551	32623	
321	0	31897	33363	32374	32471	32996	32781	32999	32524	
322	0	32186	33287	32447	32364	32951	32665	33095	32353	
323	0	32260	33469	32358	32231	33059	32477	33475	32287	
324	0	32178	33271	32599	32178	32898	32359	33351	32252	
325	0	31989	33047	32737	32167	32796	32495	33287	32092	
326	0	31708	33003	32811	32042	32967	32429	33513	31965	
327	0	31634	32914	32823	32303	32735	32588	33561	32127	
328	0	31583	32673	32711	32261	32874	32626	33738	32109	
329	0	31735	32791	32989	32343	33085	32591	33469	32219	
330	0	31885	32923	33122	32262	33085	32541	33309	32207	
331	0	32124	33111	33127	32247	33110	32620	33159	32295	
332	0	32310	32647	33135	32495	32871	32703	33079	32450	
333	0	32289	32402	32885	32473	32706	32848	33044	32559	
334	0	32493	32005	32961	32575	32725	32868	32887	32559	
335	0	32564	31751	32853	32583	32839	32834	32918	32519	
336	0	32760	31719	32822	32747	33035	32615	32918	32599	
337	0	33088	31623	32569	32759	32882	32516	32742	32655	
338	0	33332	31861	32525	32743	32723	32612	32663	32748	
339	0	33681	32173	32534	32671	32749	32507	32626	32845	
340	0	33799	32454	32487	32803	32702	32788	32583	32854	
341	0	33846	32914	32347	32847	32646	32847	32494	32863	
342	0	34159	32850	32529	32753	32562	32821	32381	32935	
343	0	34372	32390	32628	32925	32602	32918	32538	33055	
344	0	34340	31975	32515	33028	32571	32939	32461	32962	
345	0	34411	31415	32599	32871	32667	32822	32459	32887	
346	0	34326	31122	32829	32877	32626	32957	32523	32871	
347	0	34284	30973	32631	32877	32559	32877	32491	32833	
348	0	34158	31191	32726	32935	32663	32955	32353	33017	
349	0	34047	31708	32903	32919	32553	32924	32444	33099	
350	0	33892	32107	32715	32995	32663	32855	32495	33143	
351	0	33671	32543	32853	32807	32647	32875	32589	33171	
352	0	33476	32815	32870	32903	32767	32703	32591	32985	
353	0	33289	32805	32797	32865	32607	32877	32478	33019	
354	0	33275	32813	32919	32903	32615	32898	32532	33066	
355	0	33105	33005	32901	32803	32506	32749	32639	33035	
356	0	33012	33018	32791	32887	32391	32903	32445	32899	
357	0	32895	33263	32647	32742	32667	32767	32533	32775	
358	0	32808	32903	32727	32615	32723	32658	32685	32749	
359	0	32605	32929	32463	32455	32762	32815	32610	32783	
360	0	32576	33231	32263	32510	32791	32735	32703	32771	
361	0	32438	33663	32405	32503	32775	32775	32639	32773	
362	0	32372	33891	32369	32127	32799	32661	32702	32735	
363	0	32438	33787	32725	32199	32647	32914	32707	32822	
364	0	32428	33667	32734	32493	32590	32847	32607	32685	
365	0	32421	33671	32455	32527	32766	32655	32694	32536	
366	0	32615	32831	32607	32450	32775	32766	32687	32599	
367	0	32882	32299	32647	32577	32783	32633	32751	32703	
368	0	32967	31685	32500	32679	32871	32703	32865	32647	
369	0	32902	31350	32613	32695	32775	32786	32803	32583	
370	0	32747	31407	32873	32723	32855	32770	32727	32709	
371	0	32660	31493	32671	32775	32747	32895	32758	32802	
372	0	32530	32015	32725	32821	32943	32501	32721	32757	
373	0	32422	32382	32725	32839	32871	32591	32799	32839	
374	0	32498	32759	32613	32742	32708	32771	32895	32819	
375	0	32460	33076	32711	32587	32735	32854	32923	32741	
376	0	32430	33379	32647	32660	32775	32754	32881	32767	
377	0	32369	33566	32429	32623	32748	32641	32727	32754	
378	0	32449	33287	32429	32668	32803	32679	32627	32815	
379	0	32581	33203	32365	32557	32791	32623	32630	32698	
380	0	32695	32815	32109	32518	32847	32615	32659	32771	
381	0	32811	32994	32383	32647	32915	32647	32867	32821	
382	0	32686	33222	32455	32644	32789	32691	32820	32743	
383	0	32719	33103	32611	32502	32685	32507	32692	32763	
384	0	32735	33047	32519	32586	32773	32639	32547	32699	
385	0	32601	32807	32707	32663	32892	32693	32701	32615	
386	0	32600	32974	32677	32751	32751	32627	32539	32581	
387	0	32639	33277	32831	32743	33034	32869	33107	32563	
388	0	32716	33275	32594	32767	33159	32819	32765	32685	
389	0	32736	33159	32676	32743	32947	32698	32476	32709	
390	0	32718	32887	32707	32647	33021	32631	32919	32795	
391	0	32740	32838	32721	32551	32732	32973	32958	32851	
392	0	32738	32919	32747	32725	32647	32967	32793	32901	
393	0	32743	32647	32751	32690	32761	32459	32846	32771	
394	0	32719	32501	32607	32759	32850	32131	32758	32770	
395	0	32775	32401	32887	32565	32797	32439	32731	32722	
396	0	32827	32559	32978	32711	32867	32535	33248	32581	
397	0	32830	32786	32717	32676	32789	32511	32959	32645	
398	0	32818	32703	32514	32759	32750	32631	32663	32731	
399	0	32790	32887	32573	32510	32756	32570	32769	32603	
400	0	32767	32941	32420	32571	32685	32557	32767	32559	
401	0	32742	32903	32297	32674	32591	32787	32813	32607	
402	0	32857	32999	32245	32819	32487	32944	32863	32535	
403	0	32909	32613	32409	32706	32603	33065	32732	32707	
404	0	32863	32727	32467	32634	32555	33159	32703	32947	
405	0	32789	32839	32527	32787	32595	32986	32705	32866	
406	0	32759	32943	32703	32679	33026	32535	32767	32659	
407	0	32654	32879	32647	32516	32919	32519	32549	32803	
408	0	32596	32762	32669	32661	32679	32783	32494	32827	
409	0	32493	32863	32833	32660	32687	32931	32309	32748	
410	0	32543	32831	32902	32727	32702	32871	32370	32711	
411	0	32454	32789	32768	32647	32711	32891	32455	32781	
412	0	32625	32706	32929	32759	32583	32903	32639	32843	
413	0	32695	32960	32948	32655	32332	32903	32511	32837	
414	0	32770	32791	32742	32701	32731	32775	32726	32918	
415	0	32729	32955	32941	32697	32983	32612	33007	32775	
416	0	32832	33117	32747	32491	33217	32602	33397	32723	
417	0	32939	32719	32665	32630	33143	32719	33276	32467	
418	0	32855	32627	32486	32591	33015	32495	33311	32297	
419	0	32793	32527	32455	32606	32815	32382	32959	32509	
420	0	32706	32391	32525	32454	32723	32703	32500	32767	
421	0	32666	32487	32551	32617	32661	33006	32573	32685	
422	0	32728	32613	32517	32556	32755	32743	32679	32443	
423	0	32791	32481	32401	32685	32927	32487	32707	32531	
424	0	32669	32694	32535	32447	32861	32534	32647	32635	
425	0	32732	32855	32690	32604	32935	32199	32855	32495	
426	0	32731	32891	32681	32653	32739	32564	32883	32743	
427	0	32711	32887	32868	32591	32667	32733	32707	32678	
428	0	32695	32916	32766	32559	32671	32895	32841	32711	
429	0	32723	32791	33011	32767	32658	32885	32738	32879	
430	0	32673	32918	32871	32775	32743	32820	32743	32782	
431	0	32644	32986	33021	32775	32775	32595	32876	32519	
432	0	32647	32811	32871	32871	32759	32716	32858	32663	
433	0	32660	32895	33031	32759	32742	32735	32767	32794	
434	0	32647	32999	32951	32852	32599	32743	32683	32719	
435	0	32638	32978	32845	32914	32559	32835	32775	32784	
436	0	32566	32954	32865	32955	32733	32815	32694	32839	
437	0	32641	32708	32583	32743	32807	32674	32661	32751	
438	0	32852	32728	32475	32759	32839	32605	32839	32647	
439	0	32812	32802	32671	32659	32643	32749	32751	32755	
440	0	32783	32719	32476	32637	32647	32825	32525	32716	
441	0	32817	32787	32489	32615	32775	32775	32447	32877	
442	0	32719	32887	32523	32415	32663	32826	32535	32761	
443	0	32827	32831	32572	32413	32739	32644	32910	32643	
444	0	32876	32953	32533	32541	32895	32581	32854	32703	
445	0	32754	32703	32447	32457	32898	32623	32775	32749	
446	0	32802	32551	32539	32507	32749	32751	32613	32693	
447	0	32759	32887	32719	32463	32711	32682	32541	32803	
448	0	32679	33065	32642	32487	32835	32631	32859	32705	
449	0	32615	33115	32671	32717	32830	32663	32929	32675	
450	0	32765	32827	32583	32742	32711	32569	32710	32855	
451	0	32941	32351	32578	32751	32557	32612	32799	32749	
452	0	33104	32093	32567	32639	32550	32703	32732	32807	
453	0	33102	31941	32628	32671	32741	32743	32826	32632	
454	0	33122	31767	32887	32787	32991	32727	32775	32871	
455	0	33102	31367	32748	32631	32967	32706	32751	32923	
456	0	33087	31851	32591	32836	32775	32869	32711	32861	
457	0	33086	32847	32441	32578	32942	32503	32686	32659	
458	0	32997	33204	32293	32583	32861	32615	32780	32719	
459	0	32918	33455	32076	32367	32882	32676	32821	32685	
460	0	32895	33255	32167	32551	32775	32692	32695	32711	
461	0	32799	32699	32322	32566	32807	32700	32699	32885	
462	0	32873	32751	32317	32726	32851	32943	32834	32978	
463	0	32756	32809	32515	32801	32715	32903	32623	32751	
464	0	32703	32983	32353	32639	32723	32826	32519	32791	
465	0	32704	33039	32663	32685	32741	32716	32735	32570	
466	0	32428	33567	32759	32751	32745	32692	32679	32694	
467	0	32353	33845	32868	32724	32963	32575	32793	32643	
468	0	32404	33453	32775	32839	32695	32838	32642	32575	
469	0	32628	33187	32735	32677	32639	32868	32489	32662	
470	0	32761	33031	32989	33019	32731	32789	32885	32607	
471	0	32816	32464	32979	32919	32839	32775	32738	32562	
472	0	32847	32391	32847	32799	33103	32691	32932	32495	
473	0	32831	32027	32807	32658	33043	32603	32839	32645	
474	0	32775	31742	32707	32782	32859	32548	33095	32575	
475	0	32714	32083	32987	32671	32787	32551	33137	32531	
476	0	32561	32303	32865	32735	32792	32631	32738	32679	
477	0	32666	32847	32797	32514	32687	32674	32837	32731	
478	0	32742	33183	32759	32663	32551	32743	32815	32756	
479	0	32647	32999	32546	32713	32607	32727	32623	32885	
480	0	32638	33447	32533	32598	32655	32675	32720	32850	
481	0	32529	33727	32466	32607	32640	32863	32717	32759	
482	0	32531	33538	32167	32492	32635	32780	32647	32846	
483	0	32647	33415	32287	32375	32731	32772	32815	32793	
484	0	32591	33466	32439	32415	32791	32647	32590	32877	
485	0	32608	33047	32615	32475	32766	32770	32703	32751	
486	0	32647	32359	32610	32484	32747	32705	32703	32771	
487	0	32823	31945	32647	32215	32797	32742	32773	32821	
488	0	32914	31307	32643	32446	32773	32773	32685	32695	
489	0	32953	31103	32656	32487	32735	32595	32823	32740	
490	0	32931	31611	32959	32381	32832	32519	32775	32703	
491	0	32839	32195	32925	32561	32856	32719	32725	32639	
492	0	32772	32525	32889	32815	32766	32805	32452	32791	
493	0	32783	32747	32979	32948	32839	32627	32564	32631	
494	0	32798	33049	32877	32749	32823	32709	32303	32709	
495	0	32791	33083	32826	33014	32943	32703	32534	32598	
496	0	32940	33060	32837	32903	32799	32951	32943	32754	
497	0	32971	33190	32639	32867	32845	32794	32679	32775	
498	0	32878	33622	32539	32725	33019	32519	32767	32613	
499	0	32893	33624	32586	32847	32900	32765	32999	32621	
500	0	32871	33366	32343	32795	32447	33359	32703	32983	
501	0	33033	33490	32243	32835	32679	33003	32827	32878	
502	0	33017	33223	32333	32671	32743	32740	32995	32621	
503	0	32847	32785	32295	32591	32903	32706	33191	32508	
504	0	32769	32567	32328	32645	33113	32374	33415	32499	
505	0	32575	32391	32271	32751	32929	32475	33235	32613	
506	0	32501	32189	32589	32775	32671	32495	32919	32569	
507	0	32430	32516	32501	32714	32527	32691	32749	32677	
508	0	32491	32564	32509	32867	32685	32541	32877	32558	
509	0	32388	32559	32885	32707	32831	32599	32863	32719	
510	0	32360	32887	32933	32573	32831	32926	32628	32677	
511	0	32429	32801	32839	32461	32571	33074	32471	32855	
512	0	32428	32787	33103	32711	32639	32713	32425	32845	
513	0	32468	32619	33014	32623	32799	32459	32556	32738	
514	0	32668	32839	32943	32701	32854	32391	32683	32535	
515	0	32942	32711	32990	32588	32852	32517	32646	32815	
516	0	33071	32807	32815	32679	32631	32767	32503	32929	
517	0	33042	32795	32573	32615	32955	32557	32758	32898	
518	0	32955	33143	32565	32604	33017	32621	32821	32822	
519	0	32916	33150	32469	32435	32791	32742	32647	32679	
520	0	32833	33211	32255	32583	32707	32705	32559	32647	
521	0	32679	32975	32284	32645	32807	32702	32717	32551	
522	0	32635	32940	32303	32594	32711	32914	32662	32718	
523	0	32605	32719	32413	32694	32755	32858	32708	32658	
524	0	32703	32375	32429	32731	32679	32796	32766	32703	
525	0	32815	32511	32595	32647	32647	32731	32703	32701	
526	0	32783	32607	32703	32647	32736	32825	32749	32717	
527	0	32762	32543	32625	32862	32793	32802	32706	32759	
528	0	32590	32923	32689	32804	32738	32687	32647	32815	
529	0	32523	33022	32710	32797	32823	32703	32646	32554	
530	0	32634	32839	32818	32723	32807	32559	32676	32583	
531	0	32770	33095	32844	32599	32847	32474	32740	32509	
532	0	32761	33071	32733	32759	32848	32557	32759	32636	
533	0	32764	32855	32991	32775	32775	32621	32946	32629	
534	0	32734	32711	33018	32692	32843	32575	33038	32559	
535	0	32692	32718	32927	32683	32663	32790	32935	32647	
536	0	32622	32758	32833	32730	32602	32879	32723	32867	
537	0	32582	32599	32505	32620	32599	32831	32924	32863	
538	0	32588	32495	32679	32559	32893	32615	33087	32555	
539	0	32658	32346	32479	32596	32894	32315	33007	32483	
540	0	32715	32315	32511	32770	32743	32703	32567	32685	
541	0	32647	32622	32435	32726	32599	32915	32334	32807	
542	0	32769	32797	32221	32676	32838	33035	32310	32826	
543	0	32839	32715	32450	32582	33061	33076	32783	32895	
544	0	32954	32995	32541	32799	32811	32874	32766	32793	
545	0	32945	33167	32468	32539	32879	32695	33127	32723	
546	0	32806	32931	32701	32494	32881	32406	33127	32583	
547	0	32831	32621	32839	32461	32703	32460	32911	32786	
548	0	32751	32647	32617	32540	32773	32663	32922	32839	
549	0	32807	32459	32894	32541	32627	32863	32727	32839	
550	0	32816	32341	32999	32631	32503	32815	32531	32972	
551	0	32783	32183	32911	32439	32431	33012	32647	32895	
552	0	32838	32475	32915	32561	32507	32943	33007	32594	
553	0	32806	32715	32855	32519	33101	32506	33213	32429	
554	0	32818	32919	32826	32613	33027	32539	32983	32719	
555	0	32723	33053	32647	32580	32871	32673	32755	32743	
556	0	32678	32967	32717	32583	32772	32702	32671	32631	
557	0	32661	32671	32628	32583	32791	32518	32763	32591	
558	0	32692	32871	32557	32722	32663	32647	32693	32647	
559	0	32807	32713	32463	32679	32829	32455	32759	32519	
560	0	32841	32311	32157	32711	32697	32702	32663	32717	
561	0	32814	32535	32284	32711	32747	32722	32595	32775	
562	0	32775	32669	32335	32509	32759	32807	32603	32690	
563	0	32846	33063	32287	32604	32775	32759	32695	32634	
564	0	32846	33267	32452	32799	32767	32699	32655	32767	
565	0	32656	33471	32725	32767	32803	32743	32775	32774	
566	0	32579	33295	32711	32691	32647	32668	32738	32758	
567	0	32533	32975	32813	32641	32679	32775	32707	32725	
568	0	32543	32967	32742	32547	32518	32775	32679	32775	
569	0	32677	33303	32925	32737	32658	32698	32703	32751	
570	0	32629	33775	32959	32543	33079	32700	32887	32902	
571	0	32697	33695	33001	32503	33063	32691	32851	32738	
572	0	32681	33195	32720	32403	32883	32623	32771	32671	
573	0	32681	33511	32843	32642	32875	32679	32551	32841	
574	0	32596	33131	32823	32567	32685	32647	32452	32761	
575	0	32727	32586	32735	32689	32853	32679	32582	32788	
576	0	32868	31751	32743	32628	32903	32742	32845	32617	
577	0	32995	31085	32877	32671	32917	32882	32679	32640	
578	0	33167	30743	32548	32652	32867	32884	32647	32687	
579	0	33090	31154	32295	32762	32815	32699	32534	32765	
580	0	33032	31549	32355	32575	32846	32641	32786	32739	
581	0	33021	31814	32059	32721	32797	32629	32918	32607	
582	0	32950	32263	32059	32613	32868	32533	33241	32489	
583	0	32807	32759	32179	32749	32893	32637	33063	32643	
584	0	32787	33140	32203	32599	32791	32647	32811	32789	
585	0	32865	33345	32367	32847	32725	32657	32838	32801	
586	0	32931	33107	32391	32935	32706	32775	32733	32833	
587	0	32877	33107	32510	32991	32784	32815	32823	32919	
588	0	32792	33287	32687	32893	32599	33011	32521	32882	
589	0	32711	33199	32847	32986	32703	32919	32732	32772	
590	0	32601	33341	32733	32869	32683	32719	32966	32755	
591	0	32370	33396	32943	32733	32695	32711	32562	32743	
592	0	32367	33499	33005	32569	32623	32775	32559	32539	
593	0	32576	33403	32899	32647	32623	32595	32639	32507	
594	0	32703	33483	33063	32661	32787	32639	32783	32413	
595	0	32646	33143	33167	32621	32620	32818	32531	32674	
596	0	32760	32822	32929	32807	32716	32708	32473	32751	
597	0	32783	32287	32819	32766	32833	32727	32594	32711	
598	0	32647	32223	32805	32708	32723	32823	32799	32743	
599	0	32771	32115	32383	32541	32733	32631	32751	32647	
600	0	32821	32175	32415	32693	32863	32695	32775	32690	
601	0	32709	32194	32303	32679	32783	32885	32633	32763	
602	0	32609	32537	32471	32610	32699	32875	32614	32927	
603	0	32513	33095	32559	32612	32647	32865	32463	32855	
604	0	32494	33455	32543	32482	32487	32859	32722	32783	
605	0	32582	33391	32740	32711	32790	32612	33087	32767	
606	0	32725	33127	32805	32661	32930	32727	33239	32703	
607	0	32692	33323	32741	32775	32891	32647	33103	32807	
608	0	32745	33367	32771	32662	32909	32737	32823	32647	
609	0	32769	33246	32762	32911	32827	32739	32745	32563	
610	0	32859	32998	32900	32887	32701	32854	32711	32609	
611	0	32881	32813	32783	32732	32679	32854	32791	32647	
612	0	32882	32620	32873	32735	32769	32627	33072	32595	
613	0	32895	32397	32805	32693	32839	32298	33050	32565	
614	0	32998	32333	32752	32683	32999	32327	32963	32583	
615	0	32975	32015	32757	32471	32847	32531	32717	32763	
616	0	32998	31993	32699	32615	32841	32647	32671	32832	
617	0	33108	32095	32470	32495	32886	32758	32610	32725	
618	0	32936	32333	32615	32512	32911	32749	32773	32673	
619	0	32959	32470	32499	32301	32879	32587	32863	32667	
620	0	32882	32995	32186	32511	33012	32663	32746	32751	
621	0	32798	33330	32293	32703	33007	32975	32365	32667	
622	0	32877	33344	32361	32615	32612	33039	32379	32763	
623	0	32902	32903	32292	32493	32557	32871	32626	32526	
624	0	32989	32727	32471	32321	32711	32570	32592	32719	
625	0	32977	32718	32403	32634	32598	32543	32507	32743	
626	0	32945	32717	32730	32629	32723	32405	32596	32809	
627	0	32832	32727	32846	32695	32564	32507	32469	32783	
628	0	32818	32647	32691	32559	32635	32748	32607	32820	
629	0	32902	32690	32711	32642	32814	32687	32915	32823	
630	0	32876	32967	32775	32668	32551	32647	33151	32815	
631	0	32836	32845	32991	32474	32611	32585	33367	32572	
632	0	32800	32743	32939	32670	32830	32677	33223	32477	
633	0	32698	32787	32796	32659	32514	32743	32818	32621	
634	0	32594	32562	33037	32766	32483	33001	32775	32799	
635	0	32446	32647	32743	32679	32673	32834	32671	32721	
636	0	32391	32898	32566	32703	32871	32743	32775	32767	
637	0	32417	33019	32235	32739	32951	32827	32693	32695	
638	0	32610	33039	32322	32523	33063	32694	32631	32596	
639	0	32622	33045	32255	32727	32867	32866	32459	32743	
640	0	32710	32980	32181	32687	32899	32647	32343	32682	
641	0	32797	32929	32133	32717	32791	32420	33045	32539	
642	0	32921	32511	32099	32621	32631	32686	33027	32647	
643	0	33053	32711	32423	32691	32717	32781	32887	32702	
644	0	33042	32707	32446	32681	32709	32772	32915	32771	
645	0	32974	32486	32757	32762	32639	32830	32698	32751	
646	0	32836	32742	32827	32564	32876	32758	32743	32887	
647	0	32635	32967	32807	32755	32749	32755	32521	32903	
648	0	32615	33143	32927	32815	32737	32647	32477	32803	
649	0	32582	33159	32863	32787	32727	32839	32325	33001	
650	0	32583	33223	32862	32679	32708	32915	32724	32871	
651	0	32539	32885	32866	32611	32634	32959	32870	32871	
652	0	32604	32518	32724	32743	32865	32982	32748	32743	
653	0	32647	32473	33031	32709	32879	32805	32821	32698	
654	0	32728	32259	32982	32813	33070	32382	32775	32541	
655	0	32836	32303	32877	32579	32989	32196	32693	32585	
656	0	32851	32509	32853	32775	32642	32738	32407	32759	
657	0	32647	32460	32769	32675	32661	32679	32561	32595	
658	0	32582	32774	32594	32698	32535	32679	32877	32519	
659	0	32720	33050	32596	32638	32647	32766	32745	32565	
660	0	32799	33110	32474	32767	32751	32615	32735	32695	
661	0	32659	33117	32551	32692	32775	32835	32623	32710	
662	0	32662	32967	32404	32567	32826	33030	32525	32775	
663	0	32555	33066	32519	32428	32978	33159	32411	32703	
664	0	32480	32919	32487	32489	32673	33349	32420	32869	
665	0	32696	32606	32647	32495	32746	32809	33174	32509	
666	0	32812	32687	32659	32479	32669	32363	33220	32517	
667	0	32934	32573	32463	32677	32809	32391	32918	32567	
668	0	32986	32487	32740	32663	32927	32451	32887	32631	
669	0	33099	32295	32631	32879	32914	32331	33055	32605	
670	0	33121	32487	32367	32863	32925	32319	32879	32807	
671	0	33094	32759	32601	32891	32751	32666	32941	32879	
672	0	33072	32994	32591	32767	32615	32830	32855	32889	
673	0	32999	33311	32503	32763	32786	32446	33060	32739	
674	0	32894	33465	32572	32773	32879	32631	32940	32677	
675	0	32775	33415	32635	32557	32764	32705	32747	32638	
676	0	32622	33654	32663	32823	32758	32758	32683	32413	
677	0	32615	33430	32598	32598	32695	32775	32815	32575	
678	0	32660	32975	32603	32727	32604	32767	32931	32595	
679	0	32742	32351	32495	32591	32783	32663	32871	32621	
680	0	32699	32063	32509	32727	32711	32803	32667	32721	
681	0	32698	32037	32381	32646	32647	32826	32591	32829	
682	0	32629	32081	32467	32625	32684	32818	32614	32939	
683	0	32530	31871	32559	32447	32647	32771	32583	32839	
684	0	32694	31907	32677	32487	32591	32677	32570	32763	
685	0	32713	32261	32555	32587	32829	32610	32594	32733	
686	0	32684	32711	32699	32579	32898	32707	32643	32753	
687	0	32757	32911	32743	32647	32945	32851	32621	32814	
688	0	32706	32911	32943	32495	32871	32771	32477	32799	
689	0	32655	32757	33077	32460	32763	32799	32603	32711	
690	0	32690	33063	32975	32502	32771	32735	32766	32831	
691	0	32687	33135	33011	32638	32902	32731	32804	32807	
692	0	32674	33075	32874	32691	32743	32727	32647	32743	
693	0	32721	33077	32941	32681	32791	32807	32631	32833	
694	0	32726	32839	32866	32737	32555	32663	32383	32919	
695	0	32838	32635	32881	32750	32711	32731	32532	32773	
696	0	32741	32892	32852	32703	32765	32599	32789	32844	
697	0	32653	32917	32647	32619	32979	32692	33259	32695	
698	0	32587	32647	32573	32621	32875	32687	33215	32587	
699	0	32694	32770	32372	32799	32965	32575	33181	32567	
700	0	32742	32903	32493	32762	32719	32719	33159	32637	
701	0	32863	32898	32407	32877	32688	32703	32903	32683	
702	0	32974	32723	32229	32659	32775	32605	32807	32667	
703	0	32951	32789	32489	32661	32773	32687	32789	32577	
704	0	32834	32637	32561	32845	32595	32791	32493	32615	
705	0	32935	32363	32450	32731	32787	32703	32537	32590	
706	0	32854	32128	32571	32663	32700	32751	32607	32687	
707	0	32923	32114	32551	32671	32495	32875	32647	32699	
708	0	33026	32372	32729	32583	32519	32903	32702	32788	
709	0	32944	32687	32669	32500	32759	32762	32807	32815	
710	0	32721	33038	32695	32474	32839	32739	32591	32749	
711	0	32492	33597	32727	32647	32685	32693	32551	32879	
712	0	32500	33879	32591	32592	32767	32639	32615	32734	
713	0	32510	33623	32647	32685	32881	32597	32671	32747	
714	0	32594	33575	32767	32487	32763	32679	32770	32683	
715	0	32678	33211	32655	32591	32817	32874	32630	32663	
716	0	32808	32703	32639	32735	32695	32850	32807	32683	
717	0	32828	32299	32391	32579	32809	32941	32767	32735	
718	0	32873	32263	32420	32621	32803	32757	32775	32646	
719	0	32813	32013	32470	32583	32864	32727	32575	32868	
720	0	32796	31953	32235	32443	32747	32671	32479	32775	
721	0	32789	32331	32332	32487	32743	32733	32391	32679	
722	0	32711	32332	32565	32727	32805	32829	32595	32843	
723	0	32647	32471	32451	32691	32811	32735	32950	32880	
724	0	32706	32459	32634	32765	32643	32801	32631	32789	
725	0	32681	32891	32811	32675	32535	32621	32539	32600	
726	0	32765	33001	32791	32647	32951	32551	32999	32519	
727	0	32844	32877	32799	32851	32898	32596	33158	32567	
728	0	32839	33215	32875	32727	32746	32557	32949	32558	
729	0	32834	33117	32877	32845	32850	32595	32901	32518	
730	0	32881	32998	33058	32727	32863	32673	32967	32594	
731	0	32928	32763	33103	32583	32935	32627	33009	32564	
732	0	32706	33041	32989	32711	32839	32549	32759	32637	
733	0	32525	33132	32802	32758	32971	32623	32855	32607	
734	0	32575	33107	32607	32698	32759	32742	32771	32775	
735	0	32758	33287	32689	32749	32927	32719	32754	32709	
736	0	32817	33077	32657	32639	32703	32836	32567	32810	
737	0	32857	32967	32431	32775	32519	33119	32327	32919	
738	0	32923	32641	32423	32635	32763	32659	32697	32627	
739	0	33035	32703	32366	32675	32509	32879	33159	32541	
740	0	33005	33031	32491	32499	32451	32699	32979	32774	
741	0	33037	32967	32519	32562	32559	32678	32631	32963	
742	0	32953	32709	32383	32583	32775	32576	32599	32737	
743	0	33024	32799	32518	32621	32900	32495	32857	32830	
744	0	32951	32375	32483	32770	33062	32575	32998	32877	
745	0	32830	32359	32623	32820	32964	32467	33061	32647	
746	0	32878	32659	32477	32733	32647	32567	33237	32711	
747	0	32812	32629	32718	32689	32526	32703	32971	32867	
748	0	32673	32415	32823	32631	32647	32834	32823	32813	
749	0	32615	32647	32771	32679	32999	32661	33241	32633	
750	0	32520	32734	32817	32762	32915	32790	33027	32709	
751	0	32587	32594	32644	32847	32742	32791	32793	32775	
752	0	32647	33021	32883	32749	32725	32743	32740	32714	
753	0	32696	32593	32809	32807	32767	32747	32807	32563	
754	0	32693	32155	32844	32862	32767	32727	32883	32763	
755	0	32586	32507	32751	32773	32919	32701	32823	32615	
756	0	32552	32596	32711	32707	32826	32583	32728	32578	
757	0	32639	32607	32555	32539	32877	32751	32645	32791	
758	0	32660	32879	32551	32329	32739	32679	32639	32823	
759	0	32799	32748	32440	32514	32771	32749	32587	32849	
760	0	32758	32775	32287	32555	32791	32647	32665	32823	
761	0	32646	32975	32263	32351	32783	32665	32691	32647	
762	0	32535	33159	32205	32415	32743	32690	32647	32763	
763	0	32316	33283	32359	32367	32786	32671	32731	32684	
764	0	32279	33269	32407	32578	32742	32789	32819	32556	
765	0	32364	33611	32391	32585	32775	32843	32791	32609	
766	0	32588	33325	32715	32643	32794	32809	32775	32703	
767	0	32758	32877	32797	32679	32709	32759	32679	32576	
768	0	32868	32855	32926	32565	32758	32693	32641	32499	
769	0	33079	32577	32799	32573	32745	32748	32598	32622	
770	0	33265	32376	32967	32690	32827	32693	32507	32670	
771	0	33248	32399	32915	32690	32679	32721	32162	32691	
772	0	33316	32303	32759	32769	32899	32623	32524	32691	
773	0	33121	32189	32898	32727	32903	32591	32647	32861	
774	0	32903	32221	33005	32635	32639	32810	32771	32918	
775	0	32803	32518	33001	32683	32722	32813	32635	32911	
776	0	32714	32630	32877	32855	32868	32655	33012	32823	
777	0	32619	32671	32553	32820	32623	32582	33227	32740	
778	0	32556	32699	32479	32787	32829	32871	33266	32711	
779	0	32623	32631	32326	32803	32622	32979	32855	32732	
780	0	32586	33026	32455	32773	32715	32867	32639	32775	
781	0	32687	33077	32399	32559	32709	32654	32647	32826	
782	0	32765	33031	32506	32500	32923	32546	32623	32647	
783	0	32738	32947	32612	32683	32903	32391	32639	32699	
784	0	32700	33149	32621	32615	32871	32463	33071	32662	
785	0	32699	33015	32655	32610	32847	32711	33018	32721	
786	0	32635	33301	32558	32498	32863	32730	32879	32579	
787	0	32729	33531	32711	32533	32687	32911	32775	32727	
788	0	32829	33439	32663	32594	32735	32999	32975	32725	
789	0	32734	33071	32924	32576	32709	33138	32806	32804	
790	0	32741	32690	32883	32569	32642	33031	32735	32959	
791	0	32638	32591	32614	32708	32845	32247	32727	32735	
792	0	32663	32310	32727	32647	32887	32165	32605	32703	
793	0	32655	31921	32439	32683	32881	32452	32555	32685	
794	0	32738	31935	32539	32751	32775	32611	32631	32655	
795	0	32676	31805	32677	32961	32698	32671	32605	32743	
796	0	32647	32238	32399	32863	32719	32771	32699	32657	
797	0	32727	32534	32551	32983	32764	32815	32707	32735	
798	0	32791	32799	32571	32799	32668	32887	32679	32838	
799	0	32839	32565	32315	32623	32895	32895	32751	32660	
800	0	32827	32322	32365	32627	32795	32815	32538	32607	
801	0	32870	32511	32361	32647	32566	32863	32527	32733	
802	0	32917	32457	32441	32655	32607	32797	32724	32755	
803	0	32927	32663	32271	32699	32861	32671	32804	32567	
804	0	32829	33039	32510	32695	32812	32590	32751	32495	
805	0	32676	33311	32687	32571	32767	32705	32687	32809	
806	0	32638	33470	32711	32509	32694	32775	32667	32863	
807	0	32662	33415	32735	32734	32797	32639	32989	32721	
808	0	32753	33065	32726	32771	32801	32791	32895	32686	
809	0	32822	32851	32875	32797	32844	32607	32806	32613	
810	0	32818	32959	33095	32723	32793	32709	32674	32683	
811	0	32798	32903	32887	32577	32807	32849	32615	32599	
812	0	32692	32735	32966	32710	32575	32775	32239	32719	
813	0	32718	32773	32868	32739	32543	32574	32247	32723	
814	0	32808	32711	33103	32587	32709	32546	32525	32818	
815	0	32704	32674	33106	32567	32834	32671	32947	32628	
816	0	32740	33111	32855	32455	33029	32629	33319	32639	
817	0	32765	33143	32821	32315	32999	32818	33257	32699	
818	0	32868	32891	32647	32495	32999	32775	33115	32671	
819	0	32883	32481	32327	32466	32686	32687	32839	32827	
820	0	32916	32445	32391	32631	32919	32647	32735	32619	
821	0	32861	32339	32351	32627	32854	32562	32671	32606	
822	0	32687	32347	32337	32679	32797	32684	32877	32607	
823	0	32785	32591	32430	32765	32667	32857	32915	32811	
824	0	32995	32607	32279	32850	32857	32743	32743	32749	
825	0	33010	32738	32443	32733	32850	32511	33007	32679	
826	0	32984	33175	32447	32773	32799	32482	32707	32738	
827	0	32832	33179	32647	32699	32564	32641	32694	32679	
828	0	32726	33090	32647	32507	32550	32870	32701	32645	
829	0	32665	32981	32735	32765	32609	32775	32551	32735	
830	0	32617	32795	32782	32732	32507	32607	32557	32775	
831	0	32678	32601	32818	32703	32732	32798	32991	32857	
832	0	32831	32297	32949	32671	32717	32807	32959	32694	
833	0	32946	32334	32927	32459	32759	32743	32668	32863	
834	0	32914	32387	33067	32399	32710	32832	32631	32836	
835	0	32806	32364	32925	32491	32823	32590	32510	32691	
836	0	32727	32798	32903	32588	32859	32662	32503	32802	
837	0	32755	32991	32759	32535	32791	32765	32687	32876	
838	0	32871	33166	32495	32413	32693	32662	32663	32815	
839	0	32815	33323	32630	32607	32731	32742	32697	32741	
840	0	32436	33799	32509	32647	32702	32775	32706	32655	
841	0	32263	33959	32414	32647	32743	32837	32666	32722	
842	0	32314	33607	32315	32631	32597	32839	32699	32767	
843	0	32406	33903	32189	32713	32958	32627	32890	32505	
844	0	32412	33483	32311	32631	32943	32638	32911	32516	
845	0	32396	33204	32331	32767	32863	32711	32828	32639	
846	0	32383	33206	32332	32719	32742	32759	32726	32767	
847	0	32581	32375	32511	32797	32677	32687	32690	32647	
848	0	32970	31479	32621	32839	32813	32811	32749	32733	
849	0	33172	31003	32748	32681	32785	32659	32669	32819	
850	0	33105	30759	32706	32805	32853	32769	32615	32763	
851	0	32916	31019	32759	32839	32900	32711	32601	32815	
852	0	32911	31055	32671	32691	32762	32671	32639	32703	
853	0	32977	31415	32847	32799	32623	32702	32598	32646	
854	0	33035	31749	32768	32620	32925	32569	32899	32623	
855	0	33071	32462	32703	32844	32811	32711	33018	32706	
856	0	32949	33135	32710	32759	32765	32827	32918	32647	
857	0	32912	33415	32557	32775	32727	32599	32995	32583	
858	0	32893	33431	32550	32839	32639	32833	32660	32638	
859	0	32740	33598	32540	32635	32636	32964	32743	32774	
860	0	32903	33447	32685	32789	32647	32877	32735	32829	
861	0	32882	33345	32549	32717	32713	32929	32699	32839	
862	0	32671	33157	32724	32647	32829	32762	32719	32825	
863	0	32678	33038	32759	32711	32775	32471	32539	32679	
864	0	32828	33263	32735	32603	32839	32647	32501	32771	
865	0	32858	33367	32787	32502	32763	32877	32263	32915	
866	0	32953	33303	32634	32333	32869	32748	32637	32714	
867	0	32955	33007	32687	32627	32909	32703	32498	32801	
868	0	33117	32822	32903	32721	32705	32729	32979	32707	
869	0	33093	32703	32807	32733	32759	32751	33278	32823	
870	0	33054	32415	32953	32681	32683	32789	32775	32855	
871	0	32919	32281	33079	32695	32445	32810	32535	32861	
872	0	32673	32237	32855	32562	32475	32927	32548	32599	
873	0	32742	32375	32852	32562	32730	32839	33111	32647	
874	0	32941	32509	32795	32647	33193	32580	33047	32717	
875	0	32971	32799	32615	32705	32943	32547	32566	32773	
876	0	33048	33135	32479	32451	32710	32876	32340	32930	
877	0	33131	33213	32215	32526	32468	32967	32793	32911	
878	0	33355	32956	32309	32698	32775	32684	33059	32794	
879	0	33609	32804	32007	32679	33007	32570	33037	32519	
880	0	33626	32217	32047	32775	32887	32386	32837	32615	
881	0	33658	31866	32073	32789	32597	32611	32726	32839	
882	0	33626	32143	32297	32698	32551	32707	33036	32811	
883	0	33457	32359	32535	32821	32763	32771	32724	32758	
884	0	33455	32135	32535	32949	32754	32535	32606	32694	
885	0	33415	32170	32729	32871	32823	32671	32524	32743	
886	0	33234	32462	32647	32946	32647	32817	32474	32903	
887	0	33120	32775	32847	32826	32934	32615	32706	32695	
888	0	32884	32807	32702	32706	32698	32709	32579	32878	
889	0	32431	33215	32831	32770	32717	32617	32634	32775	
890	0	32141	33718	32885	32719	32725	32751	32426	32839	
891	0	31863	33951	32902	32619	33102	32587	32615	32676	
892	0	31445	34199	32726	32583	33055	32615	32935	32621	
893	0	31035	34513	32489	32491	32940	32612	32947	32615	
894	0	31017	34245	32402	32681	32751	32611	32804	32638	
895	0	30879	34311	32443	32659	32843	32599	32699	32583	
896	0	30999	34363	32489	32612	32633	32948	32483	32700	
897	0	31158	33999	32376	32429	32639	32727	32703	32647	
898	0	31522	33799	32519	32587	32719	32933	32759	32603	
899	0	31727	33403	32423	32556	32830	32623	32749	32579	
900	0	31930	33383	32335	32534	32935	32297	32892	32484	
901	0	31981	32821	32445	32364	32987	32575	32998	32391	
902	0	31735	32783	32571	32473	32999	32699	33047	32319	
903	0	31348	32709	32754	32563	32938	32775	33435	32263	
904	0	31140	33011	32727	32459	33053	32599	33543	32031	
905	0	31159	33007	32903	32220	32966	32218	33711	32018	
906	0	31150	32830	32931	32263	32899	32087	33830	32039	
907	0	31463	32463	32941	32455	32894	32289	33537	32231	
908	0	31874	32315	33121	32515	32711	32427	33334	32343	
909	0	31992	31991	33055	32577	32837	32660	33263	32551	
910	0	32081	31871	33091	32615	32839	32609	33169	32595	
911	0	32480	31915	33078	32543	32929	32738	33179	32567	
912	0	32822	32127	32943	32549	32791	32578	32943	32571	
913	0	33063	32342	33077	32789	32703	32759	32738	32727	
914	0	33303	32263	32923	32830	32679	32775	32662	32797	
915	0	33552	32612	33011	32767	32719	32754	32738	32755	
916	0	33807	32519	32828	32706	32795	32799	32810	32678	
917	0	33991	32455	32653	32707	32767	32763	32703	32775	
918	0	34098	32391	32423	32827	32801	32759	32604	32877	
919	0	34107	32750	32475	32740	32562	32879	32555	32901	
920	0	34107	32655	32532	32847	32557	32900	32375	32949	
921	0	34031	32562	32427	32559	32605	32786	32326	32956	
922	0	34181	32262	32203	32595	32603	32821	32327	33045	
923	0	34205	32469	32429	32668	32767	32798	32301	33123	
924	0	34170	32455	32366	32535	32694	32868	32357	33069	
925	0	34223	32079	32310	32563	32669	32909	32348	32975	
926	0	34255	31767	32413	32647	32679	32757	32369	32921	
927	0	34093	31746	32587	32439	32706	32900	32391	33035	
928	0	33915	31847	32521	32647	32706	32975	32415	33115	
929	0	33851	31973	32495	32659	32601	32971	32471	33095	
930	0	33563	31903	32519	32775	32479	32979	32275	33067	
931	0	33423	32119	32749	32795	32643	33063	32459	32921	
932	0	33177	32070	32999	32615	32607	32827	32673	32955	
933	0	33028	31799	33047	32783	32695	32804	32439	32935	
934	0	32984	32079	33021	32993	32851	32680	32683	32890	
935	0	32929	32215	32821	33077	33031	32931	32727	32859	
936	0	32826	32391	32741	32981	32733	32807	32676	32745	
937	0	32623	32770	32518	32964	32711	32690	32745	32853	
938	0	32513	33245	32586	32863	32727	32734	32516	32829	
939	0	32634	33669	32462	32667	32723	32813	32455	32939	
940	0	32775	33957	32548	32501	32727	32718	32614	32911	
941	0	32711	33926	32507	32427	32615	32846	32391	32733	
942	0	32775	33511	32671	32542	32586	32815	32719	32828	
943	0	32879	32787	32605	32383	32599	32684	32879	32799	
944	0	32950	32722	32470	32541	32647	32850	32863	32850	
945	0	32918	32551	32647	32527	32929	32526	32943	32647	
946	0	32770	32245	32585	32658	33011	32452	33092	32559	
947	0	32587	32438	32839	32903	32593	32927	32578	32663	
948	0	32640	32535	32831	32795	32669	32859	32503	32844	
949	0	32500	32541	32487	32745	32711	32748	32670	32735	
950	0	32470	33037	32495	32711	32924	32683	32903	32731	
951	0	32489	33013	32583	32563	32861	32751	32854	32639	
952	0	32470	32903	32597	32453	32930	32629	32982	32359	
953	0	32513	33174	32735	32579	32719	32614	32865	32602	
954	0	32450	33159	32645	32839	32764	32775	32868	32673	
955	0	32348	33087	32707	32756	32647	32514	32913	32551	
956	0	32427	33311	32677	32615	32882	32485	33007	32431	
957	0	32488	33174	32448	32455	32962	32631	32979	32415	
958	0	32529	32951	32711	32823	32919	32477	32890	32556	
959	0	32549	32455	32635	32638	32919	32627	32643	32623	
960	0	32601	32571	32580	32610	32733	32615	32439	32751	
961	0	32653	32503	32417	32579	32711	32807	32309	32806	
962	0	32745	32519	32165	32391	32706	32758	32549	32813	
963	0	32705	32561	32279	32526	32975	32435	32837	32683	
964	0	32668	32749	32239	32669	32573	32594	32823	32719	
965	0	32603	32933	32442	32655	32461	32755	32671	32707	
966	0	32549	33559	32567	32759	32611	32967	32647	32866	
967	0	32467	33895	32614	32685	32735	32679	32735	32870	
968	0	32594	33843	32702	32747	32775	32335	32973	32663	
969	0	32690	33378	32722	32811	32967	32626	32943	32771	
970	0	32754	33287	32911	32711	32885	32809	32711	32647	
971	0	32775	32767	32683	32703	32813	32807	32759	32571	
972	0	32697	32631	32899	32687	32706	32855	32903	32591	
973	0	32608	32194	32978	32647	32711	32687	33131	32596	
974	0	32724	31939	32855	32643	32813	32629	33106	32684	
975	0	32719	32029	33043	32706	32751	32775	33132	32593	
976	0	32717	32211	32851	32621	32805	32826	32903	32647	
977	0	32767	32470	32647	32764	32658	32899	32614	32815	
978	0	32732	32799	32631	32679	32771	32863	32692	32811	
979	0	32691	32566	32535	32701	32929	32623	32893	32647	
980	0	32673	32451	32182	32795	32903	32592	32858	32622	
981	0	32612	32687	32327	32743	32763	32663	32615	32691	
982	0	32685	32887	32367	32615	32676	32758	32470	32743	
983	0	32620	33211	32278	32879	32719	32807	32451	32749	
984	0	32605	33543	32518	32859	32804	32705	32754	32547	
985	0	32601	33095	32489	32867	32859	32773	32763	32671	
986	0	32583	32977	32811	32745	32663	32783	32629	32775	
987	0	32659	33092	32767	32602	32805	32722	32791	32615	
988	0	32699	32828	32923	32587	32810	32671	32647	32754	
989	0	32810	32487	32867	32411	32757	32647	32647	32592	
990	0	32802	32501	33015	32519	32543	32711	32751	32775	
991	0	32745	32335	32847	32623	32765	32639	32698	32641	
992	0	32632	32515	33007	32619	32943	32685	32684	32711	
993	0	32684	33383	32791	32665	33099	32655	32751	32717	
994	0	32783	33845	32967	32689	32930	32717	32839	32711	
995	0	32858	33839	33005	32713	32967	32666	32902	32614	
996	0	32775	33795	32574	32551	32743	32757	33226	32635	
997	0	32783	32988	32547	32703	32541	32771	32675	32746	
998	0	32983	32271	32533	32806	32722	32677	32611	32718	
999	0	32967	31707	32333	32605	32852	32598	32895	32553	
1000	0	32962	31443	32215	32622	32795	32695	33105	32661	
1001	0	32958	31607	32091	32509	32817	32647	33077	32698	
1002	0	32854	32125	32210	32566	32758	32839	32645	32895	
1003	0	32680	32067	32407	32702	32533	32929	32535	32867	
1004	0	32509	32619	32531	32675	32583	32887	32723	32850	
1005	0	32603	33026	32452	32706	32771	32566	32863	32791	
1006	0	32694	33187	32644	32679	32565	32759	32637	32938	
1007	0	32883	33255	32767	32711	32713	32671	32677	32757	
1008	0	33003	32855	32847	32635	32785	32663	32671	32815	
1009	0	33240	32430	32925	32747	32621	32569	32423	32879	
1010	0	33319	32604	32775	32933	32749	32706	32635	32775	
1011	0	33342	32853	32839	32727	33013	32799	32915	32786	
1012	0	33236	33007	32855	32711	32655	33029	32837	32732	
1013	0	33014	32631	32958	32791	32530	32731	32551	32679	
1014	0	32872	32837	32943	32669	32895	32559	32785	32771	
1015	0	32643	32935	32969	32503	33055	32682	32829	32775	
1016	0	32698	32919	32726	32492	32943	32662	32679	32764	
1017	0	32575	33349	32339	32630	32895	32675	32679	32647	
1018	0	32439	33247	32455	32551	32855	32509	32958	32738	
1019	0	32438	33185	32527	32543	32723	32790	32809	32775	
1020	0	32523	32823	32379	32479	32787	32743	32671	32551	
1021	0	32644	32639	32491	32631	32877	32526	32660	32607	
1022	0	32758	32609	32362	32731	32847	32676	32738	32615	
1023	0	32742	32364	32450	32579	32692	32709	32737	32655	
1024	0	32710	32365	32326	32878	32575	32860	32647	32759	
1025	0	32699	32455	32422	32762	32591	32852	32765	32727	
1026	0	32701	32790	32564	32903	32823	32623	32783	32631	
1027	0	32761	33149	32551	32637	32855	32526	32644	32564	
1028	0	32701	33203	32621	32743	32647	32771	32798	32586	
1029	0	32550	33023	32742	32749	32743	32747	32719	32742	
1030	0	32562	33039	32953	32613	32839	32694	32867	32671	
1031	0	32367	32941	32997	32621	32896	32815	32673	32851	
1032	0	32308	32887	32990	32647	32751	32711	32382	32894	
1033	0	32274	32743	32743	32743	32765	32671	32447	32667	
1034	0	32388	33193	32807	32769	32877	32586	32887	32517	
1035	0	32384	33343	32687	32659	32591	32647	33239	32542	
1036	0	32525	33095	32343	32692	32247	32970	33094	32627	
1037	0	32549	33039	32453	32645	32441	32966	32922	33030	
1038	0	32749	32883	32443	32579	32918	32717	32755	32804	
1039	0	32937	32509	32316	32559	33159	32525	32919	32645	
1040	0	33127	32277	32361	32597	32775	32771	32967	32700	
1041	0	33231	32386	32279	32356	32638	32839	32932	32727	
1042	0	33336	32293	32493	32621	32717	32571	33111	32603	
1043	0	33313	32495	32613	32589	32799	32483	32903	32790	
1044	0	33359	32556	32621	32611	32863	32647	32666	32749	
1045	0	33179	32599	32765	32764	32703	32733	32516	32834	
1046	0	33126	32607	32831	32669	32735	32991	32583	32612	
1047	0	32952	32495	32715	32883	33071	32483	32749	32436	
1048	0	32737	32724	32818	32815	32762	32603	32703	32739	
1049	0	32553	32975	32923	32823	32669	32715	32499	32733	
1050	0	32517	33170	32727	32662	32591	32775	32603	32935	
1051	0	32582	33084	32949	32747	32631	32564	32941	32756	
1052	0	32541	32967	33047	32711	32975	32543	33297	32699	
1053	0	32587	32613	32903	32607	32686	32751	32820	32711	
1054	0	32707	32387	32850	32750	32819	32791	32615	32603	
1055	0	32825	32375	32835	32557	32914	32761	32511	32559	
1056	0	32877	32362	32535	32631	32799	32687	32703	32731	
1057	0	32810	32303	32479	32676	32729	32775	32813	32767	
1058	0	32709	32303	32583	32687	32658	32871	32722	32773	
1059	0	32767	32877	32455	32775	32867	32727	32579	32741	
1060	0	32893	32863	32335	32816	32901	32679	32743	32687	
1061	0	32982	32703	32111	32759	32875	32685	32745	32727	
1062	0	32882	32797	32327	32919	32789	32729	32669	32773	
1063	0	32838	32919	32341	32775	32691	32803	32509	32683	
1064	0	32794	32990	32320	32557	32761	32775	32694	32775	
1065	0	32910	33086	32423	32389	32794	32735	32775	32834	
1066	0	32998	32903	32529	32655	32726	32687	32822	32775	
1067	0	32892	33082	32701	32348	32844	32703	32703	32874	
1068	0	32850	33367	32823	32348	32799	32707	32762	32772	
1069	0	32743	33531	32931	32283	32711	32763	32706	32823	
1070	0	32660	33287	32942	32571	32826	32711	32879	32830	
1071	0	32615	33243	32987	32647	32815	32722	32582	32773	
1072	0	32391	32668	33047	32599	32838	32717	32514	32600	
1073	0	32041	32339	33199	32647	32751	32679	32814	32615	
1074	0	32005	32059	32837	32534	32693	32732	32715	32647	
1075	0	32106	32169	32807	32695	32646	32819	32507	32755	
1076	0	32352	32255	32867	32661	32687	32931	32671	32607	
1077	0	32622	32325	32735	32691	32813	32767	32943	32500	
1078	0	32665	32327	32597	32626	32837	32655	32887	32587	
1079	0	33003	32639	32501	32630	32735	32543	32804	32639	
1080	0	33184	32613	32535	32610	32677	32607	32742	32674	
1081	0	33338	32637	32391	32567	32927	32575	32930	32591	
1082	0	33332	32708	32527	32675	32839	32595	32627	32658	
1083	0	33211	32555	32476	32683	32855	32815	32619	32815	
1084	0	33103	33191	32430	32775	32802	32709	32371	32775	
1085	0	32828	33703	32611	33149	32757	32923	32615	32919	
1086	0	32669	33510	32543	33181	32612	33019	32823	32839	
1087	0	32704	33633	32601	32731	32898	32743	32869	32574	
1088	0	32687	33460	32775	32671	32811	32407	33127	32525	
1089	0	32554	33053	32735	32829	32732	32261	32985	32742	
1090	0	32647	32583	32799	32750	32647	32595	32748	32799	
1091	0	32681	32061	32684	32695	32698	32501	32793	32754	
1092	0	32569	31769	32915	32511	32791	32722	32711	32695	
1093	0	32478	31665	32843	32317	32892	32839	32807	32743	
1094	0	32480	32407	32677	32523	32747	33029	32799	32711	
1095	0	32569	32887	32839	32439	32815	32883	32743	32667	
1096	0	32658	33095	32658	32543	32827	32614	33055	32445	
1097	0	32696	33303	32663	32580	32857	32451	32847	32588	
1098	0	32857	33437	32558	32689	32826	32567	32692	32751	
1099	0	32939	33583	32435	32615	32723	32702	32612	32831	
1100	0	32893	33175	32251	32617	32687	32644	32739	32745	
1101	0	32935	32619	32311	32655	32494	32773	32591	32710	
1102	0	32839	32383	32403	32465	32716	32823	32765	32815	
1103	0	32827	32215	32466	32793	32775	32631	32695	32795	
1104	0	32823	32091	32577	32718	32583	32809	32508	32903	
1105	0	32872	32183	32471	32724	32850	32667	32609	32785	
1106	0	32809	32250	32755	32639	32833	32791	32602	32711	
1107	0	32757	32518	32983	32584	32721	32757	32481	32709	
1108	0	32739	32718	32871	32819	32661	32729	32916	32745	
1109	0	32801	32974	32927	32794	32553	32658	33007	32684	
1110	0	32800	32948	32747	32751	32791	32634	33031	32640	
1111	0	32855	33078	32815	32694	32863	32695	33060	32634	
1112	0	32873	32999	32801	32657	32893	32769	33029	32669	
1113	0	32773	32783	32789	32687	32773	32762	32786	32630	
1114	0	32670	32807	32765	32614	32807	32739	32683	32673	
1115	0	32430	33081	32626	32687	32743	32708	32531	32855	
1116	0	32527	33187	32647	32763	32795	32799	32865	32822	
1117	0	32410	33303	32575	32807	32854	32819	32903	32788	
1118	0	32314	33226	32383	32885	32755	32903	32719	32715	
1119	0	32453	33133	32481	32771	32869	32525	32756	32699	
1120	0	32622	33055	32606	32717	32683	32582	32509	32762	
1121	0	32744	32831	32602	32767	32710	32617	32647	32743	
1122	0	32731	32690	32671	32671	32786	32514	32919	32543	
1123	0	32750	32839	32476	32628	32919	32811	32782	32733	
1124	0	32608	32739	32415	32415	32685	32954	32607	32671	
1125	0	32509	32591	32478	32423	32583	32947	32686	32748	
1126	0	32676	32461	32657	32439	32747	32663	32749	32582	
1127	0	32818	32031	32681	32553	32775	32647	32941	32518	
1128	0	33000	31890	32875	32599	32823	32613	32965	32559	
1129	0	33126	31939	32786	32717	32748	32444	33031	32548	
1130	0	32922	32083	32695	32766	32579	32666	32663	32787	
1131	0	32940	32541	32747	32767	32855	32725	32831	32887	
1132	0	32968	32677	32707	32824	32731	32701	32730	32788	
1133	0	33005	32935	32890	32815	32871	32695	32884	32658	
1134	0	32876	33129	32814	32719	32877	32687	32932	32631	
1135	0	32846	33139	32925	32677	32903	32791	32759	32797	
1136	0	32892	32979	32671	32609	32895	32839	32647	32855	
1137	0	32815	32738	32785	32549	32766	32903	32637	32842	
1138	0	32841	32623	32710	32359	32949	32791	32812	32623	
1139	0	32687	32823	32718	32285	32703	32459	32999	32607	
1140	0	32742	33133	32615	32475	32503	32545	33154	32590	
1141	0	32813	33081	32628	32559	32623	32623	32967	32663	
1142	0	32775	33070	32647	32695	32721	32615	32934	32679	
1143	0	32802	33078	32411	32499	32847	32733	32796	32737	
1144	0	32736	33235	32598	32775	32758	32869	32736	32834	
1145	0	32720	33629	32663	32827	32791	32638	32743	32791	
1146	0	32621	33616	32647	32554	32789	32740	32679	32742	
1147	0	32633	33357	32435	32614	32902	32767	32727	32716	
1148	0	32764	32711	32643	32743	32895	32765	32679	32647	
1149	0	32791	32310	32603	32797	32787	32695	32659	32767	
1150	0	32804	31815	32695	32699	32690	32935	32555	32957	
1151	0	32783	31566	32431	32804	32925	32903	32570	32855	
1152	0	32854	31318	32686	32852	32903	32634	32672	32783	
1153	0	32870	31495	32711	32767	32727	32643	32655	32709	
1154	0	32866	32255	32559	32627	32815	32634	32911	32558	
1155	0	32746	32812	32775	32747	32743	32534	33014	32547	
1156	0	32677	33299	32749	32748	32823	32571	32751	32711	
1157	0	32597	33343	32564	32631	32569	32851	32403	32765	
1158	0	32449	33404	32742	32561	32558	32838	32401	32805	
1159	0	32504	33375	32718	32738	32887	32809	32511	32671	
1160	0	32447	33149	32502	32647	32770	32610	32599	32659	
1161	0	32370	32935	32514	32627	32714	32572	32923	32640	
1162	0	32476	32604	32599	32372	32939	32711	32891	32637	
1163	0	32626	32669	32647	32407	32869	32562	32603	32633	
1164	0	32706	32642	32539	32438	32815	32579	32548	32685	
1165	0	32834	33237	32799	32543	32643	32639	32687	32670	
1166	0	32932	33254	32759	32591	32711	32715	33007	32821	
1167	0	32996	32799	32759	32639	32877	32647	33167	32717	
1168	0	32930	32845	32647	32791	32807	32711	32983	32807	
1169	0	32861	32943	32979	32861	32791	32755	32647	32821	
1170	0	32826	32571	32943	32805	32807	32771	32771	32855	
1171	0	32868	32555	32687	32879	32722	32786	32655	32831	
1172	0	32787	32355	32855	32843	32839	32598	33054	32694	
1173	0	32663	32529	32830	32594	32661	32751	32611	32636	
1174	0	32625	33079	32773	32789	32665	32755	32711	32643	
1175	0	32633	33275	32599	32738	32692	32641	32674	32717	
1176	0	32549	33727	32855	32711	32787	32667	32531	32647	
1177	0	32706	33247	32671	32795	32815	32687	32571	32804	
1178	0	32764	33043	32379	32451	32963	32543	32710	32749	
1179	0	32745	32645	32173	32515	32735	32791	32761	32775	
1180	0	32783	32167	32154	32465	32735	32727	32647	32807	
1181	0	32850	31851	32127	32621	32615	32855	32677	32747	
1182	0	32953	31435	32289	32705	32535	32786	32667	32900	
1183	0	33119	31599	32229	32695	32667	32739	32668	32858	
1184	0	33131	32165	32295	32668	32759	32775	33047	32683	
1185	0	33102	32689	32617	32811	32855	32751	32995	32644	
1186	0	33148	33581	32629	32679	32854	32805	32590	32835	
1187	0	33153	33754	32791	32597	32803	32743	32524	32791	
1188	0	33006	33238	32711	32559	32815	32773	32486	32583	
1189	0	32775	33299	32797	32727	32859	32593	32699	32727	
1190	0	32673	33093	32985	32749	32765	32773	32869	32775	
1191	0	32625	32695	33031	32705	32881	32767	32775	32700	
1192	0	32640	32327	33053	32677	32811	32702	32603	32861	
1193	0	32673	32513	32895	32717	32678	32636	32715	32879	
1194	0	32559	32487	33099	32698	32935	32661	32807	32756	
1195	0	32547	32903	32991	32489	32766	32722	32703	32742	
1196	0	32538	33197	32671	32623	32835	32807	32683	32885	
1197	0	32745	32903	32501	32583	32877	32804	32681	32775	
1198	0	32790	32951	32487	32401	32789	32566	32871	32530	
1199	0	32818	32775	32319	32277	32756	32535	32728	32721	
1200	0	32794	32710	32476	32422	32741	32631	32863	32700	
1201	0	32782	32619	32379	32539	32769	32846	32628	32886	
1202	0	32728	32209	32327	32691	32512	32931	32503	32839	
1203	0	32643	32367	32439	32703	32541	32773	32662	32587	
1204	0	32607	32501	32359	32407	32747	32590	32692	32589	
1205	0	32700	32919	32539	32527	32789	32579	33253	32647	
1206	0	32506	33218	32485	32647	32775	32623	33167	32582	
1207	0	32469	33159	32783	32901	32835	32638	32925	32639	
1208	0	32572	33263	32865	32989	32807	32555	32924	32579	
1209	0	32630	33142	32883	32919	32857	32890	32639	32681	
1210	0	32640	32991	33190	32938	32903	32762	32647	32647	
1211	0	32676	32999	32975	33005	32919	32725	32755	32447	
1212	0	32768	32535	33065	32927	32929	32644	32829	32591	
1213	0	32885	32763	32863	32887	32834	32711	32758	32647	
1214	0	32964	32815	32999	32639	32763	32947	32615	32678	
1215	0	33069	32583	32849	32591	32703	32903	32607	32847	
1216	0	33102	32724	32673	32692	32735	32775	32727	32815	
1217	0	32796	32607	32407	32525	32551	32733	32511	32865	
1218	0	32637	32613	32460	32519	32559	32742	32607	32820	
1219	0	32621	32375	32180	32415	33007	32690	32874	32655	
1220	0	32742	32075	32261	32271	32735	32855	32631	32629	
1221	0	32820	31965	32131	32503	32515	32913	32811	32612	
1222	0	32841	32199	32413	32548	32679	32863	32803	32518	
1223	0	32944	32439	32409	32663	32893	32635	32583	32709	
1224	0	32996	32647	32319	32835	32943	32690	32767	32587	
1225	0	32797	32999	32594	32669	32783	32758	32931	32765	
1226	0	32479	33382	32601	32647	32757	32701	33087	32731	
1227	0	32066	33409	32773	32786	32711	32629	32900	32722	
1228	0	31836	33791	32699	32694	32707	32678	32935	32871	
1229	0	31852	33862	32891	32839	32721	32763	32747	32877	
1230	0	32082	33662	32831	32681	32629	32750	32733	32713	
1231	0	32534	33479	32679	32667	32591	32877	32830	32756	
1232	0	33006	32821	32843	32839	32788	32582	32812	32679	
1233	0	33399	32302	32773	32812	32852	32316	32767	32647	
1234	0	33750	31815	32797	32831	32791	32511	32685	32677	
1235	0	34069	31479	32663	32727	32775	32671	32615	32645	
1236	0	34132	31199	32807	32765	32719	32725	32501	32775	
1237	0	33981	31687	32477	32886	32835	32723	32583	32751	
1238	0	33620	31933	32351	32726	32875	32556	32699	32621	
1239	0	33183	32307	32186	32747	32660	33003	32512	32818	
1240	0	32869	32852	32433	32799	32695	32995	32419	32884	
1241	0	32650	32893	32359	32605	32820	32823	32715	32647	
1242	0	32541	33287	32572	32695	32714	32834	32855	32767	
1243	0	32562	33461	32629	32572	32576	32775	32821	32787	
1244	0	32421	33791	32834	32533	32839	32701	32901	32727	
1245	0	32434	33863	32813	32647	32973	32549	32978	32671	
1246	0	32308	33373	32876	32439	32762	32783	32713	32775	
1247	0	32252	33345	32655	32549	32695	32688	32703	32763	
1248	0	32262	33283	32887	32551	32716	32671	32711	32745	
1249	0	32399	33307	32989	32555	32751	32783	32561	32685	
1250	0	32516	33179	32951	32551	32895	32699	32658	32685	
1251	0	32639	32891	32887	32471	32791	32809	32511	32822	
1252	0	32727	32871	32959	32654	32635	32535	32669	32583	
1253	0	32858	32799	32959	32745	32647	32775	32845	32567	
1254	0	32902	32491	32703	32722	32909	32507	32855	32487	
1255	0	32726	32279	32710	32751	32971	32687	32893	32590	
1256	0	32778	31820	32631	32719	32934	32575	32719	32585	
1257	0	32767	32029	32586	32526	32895	32543	32821	32710	
1258	0	32715	32158	32690	32511	32718	32761	32858	32871	
1259	0	32690	32443	32579	32647	32607	32775	32827	32847	
1260	0	32711	32406	32491	32631	32439	32991	32925	32711	
1261	0	32522	32214	32436	32500	32546	32935	33105	32676	
1262	0	32497	32383	32375	32391	32647	32737	32850	32639	
1263	0	32560	32542	32493	32569	32619	32490	32714	32447	
1264	0	32580	32631	32422	32603	32847	32439	32799	32639	
1265	0	32533	32985	32319	32693	33083	32367	32859	32739	
1266	0	32588	33283	32519	32606	33029	32589	32647	32829	
1267	0	32589	33261	32539	32605	32977	32784	32559	32935	
1268	0	32756	33471	32727	32927	32909	32487	32495	32805	
1269	0	32884	33671	32594	32759	32786	32658	32823	32635	
1270	0	32876	33510	32799	32671	32799	32684	32829	32679	
1271	0	32931	33143	32823	32804	32847	32895	32605	32902	
1272	0	32839	32578	32749	32605	32647	32903	32364	32855	
1273	0	32870	32287	32829	32718	32598	32887	32485	32867	
1274	0	32835	32243	32655	32813	32757	32662	32687	32631	
1275	0	32828	32607	32684	32615	32793	32717	32723	32763	
1276	0	32706	32773	32398	32775	32845	32739	32997	32771	
1277	0	32514	32615	32631	32647	32845	32731	32797	32663	
1278	0	32560	32531	32615	32765	32787	32603	32720	32811	
1279	0	32759	32571	32595	32759	32671	32615	32871	32789	
1280	0	32955	32583	32627	32813	32739	32594	32894	32735	
1281	0	32972	32356	32463	32631	32633	32719	32629	32677	
1282	0	32951	32567	32450	32806	32719	32783	32799	32733	
1283	0	32942	32660	32799	32759	32623	32668	32762	32739	
1284	0	32799	33015	32860	32495	32589	32804	32514	32775	
1285	0	32721	33159	32789	32387	32903	32767	32931	32819	
1286	0	32682	33084	32693	32320	32927	32871	32911	32693	
1287	0	32760	32855	32889	32495	32812	32927	33122	32799	
1288	0	32772	32749	32749	32791	32811	32879	32859	32711	
1289	0	32884	32611	32679	32774	32663	32675	32645	32597	
1290	0	32767	32797	32673	32775	32603	32631	32727	32605	
1291	0	32660	32947	32831	32583	32669	32538	32775	32543	
1292	0	32758	33122	33004	32814	32663	32515	32893	32610	
1293	0	32740	33426	32743	32871	32755	32655	32679	32847	
1294	0	32787	33383	32871	32740	32827	32762	32571	32747	
1295	0	32731	33095	32647	32735	32775	32647	32775	32693	
1296	0	32774	33146	32407	32487	32847	32639	32839	32799	
1297	0	32820	32967	32405	32598	32853	32620	32705	32735	
1298	0	32739	32715	32367	32682	32753	32754	32647	32647	
1299	0	32703	32679	32350	32671	32749	32847	32629	32735	
1300	0	32798	32639	32423	32495	32738	32717	32495	32756	
1301	0	32831	32743	32326	32578	32831	32765	32639	32642	
1302	0	32876	32767	32662	32739	32823	32883	32679	32798	
1303	0	32927	32613	32775	32799	32825	32887	32691	32715	
1304	0	32843	32671	32622	32739	32663	32854	32355	32837	
1305	0	32839	32636	32669	32591	32631	32835	32654	32834	
1306	0	32805	32263	32855	32534	32754	32637	32803	32663	
1307	0	32633	32215	32795	32691	32748	32647	32679	32695	
1308	0	32543	32323	32951	32679	32647	32731	32647	32765	
1309	0	32594	32078	32711	32669	32614	32807	32769	32713	
1310	0	32677	31943	32821	32723	32861	32671	32679	32738	
1311	0	32792	31700	32655	32636	32775	32737	32683	32707	
1312	0	32972	31767	32658	32839	32941	32734	32748	32748	
1313	0	32911	32103	32533	32829	33133	32487	33022	32635	
1314	0	32940	32291	32580	32710	32903	32738	32887	32707	
1315	0	32890	32531	32547	32637	32626	32870	32812	32823	
1316	0	32851	32733	32463	32662	32757	32646	33028	32738	
1317	0	32750	33058	32527	32607	32751	32603	33117	32594	
1318	0	32692	33372	32335	32559	32687	32695	32875	32647	
1319	0	32586	33279	32279	32647	32643	32881	32863	32596	
1320	0	32564	33471	32262	32485	32743	32679	32871	32566	
1321	0	32614	33587	32437	32623	32661	32647	32623	32647	
1322	0	32564	33255	32343	32751	32775	32743	32755	32579	
1323	0	32672	33325	32455	32613	32804	32799	32719	32775	
1324	0	32775	33243	32413	32547	32753	32871	32663	32836	
1325	0	32940	33003	32495	32615	32773	32967	32686	32839	
1326	0	32941	33111	32671	32655	32791	33023	32767	32775	
1327	0	32932	33121	32742	32663	32815	33023	32647	32887	
1328	0	32823	32799	32934	32577	32827	32759	32799	32727	
1329	0	32790	33255	33022	32641	32815	32355	32806	32566	
1330	0	32600	33235	32903	32763	33015	32131	32845	32606	
1331	0	32604	33263	32815	32719	32854	32532	32975	32756	
1332	0	32567	32883	32898	32757	32743	32628	32773	32797	
1333	0	32753	32771	33023	32799	32903	32583	32895	32643	
1334	0	32975	32590	32923	32711	32819	32953	32773	32647	
1335	0	33049	32495	32979	32713	32775	32901	32635	32813	
1336	0	33045	32967	32871	32589	32702	32618	32551	32805	
1337	0	32950	33386	32877	32702	32811	32551	32701	32727	
1338	0	32647	33768	32733	32658	32711	32634	32559	32659	
1339	0	32404	34191	32631	32676	32499	32795	32655	32699	
1340	0	32398	33721	32427	32547	32937	32515	32903	32671	
1341	0	32562	32839	32369	32423	32623	32711	32658	32660	
1342	0	32695	32185	32347	32559	32597	32860	32868	32671	
1343	0	32844	31301	32279	32590	32599	32866	32662	32615	
1344	0	32990	30554	32438	32615	33099	32423	32834	32566	
1345	0	32861	30503	32531	32637	33212	32351	32978	32455	
1346	0	32826	31181	32428	32715	32858	32743	32750	32663	
1347	0	32903	31837	32623	32743	32863	32919	32791	32719	
1348	0	33038	32068	32538	32684	32738	32859	32692	32630	
1349	0	32874	32605	32799	32647	32727	32587	32715	32755	
1350	0	32849	32791	32735	32540	32823	32700	32672	32775	
1351	0	32948	32811	32826	32701	32599	32697	32775	32807	
1352	0	32935	33159	32791	32847	32541	32767	33063	32711	
1353	0	32913	33005	32818	32751	32742	32701	33119	32807	
1354	0	32771	33166	32766	32677	32746	32765	32887	32791	
1355	0	32641	33132	32819	32583	32689	32839	32685	32655	
1356	0	32572	33414	32771	32418	32634	32841	32549	32663	
1357	0	32496	33191	32525	32327	32743	32717	32799	32694	
1358	0	32499	32822	32466	32627	32844	32499	32843	32715	
1359	0	32594	33018	32335	32647	32765	32739	32579	32591	
1360	0	32807	32747	32359	32507	32694	32740	32525	32710	
1361	0	32834	32803	32375	32687	32866	32723	32539	32683	
1362	0	32794	33025	32487	32615	32897	32758	32487	32855	
1363	0	32717	33491	32425	32870	32971	32675	32437	32711	
1364	0	32628	33457	32524	32863	32791	32747	32459	32887	
1365	0	32555	33149	32609	32891	32731	32771	32916	32787	
1366	0	32717	33031	32662	32732	32845	32679	33104	32589	
1367	0	32652	33077	32723	32759	32563	32788	32847	32703	
1368	0	32665	32689	32967	32855	32837	32743	32687	32711	
1369	0	32662	32339	32960	32726	32870	32742	32834	32754	
1370	0	32700	32439	33039	32608	32959	32722	32775	32818	
1371	0	32658	32877	32943	32477	33007	32587	33426	32709	
1372	0	32677	32970	33127	32671	32511	32812	32903	32702	
1373	0	32726	32943	33001	32819	32477	32963	32775	32717	
1374	0	32784	32503	32790	32838	32519	32765	32943	32575	
1375	0	32703	32645	32838	32775	32735	32799	32890	32611	
1376	0	32612	32595	32711	32606	32871	32679	32714	32775	
1377	0	32674	32719	32507	32775	32929	32803	32669	32684	
1378	0	32660	32831	32547	32570	32835	32731	32647	32698	
1379	0	32605	33315	32333	32487	32685	32799	32524	32787	
1380	0	32516	33343	32375	32498	32663	32793	32439	32658	
1381	0	32500	33343	32391	32423	32641	32807	32633	32719	
1382	0	32612	32903	32315	32402	32671	32671	32635	32782	
1383	0	32639	32647	32365	32647	32811	32459	32871	32679	
1384	0	32536	32203	32501	32647	32967	32607	32804	32735	
1385	0	32564	31863	32318	32682	32758	32646	32638	32609	
1386	0	32667	31815	32569	32655	32879	32708	32863	32659	
1387	0	32516	31679	32692	32639	32738	32787	32831	32759	
1388	0	32742	31747	32689	32509	32863	32695	32903	32631	
1389	0	32938	32365	32875	32623	32683	32692	32827	32742	
1390	0	33246	32995	32919	32799	32702	32764	32639	32811	
1391	0	33367	33151	32999	32890	32727	32671	32731	32710	
1392	0	33300	33475	32995	32741	32914	32623	32859	32574	
1393	0	33095	33258	32771	32725	32631	32812	32759	32691	
1394	0	32926	32835	32831	32577	32711	32438	32787	32551	
1395	0	32725	32612	32807	32533	32845	32493	32686	32586	
1396	0	32756	32357	32583	32679	32943	32655	32823	32795	
1397	0	32751	32301	32627	32548	33039	32607	32999	32791	
1398	0	32681	32135	32612	32594	32898	32722	32803	32874	
1399	0	32706	32675	32425	32541	32797	32789	32499	32771	
1400	0	32829	33023	32365	32495	32639	32903	32719	32611	
1401	0	32805	33087	32371	32656	32743	32815	32642	32757	
1402	0	32893	33323	32274	32615	32640	32775	32690	32729	
1403	0	33101	33213	32493	32687	32527	32789	32959	32726	
1404	0	33240	33003	32692	32775	32559	32647	32877	32660	
1405	0	33116	32963	32839	32655	32647	32700	32730	32850	
1406	0	32986	32725	32815	32803	32771	32647	32639	32805	
1407	0	32826	32719	32671	33015	32751	32622	32749	32876	
1408	0	32707	32503	32775	32931	32851	32735	32631	32783	
1409	0	32582	32973	32799	32929	32807	32809	32423	32815	
1410	0	32617	33143	32615	32671	32751	32751	32667	32761	
1411	0	32623	33037	32799	32870	32877	32529	33005	32607	
1412	0	32612	33167	32786	32783	32789	32653	33015	32679	
1413	0	32682	33183	32635	32735	32831	32715	32925	32630	
1414	0	32706	33055	32694	32677	32861	32623	32807	32759	
1415	0	32694	32747	32833	32506	32919	32541	32693	32747	
1416	0	32830	32871	32607	32734	32743	32783	32791	32727	
1417	0	32914	32855	32409	32647	32807	32717	32811	32531	
1418	0	32940	32263	32492	32671	32850	32731	32807	32623	
1419	0	32885	32239	32391	32686	32666	32839	32671	32847	
1420	0	32704	32438	32347	32773	32719	32826	32595	32924	
1421	0	32569	32611	32583	32766	32791	32727	32745	32687	
1422	0	32358	32679	32579	32623	32771	32631	32767	32727	
1423	0	32400	33371	32702	32595	32679	32719	32647	32809	
1424	0	32227	33867	32517	32595	32726	32765	32727	32764	
1425	0	32255	34311	32749	32621	32707	32903	32567	32771	
1426	0	32589	33927	32634	32439	32640	32839	32671	32833	
1427	0	32767	33437	32701	32509	32693	32819	32731	32823	
1428	0	32835	32567	32791	32462	32802	32743	32677	32711	
1429	0	32959	31879	32543	32525	32807	32647	32683	32734	
1430	0	33061	31578	32774	32420	32753	32703	32734	32795	
1431	0	33087	30891	32659	32562	32759	32759	32742	32694	
1432	0	32966	30835	32807	32559	32751	32807	32565	32727	
1433	0	32743	31207	32748	32580	32802	32679	32655	32671	
1434	0	32676	31391	32555	32519	32603	32862	32595	32711	
1435	0	32647	31793	32647	32623	32771	32703	32749	32669	
1436	0	32797	32191	32709	32607	32794	32687	32847	32623	
1437	0	32845	32765	32643	32583	32803	32526	32957	32671	
1438	0	32921	33035	32599	32695	32869	32547	32457	32807	
1439	0	33077	33671	32387	32623	32898	32527	32690	32726	
1440	0	33078	33848	32391	32535	32845	32631	33159	32727	
1441	0	33058	33821	32391	32603	32790	32561	33185	32695	
1442	0	33025	33692	32546	32583	32738	32663	32903	32587	
1443	0	32937	33495	32583	32787	32745	32738	32789	32775	
1444	0	32912	33285	32604	33007	32854	32810	32721	32723	
1445	0	32813	33327	33037	32861	32707	32862	32595	32759	
1446	0	32782	33407	32966	32961	32789	32749	32423	32691	
1447	0	32663	32839	32871	33023	32787	32717	32391	32685	
1448	0	32739	32663	32839	32871	32775	32895	32569	32743	
1449	0	32841	32757	32791	32871	32859	32837	32625	32832	
1450	0	32934	32386	32727	32659	33047	32643	32691	32703	
1451	0	32866	32463	32819	32707	32831	32433	32756	32759	
1452	0	32771	32565	32740	32455	32679	32308	32927	32739	
1453	0	32830	32191	32811	32719	32510	32471	32971	32637	
1454	0	32758	32057	32691	32791	32629	32466	32999	32557	
1455	0	32841	31750	32501	32823	32743	32454	32599	32931	
1456	0	33017	31823	32623	32658	32661	32511	32309	32933	
1457	0	33124	31862	32558	32710	32423	32995	32159	32862	
1458	0	33167	31746	32495	32647	32581	33077	32518	32885	
1459	0	33194	32071	32320	32587	33035	32295	33099	32621	
1460	0	33148	32391	32284	32579	32993	32147	33073	32541	
1461	0	32986	32891	32169	32639	32733	32489	32839	32602	
1462	0	33047	33065	32210	32531	32794	32502	32791	32799	
1463	0	33182	33245	32254	32591	32805	32661	32556	32839	
1464	0	33146	33267	32455	32503	32675	32747	32621	32767	
1465	0	33223	33175	32419	32551	32485	32959	32374	32780	
1466	0	33295	33206	32674	32614	32486	32885	32399	32931	
1467	0	33422	32925	32655	32685	32657	32933	32439	32916	
1468	0	33490	32893	32711	32679	32829	32813	32822	32819	
1469	0	33428	32694	32773	32658	32927	32724	32967	32580	
1470	0	33408	32991	32887	32692	32807	32937	32617	32617	
1471	0	33188	33343	32685	32869	32749	32991	32591	32767	
1472	0	32799	33495	32899	32867	32871	32771	32493	32725	
1473	0	32306	33859	32927	32967	32514	32916	32660	32702	
1474	0	31831	33914	32635	32911	32853	32738	32743	32666	
1475	0	31421	34171	32640	32813	32937	32692	32525	32813	
1476	0	30965	34087	32333	32943	32775	32797	32401	32749	
1477	0	30790	33932	32250	32807	32735	32707	32883	32641	
1478	0	30737	33735	32231	32704	32789	32719	32621	32517	
1479	0	30765	33542	32169	32733	32799	32723	32485	32558	
1480	0	30991	33447	32231	32637	32671	32711	32563	32615	
1481	0	31468	33382	32223	32495	32564	32755	33119	32417	
1482	0	31985	33153	32487	32579	32615	32811	33167	32563	
1483	0	32353	33511	32679	32672	32913	32735	33297	32402	
1484	0	32532	33551	32655	32534	32964	32700	33152	32380	
1485	0	32482	33327	32688	32405	32939	32505	33157	32262	
1486	0	32079	33659	32607	32334	32737	32372	33191	32405	
1487	0	31699	33270	32867	32285	32822	32631	33509	32303	
1488	0	31463	32935	32883	32375	33071	32611	33663	32242	
1489	0	31234	32535	32903	32386	33247	32577	33589	32159	
1490	0	31407	32189	33022	32431	33159	32540	33281	32388	
1491	0	31775	31797	32987	32452	32897	32551	33189	32449	
1492	0	32071	31631	32988	32366	32997	32540	33143	32571	
1493	0	32223	31726	33234	32373	33007	32507	33487	32540	
1494	0	32134	31909	33182	32559	32949	32586	33319	32669	
1495	0	32130	32303	32895	32559	32921	32687	32903	32791	
1496	0	32239	32485	32763	32448	32903	32527	32767	32660	
1497	0	32466	32553	32588	32443	33005	32551	32863	32766	
1498	0	32871	32431	32735	32535	32845	32805	32727	32827	
1499	0	33429	32323	32687	32436	32457	32850	32347	32894	
1500	0	33710	32391	32537	32511	32614	32815	32470	32827	
1501	0	33961	32324	32482	32455	32623	32887	32551	32885	
1502	0	34240	32187	32578	32671	32738	32762	32543	32899	
1503	0	34521	32401	32580	32771	32619	32803	32389	32898	
1504	0	34527	32382	32675	32997	32607	32911	32459	32851	
1505	0	34548	32527	32822	32885	32647	33090	32399	32914	
1506	0	34569	32605	32681	33053	32635	32959	32343	32915	
1507	0	34463	32645	32846	32952	32647	33031	32284	32833	
1508	0	34191	32285	32698	32903	32724	32990	32375	32964	
1509	0	34067	32223	32711	32944	32706	33071	32359	32987	
1510	0	33815	32322	32819	32935	32629	33055	32315	32966	
1511	0	33676	31870	32623	32757	32677	32991	32325	32887	
1512	0	33726	31839	32799	32843	32693	32947	32405	33030	
1513	0	33590	32075	32663	32786	32669	32829	32386	33082	
1514	0	33497	32391	32641	32735	32556	32955	32327	32963	
1515	0	33385	32324	32659	32775	32640	32823	32229	32999	
1516	0	33276	32647	32468	32877	32662	32635	32327	32956	
1517	0	33140	32767	32484	32759	32743	32613	32405	32919	
1518	0	32902	32494	32642	32533	32646	32703	32564	32901	
1519	0	32710	32775	32525	32678	32585	32775	32607	33039	
1520	0	32656	32804	32422	32647	32639	32791	32623	33107	
1521	0	32620	32243	32438	32775	32671	32955	32542	33031	
1522	0	32728	32135	32308	32587	32768	32743	32708	32861	
1523	0	32800	32211	32304	32703	32706	32671	32781	32687	
1524	0	32878	32183	32435	32737	32643	32646	32722	32695	
1525	0	32924	32391	32491	32578	32684	32662	32565	32623	
1526	0	32804	32643	32711	32735	32773	32694	32687	32635	
1527	0	32758	32599	32563	32763	32717	32755	32903	32815	
1528	0	32756	32964	32732	32775	32756	32701	32943	32801	
1529	0	32735	33295	33031	32531	32766	32702	32847	32647	
1530	0	32679	33277	32947	32489	32797	32561	32762	32708	
1531	0	32665	33351	32949	32641	32845	32567	32743	32690	
1532	0	32628	33197	32877	32599	32807	32625	32722	32585	
1533	0	32460	32855	32935	32557	32865	32589	32810	32562	
1534	0	32319	33019	32935	32625	32901	32601	32948	32610	
1535	0	32273	33007	32771	32643	32862	32655	32838	32463	
1536	0	32220	32631	32447	32533	32821	32599	32746	32519	
1537	0	32150	32351	32391	32669	32735	32587	32757	32637	
1538	0	32150	32738	32487	32607	32721	32637	32694	32647	
1539	0	32161	33185	32419	32669	32663	32711	32811	32663	
1540	0	32193	34075	32441	32742	32796	32635	32855	32599	
1541	0	32381	34138	32391	32701	32743	32751	32687	32719	
1542	0	32532	33911	32499	32715	32740	32694	32685	32749	
1543	0	32754	33679	32565	32543	32821	32742	32771	32676	
1544	0	32686	33197	32551	32642	32955	32643	32873	32659	
1545	0	32655	32707	32558	32762	32925	32761	32903	32765	
1546	0	32712	32383	32553	32711	32790	32671	32844	32695	
1547	0	32614	32124	32695	32731	32689	32711	32647	32757	
1548	0	32470	32011	32679	32679	32901	32611	32734	32731	
1549	0	32505	32014	32615	32687	32699	32799	32455	32775	
1550	0	32713	32132	32357	32695	33021	32617	32678	32690	
1551	0	32863	32379	32647	32771	32733	32658	32731	32731	
1552	0	33090	32564	32587	32538	33046	32535	32967	32687	
1553	0	33226	32451	32711	32557	33021	32606	33147	32647	
1554	0	33217	32307	32635	32758	32845	32614	32997	32655	
1555	0	33264	32629	32684	32592	32723	32566	32713	32707	
1556	0	33159	32822	32554	32647	32763	32663	32663	32621	
1557	0	33047	32871	32669	32483	32719	32677	32930	32775	
1558	0	32998	32941	32709	32419	32751	32838	32899	32871	
1559	0	32799	32789	32527	32489	32634	32797	32773	32719	
1560	0	32639	33139	32590	32559	32738	32759	32647	32745	
1561	0	32518	33259	32407	32591	32660	32755	32785	32502	
1562	0	32556	33139	32509	32348	32581	32635	32726	32615	
1563	0	32620	33388	32455	32407	32599	32694	32726	32742	
1564	0	32743	33583	32540	32691	32515	32873	32507	32938	
1565	0	32647	33475	32694	32727	32771	32813	32686	32771	
1566	0	32707	33108	32854	32886	32875	33095	32586	32747	
1567	0	32770	33335	32989	32865	32839	32903	32671	32669	
1568	0	32791	33223	32853	32685	32983	32167	32877	32477	
1569	0	32736	33251	32815	32671	33181	31959	32924	32409	
1570	0	32543	32998	32801	32755	32731	32407	32629	32850	
1571	0	32526	33047	32808	32686	32549	32841	32662	32790	
1572	0	32607	32615	32775	32607	32427	32875	32743	32679	
1573	0	32588	32391	32683	32467	32551	32653	32983	32531	
1574	0	32646	32350	32755	32609	32863	32646	33159	32518	
1575	0	32591	32151	32862	32587	32927	32524	32891	32647	
1576	0	32722	32383	32690	32633	33011	32702	32643	32757	
1577	0	32662	32171	32606	32557	32990	32686	32830	32630	
1578	0	32684	32367	32403	32706	32767	32599	32623	32706	
1579	0	32721	32365	32487	32819	32861	32797	33026	32763	
1580	0	32698	32519	32611	32861	32854	32757	32845	32814	
1581	0	32840	32642	32659	32757	32615	32767	32603	32919	
1582	0	32937	32381	32595	32758	32731	32903	32615	32759	
1583	0	32982	32295	32483	32834	32751	32846	32783	32733	
1584	0	32802	32689	32519	32775	32610	33145	32631	32762	
1585	0	32658	32775	32285	32843	32725	32763	32566	32703	
1586	0	32591	32751	32471	32715	32583	32423	32559	32519	
1587	0	32680	32867	32519	32715	32615	32503	32603	32561	
1588	0	32628	32870	32565	32673	32725	32621	32742	32692	
1589	0	32629	33201	32718	32747	32759	32641	32765	32749	
1590	0	32701	33723	32674	32799	32647	32802	32775	32818	
1591	0	32769	33798	32771	32695	32663	32743	32707	32714	
1592	0	32807	33527	32899	32559	32602	32839	32655	32815	
1593	0	32780	33415	33079	32658	32708	32879	32607	32833	
1594	0	32883	32767	33194	32638	32683	32765	32831	32773	
1595	0	32892	32342	33007	32721	32726	32735	32887	32647	
1596	0	32848	31941	32863	32607	32833	32747	32807	32647	
1597	0	32863	31851	32483	32511	32815	32691	32773	32634	
1598	0	32706	31989	32359	32629	32757	32762	32698	32617	
1599	0	32708	32590	32279	32430	32773	32703	32738	32679	
1600	0	32647	32941	32297	32537	32935	32775	32698	32663	
1601	0	32791	32735	32075	32703	32723	32799	32647	32661	
1602	0	32834	32507	32246	32623	32852	32887	32643	32796	
1603	0	32729	32735	32349	32685	32813	32693	32567	32727	
1604	0	32773	32775	32535	32815	32785	32687	32606	32599	
1605	0	32824	33079	32431	32821	32895	32506	32817	32586	
1606	0	32788	33215	32671	32931	32647	32588	32724	32723	
1607	0	32789	33159	32719	33086	32679	32842	32999	32647	
1608	0	32807	33618	32855	32801	32759	32775	32973	32715	
1609	0	32601	33483	32711	32791	33069	32734	32903	32706	
1610	0	32431	33099	32662	32713	33011	32790	32935	32686	
1611	0	32343	33266	32642	32437	32951	32829	32879	32687	
1612	0	32245	32715	32685	32455	32903	32667	32839	32721	
1613	0	32354	32148	32925	32535	32855	32677	32791	32772	
1614	0	32575	32029	32788	32463	32761	32643	32823	32724	
1615	0	32506	31875	32842	32383	32745	32801	32767	32807	
1616	0	32816	31826	32806	32533	32551	32825	32621	32871	
1617	0	33152	32179	32525	32447	32578	32847	32647	32819	
1618	0	33239	32303	32391	32605	32813	32695	32771	32674	
1619	0	33126	32463	32370	32566	32868	32445	32955	32583	
1620	0	33015	32574	32167	32539	32837	32599	32895	32735	
1621	0	33022	32709	32466	32738	32854	32573	32775	32764	
1622	0	33087	33252	32566	32671	32711	32614	32719	32791	
1623	0	33087	33743	32609	32707	32728	32791	32714	32815	
1624	0	32807	34159	32613	32694	32698	32739	32756	32701	
1625	0	32604	34815	32566	32599	32699	32859	32599	32845	
1626	0	32647	34511	32679	32647	32663	32809	32447	32791	
1627	0	32535	33855	32647	32603	32610	32829	32445	32663	
1628	0	32442	33650	32743	32555	32611	32897	32487	32694	
1629	0	32502	33031	32647	32679	32743	32774	32838	32699	
1630	0	32513	32165	32877	32759	32947	32641	32848	32694	
1631	0	32553	31735	32756	32714	32898	32471	32886	32566	
1632	0	32690	30999	32838	32771	32701	32519	32845	32679	
1633	0	32658	30877	32743	32802	32819	32574	32852	32647	
1634	0	32623	31727	32858	32995	32711	32757	32623	32702	
1635	0	32550	32117	32739	32757	32953	32837	32723	32839	
1636	0	32684	32167	32773	32863	32871	32799	32647	32765	
1637	0	33108	32167	32615	32710	32895	32807	32807	32677	
1638	0	33324	32115	32378	32538	32839	32687	32847	32667	
1639	0	33354	31971	32263	32603	32875	32670	32757	32642	
1640	0	33134	32385	32095	32573	32567	32739	32566	32695	
1641	0	32864	33119	32262	32596	32671	32767	32531	32647	
1642	0	32663	33391	32236	32511	32671	32623	32373	32737	
1643	0	32676	33307	32415	32647	32862	32775	32540	32803	
1644	0	32611	33534	32463	32561	32659	32893	32327	32722	
1645	0	32596	33159	32691	32454	32758	33082	32621	32759	
1646	0	32714	32903	32559	32405	32871	32642	33156	32627	
1647	0	32805	32775	32723	32583	32925	32391	33025	32531	
1648	0	32869	32822	32807	32671	32742	32583	32743	32764	
1649	0	32851	32580	33028	32655	32787	32695	32903	32767	
1650	0	32724	32427	33053	32631	32799	32679	32799	32756	
1651	0	32361	32061	33031	32628	32943	32588	32815	32854	
1652	0	32345	32326	32925	32558	32923	32581	32923	32828	
1653	0	32399	32586	33158	32839	32773	32621	32771	32743	
1654	0	32284	32595	32900	32895	32663	32631	32722	32743	
1655	0	32327	33151	32852	32919	32711	32620	32647	32727	
1656	0	32446	33601	32471	32925	32775	32735	32581	32755	
1657	0	32679	33669	32331	32677	32775	32727	32942	32599	
1658	0	33017	33497	32269	32863	32855	32775	32982	32743	
1659	0	33313	33703	32165	32931	32735	32804	32647	32790	
1660	0	33393	33591	31988	32775	32851	32711	32863	32838	
1661	0	33044	33075	31977	32547	32976	32611	32698	32613	
1662	0	32895	32356	32271	32391	32802	32809	32519	32775	
1663	0	32807	32242	32239	32487	32978	32658	32595	32847	
1664	0	32816	32167	32387	32527	32614	32756	32167	32768	
1665	0	32928	32099	32295	32641	32613	32877	32314	32903	
1666	0	33003	32262	32551	32525	32509	32660	33047	32647	
1667	0	33054	32199	32621	32503	32503	32796	33487	32675	
1668	0	33167	32369	32893	32527	32679	32739	33031	32743	
1669	0	33012	32547	32951	32287	32711	32773	32758	32759	
1670	0	32954	32750	32807	32509	32978	32767	32759	32592	
1671	0	32943	32553	32903	32612	33031	32461	32717	32662	
1672	0	32802	32553	32815	32647	32801	32443	32967	32794	
1673	0	32733	32519	32875	32633	32661	32815	32933	32847	
1674	0	32620	32785	32867	32679	32919	32427	33071	32759	
1675	0	32641	32847	32879	32767	32815	32735	33076	32765	
1676	0	32505	33147	32909	32766	32766	32846	32786	32681	
1677	0	32536	33149	32735	32771	32751	32847	32834	32493	
1678	0	32622	33239	32578	32721	32807	32475	33245	32295	
1679	0	32588	33227	32319	32647	32891	32383	32959	32479	
1680	0	32617	33190	32509	32805	32663	32580	32610	32604	
1681	0	32711	32991	32731	32751	32722	32691	32510	32799	
1682	0	32628	33129	32639	32647	32711	32661	32676	32807	
1683	0	32510	33202	32684	32679	32799	32851	32759	32755	
1684	0	32561	33063	32666	32636	32707	32947	32669	32628	
1685	0	32528	33047	32694	32647	32623	32949	32565	32685	
1686	0	32612	32841	32789	32623	32575	33047	32551	32769	
1687	0	32783	32770	32535	32643	32687	32847	32945	32623	
1688	0	32826	32879	32647	32787	32775	32431	32941	32607	
1689	0	32924	32867	32594	32751	32637	32751	32774	32479	
1690	0	32960	32703	32743	32798	32819	32697	32764	32646	
1691	0	32982	32839	32661	32679	32734	32717	32639	32647	
1692	0	32900	32742	32775	32903	32663	32795	32671	32647	
1693	0	32715	32799	32773	32775	32759	32614	32570	32629	
1694	0	32700	32571	32663	32895	32865	32501	32694	32679	
1695	0	32708	32603	32695	32653	33077	32551	32787	32692	
1696	0	32639	32702	32583	32671	32999	32559	32861	32635	
1697	0	32660	32517	32671	32729	32805	32687	32954	32711	
1698	0	32663	32415	32551	32617	32862	32773	32775	32701	
1699	0	32668	32519	32252	32583	32811	32659	32739	32796	
1700	0	32660	32703	32467	32463	32694	32902	32695	32911	
1701	0	32711	32679	32591	32598	32665	32871	32811	32803	
1702	0	32676	32694	32431	32625	32775	32719	32743	32925	
1703	0	32716	32639	32573	32391	32823	32879	32755	32935	
1704	0	32850	32547	32802	32679	32692	32775	32756	32813	
1705	0	32877	32849	32795	32733	32755	32501	32747	32775	
1706	0	32738	32886	32765	32742	32775	32559	32535	32773	
1707	0	32747	33031	32663	32645	32815	32687	32687	32679	
1708	0	32659	32907	32811	32501	32703	32887	32505	32855	
1709	0	32602	33139	32726	32743	32541	33155	32402	32810	
1710	0	32551	33026	32941	32597	32877	32971	32575	32757	
1711	0	32442	32897	33046	32515	32791	32813	32367	32791	
1712	0	32543	32621	32706	32506	32857	32333	32759	32566	
1713	0	32491	32271	32875	32781	32775	32495	32685	32495	
1714	0	32502	32391	32847	32775	32643	32679	32846	32487	
1715	0	32497	32575	32591	32555	32694	32571	33043	32687	
1716	0	32614	32475	32586	32758	32708	32719	32995	32847	
1717	0	32799	32239	32291	32784	32803	32626	32858	32647	
1718	0	32976	32428	32463	32834	32671	32538	32861	32601	
1719	0	33080	32559	32381	32679	32791	32647	33179	32587	
1720	0	33254	32627	32391	32379	32821	32546	33159	32642	
1721	0	33131	32511	32475	32382	32949	32551	32911	32607	
1722	0	32959	32917	32559	32513	32695	32679	32640	32635	
1723	0	32857	32914	32615	32516	32646	32619	32739	32819	
1724	0	32765	32787	32623	32519	32623	32703	32671	32695	
1725	0	32738	33081	32536	32630	32734	32701	32692	32663	
1726	0	32756	32903	32735	32716	32773	32756	32702	32847	
1727	0	32739	32899	32915	32695	32875	32698	32627	32729	
1728	0	32791	33023	32856	32831	32943	32510	32610	32683	
1729	0	32773	33334	32855	32859	32803	32583	32623	32623	
1730	0	32852	33135	32775	32845	32719	32845	32595	32763	
1731	0	32898	33053	32835	32815	32671	32893	32695	32796	
1732	0	32781	33311	32655	32647	32711	32902	32690	32811	
1733	0	32812	33104	32764	32663	32669	32859	32587	32743	
1734	0	32768	32871	32810	32754	32863	32645	32788	32758	
1735	0	32824	32815	32615	32631	32858	32765	32870	32709	
1736	0	32789	32183	32583	32637	32896	32855	32775	32735	
1737	0	32819	32515	32535	32598	32763	32829	32687	32749	
1738	0	32855	32683	32583	32471	32781	32893	32786	32775	
1739	0	32708	32951	32449	32613	32697	32847	32684	32901	
1740	0	32658	33108	32375	32775	32859	32836	32525	32811	
1741	0	32587	32894	32297	32683	32759	32698	32511	32670	
1742	0	32571	32533	32391	32647	32775	32663	32443	32990	
1743	0	32597	32258	32347	32626	32950	32607	32541	32891	
1744	0	32668	32237	32451	32514	33074	32319	32647	32740	
1745	0	32684	31972	32583	32583	32527	32828	32479	32819	
1746	0	32700	31671	32593	32701	32459	32911	32797	32719	
1747	0	32692	32055	32738	32645	32645	32815	33111	32562	
1748	0	32698	32355	32700	32709	32791	32747	32919	32475	
1749	0	32711	32690	32858	32773	32842	32637	32762	32503	
1750	0	32670	33197	32839	32741	32827	32594	32769	32503	
1751	0	32800	33191	32954	32719	32855	32551	32955	32595	
1752	0	32802	33213	32806	32727	32743	32543	33031	32554	
1753	0	32879	33255	32935	32876	32701	32655	33077	32642	
1754	0	32845	33367	32802	32887	32647	32671	32815	32764	
1755	0	32792	33383	32918	32847	32699	32727	32665	32690	
1756	0	32749	32990	32745	32731	32575	32621	32559	32766	
1757	0	32686	33127	32643	32575	32755	32743	32732	32851	
1758	0	32647	32732	32439	32675	32575	32815	32833	32811	
1759	0	32684	32577	32455	32687	32791	32796	32821	32655	
1760	0	32758	32231	32423	32638	32739	32839	32804	32746	
1761	0	32704	32543	32231	32666	32717	32677	32775	32841	
1762	0	32665	32786	32447	32597	32626	32943	32643	32775	
1763	0	32686	33095	32301	32819	32935	32684	32639	32644	
1764	0	32630	33299	32431	32735	32927	32663	32589	32673	
1765	0	32617	33453	32439	32738	32803	32683	32517	32775	
1766	0	32575	33303	32605	32799	32663	32787	32471	32639	
1767	0	32713	33133	32635	32796	32775	32749	32567	32710	
1768	0	32728	33303	32663	32655	32827	32735	32839	32719	
1769	0	32943	33135	32667	32543	32740	32775	32993	32647	
1770	0	32920	32713	32662	32679	32738	32587	32846	32639	
1771	0	32896	32450	32820	32590	32894	32718	32735	32910	
1772	0	32956	32579	32727	32637	32903	32762	32719	32877	
1773	0	33069	32473	33060	32735	32733	32830	32742	32838	
1774	0	33224	32466	32855	32726	32893	32719	32810	32786	
1775	0	33018	32135	32711	32786	32843	32723	32765	32839	
1776	0	32832	32023	32487	32547	32612	32925	32527	32717	
1777	0	32619	31879	32359	32565	32759	32759	32479	32679	
1778	0	32694	32250	32086	32631	32839	32711	32420	32823	
1779	0	32660	32503	32153	32559	32815	32543	32234	32887	
1780	0	32647	32862	32171	32575	32893	32596	32627	32614	
1781	0	32663	33170	32271	32484	32903	32815	32931	32775	
1782	0	32739	33309	32465	32297	32978	32775	32999	32789	
1783	0	32816	32935	32567	32279	32865	32797	32925	32722	
1784	0	32879	32415	32566	32391	32775	32699	32987	32635	
1785	0	32927	32275	32590	32407	32655	32783	32940	32623	
1786	0	33074	31839	32801	32555	32598	32771	33019	32735	
1787	0	33075	31683	32899	32499	32763	32450	33126	32695	
1788	0	32946	31727	32717	32749	32679	32647	32967	32646	
1789	0	32854	32447	32763	32855	32659	32806	32962	32627	
1790	0	32778	33091	32850	32858	32660	32943	32722	32679	
1791	0	32759	33350	32999	32644	32647	32725	32993	32695	
1792	0	32659	33397	33030	32831	32742	32583	32811	32541	
1793	0	32608	33359	33071	32773	32555	32615	32406	32634	
1794	0	32599	33341	33125	32857	32690	32427	32463	32485	
1795	0	32638	33094	32923	32738	32955	32261	32659	32594	
1796	0	32782	32877	32846	32558	32967	32647	32810	32735	
1797	0	32854	33004	32733	32870	32943	32773	32859	32775	
1798	0	32886	32903	32691	32741	33131	32743	32996	32535	
1799	0	32912	32916	32405	32926	32727	32855	32759	32627	
1800	0	32870	32767	32444	32861	32587	32971	32647	32751	
1801	0	32749	32903	32241	32895	32647	32827	32531	32767	
1802	0	32678	32947	32469	32711	32699	32607	32331	32759	
1803	0	32647	32911	32647	32673	32828	32709	32746	32630	
1804	0	32745	32900	32667	32739	32871	32831	32963	32687	
1805	0	32704	32615	32591	32709	32846	32895	32692	32728	
1806	0	32725	32693	32679	32647	32867	32753	32631	32669	
1807	0	32746	32817	32876	32493	32871	32655	32559	32694	
1808	0	32708	32789	32725	32644	32751	32646	32507	32599	
1809	0	32758	32751	32851	32593	32758	32655	32613	32683	
1810	0	32775	32862	32925	32740	32839	32810	32493	32711	
1811	0	32705	32723	32846	32557	32749	32861	32836	32729	
1812	0	32701	32839	32782	32748	32695	32847	32807	32628	
1813	0	32622	32795	32822	32742	32690	32790	33005	32694	
1814	0	32633	32731	32887	32754	32743	32579	32951	32671	
1815	0	32665	32799	32686	32655	32682	32855	32999	32671	
1816	0	32727	32598	32723	32518	32615	32919	32603	32690	
1817	0	32719	32903	32607	32699	32559	33035	32511	32850	
1818	0	32584	32975	32609	32609	32495	32803	32589	32775	
1819	0	32474	32723	32515	32597	32439	32631	32627	32594	
1820	0	32635	32815	32332	32486	32715	32511	32876	32575	
1821	0	32760	32839	32581	32391	32838	32367	32859	32679	
1822	0	32806	32575	32619	32663	32865	32583	32887	32859	
1823	0	32711	32607	32605	32615	32803	32631	32835	32967	
1824	0	32729	32607	32639	32499	32802	32542	32710	32765	
1825	0	32709	32483	32503	32763	32807	32587	32549	32901	
1826	0	32724	32902	32483	32875	32813	32741	32501	32923	
1827	0	32659	33287	32826	32971	32607	32924	32483	32770	
1828	0	32796	33128	32863	32817	32607	32879	32757	32735	
1829	0	32784	33191	32901	32859	32885	32802	33018	32557	
1830	0	32795	33114	32877	32791	33047	32587	32738	32582	
1831	0	32843	33135	32933	32611	32771	32851	32391	32930	
1832	0	32919	32975	32775	32663	32711	32841	32442	32895	
1833	0	32871	32655	32758	32492	32978	32757	32495	32621	
1834	0	32837	32430	33020	32605	33028	32666	32731	32695	
1835	0	32902	32299	32898	32643	32773	32901	32831	32771	
1836	0	33019	32103	32767	32511	32767	32491	32911	32683	
1837	0	33039	32327	32722	32413	32785	32342	33085	32695	
1838	0	32925	32423	32673	32541	33014	32194	33108	32548	
1839	0	32837	32389	32555	32743	33023	32454	32855	32679	
1840	0	32789	32503	32364	32758	32987	32721	32631	32543	
1841	0	32803	32495	32225	32558	32962	32775	32829	32643	
1842	0	32903	32697	32420	32613	32935	32709	32877	32671	
1843	0	32807	32743	32391	32647	32797	32695	32738	32643	
1844	0	32705	32695	32386	32775	32659	32870	32485	32723	
1845	0	32750	32617	32347	32661	32671	32807	32615	32867	
1846	0	32788	32707	32436	32711	32577	32805	32903	32887	
1847	0	32785	32831	32429	32770	32582	32827	33077	32807	
1848	0	32749	32727	32535	32538	32687	32814	33091	32711	
1849	0	32662	33255	32743	32710	32647	32887	32647	32767	
1850	0	32607	33415	32754	32687	32685	32775	32745	32846	
1851	0	32486	33463	32675	32557	32702	32721	32911	32790	
1852	0	32486	33311	32790	32635	32605	32669	32951	32743	
1853	0	32516	33335	32834	32673	32703	32581	32853	32635	
1854	0	32640	33159	32918	32675	32713	32707	32739	32801	
1855	0	32708	32551	32607	32594	32614	32719	32760	32695	
1856	0	32489	32759	32571	32787	32683	32762	32731	32647	
1857	0	32526	32539	32455	32845	32676	32839	32711	32605	
1858	0	32516	32551	32319	32581	32903	32732	32955	32647	
1859	0	32702	32572	32220	32738	32927	32723	32723	32711	
1860	0	32787	32790	32311	32699	32860	32701	32715	32711	
1861	0	32831	32919	32354	32581	32769	32669	32679	32703	
1862	0	32903	33029	32675	32710	32715	32785	32733	32711	
1863	0	32935	32775	32735	32655	32758	32671	32791	32719	
1864	0	33095	32621	32843	32527	32685	32870	32595	32775	
1865	0	33074	32559	32703	32647	32743	32791	32775	32730	
1866	0	32980	32155	32838	32662	32819	32727	32799	32674	
1867	0	32791	32407	32839	32695	32809	32759	32327	32949	
1868	0	32772	32263	32694	32635	32747	32795	32301	32877	
1869	0	32788	32407	32747	32489	32694	32775	32235	32749	
1870	0	32892	32615	32623	32647	32642	32655	32365	32740	
1871	0	32956	32667	32823	32655	32613	32719	32866	32799	
1872	0	32979	32470	32813	32805	32803	32903	33003	32791	
1873	0	32886	32372	32639	32543	32782	32950	32986	32517	
1874	0	33038	32213	32735	32722	32903	32700	33041	32400	
1875	0	32839	32719	32699	32692	32819	32404	32806	32679	
1876	0	32814	32895	32659	32686	32919	32359	32911	32707	
1877	0	32786	32783	32645	32606	33071	32101	33144	32398	
1878	0	32761	33182	32535	32459	32933	32311	33261	32546	
1879	0	32755	33599	32535	32594	32607	32879	32767	32871	
1880	0	32765	33495	32501	32772	32551	33023	32422	32751	
1881	0	32767	33204	32579	32683	32558	32927	32582	32854	
1882	0	32743	33215	32679	32655	33037	32373	32804	32846	
1883	0	32732	33095	32741	32871	32894	32551	32719	32714	
1884	0	32671	32971	32723	32746	32911	32523	32647	32719	
1885	0	32655	32963	32847	32629	32795	32708	32687	32735	
1886	0	32764	32669	32647	32660	32823	32548	32748	32660	
1887	0	32762	32351	32775	32867	32660	32825	32731	32670	
1888	0	32692	32583	32758	32863	32684	32837	32775	32615	
1889	0	32702	32455	32781	32859	32775	32785	32847	32693	
1890	0	32599	32342	32844	32877	32603	32955	32727	32823	
1891	0	32671	32084	32790	32716	32743	32903	32583	32791	
1892	0	32678	32350	32863	32615	32807	32775	32599	32742	
1893	0	32751	32581	32829	32633	32743	32787	32605	32743	
1894	0	32738	32679	32933	32703	32783	32755	32615	32687	
1895	0	32772	32735	32715	32642	32658	32775	32609	32687	
1896	0	32820	32729	32677	32614	32763	32710	32722	32719	
1897	0	32803	32742	32511	32725	32731	32819	32694	32795	
1898	0	32888	33087	32647	32447	32833	32703	32719	32671	
1899	0	32846	33311	32503	32647	32819	32721	32853	32533	
1900	0	32794	33287	32275	32679	32745	32757	32805	32619	
1901	0	32700	33117	32491	32745	32829	32727	32789	32799	
1902	0	32827	33263	32495	32684	32829	32775	32823	32807	
1903	0	32820	33223	32454	32863	32767	32751	32726	32807	
1904	0	32801	32995	32662	32861	32775	32807	32611	32819	
1905	0	32815	32669	32733	32668	32767	32669	32587	32713	
1906	0	32849	32389	32740	32563	32775	32764	32834	32671	
1907	0	32830	32487	32767	32717	32711	32827	32605	32855	
1908	0	32692	32356	32727	32519	32615	32711	32497	32859	
1909	0	32549	32381	32836	32467	32763	32687	32659	32884	
1910	0	32575	32805	32747	32279	32700	32671	32767	32838	
1911	0	32630	32903	32791	32415	32822	32655	32839	32805	
1912	0	32694	32807	32839	32429	32885	32729	32767	32735	
1913	0	32713	32799	32667	32535	33003	32731	32666	32675	
1914	0	32753	32754	32795	32415	32914	32644	32485	32761	
1915	0	32764	32894	32815	32671	32730	32642	32543	32731	
1916	0	32807	32783	32419	32775	32738	32711	32523	32659	
1917	0	32831	32567	32527	32767	32821	32761	32463	32775	
1918	0	32767	32811	32359	32745	32895	32597	32791	32703	
1919	0	32771	32797	32339	32551	32605	32775	32810	32852	
1920	0	32754	32839	32263	32563	32529	32790	32679	32793	
1921	0	32726	32745	32147	32598	32662	32695	33245	32433	
1922	0	32666	32631	32483	32731	32593	32743	33355	32419	
1923	0	32647	32821	32506	32623	32666	32559	33014	32532	
1924	0	32653	32940	32594	32660	32891	32667	32827	32658	
1925	0	32590	32815	32699	32595	33058	32750	32903	32403	
1926	0	32712	32831	32609	32601	32716	32949	33215	32455	
1927	0	32765	32855	32706	32483	32827	32437	33245	32391	
1928	0	32810	32655	32954	32789	32903	32450	32827	32335	
1929	0	32694	32831	32927	32819	32850	32439	32839	32455	
1930	0	32549	33061	32999	32933	32847	32500	32959	32667	
1931	0	32579	33036	33022	32662	32939	32583	32903	32644	
1932	0	32614	33271	32972	32923	32811	32807	32583	32788	
1933	0	32640	33511	32995	32939	32707	32815	32215	32863	
1934	0	32718	33023	33031	32738	32867	32663	32628	32875	
1935	0	32806	32606	32747	32865	32883	32570	32643	32784	
1936	0	32873	32277	32795	32743	32731	32695	32745	32871	
1937	0	32946	32063	32749	32733	32719	32660	32759	32783	
1938	0	32814	31839	32727	32449	32916	32578	32583	32813	
1939	0	32895	32183	32580	32647	32883	32743	32459	32733	
1940	0	32839	32439	32533	32571	32679	32967	32601	32775	
1941	0	32719	32407	32375	32633	32559	32903	32813	32691	
1942	0	32672	32663	32407	32555	32659	32830	32634	32706	
1943	0	32769	32790	32237	32687	32655	32715	32620	32743	
1944	0	32823	32695	32167	32774	32605	32727	32583	32813	
1945	0	32943	32873	32383	32876	32683	32883	32698	32755	
1946	0	32805	33061	32482	32631	32749	32747	32447	32796	
1947	0	32738	32862	32515	32611	32639	32850	32263	32765	
1948	0	32697	33093	32647	32667	32559	32958	32236	32786	
1949	0	32711	33367	32674	32831	32955	32783	33356	32523	
1950	0	32676	33315	32599	32477	32973	32603	33187	32623	
1951	0	32703	33295	32559	32467	32772	32695	32919	32747	
1952	0	32647	33099	32775	32571	32715	32759	32551	32890	
1953	0	32799	32791	32727	32455	32811	32717	32475	32802	
1954	0	32828	32602	32732	32663	32704	33201	32921	32836	
1955	0	32893	32303	32633	32557	33050	32559	32967	32587	
1956	0	32783	32310	32567	32537	32868	32391	32889	32423	
1957	0	32751	32375	32575	32647	32772	32439	32886	32527	
1958	0	32759	32818	32581	32691	32535	32530	33026	32587	
1959	0	32728	33008	32665	32766	32550	32764	32972	32758	
1960	0	32667	32887	32495	32898	32727	33031	32815	32899	
1961	0	32710	32609	32583	32770	32877	32943	32849	32911	
1962	0	32832	32635	32575	32653	32887	32875	32799	32669	
1963	0	32951	32839	32413	32415	32763	32478	32747	32559	
1964	0	32806	32948	32516	32632	32708	32244	32484	32813	
1965	0	32821	32978	32811	32506	32723	32471	32684	32771	
1966	0	32868	33427	32743	32567	32866	32631	33065	32775	
1967	0	32822	33527	32847	32461	32739	32791	32926	32675	
1968	0	32803	33627	32787	32575	32775	32775	32775	32683	
1969	0	32859	33202	32815	32709	32775	32771	32755	32775	
1970	0	32853	32563	32824	32754	32831	32519	32643	32802	
1971	0	32817	31847	32554	32695	32751	32721	32724	32863	
1972	0	32788	31383	32507	32687	32835	32825	32851	32797	
1973	0	32807	31567	32446	32827	32775	32743	32772	32791	
1974	0	32782	31541	32605	32877	32825	32903	32839	32772	
1975	0	32708	31973	32531	32869	32805	32726	32833	32821	
1976	0	32686	32262	32633	32813	32524	33315	32441	32896	
1977	0	32561	32837	32638	32694	32587	33223	32511	32879	
1978	0	32551	33117	32573	32652	32669	32647	32511	32801	
1979	0	32532	33330	32479	32739	32771	32406	32675	32820	
1980	0	32532	33207	32297	32635	32855	31991	33003	32495	
1981	0	32557	33391	32431	32613	32725	32461	33146	32511	
1982	0	32669	33127	32363	32543	32733	32483	33026	32487	
1983	0	32724	32827	32559	32547	32804	32655	32943	32613	
1984	0	32640	32947	32533	32823	32963	32524	32871	32519	
1985	0	32702	32967	32815	32750	32971	32564	32677	32727	
1986	0	32799	33190	32999	32763	32705	32913	32591	32903	
1987	0	32744	33271	32996	32527	32766	32867	32887	32751	
1988	0	32758	33362	32870	32590	32511	32863	32887	32599	
1989	0	32743	33554	32763	32706	32775	32823	32887	32555	
1990	0	32493	33355	32758	32775	32903	32839	33068	32671	
1991	0	32512	33058	32877	32763	32765	32757	32883	32748	
1992	0	32468	32686	32719	32722	32859	32787	32663	32775	
1993	0	32745	32515	32867	32742	32799	32807	32607	32858	
1994	0	32914	32135	32735	32667	32739	32715	33041	32655	
1995	0	32998	31909	32647	32551	32807	32719	32893	32727	
1996	0	32970	31939	32626	32412	32775	32619	32617	32807	
1997	0	32997	32095	32532	32383	32599	32723	32567	32702	
1998	0	33001	32231	32199	32271	32758	32695	32708	32685	
1999	0	33166	32508	32357	32475	32770	32756	32411	32845	
2000	0	33170	32222	32391	32434	32755	32900	32587	32607	
2001	0	33186	31903	32229	32471	32967	32598	32599	32607	
2002	0	33135	32175	32247	32375	32917	32534	32735	32804	
2003	0	32991	32839	32535	32532	32765	32878	32482	32967	
2004	0	32879	33231	32557	32615	32527	32847	32365	32837	
2005	0	32807	33029	32567	32719	32607	32789	32514	32695	
2006	0	32703	33215	32801	32588	33041	32631	32891	32518	
2007	0	32711	33055	32785	32759	32667	32677	32564	32743	
2008	0	32727	32933	32940	32765	32735	32621	32639	32702	
2009	0	32736	32726	33106	32854	32735	32669	32547	32793	
2010	0	32668	32775	32993	32727	32533	32804	32695	32862	
2011	0	32775	32663	33035	32806	32599	33007	32967	32639	
2012	0	32810	32615	32885	32903	32861	32703	33077	32575	
2013	0	32799	33206	32954	32855	32743	32599	33052	32558	
2014	0	32751	33303	32861	32871	32799	32647	33051	32575	
2015	0	32706	33215	32918	32845	32802	32727	32877	32611	
2016	0	32715	33396	32887	32515	32949	32677	32883	32723	
2017	0	32729	33063	32607	32599	32813	32747	32639	32819	
2018	0	32801	32817	32559	32647	32804	32719	32571	32891	
2019	0	32805	32793	32458	32647	32749	32754	32682	32707	
2020	0	32855	32692	32481	32629	32655	32823	32598	32803	
2021	0	32758	32693	32467	32855	32583	32889	32439	32915	
2022	0	32816	33003	32435	32836	32727	32749	32578	32883	
2023	0	32786	32775	32407	32694	32967	32711	32918	32858	
2024	0	32681	32795	32415	32775	32855	32703	32903	32831	
2025	0	32664	32815	32423	32565	32879	32719	32935	32711	
2026	0	32666	32613	32795	32715	32737	32767	32741	32903	
2027	0	32585	32814	32839	32711	32751	32751	32627	32850	
2028	0	32574	32887	32802	32805	32685	32692	32647	32617	
2029	0	32519	32345	32815	32687	32763	32663	32685	32693	
2030	0	32477	32647	32727	32894	32754	32667	32623	32647	
2031	0	32581	32857	32679	32899	32747	32602	32727	32558	
2032	0	32647	32677	32677	32748	32767	32615	32476	32444	
2033	0	32644	32863	32854	32835	32579	32627	32588	32532	
2034	0	32683	33221	33065	32943	32691	32735	32953	32450	
2035	0	32611	33223	32829	32798	32814	32733	32663	32658	
2036	0	32658	33167	32738	32797	32815	32790	32757	32701	
2037	0	32900	32772	32644	32511	32636	32829	32843	32669	
2038	0	33080	32295	32495	32687	32632	32739	32687	32835	
2039	0	33000	32179	32415	32583	32743	32791	32607	32762	
2040	0	32921	32020	32293	32431	32533	32827	32425	32937	
2041	0	32964	32125	32173	32159	32669	32826	32555	32975	
2042	0	33053	32099	32151	32269	32870	32631	32857	32739	
2043	0	32971	32039	32343	32279	32705	32745	32759	32766	
2044	0	32971	32351	32289	32295	32683	32703	32807	32879	
2045	0	32846	32299	32519	32487	32910	32668	32995	32927	
2046	0	32849	32503	32706	32427	32836	32851	32705	32867	
2047	0	33006	32647	32783	32647	32631	32855	32547	32927	
2048	0	33076	33111	32926	32743	32619	32775	32647	32797	
2049	0	33042	33287	32799	32788	32847	32647	32967	32719	
2050	0	32991	33490	32966	32671	32821	32671	32663	32767	
2051	0	33070	33671	32983	32879	32823	32799	32543	32598	
2052	0	32986	33812	32793	32865	32860	32685	32711	32700	
2053	0	32990	33839	32871	32902	32855	32621	32580	32690	
2054	0	33189	33431	32679	32694	32798	32647	32455	32743	
2055	0	33478	32830	32735	32895	32887	32494	32683	32516	
2056	0	33379	32005	32594	32847	32703	32679	32647	32581	
2057	0	33378	31340	32177	32733	32533	32499	33122	32558	
2058	0	33266	31287	32312	32606	32263	32730	33019	32713	
2059	0	33349	31329	32047	32831	32511	32757	33088	32729	
2060	0	33313	31185	32175	32679	32682	32959	32687	32815	
2061	0	33275	31495	32135	32719	32575	32994	32443	32953	
2062	0	33302	32183	32327	32631	32893	32660	32323	32839	
2063	0	33320	32559	32429	32713	32839	32799	32463	32881	
2064	0	33391	32731	32303	32735	32966	32477	32722	32855	
2065	0	33144	32823	32551	32555	32935	32150	33031	32623	
2066	0	32598	33117	32781	32733	32989	32199	32839	32462	
2067	0	31999	33879	32831	32707	32967	32455	32703	32724	
2068	0	31717	34452	32818	32771	32951	32414	32787	32730	
2069	0	31367	34687	32867	32711	32679	32749	32663	32674	
2070	0	31124	34791	32903	32727	32663	32820	32437	32647	
2071	0	30922	34735	32663	32903	32807	32553	32539	32573	
2072	0	30882	34807	32771	32918	32598	32841	32787	32646	
2073	0	31018	34423	32839	32809	32635	32863	32731	32695	
2074	0	31386	33798	32914	32726	32915	32593	32956	32621	
2075	0	31693	33438	32759	32683	32931	32676	33018	32471	
2076	0	31929	32903	32570	32599	33077	32615	33214	32450	
2077	0	32057	33135	32507	32492	33007	32563	33151	32429	
2078	0	32094	33423	32647	32305	32973	32663	32991	32374	
2079	0	31562	33554	32493	32319	32975	32575	33036	32302	
2080	0	31015	33505	32654	32287	33109	32423	33431	32225	
2081	0	30818	33357	32667	32263	32967	32515	33362	32221	
2082	0	30923	32925	32619	32283	32940	32567	33493	32239	
2083	0	31263	32595	32948	32263	32903	32631	33343	32199	
2084	0	31566	32379	33038	32211	32708	32700	33197	32373	
2085	0	31863	31943	32815	32309	32791	32749	33247	32549	
2086	0	32071	31987	33059	32413	32791	32735	33157	32639	
2087	0	32223	32442	33037	32287	33047	32388	33239	32535	
2088	0	32487	32775	33135	32437	32839	32595	32823	32719	
2089	0	32850	32543	32969	32405	32771	32743	33047	32839	
2090	0	33074	32501	32935	32543	32836	32871	32947	32821	
2091	0	33218	32405	32666	32609	32795	32767	32967	32884	
2092	0	33700	31959	32751	32729	32743	32759	32759	32903	
2093	0	34081	31717	32743	32879	32773	32735	32615	32935	
2094	0	34166	31571	32442	32686	32842	32623	32583	32855	
2095	0	34205	31519	32455	32863	32694	32775	32627	32851	
2096	0	34333	31699	32331	32823	32642	32843	32415	33030	
2097	0	34362	31735	32519	32887	32439	33125	32241	33107	
2098	0	34463	31766	32455	32727	32667	32878	32263	33151	
2099	0	34507	31731	32254	32824	32436	33011	32023	33213	
2100	0	34433	31745	32327	32839	32545	32918	32147	33095	
2101	0	34347	31954	32301	32910	32583	32884	32399	32887	
2102	0	34150	32252	32463	32731	32655	32918	32613	32895	
2103	0	33951	32173	32389	32715	32767	32807	32895	32903	
2104	0	33837	32381	32687	32751	32714	32613	32895	32882	
2105	0	33639	32679	32631	32791	32677	32727	32460	32946	
2106	0	33526	32607	32705	32775	32595	32789	32367	32930	
2107	0	33382	32740	32835	32611	32467	32943	32382	32935	
2108	0	33213	32719	32875	32863	32551	32999	32551	32986	
2109	0	32974	32831	32822	32818	32699	32926	32431	32879	
2110	0	32918	32643	33010	32833	32620	32838	32439	32898	
2111	0	32900	32839	32966	32667	32527	32989	32575	32935	
2112	0	32871	32959	32879	32843	32594	32862	32677	32895	
2113	0	32931	32887	32999	32877	32626	32715	32563	32941	
2114	0	32789	33214	33006	33061	32653	32679	32679	33011	
2115	0	32828	33383	32871	32771	32967	32679	32691	32982	
2116	0	32815	33143	32941	32589	32955	32641	32596	32871	
2117	0	32831	33281	32615	32716	32612	33003	32505	32659	
2118	0	32826	33078	32606	32603	32516	32887	32515	32859	
2119	0	32695	32867	32359	32527	32806	33005	32632	33021	
2120	0	32562	33183	32282	32639	32799	32915	32607	32759	
2121	0	32459	32703	32141	32495	33010	32601	32807	32679	
2122	0	32423	32079	32311	32391	32869	32583	33007	32599	
2123	0	32477	32225	32159	32684	32709	32534	33061	32535	
2124	0	32479	32611	32293	32727	32615	32575	32818	32519	
2125	0	32511	32605	32347	32582	32771	32612	32844	32591	
2126	0	32548	32621	32446	32519	32978	32509	32885	32683	
2127	0	32540	32415	32542	32679	32866	32599	32775	32735	
2128	0	32725	32679	32564	32707	32835	32711	32720	32599	
2129	0	32701	32751	32771	32759	32663	32671	32954	32690	
2130	0	32743	32802	32799	32629	32639	32697	32931	32663	
2131	0	32829	32799	32647	32623	32598	32863	32935	32561	
2132	0	32815	32802	32813	32805	32823	32753	32751	32581	
2133	0	32740	32893	32999	32687	32899	32647	32585	32550	
2134	0	32730	32925	32965	32615	32901	32484	32706	32607	
2135	0	32695	33095	32850	32567	32796	32551	32803	32485	
2136	0	32645	33131	32589	32455	32551	32843	32720	32554	
2137	0	32628	33123	32655	32564	32782	32700	32742	32711	
2138	0	32486	33022	32677	32627	32695	32841	32629	32707	
2139	0	32362	32756	32425	32429	32644	32686	32710	32743	
2140	0	32320	33151	32471	32623	32698	32423	32719	32767	
2141	0	32423	33287	32366	32726	32759	32610	32786	32629	
2142	0	32324	33287	32563	32687	32775	32711	32597	32739	
2143	0	32331	33159	32663	32677	32865	32711	32567	32743	
2144	0	32412	33371	32867	32599	33156	32583	33009	32690	
2145	0	32620	33159	32804	32612	32867	32637	32925	32594	
2146	0	32807	32955	32647	32643	32787	32695	32799	32573	
2147	0	32802	32726	32806	32663	32827	32631	32937	32677	
