# OpenSignals Text File Format
# {"00:07:80:3B:46:38": {"sensor": ["CUSTOM/0.5/1.0/V", "CUSTOM/0.5/1.0/V", "CUSTOM/0.5/1.0/V", "CUSTOM/0.5/1.0/V", "CUSTOM/0.5/1.0/V", "CUSTOM/0.5/1.0/V", "CUSTOM/0.5/1.0/V", "CUSTOM/0.5/1.0/V"], "device name": "EMGs", "column": ["nSeq", "DI", "RA_L", "RA_R", "OE_L", "OE:R", "IL_L", "IL_R", "MF_L", "MF_R"], "sync interval": 2, "time": "16:53:43.164", "comments": "", "device connection": "BTH00:07:80:3B:46:38", "channels": [1, 2, 3, 4, 5, 6, 7, 8], "date": "2017-5-22", "mode": 0, "digital IO": [0, 1], "firmware version": 772, "device": "biosignalsplux", "position": 0, "sampling rate": 1000, "label": ["RA_L", "RA_R", "OE_L", "OE:R", "IL_L", "IL_R", "MF_L", "MF_R"], "resolution": [16, 16, 16, 16, 16, 16, 16, 16], "special": [{}, {}, {}, {}, {}, {}, {}, {}]}}
# EndOfHeader
0	0	32889	32869	32714	32875	32837	32755	32545	32623	
1	0	32950	32786	32835	32785	32629	32586	32759	32737	
2	0	32942	32775	32895	32785	32743	32738	32703	32703	
3	0	32985	32643	32794	32711	32877	32637	32706	32604	
4	0	32914	32711	32807	32807	32602	32539	32507	32583	
5	0	32770	32619	32727	32671	32812	32442	32644	32702	
6	0	32709	32685	32802	32747	32799	32423	32644	32666	
7	0	32903	32589	32821	32785	32791	32459	32566	32735	
8	0	32876	32718	32687	32679	32903	32421	32611	32743	
9	0	32833	32655	32830	32713	32645	32629	32701	32567	
10	0	32898	32598	32707	32743	32807	32709	32727	32587	
11	0	32996	32511	32640	32858	32813	32773	32668	32738	
12	0	32981	32611	32815	32887	32579	32883	32638	32683	
13	0	32909	32605	32765	32783	32766	32967	32743	32643	
14	0	32867	32693	32681	32775	32711	32903	32719	32671	
15	0	32902	32591	32725	32699	32749	32853	32478	32503	
16	0	32914	32645	32755	32775	32883	32923	32707	32551	
17	0	32813	32493	32766	32678	32804	32866	32685	32683	
18	0	32758	32631	32751	32715	32914	32838	32582	32612	
19	0	32710	32551	32762	32647	32591	32751	32722	32717	
20	0	32759	32627	32627	32801	32781	32683	32663	32595	
21	0	32775	32371	32514	32775	32679	32711	32631	32605	
22	0	32786	32349	32751	32743	32738	32647	32643	32677	
23	0	32844	32367	32727	32691	32735	32551	32667	32683	
24	0	32839	32347	32711	32765	32829	32537	32684	32697	
25	0	32797	32391	32727	32727	32835	32539	32525	32685	
26	0	32647	32629	32790	32701	32647	32491	32647	32574	
27	0	32690	32753	32771	32835	32797	32430	32631	32751	
28	0	32718	32755	32843	32821	32647	32575	32711	32647	
29	0	32802	32895	32691	32773	32759	32647	32567	32681	
30	0	32816	32902	32701	32795	32831	32647	32801	32635	
31	0	32827	33079	32647	32727	32806	32862	32702	32621	
32	0	32659	33159	32770	32705	32813	32967	32671	32725	
33	0	32653	33159	32775	32735	32655	32847	32617	32727	
34	0	32666	33159	32700	32813	32773	32967	32693	32698	
35	0	32521	33131	32751	32785	32759	32954	32725	32473	
36	0	32681	33074	32869	32637	32737	32839	32613	32533	
37	0	32773	32887	32662	32751	32793	32801	32543	32539	
38	0	32856	32841	32815	32668	32663	32863	32719	32773	
39	0	32903	32719	32687	32789	32775	32771	32591	32698	
40	0	32976	32602	32758	32811	32838	32633	32631	32645	
41	0	33016	32491	32835	32802	32637	32619	32495	32689	
42	0	32942	32589	32602	32791	32788	32639	32690	32748	
43	0	33000	32327	32828	32668	32694	32663	32694	32595	
44	0	32944	32441	32853	32743	32791	32538	32711	32746	
45	0	32775	32427	32850	32647	32847	32530	32607	32671	
46	0	32742	32615	32807	32793	32594	32486	32725	32685	
47	0	32715	32585	32701	32703	32868	32379	32786	32634	
48	0	32668	32738	32807	32711	32637	32548	32539	32611	
49	0	32756	32643	32757	32695	32756	32605	32682	32753	
50	0	32876	32749	32806	32790	32703	32646	32690	32703	
51	0	32930	32631	32786	32751	32775	32834	32591	32703	
52	0	32854	32839	32663	32797	32826	32938	32687	32583	
53	0	32814	32797	32689	32668	32794	32862	32700	32629	
54	0	32672	32945	32545	32727	32820	32911	32687	32732	
55	0	32546	32947	32666	32719	32647	32895	32541	32647	
56	0	32506	32958	32692	32796	32759	32927	32749	32671	
57	0	32493	32855	32475	32807	32798	32851	32703	32743	
58	0	32569	32705	32555	32631	32823	32775	32693	32731	
59	0	32478	32823	32658	32661	32633	32801	32669	32671	
60	0	32609	32883	32751	32709	32775	32796	32553	32639	
61	0	32596	32739	32623	32815	32850	32676	32533	32549	
62	0	32805	32733	32775	32867	32647	32575	32735	32583	
63	0	32827	32595	32699	32771	32747	32647	32639	32525	
64	0	32887	32457	32831	32839	32803	32567	32647	32477	
65	0	33056	32514	32679	32831	32847	32522	32675	32535	
66	0	32996	32477	32804	32766	32644	32515	32594	32773	
67	0	32941	32605	32763	32821	32795	32447	32759	32692	
68	0	32996	32583	32668	32713	32901	32647	32747	32726	
69	0	32944	32451	32818	32765	32675	32663	32679	32647	
70	0	32861	32771	32726	32775	32767	32725	32595	32690	
71	0	32765	32798	32719	32719	32731	32839	32771	32666	
72	0	32684	32739	32749	32685	32817	32847	32687	32689	
73	0	32628	32903	32758	32711	32638	32845	32578	32695	
74	0	32549	32850	32710	32719	32772	32835	32613	32695	
75	0	32487	32919	32756	32805	32835	32948	32783	32635	
76	0	32630	33047	32865	32770	32675	32919	32751	32492	
77	0	32747	32915	32900	32753	32685	32902	32715	32626	
78	0	32841	32833	32860	32791	32858	32829	32775	32749	
79	0	32870	32735	32895	32688	32565	32691	32580	32715	
80	0	32863	32647	32841	32706	32735	32731	32566	32647	
81	0	32881	32845	32823	32759	32898	32647	32775	32639	
82	0	32748	32903	32741	32751	32635	32567	32678	32683	
83	0	32718	32919	32796	32762	32811	32546	32695	32715	
84	0	32745	32837	32767	32712	32887	32517	32575	32631	
85	0	32867	32811	32711	32793	32740	32475	32527	32595	
86	0	32674	32818	32793	32773	32791	32431	32695	32646	
87	0	32742	32587	32871	32790	32859	32413	32678	32681	
88	0	32592	32732	32687	32871	32607	32561	32759	32738	
89	0	32621	32619	32763	32883	32759	32773	32535	32682	
90	0	32642	32757	32711	32887	32803	32684	32775	32627	
91	0	32769	32722	32519	32730	32603	32785	32701	32711	
92	0	32879	32658	32615	32814	32818	32893	32775	32575	
93	0	32971	32701	32702	32595	32715	32969	32633	32623	
94	0	32968	32605	32531	32745	32771	32865	32631	32633	
95	0	32832	32558	32709	32793	32794	32847	32583	32711	
96	0	32605	32579	32646	32711	32807	32901	32749	32727	
97	0	32628	32415	32707	32759	32637	32833	32717	32695	
98	0	32706	32511	32694	32825	32798	32829	32661	32671	
99	0	32775	32557	32879	32735	32669	32655	32687	32703	
100	0	32730	32597	32823	32783	32736	32699	32579	32511	
101	0	32700	32503	32886	32804	32775	32702	32671	32685	
102	0	32685	32635	32793	32809	32829	32599	32647	32722	
103	0	32774	32703	32783	32715	32735	32679	32723	32703	
104	0	32788	32839	32939	32829	32745	32605	32561	32731	
105	0	32747	32662	32822	32795	32791	32441	32639	32612	
106	0	32674	32759	32647	32821	32825	32381	32731	32566	
107	0	32719	32877	32839	32759	32628	32470	32661	32671	
108	0	32703	33003	32823	32703	32791	32607	32639	32741	
109	0	32679	32927	32597	32772	32853	32570	32567	32727	
110	0	32743	32741	32793	32629	32759	32762	32749	32715	
111	0	32709	32695	32719	32763	32775	32785	32714	32699	
112	0	32750	32743	32631	32715	32685	32854	32647	32539	
113	0	32889	32727	32685	32810	32775	32997	32575	32647	
114	0	32891	32783	32655	32709	32879	32919	32762	32689	
115	0	32863	32647	32735	32873	32765	32901	32749	32732	
116	0	32987	32819	32715	32842	32833	32929	32558	32525	
117	0	32847	32679	32625	32879	32629	32916	32743	32754	
118	0	32770	32757	32642	32807	32775	32775	32690	32639	
119	0	32788	32647	32658	32799	32784	32749	32660	32691	
120	0	32767	32671	32775	32669	32764	32746	32617	32599	
121	0	32743	32556	32745	32687	32847	32581	32662	32533	
122	0	32770	32562	32687	32579	32577	32671	32677	32715	
123	0	32703	32540	32838	32683	32782	32628	32570	32711	
124	0	32832	32711	32775	32629	32709	32487	32607	32701	
125	0	32788	32726	32790	32765	32751	32559	32762	32751	
126	0	32747	32799	32757	32878	32731	32487	32682	32554	
127	0	32775	32743	32668	32759	32679	32447	32733	32751	
128	0	32699	32877	32775	32829	32793	32455	32516	32679	
129	0	32718	32813	32803	32724	32871	32587	32749	32685	
130	0	32710	32881	32785	32702	32764	32639	32679	32591	
131	0	32715	32799	32695	32698	32807	32659	32775	32583	
132	0	32653	32677	32626	32767	32698	32924	32563	32871	
133	0	32674	32879	32772	32678	32767	32967	32765	32699	
134	0	32683	32788	32743	32716	32831	32847	32699	32642	
135	0	32738	32855	32701	32815	32666	32836	32686	32673	
136	0	32713	32877	32807	32823	32759	32947	32641	32647	
137	0	32830	32839	32747	32815	32786	32870	32559	32539	
138	0	32827	32583	32621	32771	32767	32806	32742	32775	
139	0	32831	32430	32805	32730	32797	32814	32711	32724	
140	0	32855	32403	32827	32706	32641	32775	32654	32746	
141	0	32806	32549	32823	32869	32740	32661	32639	32539	
142	0	32769	32479	32766	32791	32751	32705	32662	32767	
143	0	32755	32575	32685	32807	32767	32583	32714	32671	
144	0	32711	32471	32854	32730	32831	32532	32555	32758	
145	0	32695	32702	32877	32727	32717	32543	32519	32751	
146	0	32725	32883	32873	32723	32822	32441	32739	32726	
147	0	32659	32809	32662	32757	32814	32481	32679	32714	
148	0	32712	32973	32815	32811	32702	32479	32658	32703	
149	0	32699	33111	32613	32854	32725	32711	32717	32607	
150	0	32725	32719	32734	32775	32770	32770	32541	32615	
151	0	32762	32660	32607	32786	32709	32927	32741	32770	
152	0	32881	32555	32735	32679	32775	32854	32751	32732	
153	0	32919	32775	32786	32647	32935	32973	32747	32675	
154	0	33083	32831	32661	32751	32631	32955	32623	32655	
155	0	32971	33023	32762	32641	32775	32964	32611	32527	
156	0	32889	32971	32799	32787	32863	32817	32713	32565	
157	0	32705	32741	32860	32674	32611	32879	32647	32683	
158	0	32639	32677	32863	32707	32775	32846	32583	32717	
159	0	32623	32439	32903	32733	32875	32647	32551	32611	
160	0	32623	32639	32852	32703	32759	32645	32677	32621	
161	0	32551	32672	32823	32681	32750	32630	32639	32736	
162	0	32671	32679	32694	32615	32843	32591	32719	32695	
163	0	32772	32626	32791	32663	32612	32555	32559	32631	
164	0	32879	32573	32691	32627	32809	32578	32587	32689	
165	0	32940	32786	32727	32711	32871	32483	32715	32671	
166	0	32940	32671	32745	32775	32639	32350	32671	32567	
167	0	32866	32671	32623	32886	32751	32431	32635	32729	
168	0	32815	32551	32754	32927	32822	32539	32487	32719	
169	0	32871	32695	32756	32859	32609	32631	32835	32679	
170	0	32783	32695	32643	32871	32809	32662	32695	32703	
171	0	32773	32855	32775	32858	32925	32863	32751	32605	
172	0	32900	32925	32732	32867	32655	32903	32573	32583	
173	0	32824	32941	32579	32879	32807	32877	32773	32679	
174	0	32798	32865	32690	32807	32770	33031	32691	32702	
175	0	32834	32831	32731	32749	32762	32979	32585	32647	
176	0	32879	32707	32844	32796	32893	32874	32687	32679	
177	0	32873	32802	32763	32743	32565	32939	32647	32726	
178	0	32833	32666	32787	32767	32679	32807	32694	32727	
179	0	32807	32661	32853	32756	32854	32822	32660	32629	
180	0	32722	32623	32771	32723	32583	32737	32687	32671	
181	0	32654	32646	32647	32704	32791	32666	32629	32532	
182	0	32759	32725	32863	32685	32879	32554	32606	32595	
183	0	32600	32839	32783	32711	32799	32605	32621	32754	
184	0	32677	32911	32604	32645	32811	32519	32690	32647	
185	0	32829	33012	32747	32769	32662	32423	32701	32706	
186	0	32810	33039	32711	32705	32799	32407	32567	32805	
187	0	32811	32845	32719	32797	32887	32487	32631	32585	
188	0	32783	32911	32801	32745	32743	32551	32655	32826	
189	0	32756	32903	32819	32823	32887	32571	32706	32692	
190	0	32751	32823	32722	32743	32588	32676	32594	32639	
191	0	32762	32935	32698	32863	32775	32773	32713	32661	
192	0	32734	32871	32725	32684	32682	32988	32698	32561	
193	0	32790	32615	32557	32746	32738	32975	32623	32620	
194	0	32756	32722	32710	32751	32869	32936	32581	32806	
195	0	32702	32548	32754	32759	32575	32921	32719	32711	
196	0	32732	32623	32809	32741	32747	32950	32767	32731	
197	0	32594	32559	32738	32811	32682	32948	32575	32716	
198	0	32579	32610	32683	32743	32809	32747	32741	32575	
199	0	32552	32604	32790	32830	32878	32775	32635	32575	
200	0	32606	32647	32751	32813	32694	32677	32623	32757	
201	0	32725	32683	32863	32719	32791	32698	32663	32645	
202	0	32791	32817	32749	32759	32903	32506	32534	32623	
203	0	32745	32726	32804	32703	32761	32535	32701	32634	
204	0	32811	32674	32719	32739	32860	32587	32695	32531	
205	0	32775	32634	32805	32695	32615	32423	32547	32813	
206	0	32863	32796	32762	32759	32767	32481	32709	32727	
207	0	32842	32751	32703	32791	32869	32471	32725	32663	
208	0	32863	32668	32807	32855	32619	32607	32719	32705	
209	0	32771	32807	32839	32807	32756	32550	32791	32735	
210	0	32742	32831	32793	32655	32863	32798	32575	32715	
211	0	32710	32831	32675	32765	32612	32831	32679	32615	
212	0	32711	32867	32819	32730	32783	32935	32742	32599	
213	0	32626	32846	32785	32668	32807	32915	32740	32609	
214	0	32626	32823	32727	32767	32811	32903	32727	32581	
215	0	32688	32949	32695	32775	32775	32935	32747	32775	
216	0	32820	32914	32799	32763	32839	32959	32551	32685	
217	0	32796	32871	32919	32694	32620	32827	32738	32631	
218	0	32903	32749	32731	32767	32791	32843	32631	32705	
219	0	32921	32790	32741	32735	32902	32811	32686	32623	
220	0	32898	32669	32722	32757	32838	32727	32551	32633	
221	0	32885	32772	32669	32699	32807	32717	32699	32730	
222	0	32794	32775	32582	32789	32623	32641	32671	32692	
223	0	32689	32773	32515	32691	32841	32672	32619	32643	
224	0	32748	32751	32711	32807	32711	32575	32662	32695	
225	0	32871	32546	32748	32738	32851	32428	32635	32516	
226	0	32782	32678	32725	32756	32813	32433	32698	32660	
227	0	32671	32621	32679	32719	32807	32423	32541	32775	
228	0	32712	32611	32583	32759	32876	32487	32733	32733	
229	0	32681	32445	32795	32798	32623	32615	32665	32685	
230	0	32757	32593	32786	32751	32827	32700	32679	32677	
231	0	32844	32622	32717	32710	32823	32764	32503	32707	
232	0	32807	32740	32877	32834	32733	32884	32762	32490	
233	0	32832	32711	32850	32699	32863	32934	32775	32717	
234	0	32818	32939	32710	32775	32717	32964	32569	32679	
235	0	32679	32947	32783	32647	32815	32935	32787	32621	
236	0	32546	33095	32751	32742	32588	32911	32695	32731	
237	0	32584	33087	32734	32703	32791	32901	32679	32551	
238	0	32732	33087	32725	32739	32859	32847	32615	32559	
239	0	32858	32831	32742	32721	32623	32769	32739	32557	
240	0	32852	32579	32711	32789	32821	32719	32671	32642	
241	0	32839	32647	32759	32775	32867	32555	32761	32751	
242	0	32789	32679	32738	32691	32647	32599	32647	32813	
243	0	32634	32726	32671	32775	32756	32645	32541	32715	
244	0	32532	32659	32810	32791	32823	32596	32663	32742	
245	0	32501	32566	32735	32843	32613	32391	32626	32731	
246	0	32559	32681	32613	32654	32839	32471	32623	32498	
247	0	32669	32548	32628	32759	32821	32391	32515	32576	
248	0	32898	32402	32743	32765	32605	32491	32621	32751	
249	0	32945	32402	32700	32727	32797	32583	32722	32679	
250	0	33005	32581	32647	32807	32734	32731	32771	32686	
251	0	32977	32694	32737	32663	32761	32833	32525	32706	
252	0	33095	32834	32714	32795	32901	32831	32775	32533	
253	0	33036	32735	32625	32703	32595	32967	32739	32749	
254	0	32916	32743	32733	32756	32775	32909	32576	32675	
255	0	32918	32814	32791	32735	32730	32900	32655	32673	
256	0	32832	32715	32615	32786	32615	32887	32786	32679	
257	0	32625	32855	32815	32805	32763	32876	32773	32611	
258	0	32417	32839	32837	32775	32843	32834	32719	32611	
259	0	32460	32711	32798	32811	32695	32788	32723	32719	
260	0	32402	32739	32723	32798	32738	32791	32581	32719	
261	0	32404	32687	32871	32647	32839	32638	32791	32635	
262	0	32494	32647	32839	32771	32615	32647	32695	32751	
263	0	32581	32686	32839	32692	32715	32556	32627	32786	
264	0	32635	32715	32732	32767	32844	32583	32671	32711	
265	0	32776	32939	32789	32743	32674	32403	32439	32671	
266	0	32835	32935	32812	32747	32797	32413	32731	32671	
267	0	32903	32903	32663	32711	32885	32447	32639	32607	
268	0	33036	32962	32794	32695	32675	32599	32731	32567	
269	0	32980	32875	32801	32743	32775	32539	32591	32815	
270	0	33082	32927	32687	32724	32859	32804	32763	32713	
271	0	33039	32623	32843	32838	32559	32833	32757	32715	
272	0	33108	32543	32721	32775	32767	32941	32699	32711	
273	0	33040	32401	32541	32831	32807	32890	32615	32594	
274	0	32865	32519	32751	32835	32619	32962	32635	32773	
275	0	32738	32471	32711	32738	32729	32996	32775	32770	
276	0	32735	32317	32757	32748	32713	32899	32741	32681	
277	0	32584	32083	32695	32793	32775	32967	32564	32666	
278	0	32494	32263	32739	32787	32795	32799	32519	32690	
279	0	32590	32165	32817	32731	32809	32775	32685	32621	
280	0	32524	32175	32693	32815	32613	32687	32685	32556	
281	0	32587	32462	32751	32735	32751	32603	32751	32676	
282	0	32749	32701	32718	32732	32795	32647	32575	32804	
283	0	32852	33103	32679	32722	32811	32639	32599	32734	
284	0	32774	33145	32599	32727	32820	32518	32717	32652	
285	0	32751	33311	32647	32775	32815	32431	32655	32630	
286	0	32674	33453	32703	32758	32769	32487	32727	32627	
287	0	32695	33423	32775	32825	32780	32475	32589	32684	
288	0	32714	33278	32647	32831	32735	32471	32735	32559	
289	0	32766	32996	32747	32829	32823	32518	32711	32543	
290	0	32787	32931	32739	32786	32823	32706	32723	32775	
291	0	32806	32757	32805	32731	32660	32726	32538	32686	
292	0	32661	32771	32831	32758	32694	32841	32735	32722	
293	0	32644	32595	32775	32735	32694	32935	32729	32549	
294	0	32680	32575	32699	32704	32598	32918	32603	32534	
295	0	32755	32590	32794	32623	32807	32965	32555	32594	
296	0	32867	32487	32687	32774	32775	33007	32623	32631	
297	0	32879	32581	32754	32859	32714	32879	32771	32775	
298	0	32903	32427	32743	32771	32759	32903	32687	32766	
299	0	32922	32559	32647	32775	32775	32773	32715	32677	
300	0	32833	32629	32757	32775	32935	32757	32595	32674	
301	0	32870	32470	32788	32662	32733	32669	32574	32674	
302	0	32903	32579	32766	32709	32743	32533	32523	32655	
303	0	32844	32613	32803	32733	32713	32577	32722	32719	
304	0	32831	32444	32745	32615	32829	32621	32719	32687	
305	0	32726	32621	32775	32727	32661	32477	32711	32589	
306	0	32678	32739	32823	32851	32775	32463	32727	32573	
307	0	32710	32743	32655	32755	32903	32454	32497	32751	
308	0	32722	32898	32875	32775	32591	32481	32707	32719	
309	0	32858	32701	32775	32655	32749	32635	32735	32684	
310	0	32969	32623	32751	32758	32886	32653	32647	32647	
311	0	32903	32646	32775	32834	32628	32831	32775	32715	
312	0	32929	32566	32767	32692	32767	32887	32683	32679	
313	0	32762	32683	32770	32855	32801	32895	32531	32607	
314	0	32665	32671	32677	32829	32647	33001	32759	32569	
315	0	32605	32841	32914	32742	32711	32919	32735	32581	
316	0	32549	32946	32865	32759	32808	33004	32746	32655	
317	0	32628	33037	32739	32695	32751	32823	32583	32709	
318	0	32490	33159	32861	32726	32559	32807	32612	32612	
319	0	32532	33058	32799	32703	32757	32803	32775	32759	
320	0	32613	33287	32675	32751	32733	32787	32702	32579	
321	0	32868	33159	32773	32775	32743	32583	32711	32573	
322	0	32903	33055	32739	32883	32931	32676	32547	32753	
323	0	32850	33010	32621	32847	32635	32603	32723	32686	
324	0	32738	32923	32647	32805	32749	32575	32617	32626	
325	0	32623	32937	32581	32882	32837	32460	32585	32636	
326	0	32561	32870	32623	32721	32669	32510	32647	32615	
327	0	32532	32763	32606	32815	32775	32461	32751	32586	
328	0	32580	32559	32675	32783	32879	32476	32615	32743	
329	0	32767	32295	32769	32782	32617	32549	32719	32767	
330	0	32998	32313	32743	32738	32751	32625	32695	32731	
331	0	33029	32517	32751	32569	32813	32823	32543	32658	
332	0	33080	32508	32655	32621	32631	32923	32749	32694	
333	0	33130	32678	32738	32663	32764	32895	32719	32535	
334	0	33069	32535	32703	32676	32804	32979	32723	32527	
335	0	32991	32446	32803	32690	32767	32941	32549	32719	
336	0	32871	32599	32822	32711	32831	32837	32749	32641	
337	0	32703	32549	32626	32815	32634	32980	32738	32727	
338	0	32487	32575	32775	32701	32735	32850	32685	32711	
339	0	32372	32687	32804	32809	32901	32831	32546	32562	
340	0	32314	32638	32743	32748	32655	32671	32735	32605	
341	0	32294	32647	32671	32850	32743	32739	32671	32767	
342	0	32391	32665	32593	32813	32844	32620	32698	32663	
343	0	32575	32431	32711	32831	32790	32566	32548	32692	
344	0	32626	32647	32612	32783	32823	32631	32711	32647	
345	0	32666	32835	32807	32802	32619	32495	32711	32735	
346	0	32769	32991	32789	32789	32787	32383	32599	32701	
347	0	32823	33015	32687	32815	32663	32463	32647	32683	
348	0	32903	32891	32807	32701	32797	32575	32751	32746	
349	0	32955	32927	32822	32734	32799	32531	32723	32551	
350	0	32908	32965	32719	32787	32602	32655	32675	32617	
351	0	32996	33042	32887	32671	32770	32859	32539	32794	
352	0	33030	32802	32830	32757	32834	32843	32797	32698	
353	0	32991	32959	32849	32775	32596	32951	32655	32611	
354	0	32878	32878	32767	32809	32781	32898	32736	32669	
355	0	32871	32885	32699	32801	32733	32888	32547	32637	
356	0	32805	32647	32869	32773	32770	32854	32722	32663	
357	0	32759	32590	32837	32790	32887	32974	32667	32687	
358	0	32735	32365	32675	32805	32612	32828	32636	32719	
359	0	32829	32457	32775	32849	32807	32790	32563	32631	
360	0	32760	32583	32826	32743	32833	32671	32756	32549	
361	0	32764	32615	32742	32730	32647	32594	32706	32613	
362	0	32890	32749	32767	32865	32755	32594	32730	32687	
363	0	32877	32679	32749	32719	32823	32621	32570	32611	
364	0	32993	32643	32791	32785	32757	32525	32700	32743	
365	0	33019	32679	32750	32787	32919	32477	32698	32619	
366	0	32902	32703	32775	32732	32673	32347	32485	32619	
367	0	32989	32615	32698	32679	32791	32402	32647	32796	
368	0	32914	32559	32663	32791	32852	32591	32701	32734	
369	0	32784	32470	32850	32733	32574	32617	32791	32732	
370	0	32764	32597	32847	32741	32763	32645	32571	32715	
371	0	32817	32503	32690	32721	32718	32825	32760	32694	
372	0	32858	32635	32769	32794	32757	32875	32709	32570	
373	0	32947	32677	32755	32707	32863	32855	32694	32749	
374	0	32964	32657	32797	32767	32515	32983	32671	32647	
375	0	32782	32687	32674	32703	32817	32991	32687	32675	
376	0	32627	32903	32726	32771	32647	32839	32717	32619	
377	0	32496	32829	32756	32671	32822	32891	32626	32594	
378	0	32521	32927	32606	32740	32903	32867	32708	32663	
379	0	32501	32815	32751	32731	32718	32799	32635	32699	
380	0	32344	32893	32762	32711	32799	32687	32695	32679	
381	0	32317	32839	32819	32775	32847	32726	32535	32692	
382	0	32307	32903	32738	32748	32631	32573	32727	32647	
383	0	32388	32967	32705	32789	32740	32633	32711	32733	
384	0	32280	32882	32839	32847	32903	32487	32677	32612	
385	0	32481	32887	32749	32773	32578	32466	32588	32679	
386	0	32596	32815	32771	32747	32883	32303	32655	32756	
387	0	32821	32690	32757	32719	32646	32467	32775	32711	
388	0	32884	32647	32799	32717	32775	32502	32629	32741	
389	0	32856	32655	32807	32715	32826	32631	32775	32687	
390	0	32797	32641	32667	32797	32570	32699	32630	32683	
391	0	32713	32733	32714	32681	32797	32871	32583	32607	
392	0	32692	32751	32705	32745	32647	32829	32751	32823	
393	0	32720	32676	32727	32793	32791	32967	32741	32708	
394	0	32841	32838	32691	32847	32815	33039	32629	32655	
395	0	32927	32871	32799	32799	32775	32877	32771	32713	
396	0	33092	32879	32711	32854	32874	33011	32686	32599	
397	0	33143	32738	32775	32683	32749	32917	32695	32592	
398	0	33069	32695	32743	32870	32903	32791	32559	32791	
399	0	32930	32612	32751	32807	32644	32815	32735	32743	
400	0	32894	32598	32723	32807	32767	32669	32643	32663	
401	0	32902	32603	32722	32671	32879	32647	32566	32671	
402	0	32800	32567	32818	32740	32583	32535	32591	32667	
403	0	32847	32732	32735	32653	32743	32623	32647	32694	
404	0	32861	32591	32655	32754	32631	32557	32598	32575	
405	0	32868	32599	32719	32631	32763	32406	32771	32565	
406	0	32960	32751	32801	32795	32735	32431	32681	32730	
407	0	32867	32771	32815	32720	32775	32450	32717	32756	
408	0	32875	32658	32767	32813	32845	32431	32603	32719	
409	0	32832	32799	32687	32743	32630	32669	32769	32703	
410	0	32750	32750	32723	32759	32743	32662	32747	32644	
411	0	32742	32773	32591	32775	32731	32793	32709	32686	
412	0	32640	32763	32749	32828	32795	32818	32679	32718	
413	0	32636	32698	32615	32894	32791	32895	32525	32745	
414	0	32665	32855	32750	32850	32719	32943	32775	32710	
415	0	32630	32861	32783	32860	32771	32999	32691	32661	
416	0	32582	32989	32771	32786	32815	32847	32647	32621	
417	0	32611	32832	32685	32747	32759	32967	32623	32754	
418	0	32638	32783	32621	32775	32879	32820	32709	32713	
419	0	32790	32645	32838	32749	32599	32668	32738	32671	
420	0	32830	32819	32855	32839	32783	32732	32575	32687	
421	0	32889	32748	32775	32708	32755	32658	32691	32727	
422	0	32870	32815	32791	32771	32575	32684	32647	32687	
423	0	32820	32775	32839	32741	32798	32593	32775	32742	
424	0	32846	32691	32850	32737	32707	32633	32583	32631	
425	0	32815	32599	32791	32699	32756	32571	32679	32751	
426	0	32827	32527	32762	32727	32903	32391	32629	32767	
427	0	32849	32503	32953	32785	32655	32455	32729	32739	
428	0	32839	32239	32767	32721	32775	32559	32597	32701	
429	0	32791	32299	32710	32743	32866	32623	32669	32629	
430	0	32775	32350	32895	32697	32631	32683	32639	32639	
431	0	32796	32679	32751	32765	32717	32863	32835	32645	
432	0	32783	32894	32739	32770	32695	32903	32623	32723	
433	0	32810	33060	32867	32796	32763	32919	32831	32687	
434	0	32798	33103	32845	32854	32764	32812	32733	32693	
435	0	32647	33007	32797	32775	32707	32903	32663	32734	
436	0	32532	33113	32621	32775	32791	32877	32647	32670	
437	0	32478	32935	32614	32658	32807	32817	32607	32545	
438	0	32560	33019	32614	32807	32594	32829	32691	32735	
439	0	32559	32919	32671	32655	32751	32723	32683	32691	
440	0	32580	32900	32663	32755	32636	32637	32643	32661	
441	0	32586	32862	32607	32615	32815	32707	32679	32702	
442	0	32599	32899	32684	32786	32898	32677	32691	32755	
443	0	32713	32691	32731	32791	32599	32655	32643	32607	
444	0	32766	32893	32643	32741	32767	32559	32615	32591	
445	0	32847	32663	32807	32679	32694	32518	32695	32748	
446	0	32863	32413	32731	32627	32812	32468	32673	32695	
447	0	32795	32383	32775	32654	32639	32563	32765	32723	
448	0	32735	32372	32827	32684	32796	32499	32671	32737	
449	0	32806	32310	32635	32815	32935	32642	32759	32703	
450	0	32796	32513	32757	32743	32599	32629	32551	32563	
451	0	32772	32423	32723	32791	32783	32827	32732	32611	
452	0	32839	32359	32823	32669	32681	32929	32679	32605	
453	0	32838	32468	32769	32764	32757	32872	32735	32745	
454	0	32812	32759	32611	32724	32775	32967	32571	32679	
455	0	32788	32823	32639	32741	32747	32975	32774	32647	
456	0	32797	32967	32647	32695	32850	32850	32723	32599	
457	0	32829	32942	32709	32745	32607	32901	32591	32582	
458	0	32802	33021	32698	32741	32751	32847	32743	32641	
459	0	32775	32790	32607	32765	32603	32738	32663	32559	
460	0	32682	32801	32667	32707	32793	32762	32546	32612	
461	0	32732	32643	32621	32711	32729	32709	32691	32742	
462	0	32736	32628	32694	32723	32763	32581	32703	32655	
463	0	32660	32698	32733	32727	32827	32609	32462	32717	
464	0	32740	32683	32743	32748	32797	32571	32719	32557	
465	0	32791	32835	32685	32788	32875	32451	32677	32739	
466	0	32865	32802	32674	32771	32775	32443	32452	32695	
467	0	32895	32756	32769	32772	32839	32479	32692	32683	
468	0	32839	32810	32743	32831	32613	32479	32676	32743	
469	0	32781	32799	32802	32759	32764	32639	32703	32702	
470	0	32838	32491	32790	32735	32655	32713	32577	32621	
471	0	32912	32179	32759	32743	32739	32698	32719	32708	
472	0	32935	32066	32771	32756	32697	32915	32703	32702	
473	0	32990	32215	32662	32721	32775	33015	32623	32579	
474	0	32967	32242	32743	32679	32751	32931	32679	32583	
475	0	32962	32620	32681	32731	32743	32919	32705	32765	
476	0	32946	32737	32809	32658	32847	32857	32583	32745	
477	0	32827	32967	32823	32767	32623	32783	32738	32663	
478	0	32774	32901	32897	32734	32739	32827	32677	32615	
479	0	32679	32989	32831	32835	32815	32753	32619	32685	
480	0	32584	33015	32830	32885	32543	32707	32583	32723	
481	0	32462	33195	32851	32751	32748	32583	32658	32619	
482	0	32448	33147	32839	32775	32605	32621	32685	32583	
483	0	32436	33254	32771	32691	32771	32582	32567	32727	
484	0	32395	33223	32767	32731	32677	32594	32695	32599	
485	0	32462	33098	32673	32740	32807	32527	32775	32685	
486	0	32511	32974	32839	32815	32895	32406	32503	32605	
487	0	32667	32873	32885	32719	32607	32481	32685	32557	
488	0	32614	32724	32877	32833	32788	32575	32706	32706	
489	0	32728	32846	32895	32746	32635	32535	32591	32790	
490	0	32837	32621	32719	32815	32747	32825	32687	32740	
491	0	32814	32647	32745	32767	32685	32847	32722	32727	
492	0	32833	32573	32605	32675	32751	32821	32655	32607	
493	0	32927	32400	32722	32758	32823	32951	32748	32570	
494	0	33016	32487	32711	32671	32751	32941	32734	32791	
495	0	32966	32529	32719	32679	32839	32871	32789	32747	
496	0	33017	32663	32639	32735	32695	32867	32581	32684	
497	0	32944	32719	32498	32823	32769	32915	32733	32637	
498	0	32844	32631	32671	32783	32911	32775	32707	32663	
499	0	32736	32690	32633	32663	32598	32798	32677	32677	
500	0	32605	32719	32687	32694	32807	32687	32499	32687	
501	0	32703	32767	32631	32677	32749	32683	32755	32487	
502	0	32789	32663	32615	32838	32835	32685	32592	32583	
503	0	32852	32727	32757	32775	32759	32527	32623	32769	
504	0	32802	32635	32767	32804	32799	32583	32495	32731	
505	0	32775	32662	32767	32753	32876	32535	32703	32617	
506	0	32751	32647	32655	32827	32627	32391	32615	32694	
507	0	32809	32571	32658	32743	32759	32514	32615	32595	
508	0	32820	32539	32743	32775	32615	32595	32719	32629	
509	0	32735	32526	32861	32715	32751	32574	32739	32783	
510	0	32698	32535	32807	32749	32883	32775	32707	32726	
511	0	32620	32706	32727	32775	32583	32833	32577	32743	
512	0	32756	32558	32695	32759	32751	32887	32775	32647	
513	0	32740	32708	32848	32847	32660	32834	32769	32681	
514	0	32669	32743	32821	32806	32759	32858	32559	32710	
515	0	32640	32879	32854	32823	32642	32919	32695	32591	
516	0	32634	32773	32679	32755	32747	32882	32645	32628	
517	0	32699	32947	32711	32805	32875	32991	32674	32614	
518	0	32708	32849	32743	32705	32593	32887	32587	32751	
519	0	32623	32966	32743	32788	32813	32695	32767	32807	
520	0	32709	32852	32839	32719	32583	32750	32687	32735	
521	0	32779	32806	32699	32825	32754	32710	32495	32683	
522	0	32769	32749	32599	32726	32603	32549	32647	32703	
523	0	32806	32676	32694	32739	32799	32615	32566	32563	
524	0	32903	32813	32595	32757	32727	32587	32706	32804	
525	0	32948	32674	32734	32742	32775	32567	32675	32619	
526	0	32941	32727	32570	32770	32698	32501	32582	32722	
527	0	32890	32601	32668	32668	32773	32434	32698	32679	
528	0	32915	32683	32757	32791	32746	32560	32692	32579	
529	0	32881	32628	32784	32740	32759	32601	32615	32743	
530	0	32862	32729	32802	32823	32739	32685	32747	32727	
531	0	32882	32641	32751	32829	32847	32791	32703	32694	
532	0	32712	32775	32861	32809	32788	32839	32539	32721	
533	0	32594	32876	32831	32795	32635	32823	32749	32615	
534	0	32472	32877	32845	32763	32740	32902	32773	32573	
535	0	32468	32943	32845	32743	32617	32888	32644	32775	
536	0	32546	32877	32815	32726	32719	32995	32704	32679	
537	0	32652	32845	32698	32740	32815	32890	32655	32623	
538	0	32623	32789	32554	32775	32749	32766	32519	32707	
539	0	32675	32871	32743	32775	32815	32775	32699	32572	
540	0	32775	32751	32647	32786	32639	32665	32730	32639	
541	0	32826	32659	32699	32809	32823	32579	32519	32801	
542	0	32950	32572	32639	32748	32717	32667	32673	32668	
543	0	32908	32510	32727	32775	32775	32679	32655	32703	
544	0	32941	32695	32747	32804	32639	32699	32813	32587	
545	0	32933	32775	32775	32847	32767	32583	32698	32647	
546	0	32924	32775	32863	32845	32695	32421	32575	32759	
547	0	32818	32799	32885	32734	32773	32518	32679	32647	
548	0	32754	32723	32911	32803	32639	32495	32724	32707	
549	0	32719	32901	32815	32640	32765	32578	32543	32646	
550	0	32677	32775	32831	32695	32613	32699	32715	32535	
551	0	32617	32643	32677	32635	32723	32749	32754	32551	
552	0	32711	32566	32749	32743	32623	32831	32566	32726	
553	0	32794	32285	32660	32775	32767	32935	32690	32685	
554	0	32780	32459	32775	32769	32657	32879	32735	32685	
555	0	32751	32681	32713	32663	32717	32869	32577	32670	
556	0	32811	32947	32706	32683	32710	32866	32719	32695	
557	0	32850	32854	32655	32639	32727	32851	32708	32626	
558	0	32804	32863	32589	32755	32879	32743	32553	32583	
559	0	32830	32689	32727	32647	32613	32764	32719	32589	
560	0	32820	32839	32689	32787	32919	32695	32638	32771	
561	0	32800	32638	32895	32647	32699	32615	32615	32741	
562	0	32864	32703	32803	32785	32773	32615	32769	32669	
563	0	32743	32775	32926	32831	32639	32527	32703	32705	
564	0	32750	32647	32903	32772	32823	32603	32511	32615	
565	0	32713	32708	32887	32827	32679	32493	32741	32619	
566	0	32723	32684	32901	32719	32800	32413	32639	32703	
567	0	32731	32739	32785	32689	32642	32471	32771	32705	
568	0	32645	32827	32747	32852	32823	32430	32724	32636	
569	0	32558	32775	32783	32775	32621	32681	32527	32583	
570	0	32507	32841	32767	32895	32775	32789	32701	32815	
571	0	32658	32724	32725	32847	32631	32799	32802	32715	
572	0	32660	32797	32695	32729	32770	32975	32750	32791	
573	0	32701	32682	32727	32775	32597	32949	32674	32605	
574	0	32764	32559	32735	32675	32794	32986	32621	32539	
575	0	32729	32647	32599	32823	32674	32903	32751	32675	
576	0	32711	32670	32663	32699	32762	32887	32639	32725	
577	0	32679	32813	32594	32775	32695	32900	32534	32647	
578	0	32772	32787	32823	32719	32759	32803	32711	32695	
579	0	32900	32821	32788	32794	32935	32695	32643	32679	
580	0	32871	32813	32807	32767	32787	32758	32539	32599	
581	0	32876	32731	32775	32791	32812	32675	32751	32553	
582	0	32861	32734	32694	32753	32669	32601	32674	32775	
583	0	32873	32612	32805	32757	32751	32615	32521	32658	
584	0	32890	32679	32730	32759	32661	32603	32722	32710	
585	0	32781	32639	32730	32647	32757	32450	32647	32657	
586	0	32789	32870	32735	32714	32619	32447	32609	32579	
587	0	32805	32706	32714	32687	32759	32455	32711	32645	
588	0	32676	32607	32643	32687	32717	32453	32706	32743	
589	0	32757	32628	32769	32662	32765	32682	32519	32641	
590	0	32798	32723	32775	32791	32855	32756	32800	32683	
591	0	32752	32903	32773	32727	32583	32717	32775	32683	
592	0	32712	32823	32830	32727	32831	32903	32557	32705	
593	0	32699	32879	32642	32834	32636	32951	32679	32639	
594	0	32626	32710	32705	32796	32826	32869	32671	32583	
595	0	32679	32807	32678	32821	32598	32949	32595	32814	
596	0	32692	32835	32795	32775	32743	32982	32687	32685	
597	0	32647	32815	32788	32846	32775	32815	32710	32698	
598	0	32687	32735	32711	32789	32733	32857	32590	32682	
599	0	32818	32615	32715	32935	32898	32787	32714	32771	
600	0	32767	32501	32791	32775	32593	32601	32613	32676	
601	0	32843	32511	32806	32738	32711	32762	32646	32675	
602	0	32794	32487	32799	32673	32743	32654	32759	32663	
603	0	32775	32575	32630	32853	32769	32606	32663	32843	
604	0	32774	32733	32734	32647	32894	32631	32631	32746	
605	0	32739	33031	32660	32715	32786	32484	32663	32698	
606	0	32749	33113	32787	32639	32925	32391	32643	32795	
607	0	32663	33082	32607	32716	32759	32519	32524	32655	
608	0	32589	33325	32711	32742	32847	32573	32685	32815	
609	0	32557	33415	32731	32754	32573	32551	32699	32762	
610	0	32391	33362	32738	32791	32831	32706	32551	32671	
611	0	32454	33175	32763	32718	32623	32826	32765	32703	
612	0	32509	33063	32596	32703	32756	32796	32759	32738	
613	0	32469	32967	32647	32711	32805	33037	32724	32581	
614	0	32476	32831	32540	32761	32583	32941	32775	32564	
615	0	32467	32775	32739	32766	32722	32895	32837	32748	
616	0	32374	32594	32615	32799	32799	32855	32823	32718	
617	0	32318	32327	32590	32706	32555	32903	32751	32683	
618	0	32340	32287	32695	32647	32688	32847	32867	32585	
619	0	32361	32199	32631	32707	32655	32682	32797	32567	
620	0	32436	32157	32607	32692	32703	32755	32831	32635	
621	0	32440	32156	32587	32716	32847	32710	32797	32620	
622	0	32680	32070	32565	32735	32620	32591	32863	32413	
623	0	32775	32039	32655	32807	32748	32609	32867	32451	
624	0	32823	31985	32646	32647	32671	32557	32644	32486	
625	0	32819	32096	32634	32775	32783	32415	32903	32628	
626	0	33011	31999	32647	32727	32871	32461	32808	32628	
627	0	33227	32069	32605	32695	32807	32467	32623	32543	
628	0	33472	32047	32533	32719	32879	32463	32845	32643	
629	0	33551	32197	32483	32743	32663	32575	32783	32553	
630	0	33510	32106	32695	32819	32838	32645	32583	32559	
631	0	33739	32065	32727	32742	32789	32684	32717	32691	
632	0	33879	31927	32739	32748	32811	32839	32642	32647	
633	0	34031	32042	32639	32749	32829	32949	32595	32617	
634	0	33974	32150	32695	32717	32759	32855	32534	32647	
635	0	33754	32532	32839	32805	32815	32941	32582	32701	
636	0	33470	32839	32965	32846	32754	32993	32479	32603	
637	0	33031	33113	32978	32883	32805	32855	32403	32903	
638	0	32774	33183	32858	32754	32815	32941	32535	32893	
639	0	32399	33275	32895	32900	32742	32751	32469	32787	
640	0	32227	33311	32999	32823	32767	32677	32291	32767	
641	0	32135	33343	33061	32955	32862	32767	32391	32795	
642	0	32364	33381	33095	32955	32677	32615	32431	32731	
643	0	32607	33243	32979	32911	32799	32591	32324	32647	
644	0	32752	33527	32991	32863	32921	32535	32391	32694	
645	0	32653	33682	33071	32903	32715	32555	32419	32775	
646	0	32724	33745	32919	32839	32847	32457	32334	32879	
647	0	32717	33846	32903	32955	32915	32375	32321	32869	
648	0	32998	33619	33111	32873	32647	32541	32482	32761	
649	0	33149	33470	33110	32947	32852	32611	32535	32743	
650	0	33329	33247	32941	32940	32647	32607	32370	32763	
651	0	33359	33055	32916	32857	32771	32843	32580	32699	
652	0	33236	33020	32774	32725	32742	32876	32499	32558	
653	0	33089	33203	32831	32807	32843	32871	32533	32647	
654	0	32903	33413	32806	32791	32850	33007	32645	32767	
655	0	32893	33133	32823	32730	32756	33015	32679	32755	
656	0	32836	33067	32743	32805	32844	32876	32523	32749	
657	0	32694	32687	32577	32749	32587	32941	32759	32767	
658	0	32703	32505	32543	32745	32747	32831	32733	32659	
659	0	32655	32193	32551	32714	32711	32748	32740	32556	
660	0	32519	32313	32595	32695	32726	32754	32660	32531	
661	0	32460	32339	32563	32763	32855	32729	32791	32525	
662	0	32338	32511	32461	32747	32603	32575	32823	32747	
663	0	32228	32324	32718	32667	32811	32663	32655	32647	
664	0	32186	32499	32692	32659	32599	32580	32799	32617	
665	0	32210	32493	32738	32695	32738	32399	32851	32647	
666	0	32203	32669	32659	32683	32775	32366	32628	32623	
667	0	32233	32578	32503	32594	32767	32425	32823	32555	
668	0	32250	32908	32759	32687	32819	32605	32829	32769	
669	0	32342	32979	32711	32669	32731	32633	32703	32707	
670	0	32408	32821	32795	32715	32855	32647	32823	32687	
671	0	32441	32682	32740	32671	32551	32819	32865	32671	
672	0	32540	32552	32551	32579	32727	32974	32738	32742	
673	0	32598	32775	32749	32567	32700	32890	32873	32718	
674	0	32474	33071	32775	32582	32757	32996	32837	32577	
675	0	32457	32995	32628	32710	32831	32991	32708	32503	
676	0	32410	33135	32719	32695	32699	32900	32826	32717	
677	0	32482	32999	32647	32679	32843	32871	32785	32671	
678	0	32541	32846	32743	32689	32743	32863	32671	32737	
679	0	32615	32839	32819	32891	32791	32795	32754	32748	
680	0	32630	32759	32685	32826	32686	32737	32735	32751	
681	0	32617	32610	32766	32927	32781	32646	32831	32695	
682	0	32636	32661	32621	32869	32809	32543	32595	32566	
683	0	32699	32583	32775	32871	32771	32709	32718	32623	
684	0	32722	32677	32795	32803	32871	32589	32743	32806	
685	0	32763	32807	32615	32811	32693	32503	32532	32775	
686	0	32893	32758	32751	32766	32747	32391	32629	32770	
687	0	32805	32623	32723	32914	32799	32502	32698	32706	
688	0	32870	32621	32783	32855	32755	32539	32695	32707	
689	0	32889	32486	32711	32813	32875	32541	32546	32663	
690	0	32852	32549	32640	32765	32583	32730	32728	32695	
691	0	32832	32455	32699	32805	32723	32786	32647	32684	
692	0	32886	32418	32586	32623	32727	32799	32754	32639	
693	0	32926	32439	32681	32691	32787	32962	32574	32629	
694	0	32962	32575	32769	32627	32799	32983	32763	32551	
695	0	32949	32519	32733	32798	32759	32943	32647	32583	
696	0	33019	32626	32641	32655	32815	32871	32704	32839	
697	0	32964	32561	32833	32814	32722	32943	32593	32759	
698	0	32847	32485	32703	32646	32783	32817	32759	32685	
699	0	32943	32554	32630	32693	32875	32734	32677	32700	
700	0	33005	32576	32786	32655	32599	32615	32647	32701	
701	0	32844	32583	32841	32687	32826	32703	32535	32687	
702	0	32860	32519	32823	32603	32775	32642	32708	32662	
703	0	32852	32506	32813	32704	32757	32591	32646	32694	
704	0	32827	32481	32869	32715	32891	32519	32715	32644	
705	0	32763	32732	32775	32787	32703	32450	32516	32548	
706	0	32665	32839	32865	32739	32734	32439	32735	32604	
707	0	32708	32903	32751	32879	32788	32391	32663	32659	
708	0	32638	32866	32885	32822	32793	32532	32525	32637	
709	0	32783	32834	32825	32821	32903	32635	32647	32623	
710	0	32840	32823	32643	32771	32617	32609	32737	32695	
711	0	32929	32899	32767	32855	32775	32851	32687	32709	
712	0	32841	32823	32751	32791	32767	32941	32513	32603	
713	0	32683	32926	32595	32775	32791	32966	32751	32559	
714	0	32775	32941	32557	32805	32855	32918	32655	32687	
715	0	32756	32915	32465	32799	32562	32971	32741	32787	
716	0	32775	32723	32640	32797	32823	32925	32647	32631	
717	0	32820	32775	32613	32799	32607	32980	32699	32711	
718	0	32850	32551	32725	32775	32775	32839	32773	32708	
719	0	32822	32599	32676	32749	32823	32758	32509	32630	
720	0	32843	32349	32595	32807	32807	32637	32719	32603	
721	0	32663	32581	32767	32786	32887	32738	32684	32743	
722	0	32613	32459	32829	32791	32615	32607	32628	32694	
723	0	32566	32626	32678	32847	32802	32540	32518	32660	
724	0	32508	32647	32791	32711	32807	32599	32709	32639	
725	0	32556	32783	32807	32709	32745	32493	32601	32719	
726	0	32645	32739	32803	32639	32733	32310	32689	32655	
727	0	32701	32759	32871	32679	32646	32458	32605	32654	
728	0	32742	32811	32883	32775	32775	32494	32759	32621	
729	0	32694	32807	32914	32772	32836	32621	32671	32567	
730	0	32694	32814	32831	32799	32610	32639	32711	32630	
731	0	32735	32787	32690	32763	32739	32856	32532	32636	
732	0	32721	32803	32737	32781	32783	32901	32809	32791	
733	0	32746	32629	32683	32751	32775	32902	32667	32686	
734	0	32895	32727	32527	32839	32886	32983	32711	32695	
735	0	32791	32590	32662	32823	32610	32934	32619	32665	
736	0	32948	32718	32599	32775	32764	32959	32655	32655	
737	0	33060	32621	32477	32869	32663	32870	32719	32655	
738	0	32990	32833	32549	32743	32783	32836	32647	32657	
739	0	32895	32800	32647	32758	32878	32799	32695	32645	
740	0	32911	32983	32678	32690	32717	32639	32532	32555	
741	0	32817	32886	32711	32694	32751	32701	32686	32515	
742	0	32767	32974	32771	32710	32847	32635	32669	32639	
743	0	32710	32711	32903	32739	32615	32601	32711	32739	
744	0	32679	32743	32871	32675	32791	32629	32543	32679	
745	0	32753	32726	32903	32709	32703	32531	32679	32743	
746	0	32728	32773	32973	32619	32799	32295	32738	32694	
747	0	32620	32735	32827	32775	32767	32467	32583	32603	
748	0	32494	32775	32997	32755	32769	32583	32771	32674	
749	0	32471	32839	32950	32710	32623	32646	32567	32561	
750	0	32551	32807	32856	32759	32814	32659	32751	32794	
751	0	32687	32941	32891	32711	32739	32727	32647	32804	
752	0	32769	32636	32726	32790	32810	32903	32715	32738	
753	0	32800	32703	32573	32731	32838	32915	32525	32667	
754	0	32845	32663	32703	32783	32623	32863	32717	32653	
755	0	32879	32690	32574	32726	32775	32997	32669	32557	
756	0	32966	32594	32583	32859	32831	32945	32665	32545	
757	0	32972	32554	32487	32726	32611	32867	32541	32603	
758	0	32986	32295	32415	32795	32751	32791	32722	32748	
759	0	32927	32573	32647	32854	32787	32786	32667	32773	
760	0	32967	32454	32706	32751	32608	32743	32646	32773	
761	0	32868	32529	32585	32804	32759	32603	32527	32775	
762	0	32902	32615	32839	32660	32891	32599	32751	32798	
763	0	32834	32732	32749	32751	32707	32611	32669	32714	
764	0	32731	32896	32742	32775	32755	32611	32711	32626	
765	0	32806	32795	32919	32735	32892	32405	32489	32615	
766	0	32900	32756	32919	32743	32598	32455	32741	32759	
767	0	32868	32751	32893	32757	32879	32407	32689	32607	
768	0	32785	32671	32839	32719	32676	32425	32579	32551	
769	0	32735	32785	32709	32713	32767	32615	32702	32742	
770	0	32604	32642	32791	32743	32822	32679	32775	32716	
771	0	32621	32747	32671	32739	32763	32814	32647	32677	
772	0	32594	32677	32855	32672	32877	32893	32708	32626	
773	0	32580	32775	32763	32823	32591	32993	32713	32718	
774	0	32638	32775	32567	32688	32721	32858	32691	32695	
775	0	32630	32863	32669	32791	32708	33003	32759	32609	
776	0	32642	32835	32607	32746	32743	32950	32673	32781	
777	0	32570	32918	32660	32858	32775	33031	32571	32685	
778	0	32521	32759	32699	32809	32823	32903	32727	32647	
779	0	32543	32687	32823	32839	32817	32763	32711	32660	
780	0	32623	32684	32823	32829	32607	32679	32623	32687	
781	0	32726	32606	32831	32799	32765	32701	32711	32640	
782	0	32756	32405	32805	32892	32684	32638	32655	32815	
783	0	32831	32331	32719	32763	32775	32635	32527	32670	
784	0	32870	32660	32899	32735	32763	32631	32667	32732	
785	0	32820	32719	32946	32707	32767	32390	32711	32548	
786	0	32867	32811	32839	32755	32887	32342	32599	32507	
787	0	32865	32583	32775	32694	32772	32455	32753	32657	
788	0	32847	32687	32687	32724	32797	32421	32718	32767	
789	0	32871	32699	32759	32766	32677	32643	32507	32751	
790	0	32882	32772	32711	32775	32791	32692	32748	32669	
791	0	32827	32773	32769	32775	32842	32769	32741	32679	
792	0	32832	32876	32700	32628	32743	32924	32775	32717	
793	0	32741	32843	32573	32742	32836	32971	32553	32687	
794	0	32786	32895	32663	32647	32711	32987	32671	32594	
795	0	32772	32775	32694	32692	32791	32903	32743	32543	
796	0	32775	32811	32615	32703	32831	32975	32722	32759	
797	0	32748	32758	32631	32771	32679	32935	32751	32775	
798	0	32780	32771	32699	32759	32725	32887	32591	32711	
799	0	32768	32714	32655	32739	32900	32717	32724	32700	
800	0	32754	32567	32855	32775	32621	32723	32607	32647	
801	0	32676	32735	32860	32802	32831	32671	32583	32695	
802	0	32717	32691	32924	32831	32583	32557	32735	32590	
803	0	32698	32567	32943	32743	32751	32566	32655	32790	
804	0	32753	32647	32903	32691	32742	32583	32738	32716	
805	0	32775	32703	32927	32740	32791	32415	32595	32671	
806	0	32748	32819	32716	32642	32926	32391	32711	32791	
807	0	32803	32685	32878	32690	32591	32459	32677	32658	
808	0	32841	32828	32803	32719	32811	32559	32602	32607	
809	0	32760	32943	32837	32631	32598	32629	32711	32730	
810	0	32711	32711	32741	32715	32819	32644	32693	32711	
811	0	32742	32735	32816	32757	32587	32797	32605	32775	
812	0	32749	32615	32694	32819	32799	32863	32735	32607	
813	0	32788	32791	32807	32895	32605	33021	32751	32487	
814	0	32791	32772	32725	32786	32711	32956	32575	32749	
815	0	32815	32723	32575	32793	32818	32989	32756	32751	
816	0	32867	32599	32669	32815	32767	32892	32669	32662	
817	0	32841	32655	32671	32851	32836	32925	32539	32662	
818	0	32842	32679	32807	32775	32789	32788	32711	32727	
819	0	32751	32613	32783	32852	32827	32738	32690	32751	
820	0	32727	32647	32791	32751	32599	32687	32558	32501	
821	0	32706	32583	32769	32809	32751	32590	32705	32759	
822	0	32709	32647	32647	32767	32839	32679	32627	32728	
823	0	32629	32577	32684	32799	32759	32572	32572	32669	
824	0	32604	32725	32589	32761	32879	32509	32633	32679	
825	0	32639	32667	32698	32743	32612	32525	32663	32723	
826	0	32644	32814	32685	32702	32820	32470	32647	32686	
827	0	32682	32681	32775	32685	32759	32359	32574	32564	
828	0	32756	32718	32759	32690	32764	32575	32753	32655	
829	0	32806	32643	32661	32761	32903	32572	32666	32615	
830	0	32860	32727	32769	32637	32659	32627	32731	32765	
831	0	33003	32628	32732	32707	32803	32736	32613	32775	
832	0	32959	32759	32647	32715	32863	32935	32743	32695	
833	0	32984	32685	32815	32757	32620	32927	32670	32602	
834	0	32966	32727	32797	32735	32749	32911	32613	32695	
835	0	32903	32676	32699	32759	32629	32990	32789	32599	
836	0	32864	32710	32756	32774	32755	33014	32706	32615	
837	0	32866	32627	32765	32797	32819	32847	32679	32775	
838	0	32775	32685	32754	32713	32738	32839	32645	32719	
839	0	32775	32619	32757	32771	32873	32799	32655	32686	
840	0	32739	32645	32594	32739	32705	32743	32611	32627	
841	0	32710	32631	32807	32811	32762	32603	32647	32699	
842	0	32727	32743	32755	32721	32870	32699	32765	32663	
843	0	32669	32738	32847	32806	32845	32605	32615	32511	
844	0	32580	32843	32887	32741	32855	32474	32647	32687	
845	0	32655	32731	32751	32789	32647	32509	32567	32743	
846	0	32565	32807	32793	32775	32759	32479	32679	32735	
847	0	32703	32771	32845	32802	32742	32391	32667	32703	
848	0	32728	32903	32903	32754	32773	32510	32626	32734	
849	0	32724	32843	32843	32789	32831	32721	32757	32765	
850	0	32785	32980	32687	32647	32596	32644	32743	32709	
851	0	32733	32875	32815	32726	32775	32855	32647	32743	
852	0	32668	32933	32751	32759	32676	32903	32697	32698	
853	0	32713	32669	32799	32735	32813	32914	32703	32571	
854	0	32738	32759	32711	32839	32867	32871	32719	32555	
855	0	32718	32655	32587	32771	32541	32979	32543	32717	
856	0	32749	32678	32756	32795	32751	32962	32749	32714	
857	0	32736	32586	32791	32771	32739	32812	32725	32655	
858	0	32735	32669	32798	32762	32739	32879	32563	32639	
859	0	32747	32598	32743	32646	32770	32823	32743	32727	
860	0	32764	32686	32639	32786	32717	32677	32662	32702	
861	0	32742	32519	32730	32723	32747	32749	32534	32583	
862	0	32786	32685	32663	32735	32847	32684	32743	32631	
863	0	32871	32570	32811	32797	32671	32567	32679	32735	
864	0	32877	32705	32775	32843	32810	32619	32623	32731	
865	0	32899	32599	32663	32828	32875	32487	32541	32727	
866	0	32844	32686	32865	32891	32799	32407	32619	32733	
867	0	32839	32675	32855	32755	32861	32361	32623	32679	
868	0	32861	32711	32655	32767	32605	32477	32695	32675	
869	0	32754	32702	32749	32737	32811	32635	32629	32687	
870	0	32740	32815	32720	32758	32859	32627	32663	32735	
871	0	32796	32694	32751	32693	32735	32825	32735	32703	
872	0	32791	32711	32713	32740	32727	32918	32612	32711	
873	0	32866	32623	32851	32719	32707	32964	32647	32658	
874	0	32845	33027	32819	32766	32757	32935	32719	32515	
875	0	32705	33089	32751	32748	32865	32931	32669	32623	
876	0	32748	33191	32759	32871	32647	33004	32559	32579	
877	0	32735	32945	32743	32807	32771	32839	32583	32595	
878	0	32713	32974	32731	32799	32823	32851	32703	32538	
879	0	32736	32901	32798	32775	32647	32735	32645	32599	
880	0	32707	32665	32790	32747	32735	32724	32603	32735	
881	0	32703	32826	32775	32765	32691	32591	32611	32735	
882	0	32787	32796	32679	32775	32775	32647	32660	32683	
883	0	32783	32723	32773	32811	32834	32653	32659	32683	
884	0	32742	32662	32809	32679	32587	32464	32527	32747	
885	0	32700	32867	32584	32714	32751	32515	32697	32694	
886	0	32762	32788	32679	32716	32828	32443	32601	32597	
887	0	32681	32875	32775	32763	32839	32479	32559	32607	
888	0	32679	32785	32639	32711	32797	32467	32631	32637	
889	0	32669	32935	32707	32758	32855	32670	32711	32577	
890	0	32660	32764	32703	32770	32615	32690	32677	32565	
891	0	32676	32899	32587	32762	32717	32857	32703	32525	
892	0	32685	32943	32801	32803	32827	32866	32695	32619	
893	0	32775	32775	32718	32793	32727	32903	32587	32623	
894	0	32773	32699	32647	32835	32756	33014	32796	32543	
895	0	32819	32551	32820	32815	32895	32967	32700	32563	
896	0	32854	32487	32771	32815	32645	32953	32671	32787	
897	0	32892	32374	32685	32775	32759	32943	32559	32735	
898	0	32873	32519	32859	32703	32871	32799	32731	32607	
899	0	32894	32479	32875	32707	32583	32695	32671	32647	
900	0	32821	32647	32687	32719	32794	32639	32663	32669	
901	0	32843	32773	32818	32843	32844	32703	32639	32684	
902	0	32830	32895	32751	32764	32706	32587	32519	32659	
903	0	32724	32823	32700	32759	32751	32647	32786	32623	
904	0	32775	32790	32759	32847	32813	32503	32655	32711	
905	0	32748	32727	32748	32658	32742	32470	32679	32732	
906	0	32761	32615	32771	32719	32766	32423	32677	32662	
907	0	32708	32731	32703	32669	32783	32495	32555	32535	
908	0	32740	32647	32647	32735	32682	32448	32707	32739	
909	0	32741	32601	32567	32786	32775	32563	32668	32767	
910	0	32745	32503	32734	32687	32765	32692	32739	32738	
911	0	32724	32839	32642	32807	32658	32854	32684	32717	
912	0	32681	32828	32631	32831	32755	32849	32587	32667	
913	0	32703	32727	32727	32751	32805	32939	32773	32666	
914	0	32755	33010	32635	32756	32717	32983	32723	32636	
915	0	32794	32799	32692	32685	32775	32975	32727	32687	
916	0	32802	32775	32798	32826	32855	32880	32587	32685	
917	0	32764	32749	32715	32822	32694	32861	32643	32567	
918	0	32698	32775	32767	32729	32773	32885	32703	32606	
919	0	32737	32647	32827	32851	32839	32829	32673	32741	
920	0	32730	32682	32771	32757	32594	32726	32515	32685	
921	0	32702	32591	32662	32772	32810	32737	32775	32676	
922	0	32724	32719	32854	32719	32871	32659	32685	32735	
923	0	32705	32662	32756	32719	32695	32559	32630	32719	
924	0	32784	32675	32827	32803	32837	32583	32572	32525	
925	0	32798	32725	32807	32738	32628	32571	32661	32772	
926	0	32813	32583	32830	32711	32871	32331	32623	32682	
927	0	32786	32615	32688	32767	32615	32454	32599	32727	
928	0	32782	32583	32576	32671	32758	32480	32677	32609	
929	0	32740	32711	32666	32723	32633	32647	32671	32630	
930	0	32798	32682	32623	32614	32797	32681	32735	32681	
931	0	32709	32687	32647	32751	32731	32715	32658	32691	
932	0	32679	32687	32647	32734	32789	32945	32751	32641	
933	0	32743	32647	32645	32804	32875	32943	32610	32647	
934	0	32790	32671	32774	32767	32586	32979	32775	32475	
935	0	32758	32775	32730	32699	32725	32894	32721	32566	
936	0	32782	32718	32767	32815	32811	32995	32667	32756	
937	0	32795	32734	32711	32731	32791	32903	32609	32731	
938	0	32804	32655	32825	32695	32823	32775	32735	32693	
939	0	32818	32663	32788	32742	32671	32751	32717	32655	
940	0	32839	32631	32691	32790	32691	32710	32677	32774	
941	0	32791	32760	32757	32726	32859	32684	32612	32692	
942	0	32882	32631	32699	32641	32642	32523	32719	32631	
943	0	32891	32775	32727	32756	32738	32603	32659	32575	
944	0	32872	32758	32773	32823	32823	32603	32543	32629	
945	0	32784	32863	32671	32717	32606	32485	32621	32822	
946	0	32711	32898	32823	32741	32802	32375	32701	32715	
947	0	32766	32903	32703	32663	32625	32418	32708	32646	
948	0	32804	32727	32809	32743	32775	32511	32647	32748	
949	0	32804	32834	32749	32797	32675	32646	32663	32599	
950	0	32742	32735	32839	32850	32775	32724	32751	32549	
951	0	32806	32813	32811	32847	32890	32835	32573	32804	
952	0	32708	32647	32655	32775	32615	32845	32753	32782	
953	0	32781	32833	32773	32822	32755	33027	32685	32749	
954	0	32793	32775	32783	32793	32875	32943	32721	32755	
955	0	32739	32694	32647	32705	32621	32983	32679	32659	
956	0	32789	32695	32758	32663	32749	32863	32691	32587	
957	0	32694	32599	32691	32679	32623	32925	32693	32692	
958	0	32775	32715	32836	32743	32791	32850	32675	32671	
959	0	32735	32529	32773	32711	32842	32685	32518	32634	
960	0	32723	32743	32822	32729	32606	32703	32702	32549	
961	0	32701	32644	32807	32711	32790	32677	32697	32527	
962	0	32610	32727	32679	32681	32838	32645	32706	32607	
963	0	32610	32698	32854	32738	32587	32524	32543	32591	
964	0	32570	32823	32749	32623	32811	32583	32707	32725	
965	0	32647	32839	32868	32772	32647	32459	32719	32675	
966	0	32703	32887	32790	32699	32765	32411	32535	32667	
967	0	32690	32797	32775	32807	32699	32473	32705	32713	
968	0	32685	32654	32735	32711	32758	32518	32775	32570	
969	0	32725	32540	32647	32771	32859	32617	32571	32630	
970	0	32695	32577	32695	32753	32555	32725	32717	32671	
971	0	32791	32536	32586	32791	32791	32864	32711	32691	
972	0	32908	32639	32675	32758	32634	32837	32599	32703	
973	0	32893	32565	32609	32900	32807	32969	32759	32532	
974	0	32860	32663	32647	32799	32647	32839	32724	32751	
975	0	32873	32647	32607	32839	32759	32979	32570	32677	
976	0	32903	32685	32677	32807	32663	32981	32707	32703	
977	0	32922	32887	32685	32732	32786	32877	32694	32683	
978	0	32865	32821	32851	32765	32837	32836	32553	32644	
979	0	32809	32775	32773	32738	32598	32827	32743	32615	
980	0	32761	32595	32821	32767	32813	32690	32643	32723	
981	0	32775	32719	32761	32711	32691	32676	32514	32711	
982	0	32755	32642	32701	32719	32772	32663	32669	32647	
983	0	32731	32887	32823	32703	32805	32565	32734	32702	
984	0	32664	32749	32790	32775	32804	32559	32599	32571	
985	0	32647	32871	32844	32765	32775	32487	32742	32595	
986	0	32743	32765	32855	32843	32671	32383	32641	32711	
987	0	32766	32799	32788	32691	32773	32463	32790	32738	
988	0	32706	32695	32810	32763	32903	32558	32542	32679	
989	0	32748	32753	32694	32679	32607	32515	32742	32751	
990	0	32773	32725	32763	32807	32799	32647	32747	32565	
991	0	32756	32703	32674	32769	32595	32755	32643	32719	
992	0	32732	32759	32762	32635	32790	32909	32723	32647	
993	0	32706	32647	32702	32767	32591	32994	32577	32647	
994	0	32797	32838	32703	32713	32801	32914	32734	32574	
995	0	32829	32747	32638	32743	32591	32883	32751	32708	
996	0	32782	32727	32702	32767	32747	32935	32599	32642	
997	0	32797	32748	32741	32749	32794	32921	32695	32703	
998	0	32752	32769	32599	32830	32815	32861	32626	32642	
999	0	32864	32839	32615	32763	32933	32748	32598	32569	
1000	0	32974	32595	32465	32854	32589	32631	32661	32615	
1001	0	32931	32579	32683	32677	32796	32671	32655	32699	
1002	0	32812	32514	32582	32749	32611	32539	32502	32639	
1003	0	32743	32621	32742	32734	32791	32599	32709	32658	
1004	0	32772	32695	32775	32743	32661	32641	32663	32597	
1005	0	32666	32679	32823	32754	32766	32361	32529	32565	
1006	0	32647	32939	32711	32679	32836	32435	32743	32621	
1007	0	32551	32762	32663	32655	32673	32455	32705	32702	
1008	0	32469	32738	32821	32663	32775	32423	32539	32706	
1009	0	32500	32703	32799	32775	32879	32685	32735	32711	
1010	0	32625	32820	32879	32819	32587	32757	32695	32755	
1011	0	32727	32804	32786	32873	32753	32823	32723	32639	
1012	0	32796	32803	32724	32743	32645	32949	32754	32698	
1013	0	32972	32635	32841	32805	32706	33041	32676	32789	
1014	0	33062	32682	32751	32715	32850	32956	32695	32666	
1015	0	32989	32466	32811	32865	32591	32963	32593	32749	
1016	0	32978	32722	32803	32775	32775	32987	32795	32679	
1017	0	32942	32623	32735	32861	32903	32861	32703	32647	
1018	0	32893	32797	32876	32878	32603	32901	32641	32559	
1019	0	32650	32887	32743	32854	32815	32761	32583	32702	
1020	0	32637	33018	32759	32823	32903	32647	32735	32755	
1021	0	32548	33013	32617	32839	32637	32586	32644	32709	
1022	0	32564	32987	32727	32815	32799	32667	32631	32705	
1023	0	32647	32883	32691	32679	32847	32568	32552	32706	
1024	0	32668	32915	32545	32797	32607	32471	32771	32687	
1025	0	32596	32751	32602	32679	32783	32522	32669	32630	
1026	0	32653	32717	32679	32711	32871	32423	32687	32603	
1027	0	32702	32588	32633	32631	32647	32519	32549	32615	
1028	0	32697	32567	32583	32684	32807	32421	32737	32655	
1029	0	32748	32362	32679	32726	32874	32583	32694	32835	
1030	0	32725	32499	32543	32775	32635	32666	32751	32775	
1031	0	32772	32541	32661	32743	32747	32751	32528	32773	
1032	0	32836	32374	32549	32722	32833	32871	32647	32674	
1033	0	32879	32511	32722	32839	32589	32985	32735	32662	
1034	0	32911	32685	32759	32719	32775	32966	32687	32639	
1035	0	32859	33005	32647	32775	32799	32948	32747	32615	
1036	0	32855	32835	32721	32793	32577	32903	32539	32676	
1037	0	32780	32853	32724	32740	32749	32963	32767	32639	
1038	0	32816	32815	32726	32807	32695	32879	32710	32565	
1039	0	32844	32807	32893	32793	32810	32708	32702	32583	
1040	0	32877	32613	32825	32787	32845	32711	32515	32589	
1041	0	32886	32639	32903	32701	32685	32679	32731	32647	
1042	0	32820	32691	32775	32731	32798	32647	32647	32735	
1043	0	32747	32709	32605	32687	32758	32527	32623	32677	
1044	0	32718	32769	32557	32727	32794	32506	32635	32647	
1045	0	32656	32791	32623	32797	32819	32457	32667	32667	
1046	0	32799	32631	32598	32677	32623	32402	32644	32679	
1047	0	32771	32805	32639	32793	32775	32412	32703	32724	
1048	0	32773	32799	32491	32719	32835	32587	32556	32694	
1049	0	32751	32702	32662	32775	32691	32582	32646	32626	
1050	0	32726	32799	32677	32767	32791	32709	32721	32711	
1051	0	32684	32735	32615	32666	32823	32755	32669	32707	
1052	0	32694	32815	32747	32727	32614	32837	32621	32719	
1053	0	32695	32759	32715	32621	32814	32948	32797	32581	
1054	0	32628	32889	32689	32769	32663	32911	32655	32573	
1055	0	32717	32743	32903	32743	32762	32943	32703	32775	
1056	0	32822	32895	32743	32819	32865	33010	32511	32793	
1057	0	32783	32846	32759	32807	32619	32856	32767	32705	
1058	0	32770	32847	32813	32711	32753	32863	32689	32719	
1059	0	32887	32618	32727	32775	32743	32729	32693	32675	
1060	0	32872	32647	32679	32807	32738	32674	32638	32709	
1061	0	32993	32599	32852	32791	32863	32691	32673	32708	
1062	0	32959	32605	32719	32823	32775	32630	32706	32612	
1063	0	32803	32741	32728	32827	32831	32646	32500	32514	
1064	0	32736	32871	32707	32731	32727	32511	32775	32622	
1065	0	32704	32599	32647	32806	32797	32543	32691	32801	
1066	0	32623	32658	32786	32647	32834	32442	32645	32687	
1067	0	32618	32765	32775	32707	32815	32361	32583	32607	
1068	0	32518	32919	32703	32735	32795	32511	32722	32672	
1069	0	32550	32827	32775	32695	32711	32530	32677	32698	
1070	0	32607	32935	32724	32823	32763	32637	32711	32662	
1071	0	32654	32787	32787	32797	32823	32873	32567	32687	
1072	0	32726	32783	32803	32740	32647	32918	32738	32707	
1073	0	32770	32726	32663	32721	32775	32947	32679	32545	
1074	0	32647	32587	32803	32795	32620	32823	32711	32703	
1075	0	32711	32562	32838	32703	32773	32943	32587	32692	
1076	0	32858	32507	32741	32847	32759	32963	32753	32632	
1077	0	32902	32554	32773	32735	32621	32839	32662	32647	
1078	0	32962	32547	32655	32755	32726	32823	32687	32707	
1079	0	32979	32647	32807	32720	32703	32755	32492	32693	
1080	0	32984	32690	32861	32703	32775	32699	32677	32615	
1081	0	32973	32771	32635	32753	32869	32590	32647	32551	
1082	0	32959	32673	32706	32699	32791	32622	32679	32635	
1083	0	32829	32667	32806	32735	32871	32617	32555	32743	
1084	0	32775	32703	32722	32676	32703	32495	32629	32715	
1085	0	32714	32578	32691	32683	32735	32423	32722	32615	
1086	0	32655	32756	32734	32733	32866	32439	32658	32717	
1087	0	32693	32759	32775	32813	32682	32511	32647	32690	
1088	0	32592	32879	32742	32803	32801	32475	32535	32563	
1089	0	32564	32992	32879	32727	32885	32591	32804	32661	
1090	0	32549	33430	32707	32798	32563	32771	32730	32647	
1091	0	32616	33199	32859	32807	32772	32895	32759	32644	
1092	0	32555	32975	32807	32705	32626	32933	32575	32771	
1093	0	32550	33014	32927	32759	32759	33007	32743	32685	
1094	0	32585	33075	32815	32767	32855	32975	32647	32716	
1095	0	32764	32847	32743	32815	32791	32933	32589	32647	
1096	0	32895	32759	32871	32719	32835	32983	32546	32734	
1097	0	33022	32575	32807	32775	32574	32875	32703	32743	
1098	0	33057	32543	32715	32671	32795	32751	32727	32647	
1099	0	33037	32315	32862	32647	32767	32812	32513	32548	
1100	0	33086	32550	32759	32720	32807	32708	32578	32519	
1101	0	33071	32391	32605	32646	32756	32629	32679	32607	
1102	0	32825	32405	32794	32733	32813	32560	32679	32679	
1103	0	32615	32563	32775	32775	32794	32683	32559	32638	
1104	0	32727	32525	32638	32871	32877	32595	32771	32690	
1105	0	32767	32367	32727	32799	32609	32454	32734	32695	
1106	0	32686	32341	32679	32839	32775	32327	32669	32703	
1107	0	32586	32661	32621	32884	32797	32471	32586	32549	
1108	0	32583	32767	32687	32773	32759	32557	32758	32661	
1109	0	32719	32717	32759	32791	32903	32509	32721	32739	
1110	0	32760	32903	32612	32771	32583	32687	32615	32700	
1111	0	32851	33024	32743	32831	32797	32841	32784	32723	
1112	0	32927	33017	32841	32787	32607	32884	32717	32759	
1113	0	32926	32983	32803	32791	32765	32979	32687	32613	
1114	0	32815	33111	32770	32692	32773	33012	32555	32553	
1115	0	32764	32999	32829	32771	32594	32895	32787	32573	
1116	0	32960	32991	32793	32787	32823	32967	32735	32634	
1117	0	32834	32791	32699	32827	32637	32933	32561	32733	
1118	0	32692	32939	32665	32642	32745	32731	32679	32695	
1119	0	32662	32925	32811	32756	32871	32799	32691	32645	
1120	0	32775	32955	32623	32738	32599	32713	32671	32647	
1121	0	32799	32830	32703	32885	32815	32749	32519	32637	
1122	0	32688	32828	32759	32903	32839	32615	32647	32717	
1123	0	32610	32683	32749	32853	32543	32641	32643	32652	
1124	0	32556	32615	32685	32831	32887	32605	32559	32479	
1125	0	32679	32295	32750	32797	32637	32480	32709	32631	
1126	0	32583	32295	32637	32854	32821	32431	32647	32751	
1127	0	32534	32311	32695	32686	32739	32439	32677	32747	
1128	0	32554	32447	32782	32707	32814	32445	32571	32643	
1129	0	32614	32351	32749	32727	32880	32509	32733	32633	
1130	0	32730	32465	32687	32711	32643	32699	32701	32753	
1131	0	32799	32367	32879	32567	32743	32773	32719	32729	
1132	0	32804	32627	32844	32647	32775	32866	32623	32615	
1133	0	32881	32663	32815	32595	32775	32949	32770	32825	
1134	0	33019	32903	32757	32663	32859	32860	32724	32647	
1135	0	32903	33087	32635	32630	32535	32967	32615	32605	
1136	0	32766	33119	32789	32751	32725	32916	32747	32715	
1137	0	32680	32911	32736	32719	32767	32967	32671	32711	
1138	0	32705	32999	32586	32875	32711	32807	32695	32717	
1139	0	32797	32883	32692	32884	32804	32852	32490	32675	
1140	0	32743	32910	32603	32831	32599	32717	32699	32551	
1141	0	32706	32927	32694	32795	32775	32612	32706	32747	
1142	0	32613	32732	32642	32868	32577	32599	32553	32703	
1143	0	32663	32739	32647	32691	32785	32599	32665	32703	
1144	0	32722	32599	32643	32765	32735	32493	32615	32647	
1145	0	32758	32660	32605	32821	32799	32510	32606	32643	
1146	0	32871	32541	32799	32732	32958	32445	32647	32668	
1147	0	32894	32719	32660	32798	32637	32359	32663	32687	
1148	0	32890	32639	32621	32733	32836	32488	32662	32711	
1149	0	32888	32691	32751	32791	32607	32639	32775	32532	
1150	0	32811	32711	32663	32823	32878	32730	32706	32771	
1151	0	32778	32699	32884	32834	32603	32766	32669	32748	
1152	0	32717	32831	32763	32703	32706	32869	32605	32683	
1153	0	32719	32691	32674	32807	32685	32911	32677	32642	
1154	0	32827	32845	32791	32727	32804	32916	32731	32621	
1155	0	32814	32775	32807	32743	32858	32951	32587	32711	
1156	0	32870	32630	32607	32690	32602	32921	32775	32637	
1157	0	32820	32407	32757	32763	32790	32935	32699	32736	
1158	0	32898	32441	32839	32679	32607	32937	32711	32685	
1159	0	32919	32430	32797	32707	32765	32722	32567	32553	
1160	0	32900	32519	32819	32656	32775	32773	32743	32535	
1161	0	32891	32467	32695	32679	32753	32743	32679	32787	
1162	0	32902	32611	32891	32655	32883	32551	32534	32773	
1163	0	32838	32455	32831	32749	32596	32658	32738	32791	
1164	0	32773	32517	32701	32759	32724	32573	32661	32727	
1165	0	32703	32551	32871	32831	32831	32479	32711	32739	
1166	0	32670	32852	32890	32795	32631	32436	32562	32691	
1167	0	32595	32855	32743	32637	32738	32455	32773	32734	
1168	0	32512	32801	32825	32726	32855	32441	32687	32723	
1169	0	32514	32879	32731	32763	32647	32647	32727	32671	
1170	0	32557	32903	32604	32819	32815	32637	32570	32757	
1171	0	32583	32997	32753	32823	32871	32835	32783	32727	
1172	0	32709	32879	32609	32772	32571	32887	32751	32724	
1173	0	32631	32886	32603	32747	32807	32975	32743	32702	
1174	0	32756	33010	32593	32711	32845	32934	32679	32682	
1175	0	32772	33011	32527	32775	32583	32959	32801	32486	
1176	0	32757	32903	32502	32727	32751	32921	32681	32553	
1177	0	32822	32903	32567	32843	32775	32932	32705	32510	
1178	0	32892	32871	32631	32823	32819	32719	32595	32553	
1179	0	32894	32951	32694	32775	32903	32751	32579	32767	
1180	0	32861	32797	32749	32839	32633	32707	32655	32732	
1181	0	32850	32590	32719	32823	32751	32638	32638	32683	
1182	0	32824	32367	32694	32775	32853	32701	32555	32739	
1183	0	32765	32578	32834	32667	32631	32670	32683	32766	
1184	0	32807	32570	32811	32693	32711	32453	32688	32631	
1185	0	32742	32807	32695	32667	32756	32527	32542	32655	
1186	0	32749	32794	32850	32807	32789	32457	32677	32669	
1187	0	32812	32895	32886	32743	32839	32454	32671	32837	
1188	0	32844	32919	32810	32743	32655	32447	32727	32839	
1189	0	32843	32731	32941	32858	32795	32605	32623	32763	
1190	0	32807	32925	32847	32825	32903	32703	32653	32647	
1191	0	32665	33182	32787	32827	32607	32695	32740	32711	
1192	0	32614	33069	32859	32705	32745	32927	32684	32638	
1193	0	32604	32852	32790	32823	32647	32993	32643	32703	
1194	0	32754	32463	32785	32703	32794	32881	32695	32725	
1195	0	32979	32281	32775	32810	32743	32941	32643	32667	
1196	0	33097	32031	32767	32805	32803	32878	32759	32695	
1197	0	33019	32239	32703	32765	32827	32978	32679	32559	
1198	0	32890	32271	32598	32743	32718	32903	32562	32799	
1199	0	32823	32647	32743	32738	32795	32711	32786	32735	
1200	0	32706	32897	32798	32719	32633	32775	32671	32719	
1201	0	32627	32871	32738	32783	32775	32628	32658	32631	
1202	0	32584	32930	32891	32694	32911	32695	32501	32631	
1203	0	32574	33093	32909	32775	32637	32503	32743	32671	
1204	0	32622	32925	32710	32685	32813	32610	32669	32643	
1205	0	32647	32903	32764	32677	32919	32493	32668	32645	
1206	0	32694	32815	32700	32665	32794	32343	32534	32607	
1207	0	32970	32884	32827	32724	32917	32427	32631	32483	
1208	0	32967	32865	32815	32740	32567	32474	32647	32643	
1209	0	32850	33172	32532	32855	32838	32534	32547	32727	
1210	0	32804	33083	32590	32807	32574	32725	32723	32667	
1211	0	32836	32863	32543	32822	32734	32771	32767	32679	
1212	0	32612	32790	32707	32695	32655	32847	32562	32701	
1213	0	32468	32677	32671	32751	32795	33028	32708	32582	
1214	0	32407	32687	32503	32699	32903	32976	32665	32493	
1215	0	32527	32533	32671	32775	32593	33013	32791	32655	
1216	0	32596	32399	32711	32759	32762	32858	32574	32748	
1217	0	32738	32149	32583	32826	32719	32927	32661	32771	
1218	0	32735	32559	32727	32732	32770	32871	32715	32739	
1219	0	32812	32371	32745	32802	32887	32762	32514	32708	
1220	0	33020	32141	32801	32767	32598	32762	32713	32609	
1221	0	32971	32195	32799	32819	32803	32719	32739	32647	
1222	0	32976	32471	32775	32799	32716	32551	32567	32799	
1223	0	32935	32733	32834	32852	32821	32579	32711	32699	
1224	0	32963	32847	32869	32751	32811	32583	32685	32681	
1225	0	32919	33005	32883	32827	32789	32439	32615	32735	
1226	0	32753	33106	32903	32727	32895	32439	32610	32685	
1227	0	32609	33165	32913	32775	32637	32495	32715	32563	
1228	0	32549	33101	32772	32679	32786	32417	32695	32591	
1229	0	32483	33145	32887	32731	32868	32639	32587	32675	
1230	0	32492	33136	32826	32717	32703	32660	32709	32795	
1231	0	32477	33053	32775	32719	32791	32804	32727	32683	
1232	0	32524	32951	32857	32821	32615	32854	32734	32629	
1233	0	32654	32743	32799	32723	32767	32995	32607	32663	
1234	0	32726	32717	32695	32828	32887	33044	32662	32698	
1235	0	32748	32607	32767	32727	32685	32903	32745	32695	
1236	0	32741	32577	32707	32726	32793	32981	32743	32709	
1237	0	32818	32423	32767	32746	32804	32919	32571	32615	
1238	0	32991	32375	32739	32759	32775	32786	32663	32557	
1239	0	33020	32365	32658	32707	32954	32822	32723	32717	
1240	0	33060	32350	32743	32803	32591	32694	32511	32723	
1241	0	33129	32367	32751	32783	32775	32627	32647	32711	
1242	0	33106	32583	32647	32847	32791	32583	32681	32687	
1243	0	33065	32487	32767	32829	32787	32573	32699	32663	
1244	0	32930	32623	32679	32791	32863	32501	32517	32679	
1245	0	32695	32647	32706	32699	32817	32487	32677	32526	
1246	0	32659	32487	32724	32694	32847	32389	32674	32527	
1247	0	32631	32647	32662	32771	32607	32380	32475	32671	
1248	0	32671	32527	32622	32743	32791	32541	32748	32814	
1249	0	32668	32708	32559	32763	32714	32613	32711	32745	
1250	0	32658	32959	32655	32731	32769	32693	32699	32717	
1251	0	32652	33211	32605	32847	32882	32769	32679	32691	
1252	0	32784	33211	32575	32767	32628	32919	32719	32727	
1253	0	32738	33311	32781	32827	32775	32941	32795	32659	
1254	0	32525	33247	32767	32731	32666	32877	32533	32646	
1255	0	32362	33308	32757	32815	32751	32974	32731	32549	
1256	0	32311	33119	32766	32759	32831	33023	32647	32571	
1257	0	32429	33082	32758	32799	32799	32815	32666	32742	
1258	0	32686	32991	32847	32573	32869	32832	32742	32735	
1259	0	32773	32459	32871	32731	32781	32740	32694	32713	
1260	0	32826	32311	32739	32679	32743	32655	32687	32679	
1261	0	32951	32199	32877	32687	32707	32660	32551	32655	
1262	0	33030	32303	32847	32646	32723	32636	32765	32637	
1263	0	33084	32347	32707	32767	32831	32511	32679	32607	
1264	0	32967	32447	32815	32679	32545	32605	32633	32763	
1265	0	32897	32391	32739	32703	32890	32519	32751	32551	
1266	0	32831	32487	32738	32658	32611	32359	32644	32669	
1267	0	32745	32483	32671	32679	32787	32518	32647	32829	
1268	0	32745	32685	32627	32725	32783	32551	32596	32771	
1269	0	32645	33020	32695	32829	32807	32559	32722	32662	
1270	0	32615	33333	32583	32727	32859	32754	32721	32682	
1271	0	32769	33022	32594	32865	32775	32903	32601	32758	
1272	0	32762	33087	32813	32751	32895	32853	32701	32695	
1273	0	32628	33159	32773	32845	32818	32919	32709	32582	
1274	0	32452	33055	32871	32819	32903	32853	32626	32708	
1275	0	32553	33143	32775	32890	32622	32935	32694	32643	
1276	0	32615	33274	32639	32771	32711	32982	32662	32711	
1277	0	32503	33225	32829	32762	32837	33025	32658	32660	
1278	0	32479	32925	32815	32731	32730	32791	32637	32749	
1279	0	32571	32903	32697	32807	32735	32775	32699	32692	
1280	0	32697	32875	32895	32857	32711	32749	32668	32643	
1281	0	32678	32643	32807	32831	32785	32683	32721	32631	
1282	0	32679	32535	32787	32819	32711	32645	32607	32611	
1283	0	32742	32425	32647	32815	32870	32527	32681	32679	
1284	0	32690	32539	32835	32701	32583	32510	32791	32591	
1285	0	32711	32487	32807	32605	32811	32549	32751	32596	
1286	0	32763	32335	32735	32595	32807	32501	32815	32573	
1287	0	32717	32391	32789	32642	32759	32410	32639	32582	
1288	0	32701	32379	32711	32683	32737	32502	32879	32540	
1289	0	32556	32387	32711	32559	32775	32647	32855	32582	
1290	0	32396	32375	32775	32683	32767	32703	32893	32534	
1291	0	32314	32407	32628	32647	32791	32703	32775	32699	
1292	0	32158	32277	32676	32525	32710	32815	32775	32572	
1293	0	32223	32039	32399	32644	32789	32979	32823	32533	
1294	0	32432	32091	32482	32759	32711	32989	32957	32431	
1295	0	32579	32093	32420	32615	32682	32991	32879	32633	
1296	0	32681	32247	32342	32707	32787	32843	32787	32620	
1297	0	32962	32291	32533	32679	32876	32935	32711	32647	
1298	0	33074	32527	32499	32690	32683	32806	32835	32615	
1299	0	33169	32363	32477	32723	32786	32775	32783	32603	
1300	0	33401	32319	32705	32719	32875	32625	32721	32570	
1301	0	33668	32263	32523	32799	32674	32565	32709	32537	
1302	0	33694	32391	32655	32846	32775	32543	32570	32499	
1303	0	33692	32415	32758	32743	32952	32549	32671	32562	
1304	0	33927	32431	32803	32843	32671	32457	32611	32623	
1305	0	34119	32231	32751	32823	32850	32455	32562	32647	
1306	0	33876	32193	32847	32837	32895	32391	32418	32707	
1307	0	33512	32356	32961	32791	32663	32327	32615	32679	
1308	0	33199	32407	32917	32835	32831	32505	32551	32682	
1309	0	32850	32845	32997	32863	32891	32587	32549	32829	
1310	0	32566	32988	32879	32757	32641	32717	32379	32844	
1311	0	32359	33129	33010	32775	32797	32807	32315	32893	
1312	0	32225	33213	32885	32863	32831	32861	32493	32809	
1313	0	32237	33319	32992	32837	32692	33028	32355	32694	
1314	0	32410	33543	33029	32844	32810	33015	32417	32691	
1315	0	32622	33511	32754	32911	32837	33005	32319	32627	
1316	0	32715	33671	33027	32839	32825	32869	32371	32647	
1317	0	32751	33678	32927	32967	32663	32835	32438	32637	
1318	0	32797	33537	32973	32921	32801	32871	32389	32611	
1319	0	33185	33403	33088	32917	32881	32799	32307	32591	
1320	0	33494	33271	32859	32969	32679	32607	32356	32669	
1321	0	33519	33267	32823	32911	32815	32681	32431	32767	
1322	0	33628	32967	32917	32826	32865	32587	32479	32743	
1323	0	33500	32957	32874	32855	32796	32605	32355	32750	
1324	0	33332	32959	32743	32720	32820	32455	32455	32742	
1325	0	33042	33263	32879	32726	32620	32531	32560	32765	
1326	0	32807	33250	32839	32647	32802	32375	32655	32749	
1327	0	32656	33247	32833	32710	32775	32383	32495	32741	
1328	0	32666	32838	32855	32630	32751	32415	32653	32700	
1329	0	32596	32351	32727	32690	32877	32578	32713	32743	
1330	0	32542	32002	32706	32627	32571	32694	32643	32695	
1331	0	32482	31831	32611	32759	32852	32795	32863	32723	
1332	0	32529	31931	32647	32775	32623	32911	32875	32583	
1333	0	32615	31999	32623	32795	32802	32979	32775	32571	
1334	0	32570	32515	32638	32755	32590	33007	32882	32756	
1335	0	32481	32847	32554	32727	32741	32991	32925	32703	
1336	0	32407	33375	32587	32711	32685	32926	32711	32685	
1337	0	32146	33409	32489	32735	32703	32884	32935	32663	
1338	0	31887	33466	32446	32686	32790	32834	32839	32585	
1339	0	31684	33532	32605	32734	32580	32767	32820	32602	
1340	0	31708	33111	32535	32686	32694	32753	32859	32716	
1341	0	31788	32717	32722	32735	32589	32731	32871	32551	
1342	0	32055	32429	32657	32671	32802	32575	32702	32713	
1343	0	32125	32303	32843	32743	32553	32643	32775	32677	
1344	0	32184	32154	32847	32715	32727	32590	32787	32676	
1345	0	32167	32210	32775	32663	32579	32483	32767	32727	
1346	0	32281	32351	32685	32673	32771	32446	32784	32679	
1347	0	32494	32717	32743	32699	32681	32413	32789	32679	
1348	0	32710	32787	32647	32751	32773	32471	32628	32580	
1349	0	32739	33197	32575	32791	32869	32625	32791	32623	
1350	0	32692	33359	32773	32755	32578	32703	32796	32703	
1351	0	32928	33362	32662	32775	32727	32719	32623	32764	
1352	0	33223	33127	32756	32685	32702	32967	32767	32722	
1353	0	33267	32771	32735	32847	32783	32948	32738	32670	
1354	0	33319	32535	32589	32751	32804	33015	32775	32722	
1355	0	33251	32787	32786	32695	32681	32914	32581	32725	
1356	0	33157	32653	32775	32635	32767	32974	32679	32623	
1357	0	33015	32531	32815	32738	32799	32903	32714	32615	
1358	0	32809	32259	32762	32747	32767	32765	32623	32663	
1359	0	32839	32134	32833	32734	32866	32850	32687	32631	
1360	0	32893	32117	32921	32765	32775	32798	32626	32615	
1361	0	32876	32015	32839	32658	32883	32709	32594	32833	
1362	0	32782	32273	32837	32747	32635	32697	32603	32764	
1363	0	32811	32543	32734	32738	32841	32574	32487	32647	
1364	0	32903	32640	32723	32647	32610	32617	32670	32751	
1365	0	32836	32759	32575	32845	32815	32527	32661	32663	
1366	0	32751	32829	32735	32739	32694	32331	32547	32594	
1367	0	32789	32761	32679	32903	32690	32431	32701	32567	
1368	0	32687	32711	32695	32866	32815	32485	32658	32527	
1369	0	32552	32899	32663	32805	32755	32514	32524	32747	
1370	0	32621	32799	32675	32791	32871	32653	32722	32671	
1371	0	32535	32983	32599	32842	32590	32743	32731	32663	
1372	0	32514	32954	32612	32827	32813	32854	32717	32551	
1373	0	32450	33039	32748	32748	32610	33023	32629	32619	
1374	0	32456	33147	32799	32805	32771	32941	32677	32647	
1375	0	32479	33095	32863	32711	32717	32861	32669	32615	
1376	0	32566	33019	32745	32724	32852	32931	32581	32559	
1377	0	32672	32991	32767	32708	32827	32939	32647	32581	
1378	0	32841	32927	32738	32631	32799	32775	32705	32628	
1379	0	32898	32902	32679	32745	32767	32804	32775	32635	
1380	0	32985	32503	32756	32711	32794	32693	32653	32551	
1381	0	33166	32326	32747	32694	32883	32737	32631	32594	
1382	0	33069	32207	32843	32647	32606	32647	32627	32671	
1383	0	32887	32451	32870	32655	32791	32580	32658	32691	
1384	0	32834	32587	32715	32743	32836	32551	32703	32775	
1385	0	32825	32723	32805	32817	32647	32516	32647	32775	
1386	0	32767	32745	32863	32725	32838	32415	32540	32767	
1387	0	32738	32557	32663	32797	32798	32391	32743	32734	
1388	0	32724	32663	32786	32751	32638	32391	32695	32695	
1389	0	32824	32587	32775	32829	32739	32602	32743	32582	
1390	0	32855	32749	32582	32829	32867	32711	32538	32583	
1391	0	32876	32809	32751	32878	32603	32722	32663	32647	
1392	0	32842	33069	32632	32850	32799	32927	32692	32698	
1393	0	32893	32835	32756	32829	32749	32966	32732	32679	
1394	0	32947	32701	32659	32783	32575	32962	32607	32647	
1395	0	32989	32558	32593	32685	32765	32901	32659	32591	
1396	0	32983	32739	32715	32795	32653	32930	32727	32633	
1397	0	32882	32579	32713	32771	32775	32946	32741	32763	
1398	0	32957	32487	32737	32817	32898	32827	32527	32749	
1399	0	32881	32363	32783	32758	32574	32727	32647	32733	
1400	0	32815	32447	32711	32791	32845	32695	32663	32655	
1401	0	32671	32485	32819	32718	32685	32690	32574	32783	
1402	0	32506	32404	32743	32703	32791	32647	32669	32632	
1403	0	32630	32594	32903	32713	32847	32572	32668	32647	
1404	0	32820	32370	32895	32626	32603	32525	32567	32549	
1405	0	32967	32378	32754	32549	32822	32474	32635	32587	
1406	0	32873	32645	32903	32647	32819	32427	32695	32605	
1407	0	32669	32903	32791	32714	32797	32381	32642	32775	
1408	0	32608	32871	32858	32725	32807	32503	32590	32742	
1409	0	32695	33007	32766	32804	32677	32579	32635	32719	
1410	0	32630	33051	32703	32839	32783	32663	32715	32757	
1411	0	32438	33143	32769	32863	32831	32820	32771	32631	
1412	0	32440	33017	32655	32743	32764	32847	32570	32734	
1413	0	32439	32985	32771	32845	32839	32854	32749	32598	
1414	0	32361	33026	32775	32795	32633	32982	32708	32647	
1415	0	32410	33159	32633	32810	32810	32962	32701	32535	
1416	0	32582	33079	32639	32799	32881	33053	32605	32571	
1417	0	32679	32943	32545	32875	32639	32935	32761	32626	
1418	0	32858	32590	32551	32775	32722	32927	32709	32807	
1419	0	32938	32399	32655	32775	32791	32827	32557	32739	
1420	0	33030	32295	32455	32727	32647	32669	32597	32801	
1421	0	33010	32391	32631	32819	32763	32735	32745	32766	
1422	0	32949	32338	32637	32855	32854	32615	32677	32715	
1423	0	32950	32583	32515	32687	32830	32571	32701	32687	
1424	0	32957	32597	32735	32767	32894	32514	32531	32695	
1425	0	33032	32706	32799	32683	32637	32466	32759	32753	
1426	0	33013	32719	32797	32731	32755	32487	32679	32685	
1427	0	33076	32819	32743	32671	32903	32355	32743	32638	
1428	0	33086	32868	32773	32743	32599	32471	32567	32655	
1429	0	32954	32595	32772	32775	32747	32598	32545	32640	
1430	0	32858	32509	32804	32727	32741	32711	32741	32543	
1431	0	32784	32527	32751	32694	32766	32700	32759	32555	
1432	0	32734	32647	32867	32671	32826	32879	32583	32762	
1433	0	32676	32559	32902	32823	32571	32933	32775	32671	
1434	0	32623	32539	32851	32735	32826	32887	32671	32690	
1435	0	32671	32562	32843	32758	32575	32916	32667	32790	
1436	0	32615	32775	32646	32658	32751	32971	32574	32765	
1437	0	32540	32836	32795	32724	32902	32861	32591	32727	
1438	0	32522	32950	32718	32607	32601	32913	32690	32639	
1439	0	32590	33158	32671	32749	32775	32802	32710	32620	
1440	0	32644	33317	32875	32659	32821	32643	32643	32575	
1441	0	32623	33077	32924	32687	32821	32743	32621	32775	
1442	0	32506	33159	32767	32639	32783	32669	32690	32767	
1443	0	32543	33123	32901	32767	32679	32671	32671	32714	
1444	0	32591	32991	32853	32845	32831	32455	32734	32631	
1445	0	32676	32711	32655	32719	32769	32534	32567	32667	
1446	0	32763	32459	32870	32834	32694	32421	32623	32663	
1447	0	32893	32273	32757	32815	32759	32520	32741	32722	
1448	0	32921	32359	32551	32815	32852	32445	32660	32694	
1449	0	32861	32555	32755	32731	32662	32706	32731	32743	
1450	0	32876	32587	32711	32797	32755	32751	32543	32775	
1451	0	32831	32681	32633	32807	32866	32749	32789	32647	
1452	0	32752	32509	32773	32785	32596	32834	32753	32610	
1453	0	32790	32587	32820	32773	32775	32979	32727	32633	
1454	0	32980	32171	32691	32747	32751	32939	32559	32582	
1455	0	32834	32317	32749	32863	32711	32899	32743	32605	
1456	0	32816	32410	32863	32847	32807	32975	32669	32771	
1457	0	32684	32338	32644	32885	32694	32923	32717	32671	
1458	0	32584	32391	32713	32793	32720	32803	32561	32669	
1459	0	32647	32553	32709	32903	32797	32807	32751	32629	
1460	0	32647	32807	32766	32877	32749	32688	32747	32711	
1461	0	32574	33279	32735	32819	32930	32732	32495	32773	
1462	0	32747	33141	32655	32825	32626	32663	32735	32694	
1463	0	32807	33239	32758	32732	32791	32625	32675	32562	
1464	0	32799	33181	32647	32765	32642	32615	32487	32653	
1465	0	32798	33125	32831	32759	32815	32508	32791	32853	
1466	0	32873	32999	32873	32771	32911	32371	32639	32694	
1467	0	32941	32739	32743	32655	32591	32455	32655	32669	
1468	0	32931	32518	32787	32687	32767	32487	32586	32711	
1469	0	32891	32529	32799	32666	32811	32597	32747	32647	
1470	0	32860	32479	32852	32683	32578	32579	32631	32615	
1471	0	32796	32668	32679	32775	32751	32743	32727	32559	
1472	0	32716	32591	32834	32807	32740	32863	32682	32519	
1473	0	32696	32702	32831	32707	32755	32863	32739	32731	
1474	0	32736	32689	32797	32515	32852	32941	32679	32754	
1475	0	32760	32735	32658	32546	32647	32883	32583	32586	
1476	0	32668	32668	32743	32567	32806	32862	32611	32611	
1477	0	32711	32587	32706	32788	32957	32935	32767	32647	
1478	0	32797	32563	32604	32791	32647	32827	32695	32724	
1479	0	32863	32509	32758	32844	32799	32767	32687	32611	
1480	0	32764	32711	32742	32871	32861	32683	32482	32611	
1481	0	32756	32677	32689	32769	32587	32747	32702	32835	
1482	0	32805	32775	32599	32771	32820	32775	32615	32775	
1483	0	32893	32669	32535	32695	32623	32686	32666	32698	
1484	0	32846	32799	32733	32855	32733	32679	32583	32719	
1485	0	32966	32607	32791	32700	32835	32559	32701	32681	
1486	0	32937	32673	32586	32743	32809	32359	32714	32599	
1487	0	32805	32727	32805	32743	32791	32461	32665	32787	
1488	0	32735	32735	32758	32793	32667	32487	32646	32691	
1489	0	32699	32671	32711	32765	32755	32511	32713	32679	
1490	0	32742	32879	32775	32799	32839	32604	32706	32719	
1491	0	32805	32725	32781	32822	32527	32733	32653	32599	
1492	0	32690	32623	32720	32723	32715	32871	32671	32583	
1493	0	32729	32454	32747	32815	32821	32822	32747	32620	
1494	0	32662	32439	32707	32725	32781	32937	32679	32730	
1495	0	32525	32740	32818	32695	32807	32951	32743	32671	
1496	0	32534	32893	32749	32735	32791	32993	32617	32707	
1497	0	32634	33046	32687	32679	32742	32881	32692	32701	
1498	0	32714	32929	32754	32783	32841	32898	32633	32489	
1499	0	32839	33031	32671	32713	32666	32830	32724	32613	
1500	0	32879	32811	32679	32731	32815	32658	32511	32747	
1501	0	32911	32974	32725	32845	32915	32679	32700	32731	
1502	0	32828	32987	32727	32734	32647	32667	32663	32647	
1503	0	32773	32771	32592	32791	32742	32562	32718	32711	
1504	0	32897	32605	32767	32709	32807	32599	32508	32639	
1505	0	32996	32301	32847	32791	32749	32519	32711	32559	
1506	0	32933	32413	32865	32766	32903	32343	32690	32719	
1507	0	32871	32103	32834	32803	32602	32435	32703	32711	
1508	0	32598	32143	32934	32805	32767	32471	32527	32647	
1509	0	32249	32287	32895	32829	32713	32543	32740	32722	
1510	0	32255	32647	32877	32743	32756	32747	32775	32663	
1511	0	32407	32441	32823	32751	32802	32867	32597	32846	
1512	0	32428	32595	32846	32767	32575	32823	32647	32695	
1513	0	32364	32701	32858	32823	32745	32951	32735	32679	
1514	0	32337	33260	32609	32925	32775	32954	32717	32671	
1515	0	32487	33444	32657	32917	32754	32878	32587	32479	
1516	0	32545	33855	32541	32911	32815	33035	32662	32818	
1517	0	32677	33959	32538	32823	32738	32851	32743	32731	
1518	0	32826	33671	32484	32853	32755	32810	32647	32620	
1519	0	32972	33267	32426	32812	32891	32694	32699	32663	
1520	0	33121	33221	32567	32773	32623	32700	32580	32612	
1521	0	33053	32793	32571	32854	32822	32639	32662	32495	
1522	0	33156	32391	32559	32655	32663	32662	32647	32822	
1523	0	33052	32239	32723	32655	32757	32693	32510	32738	
1524	0	33063	32215	32794	32629	32839	32621	32755	32677	
1525	0	33092	32091	32884	32775	32598	32441	32701	32711	
1526	0	32967	32247	32775	32721	32754	32466	32631	32727	
1527	0	32956	32260	32823	32659	32855	32487	32692	32679	
1528	0	33046	32685	32919	32791	32627	32487	32503	32598	
1529	0	32927	32759	32885	32687	32748	32532	32763	32795	
1530	0	32862	32623	32903	32675	32853	32676	32675	32734	
1531	0	32910	32620	32991	32669	32763	32839	32669	32687	
1532	0	32868	32752	32893	32756	32775	32827	32679	32723	
1533	0	32841	33001	32690	32701	32621	32911	32591	32539	
1534	0	32967	32979	32742	32686	32731	32883	32679	32751	
1535	0	32811	32739	32677	32775	32647	32916	32719	32619	
1536	0	32734	32679	32855	32711	32813	32967	32583	32677	
1537	0	32775	32436	32832	32668	32743	32851	32743	32557	
1538	0	32770	32436	32691	32727	32721	32871	32647	32743	
1539	0	32749	32391	32639	32690	32855	32831	32511	32692	
1540	0	32761	32551	32551	32751	32710	32671	32775	32675	
1541	0	32727	32446	32791	32663	32799	32679	32667	32527	
1542	0	32745	32617	32821	32807	32615	32658	32708	32759	
1543	0	32671	32551	32655	32775	32790	32523	32593	32711	
1544	0	32671	32661	32831	32826	32919	32578	32519	32621	
1545	0	32639	32690	32702	32795	32639	32455	32673	32714	
1546	0	32548	32847	32661	32669	32759	32335	32711	32559	
1547	0	32527	32939	32851	32719	32791	32359	32743	32537	
1548	0	32593	33223	32755	32751	32581	32511	32643	32675	
1549	0	32679	33231	32790	32757	32823	32565	32479	32808	
1550	0	32728	33124	32871	32877	32631	32647	32747	32699	
1551	0	32717	33057	32787	32887	32796	32902	32694	32749	
1552	0	32715	32803	32679	32923	32725	32952	32742	32635	
1553	0	32820	32901	32751	32871	32809	32917	32583	32823	
1554	0	32830	32703	32722	32877	32903	32978	32727	32743	
1555	0	32799	32679	32620	32743	32631	33011	32703	32679	
1556	0	32775	32481	32694	32823	32849	32865	32637	32783	
1557	0	32592	32503	32708	32855	32615	32947	32647	32534	
1558	0	32609	32286	32684	32799	32766	32902	32679	32727	
1559	0	32580	32037	32767	32765	32797	32686	32677	32628	
1560	0	32643	32211	32815	32748	32595	32759	32687	32711	
1561	0	32703	32357	32743	32679	32807	32659	32537	32702	
1562	0	32721	32500	32934	32786	32631	32540	32675	32508	
1563	0	32535	32606	32943	32687	32759	32632	32739	32654	
1564	0	32422	33067	32983	32766	32763	32611	32524	32730	
1565	0	32738	33439	32883	32711	32733	32423	32702	32691	
1566	0	32892	33562	32741	32658	32871	32471	32679	32770	
1567	0	33144	33592	32886	32531	32563	32439	32735	32693	
1568	0	33066	33719	32819	32647	32789	32445	32533	32639	
1569	0	32854	33515	32706	32659	32743	32549	32743	32794	
1570	0	32810	33563	32839	32775	32773	32707	32692	32671	
1571	0	32807	33447	32809	32695	32847	32804	32734	32613	
1572	0	32734	33125	32635	32804	32670	32767	32519	32711	
1573	0	32684	33015	32681	32826	32772	32900	32722	32639	
1574	0	32822	32789	32631	32727	32887	32948	32667	32595	
1575	0	32899	32404	32532	32844	32621	32989	32740	32790	
1576	0	32791	32131	32694	32827	32751	32819	32558	32671	
1577	0	32800	32295	32721	32879	32751	32965	32655	32647	
1578	0	32698	32221	32519	32882	32822	32945	32711	32641	
1579	0	32678	32341	32598	32836	32883	32747	32718	32535	
1580	0	32876	32324	32692	32821	32642	32775	32563	32643	
1581	0	32943	32419	32567	32679	32775	32659	32787	32739	
1582	0	32951	32567	32775	32775	32871	32679	32711	32646	
1583	0	33062	32759	32730	32775	32643	32647	32740	32783	
1584	0	32965	32527	32707	32742	32807	32644	32461	32567	
1585	0	32664	32435	32711	32692	32715	32547	32705	32623	
1586	0	32676	32327	32705	32609	32763	32349	32671	32719	
1587	0	32615	32473	32738	32671	32918	32413	32727	32599	
1588	0	32613	32447	32719	32644	32629	32548	32615	32642	
1589	0	32548	32759	32699	32711	32791	32535	32652	32565	
1590	0	32403	32575	32739	32700	32635	32681	32756	32731	
1591	0	32413	32617	32647	32759	32736	32803	32559	32679	
1592	0	32602	32426	32870	32868	32863	32839	32747	32740	
1593	0	32756	32410	32727	32787	32599	32959	32748	32535	
1594	0	32694	32679	32839	32823	32767	32919	32563	32795	
1595	0	32853	32954	32855	32783	32695	32943	32775	32647	
1596	0	32924	32887	32823	32796	32775	32932	32706	32705	
1597	0	32848	33009	32823	32775	32740	32803	32535	32502	
1598	0	32850	33103	32893	32775	32796	32839	32751	32743	
1599	0	32847	32815	32829	32725	32877	32789	32708	32685	
1600	0	32535	32775	32695	32796	32630	32711	32708	32743	
1601	0	32401	32991	32843	32663	32763	32626	32525	32670	
1602	0	32495	33231	32735	32787	32865	32671	32775	32615	
1603	0	32674	33255	32717	32807	32634	32637	32623	32629	
1604	0	32671	33039	32810	32795	32732	32527	32691	32727	
1605	0	32902	32567	32773	32743	32839	32471	32597	32676	
1606	0	32830	32647	32578	32647	32580	32459	32699	32679	
1607	0	32775	32711	32641	32687	32757	32334	32671	32717	
1608	0	32964	32579	32727	32713	32922	32550	32678	32647	
1609	0	33084	32470	32610	32847	32699	32590	32551	32519	
1610	0	32993	32487	32678	32877	32823	32679	32735	32575	
1611	0	33220	32607	32675	32743	32894	32756	32647	32615	
1612	0	33160	32814	32669	32799	32629	32853	32719	32727	
1613	0	33151	33039	32827	32775	32751	33022	32571	32707	
1614	0	33062	32941	32861	32769	32821	32943	32775	32666	
1615	0	32999	32735	32757	32823	32661	32883	32685	32607	
1616	0	32859	32847	32853	32759	32726	32870	32705	32669	
1617	0	32607	32829	32783	32705	32767	32959	32671	32737	
1618	0	32495	32783	32619	32737	32742	32788	32499	32551	
1619	0	32330	32721	32695	32683	32771	32623	32685	32757	
1620	0	32470	32861	32767	32759	32885	32775	32707	32719	
1621	0	32540	32631	32817	32763	32599	32645	32567	32702	
1622	0	32374	32399	32790	32739	32751	32583	32796	32739	
1623	0	32271	32124	32727	32759	32854	32623	32713	32722	
1624	0	32420	32337	32855	32742	32586	32617	32765	32679	
1625	0	32512	32391	32743	32725	32763	32559	32533	32598	
1626	0	32503	32436	32708	32607	32699	32391	32719	32713	
1627	0	32647	32530	32601	32711	32775	32449	32607	32715	
1628	0	32797	32645	32524	32711	32775	32551	32621	32697	
1629	0	32792	32603	32615	32828	32749	32567	32631	32647	
1630	0	32850	32685	32645	32767	32770	32783	32679	32619	
1631	0	32709	32839	32711	32754	32862	32811	32682	32606	
1632	0	32679	33125	32679	32775	32607	32847	32538	32739	
1633	0	32767	33124	32586	32695	32797	32937	32790	32637	
1634	0	33062	32803	32679	32859	32567	32911	32739	32679	
1635	0	33094	32799	32765	32738	32703	32843	32556	32662	
1636	0	32948	32696	32715	32804	32757	33037	32719	32573	
1637	0	33104	32679	32847	32783	32759	32950	32695	32679	
1638	0	33106	32599	32747	32823	32863	32797	32589	32639	
1639	0	33089	32715	32855	32787	32740	32775	32710	32535	
1640	0	32983	32693	32817	32846	32817	32695	32771	32763	
1641	0	32964	32479	32855	32825	32775	32709	32535	32668	
1642	0	33084	32479	32794	32887	32866	32653	32714	32679	
1643	0	33177	32399	32855	32705	32591	32547	32715	32583	
1644	0	33152	32519	32696	32791	32805	32621	32541	32729	
1645	0	32953	32607	32899	32654	32713	32515	32685	32708	
1646	0	32865	32623	32863	32663	32807	32335	32647	32740	
1647	0	32583	32643	32751	32647	32894	32427	32762	32706	
1648	0	32453	32879	32667	32685	32695	32463	32686	32534	
1649	0	32576	32783	32645	32747	32781	32575	32532	32812	
1650	0	32582	33006	32711	32630	32852	32696	32743	32754	
1651	0	32503	32950	32701	32743	32599	32887	32732	32629	
1652	0	32519	33223	32829	32839	32813	32965	32743	32689	
1653	0	32642	32979	32981	32747	32877	32890	32703	32723	
1654	0	32550	32933	33029	32756	32565	33022	32530	32615	
1655	0	32614	32687	32751	32755	32767	32980	32671	32807	
1656	0	32858	32759	32837	32775	32741	32989	32615	32667	
1657	0	33005	32775	32647	32757	32771	32999	32647	32623	
1658	0	32998	32692	32715	32791	32894	32833	32695	32561	
1659	0	32886	32855	32692	32731	32548	32658	32687	32734	
1660	0	32850	32727	32692	32735	32839	32687	32558	32638	
1661	0	32855	32562	32679	32723	32630	32693	32731	32735	
1662	0	32679	32311	32679	32733	32747	32611	32727	32647	
1663	0	32610	32391	32583	32711	32597	32595	32634	32679	
1664	0	32538	32569	32547	32786	32758	32515	32691	32678	
1665	0	32732	32643	32597	32647	32727	32507	32677	32694	
1666	0	32605	32898	32500	32727	32769	32434	32679	32685	
1667	0	32218	32923	32831	32809	32893	32456	32623	32732	
1668	0	32301	32963	32805	32783	32647	32437	32598	32615	
1669	0	32429	32868	32687	32823	32766	32605	32690	32647	
1670	0	32626	32811	32749	32715	32661	32761	32679	32803	
1671	0	32758	32837	32607	32807	32769	32755	32599	32647	
1672	0	32632	33103	32791	32735	32815	32855	32705	32751	
1673	0	32808	32887	32739	32747	32623	32899	32671	32719	
1674	0	32751	32983	32561	32734	32769	32935	32692	32627	
1675	0	32644	32887	32671	32767	32647	33039	32589	32491	
1676	0	32751	32764	32723	32815	32795	32991	32727	32634	
1677	0	32705	32667	32583	32775	32757	32903	32743	32598	
1678	0	32949	32468	32775	32843	32663	32821	32661	32789	
1679	0	32807	32583	32747	32775	32805	32694	32628	32748	
1680	0	32719	32451	32734	32815	32836	32705	32611	32551	
1681	0	32888	32538	32811	32743	32589	32718	32695	32647	
1682	0	32988	32603	32959	32761	32835	32590	32647	32559	
1683	0	33062	32681	32975	32707	32583	32587	32829	32737	
1684	0	33316	32559	32811	32801	32749	32515	32634	32634	
1685	0	33164	32655	32893	32685	32823	32459	32685	32709	
1686	0	33159	32435	32731	32623	32755	32406	32532	32647	
1687	0	33117	32743	32647	32545	32855	32378	32635	32558	
1688	0	32972	32711	32851	32622	32662	32511	32671	32783	
1689	0	32756	32959	32806	32711	32789	32535	32643	32695	
1690	0	32709	32885	32470	32685	32839	32719	32717	32637	
1691	0	32681	33023	32531	32803	32716	32775	32637	32685	
1692	0	32583	32989	32500	32834	32775	32951	32631	32700	
1693	0	32388	33238	32279	32801	32855	33004	32811	32635	
1694	0	32206	33215	32439	32813	32718	33015	32711	32527	
1695	0	32238	33098	32455	32807	32782	32951	32619	32731	
1696	0	32450	33071	32545	32847	32837	32975	32646	32647	
1697	0	32654	33099	32627	32729	32734	32935	32645	32742	
1698	0	32473	33029	32587	32775	32846	32805	32647	32620	
1699	0	32410	33139	32869	32647	32607	32747	32631	32734	
1700	0	32612	32867	32933	32823	32759	32753	32703	32689	
1701	0	32745	32598	33015	32795	32855	32671	32756	32690	
1702	0	32695	32379	33018	32745	32582	32719	32582	32775	
1703	0	32632	32475	32991	32739	32751	32719	32625	32660	
1704	0	32805	32242	33159	32742	32895	32563	32721	32638	
1705	0	33021	32095	33063	32659	32615	32455	32731	32812	
1706	0	33284	32243	32903	32801	32802	32431	32561	32708	
1707	0	33518	32331	33025	32718	32813	32452	32770	32706	
1708	0	33246	32314	33004	32734	32782	32481	32739	32623	
1709	0	32974	32301	32767	32663	32743	32606	32719	32555	
1710	0	32813	32340	32727	32705	32719	32634	32550	32699	
1711	0	32722	32221	32789	32708	32749	32767	32743	32647	
1712	0	32684	32451	32791	32695	32755	32835	32687	32738	
1713	0	32862	32559	32681	32783	32647	33005	32674	32591	
1714	0	32826	32620	32581	32711	32811	32890	32581	32492	
1715	0	32703	32719	32707	32763	32896	32759	32743	32671	
1716	0	32842	33039	32726	32775	32586	32919	32723	32686	
1717	0	32624	33001	32564	32823	32765	32877	32659	32647	
1718	0	32399	33003	32623	32829	32788	32719	32554	32659	
1719	0	32199	33019	32559	32894	32730	32808	32699	32647	
1720	0	32298	33057	32767	32783	32903	32828	32644	32607	
1721	0	32347	32975	32834	32834	32607	32706	32498	32751	
1722	0	32509	32979	32876	32685	32743	32706	32674	32645	
1723	0	32877	32743	32957	32727	32637	32675	32676	32735	
1724	0	33180	32748	33119	32657	32847	32544	32494	32577	
1725	0	33005	32791	32901	32717	32957	32577	32731	32543	
1726	0	32891	32669	32783	32731	32609	32487	32611	32751	
1727	0	32999	32499	32861	32743	32799	32343	32554	32671	
1728	0	32928	32663	32586	32758	32711	32519	32773	32763	
1729	0	32881	32519	32834	32751	32811	32578	32671	32554	
1730	0	33087	32276	32839	32639	32871	32645	32621	32818	
1731	0	33147	32353	32711	32712	32563	32775	32594	32692	
1732	0	33026	32466	32517	32749	32762	32871	32727	32647	
1733	0	33114	32709	32396	32782	32771	32927	32690	32676	
1734	0	32895	32775	32479	32743	32773	33019	32573	32552	
1735	0	32974	33292	32425	32759	32765	33008	32713	32703	
1736	0	32895	33717	32647	32855	32699	32896	32709	32687	
1737	0	32966	33667	32582	32756	32811	32935	32659	32711	
1738	0	32964	33097	32429	32783	32903	32806	32643	32533	
1739	0	32824	33171	32610	32775	32755	32647	32709	32769	
1740	0	32582	33079	32527	32815	32839	32769	32690	32655	
1741	0	32135	32947	32548	32822	32655	32666	32621	32509	
1742	0	31746	32957	32647	32762	32827	32562	32676	32769	
1743	0	31997	32583	32785	32822	32645	32639	32668	32743	
1744	0	32373	32305	32903	32831	32775	32534	32525	32742	
1745	0	32623	32231	32679	32893	32795	32543	32692	32658	
1746	0	32660	32413	32871	32847	32827	32491	32668	32615	
1747	0	32644	32487	32841	32772	32743	32487	32751	32727	
1748	0	32902	32423	32775	32732	32629	32470	32679	32721	
1749	0	32948	32167	32631	32631	32719	32579	32703	32686	
1750	0	32790	32167	32579	32699	32665	32655	32645	32815	
1751	0	32940	32345	32735	32751	32748	32795	32727	32662	
1752	0	32877	32583	32884	32835	32720	32902	32729	32679	
1753	0	32722	32994	33005	32807	32807	32903	32655	32475	
1754	0	32690	32738	32895	32791	32773	32917	32789	32767	
1755	0	32847	32575	32890	32775	32751	32799	32680	32698	
1756	0	32908	32555	32844	32835	32885	32836	32606	32703	
1757	0	32799	32867	32735	32813	32617	32883	32607	32573	
1758	0	32884	32858	32854	32813	32746	32885	32723	32495	
1759	0	32993	33071	32851	32640	32751	32667	32663	32731	
1760	0	32877	33435	32711	32679	32543	32769	32679	32655	
1761	0	32799	33543	32743	32631	32788	32662	32527	32692	
1762	0	33212	33315	32623	32711	32718	32626	32775	32727	
1763	0	33391	33015	32743	32701	32787	32535	32691	32735	
1764	0	33394	32967	32615	32657	32789	32621	32694	32621	
1765	0	33123	32850	32758	32759	32679	32550	32539	32543	
1766	0	32691	33299	32692	32715	32834	32423	32735	32709	
1767	0	32361	33470	32911	32717	32775	32421	32695	32695	
1768	0	32407	33068	32911	32723	32742	32471	32602	32563	
1769	0	32292	32775	32775	32621	32830	32607	32707	32791	
1770	0	32299	32247	32988	32617	32759	32738	32671	32721	
1771	0	32444	32171	32787	32571	32923	32787	32759	32612	
1772	0	32690	32248	32810	32694	32707	32883	32671	32795	
1773	0	32586	32479	32687	32671	32822	32947	32599	32665	
1774	0	32714	32447	32855	32837	32644	32941	32759	32751	
1775	0	32644	32455	32876	32842	32775	32973	32718	32595	
1776	0	32625	32223	32619	32847	32823	32991	32687	32641	
1777	0	32559	32103	32647	32755	32813	32941	32501	32662	
1778	0	32710	32165	32543	32841	32822	32869	32622	32710	
1779	0	32569	32263	32695	32735	32807	32723	32660	32633	
1780	0	32696	32263	32639	32799	32771	32814	32450	32599	
1781	0	32945	32199	32519	32747	32645	32733	32684	32782	
1782	0	33220	32354	32623	32719	32788	32609	32736	32687	
1783	0	33138	32634	32529	32654	32775	32611	32614	32690	
1784	0	32839	32921	32553	32711	32799	32559	32680	32607	
1785	0	32788	32847	32607	32655	32867	32493	32662	32655	
1786	0	32646	32767	32570	32759	32703	32371	32671	32717	
1787	0	32629	32514	32583	32639	32815	32445	32543	32613	
1788	0	32671	32947	32615	32695	32807	32503	32713	32679	
1789	0	32751	32963	32662	32623	32735	32540	32767	32535	
1790	0	32844	32672	32798	32807	32839	32721	32543	32671	
1791	0	33008	32775	32791	32794	32593	32775	32814	32763	
1792	0	32635	32837	32655	32870	32740	32815	32740	32715	
1793	0	32850	32815	32671	32898	32815	32970	32757	32669	
1794	0	33076	32812	32795	32903	32575	33007	32606	32715	
1795	0	32931	32871	33015	32830	32794	32903	32759	32567	
1796	0	33110	32987	33183	32871	32607	32922	32743	32699	
1797	0	32963	33235	33122	32791	32746	32887	32639	32679	
1798	0	32775	33385	33015	32815	32607	32954	32751	32708	
1799	0	32722	33593	32919	32722	32748	32861	32738	32551	
1800	0	32631	33639	32885	32809	32642	32655	32647	32809	
1801	0	32353	33543	32881	32839	32791	32707	32749	32685	
1802	0	32020	33239	32925	32734	32790	32674	32725	32700	
1803	0	31891	32725	32987	32772	32806	32551	32575	32660	
1804	0	31809	32427	32973	32640	32662	32603	32612	32775	
1805	0	32047	32255	32826	32684	32804	32439	32510	32647	
1806	0	32416	32038	32557	32642	32606	32372	32635	32583	
1807	0	32748	31919	32514	32714	32734	32410	32647	32578	
1808	0	32935	31563	32231	32626	32751	32566	32539	32783	
1809	0	33002	31889	32135	32605	32839	32583	32635	32695	
1810	0	33108	32100	32070	32489	32891	32627	32615	32603	
1811	0	33482	32511	31847	32647	32619	32831	32647	32703	
1812	0	33883	32433	31895	32631	32897	32935	32749	32503	
1813	0	33987	32719	32185	32711	32644	32927	32743	32615	
1814	0	33773	33137	32615	32867	32799	33028	32837	32775	
1815	0	33528	33151	32903	32820	32743	32979	32630	32685	
1816	0	33220	32999	32975	32847	32743	32810	32715	32703	
1817	0	33077	32911	32876	32873	32861	32887	32667	32658	
1818	0	32784	33122	32925	32847	32700	32755	32431	32525	
1819	0	32336	33275	32771	32935	32775	32583	32679	32603	
1820	0	32082	33357	32957	32892	32759	32697	32629	32693	
1821	0	32047	33099	33021	32867	32791	32703	32757	32655	
1822	0	32295	33543	32967	32775	32853	32518	32594	32755	
1823	0	32317	33295	33033	32775	32572	32556	32725	32550	
1824	0	32326	33405	33095	32676	32757	32591	32676	32577	
1825	0	32463	33189	33096	32615	32707	32565	32489	32747	
1826	0	32373	32419	33129	32613	32711	32487	32705	32694	
1827	0	32350	31905	33133	32703	32851	32517	32711	32809	
1828	0	32797	31975	33012	32647	32647	32563	32596	32730	
1829	0	33027	32311	32869	32719	32806	32740	32595	32614	
1830	0	32599	32519	32822	32704	32859	32839	32711	32827	
1831	0	32444	32823	32559	32807	32791	32987	32727	32725	
1832	0	32475	32881	32196	32791	32799	32895	32583	32729	
1833	0	32391	33139	32244	32829	32679	32950	32690	32703	
1834	0	32563	32987	32051	32751	32748	32903	32759	32647	
1835	0	32978	32863	32132	32811	32850	32975	32813	32719	
1836	0	33156	32615	32017	32775	32611	32948	32587	32647	
1837	0	33114	32647	32188	32791	32819	32810	32627	32663	
1838	0	33393	32479	32855	32735	32893	32805	32673	32535	
1839	0	33641	32655	33121	32775	32775	32683	32631	32686	
1840	0	33799	32748	33271	32857	32903	32671	32755	32551	
1841	0	33661	32531	33380	32731	32766	32607	32667	32509	
1842	0	33309	32068	33287	32903	32847	32595	32510	32725	
1843	0	33511	31529	33348	32890	32582	32555	32761	32621	
1844	0	33195	31775	33127	32802	32731	32493	32687	32639	
1845	0	32562	31963	33176	32775	32802	32507	32738	32630	
1846	0	31743	32293	32947	32827	32559	32370	32546	32763	
1847	0	31367	32463	32903	32734	32758	32407	32717	32671	
1848	0	31175	32861	32903	32655	32611	32553	32742	32762	
1849	0	31365	32923	32837	32675	32767	32659	32588	32615	
1850	0	31638	33151	32867	32615	32883	32610	32653	32685	
1851	0	31912	33511	32861	32679	32621	32870	32787	32811	
1852	0	32406	33383	32933	32711	32767	32894	32759	32739	
1853	0	32586	32719	32898	32903	32759	32897	32551	32775	
1854	0	32659	32726	32925	32771	32719	33001	32683	32683	
1855	0	33172	32577	33235	32705	32802	32966	32623	32571	
1856	0	33508	32535	33001	32641	32767	32994	32715	32612	
1857	0	33920	32655	32775	32655	32571	32886	32618	32707	
1858	0	34258	32855	32756	32647	32731	32885	32580	32741	
1859	0	33948	32903	32707	32750	32621	32807	32726	32551	
1860	0	33701	32903	32705	32694	32767	32699	32743	32707	
1861	0	33177	32753	32553	32685	32791	32699	32539	32647	
1862	0	32166	33014	32642	32604	32802	32647	32596	32673	
1863	0	32045	33167	32727	32685	32790	32566	32623	32617	
1864	0	31919	33372	32743	32655	32726	32551	32655	32621	
1865	0	31953	33202	32982	32753	32817	32442	32583	32707	
1866	0	31987	32730	33331	32631	32759	32322	32799	32775	
1867	0	32274	32399	33311	32675	32775	32391	32749	32639	
1868	0	32228	32338	33105	32629	32891	32431	32634	32679	
1869	0	32220	32631	32692	32821	32628	32554	32662	32772	
1870	0	32885	32731	32210	32767	32799	32679	32674	32699	
1871	0	33581	32743	32146	32879	32703	32791	32751	32568	
1872	0	34038	32439	31963	32861	32775	32831	32679	32614	
1873	0	34252	32255	31727	32845	32925	32975	32556	32722	
1874	0	33854	32175	31613	32929	32625	32931	32732	32581	
1875	0	33305	32500	31671	32838	32818	32919	32661	32627	
1876	0	32738	32962	32107	32903	32901	32938	32706	32687	
1877	0	32462	33207	32417	32812	32647	32973	32567	32647	
1878	0	32390	33335	32807	32799	32835	32995	32578	32589	
1879	0	32647	33335	33021	32786	32707	32807	32727	32801	
1880	0	32476	33509	32958	32723	32775	32788	32719	32719	
1881	0	32197	33333	32839	32713	32868	32665	32551	32694	
1882	0	31894	33159	32695	32695	32783	32611	32690	32540	
1883	0	32157	32950	32903	32691	32838	32583	32739	32571	
1884	0	32516	32434	33250	32654	32614	32465	32806	32763	
1885	0	32541	32258	33273	32565	32740	32564	32599	32671	
1886	0	32637	32305	33415	32733	32876	32423	32811	32711	
1887	0	32846	32455	33271	32712	32574	32359	32707	32681	
1888	0	32855	32220	32871	32821	32715	32519	32671	32570	
1889	0	33344	31742	32787	32818	32642	32605	32711	32679	
1890	0	33605	31254	32542	32833	32788	32694	32623	32724	
1891	0	33447	31507	32111	32813	32629	32783	32734	32607	
1892	0	33220	32118	31803	32726	32785	32852	32571	32855	
1893	0	33487	32293	31879	32775	32725	33027	32725	32727	
1894	0	33129	32445	32102	32839	32799	33001	32722	32767	
1895	0	32825	32707	32164	32740	32815	32863	32492	32551	
1896	0	32228	33251	32358	32813	32846	32935	32711	32662	
1897	0	32204	33671	32576	32799	32927	32933	32703	32610	
1898	0	32155	33903	33030	32869	32807	32822	32485	32600	
1899	0	32091	34085	33270	32911	32916	32726	32599	32572	
1900	0	32084	34171	33615	32823	32787	32625	32639	32703	
1901	0	32475	33987	33834	32843	32831	32731	32514	32655	
1902	0	32728	33380	33581	32815	32621	32603	32751	32727	
1903	0	32415	33341	33557	32787	32763	32553	32695	32591	
1904	0	32470	33091	33405	32631	32582	32598	32510	32723	
1905	0	32895	32391	33269	32615	32770	32483	32639	32737	
1906	0	32939	31951	32991	32556	32575	32375	32775	32683	
1907	0	33079	31725	32683	32615	32722	32431	32637	32539	
1908	0	32948	31842	32343	32575	32759	32478	32754	32789	
1909	0	32886	32067	32445	32681	32775	32503	32617	32725	
1910	0	33036	32283	32617	32639	32798	32674	32658	32679	
1911	0	33097	32434	32681	32690	32580	32827	32615	32605	
1912	0	32815	32532	32407	32687	32695	32854	32796	32603	
1913	0	32538	32609	32327	32809	32756	32925	32719	32727	
1914	0	32477	32943	32162	32796	32759	32919	32700	32647	
1915	0	32709	32391	32092	32983	32895	32922	32623	32604	
1916	0	32457	32366	32580	32825	32630	32862	32795	32711	
1917	0	32786	32199	32817	32831	32790	32937	32693	32595	
1918	0	33056	32285	32766	32751	32873	32847	32745	32557	
1919	0	32775	32597	32966	32842	32631	32775	32562	32507	
1920	0	32822	33101	32949	32847	32786	32661	32626	32759	
1921	0	32255	33175	32791	32790	32775	32711	32731	32738	
1922	0	32048	32995	32799	32766	32767	32748	32711	32786	
1923	0	31687	32765	32806	32807	32879	32578	32559	32667	
1924	0	32009	32879	32589	32775	32615	32619	32571	32543	
1925	0	32492	33133	32628	32541	32737	32510	32709	32647	
1926	0	32500	33039	32723	32647	32769	32308	32658	32783	
1927	0	32831	32773	32678	32692	32775	32443	32527	32657	
1928	0	32999	33058	32546	32767	32887	32487	32703	32639	
1929	0	33223	33309	32439	32831	32807	32551	32694	32839	
1930	0	33498	33122	32687	32819	32847	32758	32590	32739	
1931	0	33805	32647	32921	32949	32807	32851	32713	32796	
1932	0	33610	32109	32903	32911	32775	32885	32703	32699	
1933	0	33385	32547	32818	33011	32635	33083	32751	32619	
1934	0	33630	32283	32771	32967	32751	32961	32551	32780	
1935	0	33734	31935	32743	32978	32899	33039	32701	32703	
1936	0	32999	32383	32854	32903	32583	32911	32639	32679	
1937	0	32293	33166	32999	32811	32738	32971	32677	32759	
1938	0	32074	33551	32775	32819	32719	32855	32511	32583	
1939	0	31935	33715	32623	32666	32743	32754	32734	32615	
1940	0	31557	33258	32668	32773	32830	32721	32738	32797	
1941	0	31674	33300	32735	32757	32628	32812	32741	32790	
1942	0	31972	33685	33061	32795	32763	32583	32551	32699	
1943	0	32428	33531	33171	32629	32879	32587	32737	32668	
1944	0	32455	33223	33053	32529	32551	32415	32742	32527	
1945	0	32369	32447	32743	32453	32758	32467	32866	32511	
1946	0	32514	32135	32879	32447	32687	32431	32615	32674	
1947	0	32711	31651	33149	32383	32695	32287	32934	32641	
1948	0	32751	31671	33023	32473	32725	32479	32951	32655	
1949	0	32545	32231	33059	32519	32590	32615	32922	32631	
1950	0	32384	32699	33071	32611	32754	32769	32855	32647	
1951	0	32363	32719	32941	32677	32879	32771	32802	32603	
1952	0	32461	32599	32559	32543	32647	32815	32978	32503	
1953	0	32132	32497	32181	32686	32735	32962	32863	32609	
1954	0	32535	32347	32119	32667	32743	32951	32807	32551	
1955	0	33188	32087	32121	32627	32679	32822	32735	32625	
1956	0	33257	32247	31935	32700	32791	32967	32882	32500	
1957	0	33526	31679	31381	32789	32671	32922	32775	32629	
1958	0	33893	31339	31367	32775	32859	32799	32559	32562	
1959	0	34191	31055	31495	32802	32783	32757	32685	32583	
1960	0	34415	31031	31989	32786	32916	32703	32677	32510	
1961	0	34701	31399	32241	32825	32933	32575	32493	32443	
1962	0	34322	31878	32284	32869	32822	32685	32743	32703	
1963	0	33828	32341	32763	32829	32860	32663	32577	32663	
1964	0	33492	32749	33177	32835	32627	32527	32551	32711	
1965	0	33060	33405	33515	32798	32797	32494	32421	32695	
1966	0	32632	33751	33647	32879	32725	32435	32515	32622	
1967	0	32375	33980	33767	32868	32743	32368	32487	32735	
1968	0	32282	33316	33483	32993	32876	32575	32380	32893	
1969	0	31988	32870	33177	32987	32655	32583	32519	32751	
1970	0	31857	32775	32903	33003	32812	32606	32375	32807	
1971	0	31865	32883	33061	33098	32705	32682	32329	32677	
1972	0	32231	33315	33335	32957	32807	32877	32463	32897	
1973	0	32912	34007	33398	32971	32935	32883	32411	32815	
1974	0	32804	34111	33241	32915	32647	32887	32453	32773	
1975	0	33415	34230	33071	32757	32825	32951	32385	32735	
1976	0	34004	33791	33177	32867	32878	32959	32311	32693	
1977	0	34142	33067	33099	32739	32832	32893	32425	32735	
1978	0	34085	32767	32932	32722	32884	32786	32371	32545	
1979	0	34359	32625	32863	32639	32791	32812	32429	32670	
1980	0	34145	32357	32839	32733	32785	32741	32382	32806	
1981	0	33430	32183	32835	32839	32877	32589	32486	32698	
1982	0	32478	32383	32863	32895	32644	32583	32489	32667	
1983	0	32076	33223	32571	32903	32739	32619	32434	32647	
1984	0	32358	32967	32751	32863	32697	32535	32683	32858	
1985	0	32080	32493	32846	32745	32703	32562	32742	32775	
1986	0	32102	31815	32961	32711	32799	32471	32587	32711	
1987	0	32012	32013	32775	32703	32747	32471	32694	32790	
1988	0	31239	32610	32935	32677	32790	32575	32703	32595	
1989	0	31140	32775	33149	32687	32773	32588	32762	32643	
1990	0	31506	32675	33107	32607	32662	32671	32838	32807	
1991	0	32106	33046	33001	32769	32735	32725	32683	32695	
1992	0	31967	34218	32903	32731	32751	32838	32832	32634	
1993	0	31855	34502	32658	32751	32807	32899	32984	32698	
1994	0	31762	34999	32487	32839	32783	32966	32935	32742	
1995	0	32069	34653	32401	32797	32703	32991	32938	32639	
1996	0	32126	34210	31925	32863	32759	33039	32807	32551	
1997	0	32279	33445	31554	32775	32602	32903	32775	32495	
1998	0	32660	32659	31791	32587	32711	32863	32887	32603	
1999	0	32870	32447	32015	32593	32827	32871	32793	32755	
2000	0	33206	31963	32233	32579	32741	32823	32717	32597	
2001	0	33613	31449	32524	32629	32714	32693	32523	32677	
2002	0	33330	31434	32775	32679	32775	32615	32553	32715	
2003	0	33845	31655	32607	32599	32645	32597	32775	32607	
2004	0	33537	31822	33071	32665	32719	32575	32758	32556	
2005	0	32854	32049	33150	32543	32636	32407	32823	32793	
2006	0	32032	32447	32989	32561	32773	32415	32685	32631	
2007	0	32142	32859	32747	32517	32805	32403	32749	32713	
2008	0	32097	32948	32460	32703	32726	32421	32827	32592	
2009	0	32090	33091	32412	32687	32787	32581	32751	32734	
2010	0	32336	33203	32775	32734	32789	32631	32791	32711	
2011	0	32606	32821	33093	32799	32893	32793	32799	32723	
2012	0	32280	32769	33146	32839	32587	32871	32641	32571	
2013	0	32375	32478	33335	32899	32775	33003	32612	32564	
2014	0	32636	32567	32959	32864	32839	32820	32711	32765	
2015	0	33191	32125	32691	32871	32764	32993	32727	32759	
2016	0	33684	32005	32939	32841	32747	32895	32698	32658	
2017	0	33791	31995	32647	32876	32698	32763	32423	32673	
2018	0	33943	32279	32325	32727	32766	32775	32677	32629	
2019	0	33471	32407	32153	32766	32775	32825	32687	32543	
2020	0	32635	32263	32271	32839	32663	32820	32803	32635	
2021	0	32334	32214	32414	32762	32831	32637	32502	32732	
2022	0	32973	31951	32351	32625	32913	32645	32701	32655	
2023	0	32802	32146	32483	32731	32591	32647	32695	32678	
2024	0	32836	32603	32893	32835	32845	32519	32676	32623	
2025	0	33318	32990	32939	32827	32723	32543	32515	32573	
2026	0	33014	33307	32847	32835	32839	32455	32662	32759	
2027	0	32666	33727	33115	32863	32943	32501	32583	32807	
2028	0	32588	33467	33399	32890	32599	32590	32486	32663	
2029	0	32663	33191	33269	32775	32703	32647	32647	32731	
2030	0	32857	33091	33236	32818	32738	32859	32668	32773	
2031	0	32587	32845	33215	32753	32795	32794	32699	32615	
2032	0	32623	32667	32802	32959	32775	33027	32742	32623	
2033	0	32566	31940	32420	32927	32642	32971	32761	32583	
2034	0	32999	31199	32087	32995	32717	32949	32615	32719	
2035	0	32719	31563	31743	32847	32752	32836	32771	32595	
2036	0	32711	32180	32119	32835	32836	32862	32654	32607	
2037	0	32381	33236	32359	32791	32951	32847	32562	32611	
2038	0	31979	33887	32300	32746	32583	32758	32475	32537	
2039	0	32203	34183	32529	32667	32871	32771	32644	32719	
2040	0	32535	33553	32699	32748	32887	32759	32698	32799	
2041	0	32193	33467	32839	32825	32829	32627	32782	32720	
2042	0	31959	33167	33239	32850	32827	32663	32491	32744	
2043	0	32086	33255	33223	32733	32677	32591	32723	32619	
2044	0	32172	32891	33177	32655	32795	32615	32681	32562	
2045	0	32467	32805	32943	32527	32815	32419	32655	32579	
2046	0	32713	32751	32731	32533	32610	32451	32567	32543	
2047	0	33214	32885	33124	32442	32759	32375	32633	32762	
2048	0	33396	32647	33472	32463	32867	32469	32695	32647	
2049	0	33047	33119	33829	32479	32569	32441	32647	32639	
2050	0	33383	32995	34258	32564	32713	32694	32646	32640	
2051	0	33579	32637	34101	32831	32743	32727	32567	32679	
2052	0	33202	32443	33577	32839	32543	32941	32877	32823	
2053	0	33661	32087	33245	32903	32683	32924	32817	32644	
2054	0	33812	32463	32735	32895	32661	33087	32757	32628	
2055	0	33799	32575	32198	32823	32715	32983	32551	32747	
2056	0	33657	32539	31999	32762	32869	32994	32714	32679	
2057	0	32887	32263	31579	32703	32629	32926	32662	32742	
2058	0	32157	32561	31505	32738	32775	32879	32611	32535	
2059	0	31558	32971	31415	32759	32715	32814	32599	32742	
2060	0	31174	32935	31647	32701	32871	32762	32583	32644	
2061	0	31602	32338	31695	32847	32698	32663	32603	32721	
2062	0	32260	32071	31860	32825	32829	32615	32535	32599	
2063	0	32879	31814	32079	32943	32903	32575	32623	32583	
2064	0	33166	31652	32391	32826	32850	32552	32751	32707	
2065	0	33645	31623	33131	32899	32846	32503	32655	32644	
2066	0	33573	31965	33303	32829	32634	32411	32767	32745	
2067	0	33464	32458	33501	32847	32854	32407	32729	32565	
2068	0	33402	32687	33355	32749	32607	32419	32549	32723	
2069	0	33083	33181	33195	32647	32773	32593	32612	32706	
2070	0	32705	33799	33015	32630	32599	32687	32751	32647	
2071	0	32029	34135	32714	32621	32685	32690	32631	32613	
2072	0	31559	34076	32847	32598	32706	32827	32823	32637	
2073	0	32060	33510	32885	32642	32757	32948	32687	32729	
2074	0	32334	33105	32847	32647	32824	32833	32647	32755	
2075	0	32711	32751	32582	32535	32557	32991	32467	32647	
2076	0	33207	32759	32565	32633	32850	32931	32691	32654	
2077	0	33192	32690	32820	32853	32702	32845	32621	32715	
2078	0	33012	32677	32769	32727	32798	32877	32675	32686	
2079	0	33308	32135	32797	32774	32914	32833	32655	32567	
2080	0	33281	32135	33097	32766	32583	32655	32727	32614	
2081	0	33017	32357	33303	32852	32755	32722	32703	32578	
2082	0	33287	32257	33243	32805	32815	32663	32647	32517	
2083	0	33671	31853	33581	32815	32796	32615	32441	32575	
2084	0	33537	32367	33577	32703	32711	32595	32758	32807	
2085	0	32835	32812	33539	32727	32719	32487	32703	32775	
2086	0	32793	32633	33223	32691	32735	32509	32731	32755	
2087	0	33140	32607	32274	32799	32843	32487	32587	32623	
2088	0	32890	32714	32075	32704	32639	32343	32712	32679	
2089	0	32066	32941	32219	32679	32831	32540	32743	32711	
2090	0	31936	32815	32039	32775	32879	32699	32679	32743	
2091	0	31781	32621	31942	32594	32620	32775	32717	32785	
2092	0	32198	32549	32069	32679	32775	32851	32603	32679	
2093	0	32498	33107	32114	32605	32757	32858	32709	32694	
2094	0	32623	33717	32452	32765	32615	32971	32719	32635	
2095	0	32070	33895	32301	32783	32831	32941	32679	32682	
2096	0	31642	34175	32159	32893	32702	32871	32606	32597	
2097	0	31454	33918	32107	32807	32855	32941	32575	32479	
2098	0	31344	33603	32204	32887	32943	32845	32681	32743	
2099	0	31292	33028	32675	32933	32747	32719	32742	32711	
2100	0	31806	32631	33486	32923	32823	32766	32718	32751	
2101	0	31982	32847	34287	33011	32647	32868	32829	32717	
2102	0	32850	32117	34247	32999	32719	32641	32769	32647	
2103	0	34053	31439	33799	33049	32644	32735	32622	32639	
2104	0	35180	31382	33429	32934	32759	32562	32647	32707	
2105	0	35472	31651	32796	32823	32662	32411	32694	32742	
2106	0	35271	31950	32361	32782	32823	32399	32522	32621	
2107	0	34600	32095	31878	32679	32735	32314	32647	32586	
2108	0	33820	32275	31983	32687	32901	32437	32549	32567	
2109	0	33415	32142	31717	32834	32935	32527	32417	32681	
2110	0	32805	32445	31583	32703	32694	32698	32495	32679	
2111	0	32674	32303	32212	32739	32883	32739	32661	32620	
2112	0	32569	32530	32612	32677	32663	32877	32737	32725	
2113	0	32217	33030	33159	32814	32766	32997	32549	32559	
2114	0	31502	33821	32989	32759	32706	33042	32833	32726	
2115	0	31349	33683	32879	32775	32683	32981	32799	32769	
2116	0	31334	33463	33143	32695	32767	32948	32559	32735	
2117	0	31671	33299	33287	32754	32627	32903	32612	32679	
2118	0	32050	33171	32749	32677	32767	32843	32771	32729	
2119	0	31746	33119	32135	32723	32564	32743	32663	32760	
2120	0	32159	33347	31901	32734	32822	32807	32731	32502	
2121	0	32665	33527	32020	32647	32699	32703	32694	32498	
2122	0	33056	33159	32043	32660	32794	32547	32637	32713	
2123	0	32775	32726	32123	32537	32687	32615	32540	32694	
2124	0	32722	32075	32565	32583	32787	32473	32647	32671	
2125	0	32749	31739	32975	32614	32948	32391	32559	32647	
2126	0	32503	31631	33522	32573	32691	32389	32671	32605	
2127	0	32387	31527	33900	32485	32828	32391	32523	32548	
2128	0	32673	31565	34222	32583	32837	32375	32841	32551	
2129	0	33602	32175	34091	32583	32518	32463	32802	32582	
2130	0	33665	33155	34268	32709	32701	32757	32887	32665	
2131	0	33573	33170	33835	32759	32607	32795	32674	32758	
2132	0	34043	33019	33593	32852	32711	32903	32804	32722	
2133	0	34303	33355	33269	32756	32692	33014	32794	32687	
2134	0	34364	32895	32436	32738	32713	32923	32606	32702	
2135	0	34205	32919	31975	32727	32773	33027	32719	32742	
2136	0	33651	32871	31967	32734	32775	32981	32677	32599	
2137	0	32912	32766	32045	32839	32853	32807	32622	32555	
2138	0	32524	32540	32055	32811	32713	32915	32717	32490	
2139	0	31943	32495	32335	32899	32835	32775	32559	32567	
2140	0	31419	32489	32563	32754	32842	32725	32631	32557	
2141	0	31634	32956	32669	32868	32643	32603	32335	32742	
2142	0	31145	33141	32799	32871	32903	32627	32527	32638	
2143	0	31111	33083	32851	32903	32700	32506	32581	32631	
2144	0	31042	32847	32751	32871	32775	32519	32543	32731	
2145	0	31461	32854	33003	32933	32739	32418	32565	32615	
2146	0	31990	32695	33183	32767	32701	32391	32755	32527	
2147	0	33122	32391	33197	32743	32791	32463	32669	32707	
