# OpenSignals Text File Format
# {"00:07:80:3B:46:38": {"sensor": ["CUSTOM/0.5/1.0/V", "CUSTOM/0.5/1.0/V", "CUSTOM/0.5/1.0/V", "CUSTOM/0.5/1.0/V", "CUSTOM/0.5/1.0/V", "CUSTOM/0.5/1.0/V", "CUSTOM/0.5/1.0/V", "CUSTOM/0.5/1.0/V"], "device name": "EMGs", "column": ["nSeq", "DI", "RA_L", "RA_R", "OE_L", "OE:R", "IL_L", "IL_R", "MF_L", "MF_R"], "sync interval": 2, "time": "17:54:49.42", "comments": "", "device connection": "BTH00:07:80:3B:46:38", "channels": [1, 2, 3, 4, 5, 6, 7, 8], "date": "2017-5-22", "mode": 0, "digital IO": [0, 1], "firmware version": 772, "device": "biosignalsplux", "position": 0, "sampling rate": 1000, "label": ["RA_L", "RA_R", "OE_L", "OE:R", "IL_L", "IL_R", "MF_L", "MF_R"], "resolution": [16, 16, 16, 16, 16, 16, 16, 16], "special": [{}, {}, {}, {}, {}, {}, {}, {}]}}
# EndOfHeader
0	0	32727	32519	32609	32749	32573	32573	32859	32660	
1	0	32830	32607	32476	32817	32671	32647	32738	32545	
2	0	32906	32549	32597	32739	32485	32625	32937	32575	
3	0	32898	32549	32602	32775	32626	32727	32789	32543	
4	0	32892	32540	32789	32927	32639	32732	32902	32597	
5	0	32853	32567	33159	32924	32833	32647	32757	32601	
6	0	32810	32407	32965	32927	32935	32817	32542	32751	
7	0	32676	32399	32620	32839	32860	32736	32511	32804	
8	0	32696	32659	32726	32999	32807	32883	32549	32628	
9	0	32724	32711	32847	32903	32817	32879	32605	32903	
10	0	32753	32743	32761	32997	32583	32869	32602	32850	
11	0	32852	32540	32633	33007	32623	32751	32699	32743	
12	0	32850	32423	32619	32892	32527	32962	32602	32862	
13	0	32883	32559	32730	32933	32789	32839	32559	32759	
14	0	32824	32511	32871	32882	32765	32521	32558	32745	
15	0	32763	32459	32951	32767	32511	32371	32583	32653	
16	0	32705	32659	32725	32775	32372	32263	32768	32519	
17	0	32643	32810	32630	32723	32540	32407	32758	32479	
18	0	32588	32623	32751	32893	32566	32639	32647	32476	
19	0	32725	32685	32463	32815	32743	32753	32647	32415	
20	0	32890	32615	32787	32863	32443	32821	32882	32387	
21	0	32903	32639	33131	32967	32645	32711	32799	32517	
22	0	32994	32807	32679	32875	32655	32871	32711	32809	
23	0	32692	32659	32259	32952	32812	32894	32623	33087	
24	0	32607	32775	32539	32881	32621	32527	32596	33191	
25	0	32617	32678	33219	32899	32900	32759	32479	33811	
26	0	32742	32775	33015	32967	32615	32935	32647	33335	
27	0	32935	32715	32847	32848	32711	33035	32740	32724	
28	0	32887	32703	32935	32898	32750	32983	32735	32791	
29	0	32866	32773	33035	32671	32592	32859	32959	32679	
30	0	32671	32903	32857	32738	32659	32975	32876	32609	
31	0	32680	32767	32754	32719	32471	32725	32685	32531	
32	0	32756	32677	32741	32795	32677	32839	32594	32621	
33	0	32754	32725	32707	32678	32621	32839	32941	32278	
34	0	32743	32691	32678	32711	32549	32815	32966	32309	
35	0	32856	32599	32815	32587	32828	33052	32698	32734	
36	0	32804	32687	32899	32548	32876	33012	32506	32863	
37	0	32708	32751	32787	32428	32767	32743	32559	32686	
38	0	32691	32467	32511	32436	32538	32667	32751	32694	
39	0	32772	32537	32413	32415	32622	32615	32822	33003	
40	0	32726	32583	32423	32487	32739	32681	32879	33279	
41	0	32775	32615	32515	32591	32863	32645	32511	33343	
42	0	32668	32707	33159	32758	32794	32705	32599	32807	
43	0	32698	32724	33487	32882	32639	32713	32749	32257	
44	0	32741	32668	32959	32925	32612	33087	32933	31727	
45	0	32676	32798	32703	32991	32723	33138	32886	32263	
46	0	32716	32627	32775	32890	32763	32743	32731	32955	
47	0	32758	32733	32795	32935	32775	32275	32605	33197	
48	0	32721	32819	32859	32918	32813	32413	32615	33119	
49	0	32800	32815	33135	32951	32918	32431	32349	33007	
50	0	32767	32830	32918	32730	32773	32967	32541	32590	
51	0	32760	32687	32595	32860	32568	32679	32727	32501	
52	0	32804	32677	32353	32839	32747	32925	33071	32675	
53	0	32825	32647	32366	32706	32327	32583	33119	32066	
54	0	32829	32548	32174	32726	32455	32607	32935	31789	
55	0	32840	32814	32620	32565	32466	32705	32914	32461	
56	0	32722	32695	32683	32517	32766	33007	32771	33382	
57	0	32820	32675	32706	32351	32613	32794	32726	33223	
58	0	32968	32421	32815	32411	32499	32487	32863	33159	
59	0	32810	32363	32533	32483	32576	33115	32585	33604	
60	0	32639	32599	32421	32429	32738	33271	32591	33343	
61	0	32617	32543	32564	32263	32743	33175	32453	33261	
62	0	32391	32941	32551	32374	32871	33340	32461	32903	
63	0	32554	32883	32837	32495	32551	32817	32756	32410	
64	0	32701	32847	32947	32587	32623	32711	32727	32125	
65	0	32859	32756	32815	32698	32590	32402	32531	32387	
66	0	32828	32903	32787	32743	32855	32559	32415	32581	
67	0	32842	32676	32681	32853	32775	32751	32534	32547	
68	0	32963	32539	32643	32852	32886	32718	32591	32583	
69	0	32806	32623	32595	32999	32851	32791	32563	33110	
70	0	32644	32823	32751	32923	32583	33205	32933	32791	
71	0	32758	32759	33107	32685	32755	32647	32946	32647	
72	0	32790	32542	32935	32759	32759	32431	32807	32903	
73	0	32668	32711	32799	32849	32603	32629	32911	32935	
74	0	32636	32507	32725	32663	32495	32967	32903	32549	
75	0	32792	32555	32751	32758	32457	32739	32833	32379	
76	0	32918	32415	32767	32817	32692	32658	32794	32627	
77	0	32955	32621	32884	32759	32707	32902	32615	32937	
78	0	32927	32793	32807	32731	32807	32852	32677	32743	
79	0	32895	32559	32911	32719	32609	32644	32902	32677	
80	0	32791	32738	32999	32809	32695	32577	32823	32609	
81	0	32936	32639	32915	32867	32634	32743	32887	32693	
82	0	32860	32468	32885	32807	32679	32784	32931	32570	
83	0	32678	32787	32850	32825	32595	32935	32751	32691	
84	0	32725	32827	32923	32773	32838	32956	32775	32943	
85	0	32586	32623	32687	32765	32491	32314	32859	32668	
86	0	32609	32845	32692	32811	32551	32095	32823	32308	
87	0	32735	32817	32775	32885	32745	32493	32575	32322	
88	0	32711	32647	32692	32902	32807	32638	32293	32365	
89	0	32655	32671	32753	32951	32755	33019	32411	32505	
90	0	32639	32807	32770	32981	32847	33065	32491	32420	
91	0	32590	32720	32707	33087	32588	32832	32297	32505	
92	0	32804	32799	32623	33103	32821	32420	32157	32823	
93	0	32823	32643	32782	32989	32823	32673	32111	33251	
94	0	32898	32715	32775	32988	32845	32715	32445	33443	
95	0	32892	32599	32799	32903	32391	32765	32825	33095	
96	0	32748	32391	33011	32790	32243	32694	32971	32525	
97	0	32731	32612	32679	32887	32487	32975	32967	32359	
98	0	32775	32655	32655	32771	32751	32789	33311	32519	
99	0	32655	32871	32742	32759	32701	32484	33447	32660	
100	0	32841	32701	32717	32775	32870	32670	33221	32740	
101	0	32820	32691	32646	32658	32911	32839	33077	32831	
102	0	32781	32705	32646	32537	32807	32725	33044	32989	
103	0	32774	32463	32673	32495	32627	32775	32967	32719	
104	0	32828	32642	32721	32554	32789	32743	32797	32613	
105	0	32772	32669	32756	32519	32660	32797	32735	32647	
106	0	32769	32807	32756	32533	32807	32710	32647	32570	
107	0	32749	32581	32684	32577	32567	32670	32655	32545	
108	0	32810	32594	32695	32642	32699	32818	32621	32658	
109	0	32771	32685	32695	32607	32548	32903	32647	32775	
110	0	32815	32567	32790	32700	32710	32807	32687	32727	
111	0	32734	32703	32754	32703	32683	32727	32679	32735	
112	0	32783	32555	32693	32737	32823	32855	32686	32711	
113	0	32757	32663	32735	32739	32662	32749	32647	32647	
114	0	32749	32693	32807	32839	32727	32719	32655	32741	
115	0	32692	32805	32839	32765	32533	32709	32658	32710	
116	0	32666	32877	32877	32837	32699	32811	32647	32791	
117	0	32735	32711	32874	32748	32671	32791	32639	32823	
118	0	32767	32683	32746	32871	32734	32707	32629	32705	
119	0	32786	32569	32763	32858	32551	32824	32607	32775	
120	0	32806	32647	32767	32735	32655	32767	32635	32743	
121	0	32839	32567	32775	32772	32622	32751	32583	32738	
122	0	32785	32646	32703	32755	32713	32699	32591	32739	
123	0	32773	32751	32787	32720	32658	32803	32723	32658	
124	0	32718	32571	32757	32806	32702	32715	32711	32669	
125	0	32722	32533	32745	32705	32683	32775	32871	32525	
126	0	32736	32678	32757	32795	32493	32592	32743	32637	
127	0	32886	32493	32798	32713	32775	32695	32585	32767	
128	0	32817	32647	32900	32820	32799	32694	32743	32543	
129	0	32711	32731	32839	32810	32713	32799	32757	32471	
130	0	32772	32599	32799	32902	32807	32607	32787	32404	
131	0	32805	32828	32721	32833	32631	32631	32671	32635	
132	0	32729	32863	32745	32775	32775	32663	32687	32707	
133	0	32682	32671	32812	32757	32677	32585	32691	32807	
134	0	32732	32786	32871	32743	32743	33017	32701	33415	
135	0	32679	32805	32853	32671	32710	33221	32719	33458	
136	0	32612	32933	32715	32774	32702	32881	32627	32932	
137	0	32592	32694	32734	32783	32647	32847	32646	32745	
138	0	32637	32751	32875	32747	32605	32791	32689	32681	
139	0	32680	32703	32875	32783	32693	32694	32671	32543	
140	0	32597	32429	32833	32786	32599	32811	32703	32727	
141	0	32564	32605	32729	32703	32811	32951	32738	32903	
142	0	32503	32733	32406	32823	32725	32833	32734	32711	
143	0	32532	32823	32553	32766	32743	32589	32678	32640	
144	0	32660	32599	32589	32756	32614	32743	32759	32577	
145	0	32685	32557	32230	32742	32679	32767	32705	32671	
146	0	32684	32612	32441	32659	32603	32617	32726	32605	
147	0	32615	32315	32738	32855	32740	32714	32775	32504	
148	0	32692	32494	33023	32781	32643	32617	32574	32598	
149	0	32807	32295	33021	32863	32703	32763	32647	32623	
150	0	32903	32357	32701	32850	32702	32823	32683	32727	
151	0	32871	32491	32583	32865	32575	32627	32725	32681	
152	0	32870	32333	32627	32886	32748	32583	32699	32759	
153	0	32839	32403	32615	32903	32775	32639	32557	32761	
154	0	32872	32438	32710	32734	32797	32619	32566	32815	
155	0	33036	32387	32748	32919	32813	32791	32417	32959	
156	0	33164	32359	32775	32825	32759	32629	32497	32783	
157	0	33238	32103	32626	32903	32759	32735	32576	32454	
158	0	33140	32167	32711	32799	32555	32716	32701	32271	
159	0	33101	32053	32723	32924	32727	32583	32707	32263	
160	0	33238	31971	32647	32903	32653	32579	32732	32219	
161	0	33306	31937	32590	32943	32726	32471	32593	32441	
162	0	33460	31707	32197	32939	32719	32631	32682	32570	
163	0	33494	31799	32259	32783	32756	32875	32743	32891	
164	0	33391	31991	32463	32870	32688	33115	32838	32935	
165	0	33415	32155	32775	32815	32525	32819	32763	32671	
166	0	33281	32055	33513	32670	32791	33069	32719	33135	
167	0	33246	32359	33183	32601	32594	33143	32925	33202	
168	0	33383	32342	32919	32523	32599	32916	32953	32804	
169	0	33383	32563	32862	32507	32526	32495	32903	32613	
170	0	33164	32439	32855	32515	32807	32743	32678	32717	
171	0	33096	32727	32762	32438	32621	32727	32839	32431	
172	0	32998	32775	32647	32492	32667	32679	32854	32867	
173	0	32964	32841	32620	32511	32553	32751	32933	32916	
174	0	32923	33087	32727	32547	32575	32555	32848	32896	
175	0	32840	33205	32861	32583	32615	32582	32775	33133	
176	0	32607	33491	32859	32623	32710	32751	32694	33212	
177	0	32559	33565	32979	32627	32687	33019	32607	32902	
178	0	32391	33479	32981	32733	32817	32843	32685	32669	
179	0	32260	33718	32930	32663	32619	32934	32771	32388	
180	0	32167	33799	32978	32787	32634	32565	32811	32562	
181	0	32070	34011	32914	32678	32717	32807	32775	32900	
182	0	32013	33811	33087	32671	32583	32731	32711	32839	
183	0	32012	33754	33315	32621	32644	32762	32903	32519	
184	0	32127	33799	33278	32613	32765	32566	32861	32485	
185	0	32102	33687	33095	32525	32486	32591	32743	32787	
186	0	32038	33519	32977	32647	32633	32805	32767	32765	
187	0	32212	33410	32965	32669	32751	32533	32719	32786	
188	0	32359	33396	32854	32807	32663	32647	32679	32887	
189	0	32415	33093	32772	32763	32773	32732	32647	32807	
190	0	32335	33157	32665	32813	32663	32903	32658	32595	
191	0	32359	33103	32791	32737	32887	32909	32665	32711	
192	0	32473	32979	32491	32857	32729	33055	32748	32303	
193	0	32536	33055	32349	32919	32743	32893	32626	32043	
194	0	32495	32769	32477	32839	32436	32489	32647	32263	
195	0	32402	32810	32586	32819	32679	32486	32735	32751	
196	0	32512	32733	32644	32915	32555	32801	32681	33055	
197	0	32487	32685	32655	32863	32578	32819	32711	32967	
198	0	32548	32437	32783	32940	32463	32492	32789	32535	
199	0	32448	32530	32530	32929	32721	32839	32711	32667	
200	0	32511	32606	32677	32745	32771	33251	32549	32795	
201	0	32738	32499	33255	32827	32878	32979	32647	32439	
202	0	32723	32375	33047	32813	32552	32543	32709	32663	
203	0	32793	32637	32601	32743	32743	32763	32629	33327	
204	0	32699	32487	32561	32739	32647	32857	32599	33197	
205	0	32751	32539	32461	32647	32775	32821	32519	33063	
206	0	32605	32431	32381	32745	32667	32948	32557	32682	
207	0	32572	32409	32319	32748	32698	32787	32855	32325	
208	0	32754	32518	32415	32732	32727	32577	32700	32623	
209	0	32848	32611	32710	32741	32659	32673	32758	32967	
210	0	32871	32676	32667	32603	32717	32709	32733	33023	
211	0	32802	32607	32626	32711	32771	32605	32633	33050	
212	0	32792	32587	32873	32775	32843	32391	32575	33106	
213	0	32797	32611	32743	32599	32892	32679	32634	33260	
214	0	32813	32407	32518	32674	32791	32963	32707	32734	
215	0	32841	32391	32461	32551	32661	33267	32854	32037	
216	0	32938	32343	32558	32663	32611	33091	32948	32033	
217	0	32807	32475	32991	32669	32515	32815	32831	32289	
218	0	32900	32454	33492	32812	32638	32868	32787	32727	
219	0	32866	32543	33005	32863	32573	33055	32751	32911	
220	0	32753	32638	32871	32846	32762	32999	32695	33095	
221	0	32806	32548	32614	32911	32731	32818	32759	32727	
222	0	32898	32527	32691	32986	32595	32407	32750	32423	
223	0	33004	32231	32663	32919	32719	32514	32711	32472	
224	0	32918	32514	32508	32673	32602	32327	32735	32226	
225	0	32871	32499	32589	32830	32607	32459	32858	32207	
226	0	32932	32599	32775	32881	32511	32484	32749	32273	
227	0	32810	32463	33263	32677	32775	32623	32741	32447	
228	0	32791	32674	33014	32821	32631	32683	32742	32966	
229	0	32893	32551	32689	32757	32739	32750	32729	32633	
230	0	32822	32711	32477	32861	32775	32587	32766	32892	
231	0	32878	32465	32555	32837	32805	32751	32584	32967	
232	0	33012	32457	32673	32839	32795	32653	32667	32548	
233	0	33025	32402	32783	32719	32655	32876	32679	32756	
234	0	32957	32627	33036	32861	32839	32903	32603	32301	
235	0	32864	32575	33059	32930	32613	32690	32871	32187	
236	0	32742	32759	33171	32973	32707	32735	32611	33526	
237	0	32765	32611	32835	32970	32871	33069	32347	34364	
238	0	32757	32717	32629	32869	32517	32927	32591	33829	
239	0	32766	32563	32643	32699	32671	32727	32683	33395	
240	0	32724	32543	32694	32563	32580	32783	32807	33007	
241	0	32761	32771	32562	32623	32605	33266	32902	32996	
242	0	32849	32591	32517	32493	32582	33159	32785	33191	
243	0	32858	32727	32558	32525	32535	32735	32829	32498	
244	0	32900	32535	32639	32453	32529	32553	32815	32391	
245	0	32895	32623	32563	32463	32803	32751	32711	32380	
246	0	32844	32611	32470	32485	32589	32878	32815	32467	
247	0	32791	32755	32525	32498	32591	32701	32701	32547	
248	0	32751	32583	32581	32579	32634	32500	32775	32476	
249	0	32762	32639	32671	32599	32661	32573	32731	32775	
250	0	32766	32559	32713	32753	32843	32631	32675	32570	
251	0	32729	32623	32691	32707	32586	32637	32718	32439	
252	0	32724	32406	32727	32845	32727	32663	32831	32543	
253	0	32587	32595	32819	32903	32679	32743	32819	32549	
254	0	32679	32605	32796	32775	32727	32775	32829	32539	
255	0	32796	32757	32846	32871	32639	33001	32735	32439	
256	0	32733	32582	32855	32831	32700	32703	32633	32427	
257	0	32711	32707	32847	32822	32511	32655	32739	32527	
258	0	32631	32797	32859	32903	32680	32691	32599	32669	
259	0	32628	32647	32775	32814	32647	32692	32775	32631	
260	0	32682	32667	32819	32941	32767	32621	32709	32773	
261	0	32775	32801	32775	32758	32741	32595	32799	32665	
262	0	32767	32715	32775	32847	32587	32743	32681	32615	
263	0	32822	32677	32767	32855	32690	32738	32691	32525	
264	0	32801	32703	32763	32870	32529	32745	32731	32647	
265	0	32791	32717	32807	32858	32686	32638	32683	32642	
266	0	32847	32765	32775	32791	32587	32743	32793	32775	
267	0	32811	32554	32759	32789	32755	32631	32694	32839	
268	0	32698	32638	32759	32747	32767	32788	32683	32812	
269	0	32716	32725	32827	32829	32867	32738	32711	32719	
270	0	32797	32601	32820	32883	32682	32772	32739	32633	
271	0	32846	32551	32857	32843	32742	32759	32717	32691	
272	0	32738	32725	32875	32879	32711	32828	32619	32751	
273	0	32668	32788	32822	32807	32719	32711	32631	32583	
274	0	32756	32621	32791	32775	32634	32741	32623	32741	
275	0	32854	32735	32719	32841	32767	32791	32692	32799	
276	0	32836	32615	32775	32751	32735	32767	32739	32744	
277	0	32840	32735	32703	32775	32820	32833	32735	32711	
278	0	32802	32495	32711	32751	32775	32695	32783	32639	
279	0	32793	32679	32639	32692	32671	32873	32743	32706	
280	0	32826	32633	32659	32772	32739	32860	32727	32647	
281	0	32775	32695	32726	32677	32655	32881	32756	32596	
282	0	32793	32527	32724	32743	32692	32903	32731	32795	
283	0	32826	32631	32815	32775	32655	32795	32589	32895	
284	0	32843	32677	32875	32637	32807	32799	32690	33005	
285	0	32807	32822	32883	32797	32747	32759	32647	32883	
286	0	32730	32563	32809	32831	32679	32612	32631	32647	
287	0	32721	32631	32767	32807	32691	32749	32599	32783	
288	0	32709	32692	32727	32843	32823	32731	32598	32823	
289	0	32805	32535	32775	32798	32686	32684	32663	32674	
290	0	32791	32683	32715	32829	32771	32816	32631	32738	
291	0	32764	32639	32655	32821	32859	32775	32525	32819	
292	0	32729	32633	32771	32839	32711	32757	32683	32631	
293	0	32679	32605	32823	32660	32719	32550	32762	32663	
294	0	32807	32671	32847	32633	32559	32722	32765	32813	
295	0	32885	32723	32735	32595	32721	32847	32803	32755	
296	0	32841	32557	32605	32615	32622	32791	32733	32828	
297	0	32802	32713	32599	32631	32676	32875	32751	32863	
298	0	32733	32647	32683	32599	32583	32730	32815	32703	
299	0	32759	32813	32815	32583	32675	32731	32767	32714	
300	0	32724	32647	32714	32723	32559	32587	32791	32811	
301	0	32713	32623	32853	32655	32663	32743	32740	32758	
302	0	32765	32725	32807	32742	32615	32756	32725	32783	
303	0	32811	32511	32847	32775	32749	32865	32727	32827	
304	0	32763	32647	32761	32764	32787	32751	32584	32734	
305	0	32744	32647	32751	32890	32722	32783	32613	32479	
306	0	32723	32807	32743	32731	32775	32746	32587	32506	
307	0	32724	32559	32717	32803	32710	32647	32647	32599	
308	0	32709	32756	32745	32815	32775	32543	32637	32751	
309	0	32655	32717	32727	32823	32802	32867	32723	32900	
310	0	32692	32807	32813	32796	32725	32703	32727	32754	
311	0	32724	32591	32763	32775	32524	32731	32822	32662	
312	0	32796	32581	32807	32745	32701	32738	32799	32647	
313	0	32796	32754	32797	32765	32621	32635	32711	32764	
314	0	32685	32679	32679	32655	32735	32749	32655	32955	
315	0	32793	32806	32739	32749	32719	32698	32668	32711	
316	0	32877	32645	32743	32831	32725	32855	32811	32839	
317	0	32831	32663	32743	32667	32811	32898	32761	32785	
318	0	32753	32775	32711	32655	32775	32805	32786	32583	
319	0	32711	32543	32727	32621	32769	32874	32759	32725	
320	0	32627	32738	32743	32703	32742	32684	32692	32787	
321	0	32710	32623	32760	32692	32707	32797	32869	32579	
322	0	32670	32715	32783	32793	32515	32775	32791	32591	
323	0	32764	32731	32751	32843	32692	32743	32715	32543	
324	0	32791	32765	32706	32854	32587	32707	32717	32662	
325	0	32762	32677	32685	32903	32735	32727	32745	32703	
326	0	32760	32719	32691	32863	32603	32663	32673	32591	
327	0	32773	32507	32806	32927	32702	32733	32783	32695	
328	0	32783	32559	32856	32819	32604	32703	32681	32697	
329	0	32839	32525	32866	32868	32668	32725	32702	32698	
330	0	32838	32567	32895	32858	32615	32766	32730	32919	
331	0	32828	32511	32687	32749	32697	32917	32735	32815	
332	0	32794	32570	32457	32743	32773	32695	32679	32738	
333	0	32772	32589	32706	32663	32711	32662	32707	32687	
334	0	32751	32679	32695	32549	32612	32823	32647	32815	
335	0	32736	32586	32717	32599	32719	32775	32646	32863	
336	0	32724	32755	32615	32631	32771	32834	32757	32759	
337	0	32743	32775	32615	32734	32759	32757	32676	32803	
338	0	32691	32974	32695	32775	32771	32763	32871	32603	
339	0	32799	32634	32983	32690	32635	32567	32703	32586	
340	0	32932	32647	33245	32698	32705	32711	32673	32725	
341	0	32912	32609	33047	32589	32631	32717	32799	32550	
342	0	32827	32804	32862	32791	32763	32642	32827	32551	
343	0	32655	32671	32695	32799	32781	32919	32729	32887	
344	0	32615	32643	32748	32799	32663	32743	32794	32891	
345	0	32578	32699	32731	32765	32671	32500	32775	33095	
346	0	32615	32511	32602	32687	32663	32694	32671	33243	
347	0	32703	32587	32487	32861	32695	32735	32623	32835	
348	0	32694	32633	32717	32829	32573	32946	32719	32799	
349	0	32695	32452	32795	32722	32721	32977	32717	32407	
350	0	32747	32743	32951	32807	32551	32911	32659	32519	
351	0	32805	32703	32876	32645	32701	32829	32683	32762	
352	0	32732	32919	32671	32775	32503	32607	32613	32647	
353	0	32727	32791	32709	32759	32724	32835	32588	32667	
354	0	32783	32655	32773	32759	32643	32887	32641	32658	
355	0	32761	32567	32743	32673	32715	32714	32627	32918	
356	0	32883	32567	32702	32742	32667	32775	32711	32791	
357	0	32775	32604	32751	32775	32743	32713	32668	32711	
358	0	32731	32567	32703	32787	32605	32687	32783	32603	
359	0	32792	32743	32687	32762	32740	32617	32642	32690	
360	0	32811	32655	32740	32726	32579	32698	32687	32791	
361	0	32708	32745	32911	32791	32635	32743	32799	32612	
362	0	32691	32827	32751	32746	32687	32751	32836	32531	
363	0	32743	32613	32751	32681	32697	32724	32810	32566	
364	0	32769	32676	32711	32647	32683	32901	32801	32611	
365	0	32820	32711	32743	32641	32733	32742	32789	32691	
366	0	32739	32519	32743	32663	32641	32811	32749	32715	
367	0	32736	32636	32735	32671	32694	32749	32679	32731	
368	0	32696	32639	32743	32690	32621	32612	32575	32695	
369	0	32683	32871	32757	32789	32811	32783	32607	32719	
370	0	32774	32645	32743	32850	32647	32663	32637	32789	
371	0	32696	32685	32809	32786	32716	32755	32700	32663	
372	0	32687	32647	32791	32745	32575	32676	32786	32687	
373	0	32684	32810	32756	32719	32734	32687	32759	32711	
374	0	32721	32517	32749	32732	32621	32767	32705	32567	
375	0	32722	32719	32734	32751	32747	32612	32767	32655	
376	0	32815	32647	32733	32674	32495	32775	32786	32565	
377	0	32772	32471	32763	32801	32677	32839	32863	32661	
378	0	32781	32647	32674	32797	32535	32775	32775	32783	
379	0	32773	32615	32659	32802	32661	32607	32739	32578	
380	0	32850	32749	32783	32809	32535	32626	32626	32469	
381	0	32881	32455	32799	32743	32695	32672	32631	32518	
382	0	32810	32605	32783	32771	32719	32635	32767	32631	
383	0	32797	32623	32807	32903	32799	32545	32727	32689	
384	0	32724	32787	32791	32877	32775	32973	32679	32631	
385	0	32708	32549	32757	32922	32926	33044	32687	32887	
386	0	32698	32743	32694	32973	32564	32727	32833	33087	
387	0	32702	32719	32643	32775	32566	32647	32913	33093	
388	0	32726	32829	32775	32806	32763	32893	32832	32971	
389	0	32845	32530	32717	32813	32796	33031	32620	32839	
390	0	32890	32727	32743	32815	32719	32841	32647	32725	
391	0	32794	32703	32773	32763	32619	32750	32647	32805	
392	0	32759	32631	32727	32674	32743	32890	32673	32749	
393	0	32706	32711	32737	32698	32679	32713	32663	32623	
394	0	32741	32647	32743	32703	32695	32852	32773	32607	
395	0	32700	32791	32711	32603	32706	32646	32681	32599	
396	0	32736	32626	32771	32678	32741	32759	32689	32759	
397	0	32715	32695	32759	32733	32754	32767	32707	32710	
398	0	32725	32716	32762	32645	32575	32561	32791	32679	
399	0	32701	32576	32705	32679	32743	32775	32731	32763	
400	0	32761	32666	32718	32595	32842	32681	32740	32727	
401	0	32775	32711	32719	32671	32765	32781	32647	32605	
402	0	32767	32621	32775	32755	32821	32647	32647	32642	
403	0	32727	32737	32828	32751	32733	32815	32687	32630	
404	0	32765	32506	32775	32791	32721	32687	32739	32679	
405	0	32871	32630	32796	32748	32765	32743	32767	32755	
406	0	32807	32703	32736	32810	32742	32647	32729	32644	
407	0	32795	32749	32723	32679	32724	32764	32743	32738	
408	0	32858	32575	32695	32790	32743	32743	32755	32783	
409	0	32844	32791	32722	32743	32684	32775	32711	32663	
410	0	32792	32703	32743	32855	32711	32637	32601	32733	
411	0	32719	32771	32767	32730	32571	32799	32667	32713	
412	0	32758	32621	32775	32854	32726	32763	32683	32735	
413	0	32716	32738	32683	32786	32562	32799	32695	32660	
414	0	32716	32747	32695	32807	32667	32642	32775	32719	
415	0	32709	32759	32743	32739	32629	32609	32751	32681	
416	0	32884	32551	32719	32775	32727	32827	32796	32703	
417	0	32881	32580	32743	32801	32723	32743	32705	32738	
418	0	32803	32799	32769	32799	32571	32773	32691	32684	
419	0	32936	32647	32787	32790	32685	32751	32687	32690	
420	0	32927	32703	32709	32669	32731	32841	32711	32743	
421	0	32818	32439	32759	32771	32761	32706	32795	32701	
422	0	32834	32658	32786	32658	32564	32823	32774	32732	
423	0	32772	32711	32762	32741	32723	32740	32773	32647	
424	0	32727	32679	32771	32628	32541	32708	32743	32707	
425	0	32790	32731	32775	32679	32769	32774	32606	32641	
426	0	32741	32647	32767	32679	32748	32788	32639	32811	
427	0	32752	32647	32801	32799	32668	32785	32677	32719	
428	0	32769	32631	32775	32666	32773	32623	32708	32743	
429	0	32692	32743	32783	32666	32725	32807	32733	32770	
430	0	32688	32595	32767	32718	32722	32751	32771	32675	
431	0	32719	32647	32732	32694	32772	32789	32722	32793	
432	0	32736	32615	32707	32721	32615	32655	32751	32801	
433	0	32758	32743	32738	32755	32754	32829	32775	32687	
434	0	32775	32631	32695	32742	32775	32612	32822	32759	
435	0	32767	32595	32745	32679	32804	32695	32755	32687	
436	0	32737	32642	32671	32763	32706	32575	32751	32775	
437	0	32739	32730	32742	32809	32644	32751	32705	32735	
438	0	32794	32619	32771	32715	32742	32708	32679	32705	
439	0	32694	32742	32719	32831	32588	32771	32764	32686	
440	0	32710	32706	32763	32739	32743	32641	32805	32678	
441	0	32789	32799	32775	32775	32551	32795	32851	32796	
442	0	32825	32607	32793	32705	32646	32665	32730	32800	
443	0	32766	32567	32773	32771	32559	32841	32727	32662	
444	0	32779	32717	32701	32719	32757	32713	32598	32695	
445	0	32814	32783	32667	32759	32691	32593	32679	32690	
446	0	32734	32733	32738	32831	32555	32770	32767	32679	
447	0	32745	32741	32708	32803	32658	32743	32733	32583	
448	0	32784	32586	32739	32746	32602	32756	32743	32711	
449	0	32846	32703	32782	32783	32695	32647	32741	32663	
450	0	32775	32775	32775	32815	32614	32813	32677	32756	
451	0	32763	32733	32718	32797	32761	32679	32685	32743	
452	0	32794	32604	32722	32727	32594	32843	32669	32685	
453	0	32734	32659	32743	32815	32698	32615	32631	32711	
454	0	32797	32692	32677	32718	32571	32821	32643	32686	
455	0	32859	32729	32698	32783	32702	32784	32805	32679	
456	0	32840	32590	32748	32767	32631	32788	32710	32748	
457	0	32818	32615	32759	32718	32735	32655	32701	32734	
458	0	32810	32647	32775	32771	32695	32843	32699	32743	
459	0	32735	32693	32835	32690	32727	32787	32750	32679	
460	0	32758	32549	32803	32791	32566	32791	32660	32652	
461	0	32797	32497	32831	32710	32663	32611	32647	32745	
462	0	32804	32675	32825	32827	32763	32751	32662	32775	
463	0	32742	32623	32813	32767	32703	32715	32621	32727	
464	0	32726	32783	32817	32771	32713	32741	32662	32773	
465	0	32711	32577	32809	32790	32599	32791	32755	32699	
466	0	32743	32711	32823	32815	32731	32727	32775	32615	
467	0	32756	32644	32759	32724	32513	32883	32775	32551	
468	0	32772	32583	32751	32766	32701	32801	32773	32708	
469	0	32734	32698	32743	32748	32519	32679	32775	32735	
470	0	32759	32607	32775	32807	32699	32830	32643	32662	
471	0	32768	32750	32799	32809	32604	32858	32683	32775	
472	0	32735	32545	32807	32758	32807	32794	32671	32647	
473	0	32797	32539	32773	32773	32751	32799	32745	32677	
474	0	32783	32687	32755	32812	32628	32783	32727	32595	
475	0	32756	32603	32807	32775	32693	32655	32747	32702	
476	0	32724	32815	32807	32743	32530	32822	32775	32722	
477	0	32716	32625	32789	32718	32685	32802	32775	32671	
478	0	32724	32711	32815	32694	32567	32810	32700	32759	
479	0	32703	32631	32755	32775	32694	32642	32679	32703	
480	0	32734	32583	32693	32803	32655	32876	32706	32767	
481	0	32754	32751	32691	32699	32801	32834	32606	32699	
482	0	32684	32715	32680	32763	32757	32735	32669	32687	
483	0	32751	32785	32755	32775	32773	32615	32753	32773	
484	0	32803	32535	32738	32763	32739	32791	32743	32775	
485	0	32760	32719	32674	32807	32711	32694	32719	32711	
486	0	32715	32719	32692	32769	32539	32793	32698	32837	
487	0	32725	32598	32693	32762	32709	32845	32710	32663	
488	0	32749	32727	32791	32743	32663	32680	32628	32693	
489	0	32719	32519	32820	32775	32701	32831	32642	32743	
490	0	32797	32663	32749	32670	32639	32826	32646	32818	
491	0	32724	32721	32790	32751	32743	32805	32642	32731	
492	0	32826	32527	32719	32791	32607	32703	32647	32645	
493	0	32751	32717	32683	32695	32647	32708	32739	32710	
494	0	32736	32665	32743	32733	32695	32743	32717	32695	
495	0	32749	32816	32759	32701	32727	32865	32723	32807	
496	0	32748	32627	32714	32749	32727	32839	32775	32739	
497	0	32684	32715	32729	32775	32715	32799	32671	32635	
498	0	32678	32834	32759	32637	32516	32711	32688	32647	
499	0	32700	32531	32754	32795	32663	32743	32708	32708	
500	0	32784	32687	32711	32807	32538	32671	32767	32686	
501	0	32794	32751	32751	32751	32683	32839	32769	32683	
502	0	32838	32539	32698	32827	32529	32739	32763	32694	
503	0	32825	32679	32717	32743	32679	32774	32789	32615	
504	0	32831	32645	32768	32807	32575	32700	32711	32685	
505	0	32761	32603	32759	32775	32695	32741	32711	32701	
506	0	32794	32711	32733	32757	32742	32739	32749	32645	
507	0	32765	32647	32679	32819	32721	32671	32659	32751	
508	0	32807	32742	32754	32717	32527	32823	32679	32791	
509	0	32740	32563	32775	32769	32595	32775	32759	32775	
510	0	32678	32715	32743	32798	32537	32775	32749	32735	
511	0	32761	32617	32690	32675	32677	32695	32731	32636	
512	0	32711	32715	32749	32708	32469	32726	32725	32711	
513	0	32767	32493	32743	32719	32705	32767	32758	32732	
514	0	32820	32727	32807	32748	32507	32854	32723	32659	
515	0	32829	32583	32775	32797	32667	32827	32731	32693	
516	0	32748	32715	32791	32655	32491	32711	32685	32673	
517	0	32684	32515	32767	32775	32662	32782	32683	32789	
518	0	32760	32717	32749	32791	32491	32790	32703	32751	
519	0	32775	32587	32748	32762	32681	32717	32705	32643	
520	0	32756	32707	32775	32815	32583	32775	32623	32735	
521	0	32705	32583	32820	32751	32743	32825	32753	32774	
522	0	32697	32765	32827	32863	32579	32795	32723	32635	
523	0	32690	32791	32769	32775	32753	32619	32663	32735	
524	0	32719	32609	32794	32823	32549	32803	32694	32737	
525	0	32881	32741	32745	32724	32663	32793	32695	32708	
526	0	32849	32639	32741	32783	32567	32811	32807	32765	
527	0	32788	32711	32751	32789	32672	32733	32711	32679	
528	0	32771	32646	32786	32700	32543	32822	32783	32769	
529	0	32724	32655	32815	32751	32641	32775	32647	32789	
530	0	32698	32662	32738	32815	32575	32767	32687	32709	
531	0	32703	32591	32695	32700	32719	32711	32615	32767	
532	0	32759	32503	32735	32757	32535	32797	32685	32749	
533	0	32743	32691	32743	32735	32645	32610	32679	32685	
534	0	32743	32686	32751	32727	32497	32826	32731	32743	
535	0	32686	32847	32743	32759	32637	32743	32716	32695	
536	0	32740	32593	32763	32775	32543	32734	32738	32671	
537	0	32694	32703	32797	32703	32737	32789	32787	32786	
538	0	32748	32837	32727	32755	32746	32725	32791	32851	
539	0	32730	32599	32719	32701	32783	32687	32742	32677	
540	0	32728	32639	32711	32791	32738	32804	32745	32729	
541	0	32805	32742	32769	32716	32551	32773	32775	32711	
542	0	32692	32575	32743	32791	32722	32683	32789	32646	
543	0	32822	32721	32763	32789	32541	32871	32750	32793	
544	0	32769	32793	32719	32623	32643	32839	32692	32723	
545	0	32719	32663	32747	32767	32619	32726	32729	32647	
546	0	32762	32671	32843	32863	32775	32834	32757	32751	
547	0	32708	32741	32757	32733	32715	32791	32703	32738	
548	0	32713	32510	32735	32756	32804	32798	32791	32734	
549	0	32767	32683	32747	32706	32708	32717	32775	32759	
550	0	32788	32683	32757	32743	32775	32710	32741	32763	
551	0	32790	32691	32745	32758	32758	32802	32711	32644	
552	0	32797	32733	32719	32685	32738	32690	32686	32715	
553	0	32775	32691	32791	32796	32711	32824	32647	32775	
554	0	32812	32527	32775	32799	32551	32746	32647	32626	
555	0	32821	32706	32757	32687	32671	32676	32659	32715	
556	0	32794	32693	32751	32771	32516	32773	32623	32667	
557	0	32786	32751	32743	32742	32647	32754	32693	32647	
558	0	32734	32615	32758	32775	32468	32823	32743	32677	
559	0	32749	32574	32755	32775	32666	32687	32687	32739	
560	0	32746	32702	32721	32694	32494	32847	32743	32743	
561	0	32756	32559	32721	32802	32699	32795	32731	32705	
562	0	32773	32663	32727	32759	32603	32767	32767	32669	
563	0	32788	32607	32745	32726	32676	32687	32719	32775	
564	0	32772	32709	32773	32767	32557	32871	32698	32743	
565	0	32794	32566	32775	32707	32695	32807	32719	32663	
566	0	32783	32725	32775	32759	32609	32627	32701	32775	
567	0	32732	32607	32759	32775	32743	32812	32707	32738	
568	0	32764	32722	32765	32693	32647	32711	32631	32671	
569	0	32735	32603	32775	32757	32738	32835	32638	32751	
570	0	32772	32579	32775	32719	32619	32833	32707	32799	
571	0	32775	32619	32822	32775	32721	32775	32690	32679	
572	0	32751	32749	32706	32775	32640	32751	32814	32739	
573	0	32703	32502	32758	32703	32743	32756	32765	32699	
574	0	32683	32706	32767	32775	32668	32658	32765	32655	
575	0	32722	32742	32707	32759	32564	32671	32765	32756	
576	0	32669	32813	32797	32771	32679	32797	32734	32721	
577	0	32730	32538	32807	32852	32719	32765	32767	32759	
578	0	32720	32763	32820	32759	32807	32790	32790	32719	
579	0	32768	32679	32747	32756	32679	32809	32715	32743	
580	0	32785	32535	32743	32825	32692	32794	32739	32771	
581	0	32759	32686	32695	32660	32627	32624	32695	32767	
582	0	32790	32709	32669	32790	32703	32763	32771	32679	
583	0	32796	32555	32719	32822	32681	32787	32775	32718	
584	0	32764	32735	32804	32677	32775	32747	32818	32767	
585	0	32788	32731	32799	32775	32718	32747	32811	32667	
586	0	32752	32647	32772	32847	32732	32766	32762	32671	
587	0	32760	32695	32703	32710	32735	32643	32790	32703	
588	0	32795	32662	32738	32785	32549	32815	32772	32671	
589	0	32752	32748	32796	32756	32708	32807	32783	32644	
590	0	32758	32775	32743	32757	32663	32799	32662	32659	
591	0	32797	32687	32739	32825	32659	32717	32708	32727	
592	0	32863	32615	32699	32701	32551	32769	32711	32692	
593	0	32783	32723	32772	32821	32679	32799	32676	32709	
594	0	32785	32541	32743	32805	32587	32647	32645	32722	
595	0	32767	32647	32828	32695	32699	32818	32711	32729	
596	0	32742	32702	32803	32751	32527	32749	32764	32732	
597	0	32737	32730	32748	32731	32706	32807	32756	32659	
598	0	32813	32517	32764	32755	32686	32607	32786	32735	
599	0	32799	32751	32723	32801	32714	32758	32767	32713	
600	0	32808	32604	32775	32767	32595	32707	32743	32702	
601	0	32718	32705	32773	32745	32755	32759	32725	32815	
602	0	32737	32705	32775	32775	32571	32803	32599	32697	
603	0	32716	32823	32775	32727	32775	32619	32711	32749	
604	0	32731	32579	32893	32772	32818	32766	32799	32643	
605	0	32685	32647	32871	32715	32721	32807	32740	32684	
606	0	32684	32647	32773	32743	32733	32775	32691	32719	
607	0	32690	32647	32751	32781	32526	32811	32739	32749	
608	0	32784	32701	32791	32737	32686	32823	32633	32749	
609	0	32817	32719	32722	32747	32791	32731	32655	32759	
610	0	32836	32551	32797	32820	32700	32791	32647	32738	
611	0	32799	32765	32813	32871	32642	32799	32647	32639	
612	0	32799	32727	32767	32858	32719	32863	32734	32719	
613	0	32696	32628	32743	32831	32759	32764	32725	32731	
614	0	32736	32764	32807	32775	32719	32603	32775	32767	
615	0	32829	32579	32766	32759	32725	32817	32767	32770	
616	0	32800	32546	32775	32743	32475	32732	32639	32701	
617	0	32848	32635	32807	32647	32751	32831	32763	32759	
618	0	32838	32727	32759	32691	32839	32745	32703	32790	
619	0	32748	32729	32804	32716	32694	32763	32763	32747	
620	0	32805	32639	32759	32811	32645	32607	32727	32644	
621	0	32738	32671	32715	32757	32614	32807	32631	32711	
622	0	32730	32667	32743	32751	32671	32843	32696	32607	
623	0	32786	32471	32725	32775	32743	32771	32821	32703	
624	0	32733	32590	32747	32750	32615	32851	32771	32701	
625	0	32769	32661	32727	32807	32679	32781	32775	32731	
626	0	32809	32692	32743	32774	32514	32647	32827	32711	
627	0	32745	32799	32815	32758	32746	32828	32644	32577	
628	0	32724	32567	32735	32807	32647	32791	32583	32713	
629	0	32813	32753	32763	32726	32774	32859	32642	32706	
630	0	32783	32623	32767	32815	32751	32647	32727	32751	
631	0	32763	32677	32767	32711	32739	32826	32706	32743	
632	0	32732	32839	32772	32775	32743	32726	32675	32695	
633	0	32688	32575	32775	32714	32579	32743	32743	32737	
634	0	32745	32511	32754	32797	32631	32828	32663	32630	
635	0	32759	32687	32720	32723	32538	32619	32681	32725	
636	0	32734	32705	32716	32805	32607	32623	32803	32663	
637	0	32793	32604	32834	32679	32664	32804	32775	32750	
638	0	32812	32721	32759	32827	32583	32767	32773	32647	
639	0	32791	32583	32789	32695	32703	32703	32738	32807	
640	0	32736	32555	32743	32831	32619	32647	32685	32757	
641	0	32738	32655	32771	32772	32771	32805	32641	32739	
642	0	32767	32676	32731	32831	32791	32687	32743	32759	
643	0	32751	32641	32771	32709	32660	32741	32772	32789	
644	0	32806	32754	32839	32822	32671	32677	32733	32765	
645	0	32775	32527	32757	32660	32614	32617	32742	32662	
646	0	32727	32647	32739	32775	32747	32739	32718	32767	
647	0	32736	32731	32711	32711	32767	32647	32739	32647	
648	0	32736	32662	32703	32825	32711	32759	32719	32711	
649	0	32718	32549	32759	32739	32795	32662	32716	32757	
650	0	32716	32629	32759	32791	32767	32747	32775	32702	
651	0	32775	32663	32743	32815	32670	32756	32731	32735	
652	0	32746	32626	32751	32794	32503	32714	32716	32695	
653	0	32764	32683	32755	32797	32731	32718	32692	32719	
654	0	32808	32791	32714	32737	32615	32849	32670	32643	
655	0	32738	32559	32699	32819	32789	32815	32629	32691	
656	0	32752	32751	32731	32710	32667	32797	32683	32727	
657	0	32725	32703	32710	32749	32739	32675	32749	32667	
658	0	32761	32823	32751	32687	32775	32837	32791	32739	
659	0	32804	32682	32835	32844	32669	32814	32793	32677	
660	0	32799	32660	32817	32839	32699	32679	32771	32737	
661	0	32817	32775	32839	32756	32747	32821	32723	32775	
662	0	32745	32557	32767	32799	32827	32732	32694	32660	
663	0	32775	32703	32803	32694	32599	32815	32631	32775	
664	0	32754	32671	32807	32810	32666	32796	32647	32715	
665	0	32789	32687	32821	32751	32583	32703	32673	32734	
666	0	32823	32799	32838	32770	32767	32791	32759	32673	
667	0	32786	32526	32807	32769	32751	32743	32767	32683	
668	0	32796	32674	32775	32679	32751	32749	32739	32701	
669	0	32757	32554	32775	32771	32654	32639	32726	32643	
670	0	32773	32671	32759	32711	32775	32753	32735	32805	
671	0	32744	32710	32799	32851	32715	32790	32642	32742	
672	0	32743	32775	32820	32734	32599	32679	32831	32748	
673	0	32705	32517	32689	32755	32662	32775	32740	32663	
674	0	32706	32669	32719	32786	32591	32615	32647	32694	
675	0	32697	32647	32709	32870	32757	32647	32791	32743	
676	0	32762	32695	32703	32804	32663	32686	32687	32668	
677	0	32719	32839	32715	32809	32644	32743	32666	32742	
678	0	32724	32685	32743	32811	32735	32807	32687	32745	
679	0	32762	32662	32764	32647	32586	32677	32658	32647	
680	0	32743	32695	32719	32690	32647	32802	32765	32679	
681	0	32771	32723	32733	32691	32559	32647	32749	32623	
682	0	32739	32491	32810	32757	32722	32789	32829	32727	
683	0	32735	32683	32807	32803	32626	32831	32711	32722	
684	0	32740	32565	32799	32739	32738	32634	32631	32783	
685	0	32774	32789	32711	32791	32728	32815	32609	32703	
686	0	32748	32564	32735	32685	32751	32789	32642	32647	
687	0	32795	32715	32740	32751	32678	32796	32775	32687	
688	0	32703	32639	32726	32751	32583	32681	32748	32661	
689	0	32742	32759	32740	32715	32695	32743	32810	32765	
690	0	32745	32595	32746	32783	32559	32811	32743	32734	
691	0	32762	32605	32711	32773	32668	32738	32668	32771	
692	0	32756	32709	32669	32775	32659	32733	32698	32783	
693	0	32795	32773	32644	32639	32623	32775	32817	32659	
694	0	32775	32621	32751	32759	32685	32613	32775	32791	
695	0	32813	32811	32727	32751	32606	32823	32801	32740	
696	0	32839	32607	32703	32743	32773	32698	32775	32775	
697	0	32766	32791	32675	32677	32671	32886	32662	32767	
698	0	32730	32647	32743	32813	32663	32815	32626	32671	
699	0	32751	32837	32775	32803	32843	32727	32597	32729	
700	0	32719	32590	32775	32743	32815	32839	32671	32771	
701	0	32800	32663	32775	32818	32798	32775	32635	32681	
702	0	32787	32799	32797	32770	32716	32759	32591	32751	
703	0	32740	32543	32785	32829	32767	32595	32739	32735	
704	0	32750	32681	32741	32807	32639	32677	32669	32727	
705	0	32757	32601	32773	32769	32783	32807	32663	32714	
706	0	32720	32677	32765	32764	32665	32707	32590	32711	
707	0	32759	32765	32731	32797	32551	32783	32657	32758	
708	0	32808	32525	32751	32811	32663	32775	32757	32661	
709	0	32790	32703	32713	32818	32727	32833	32749	32717	
710	0	32718	32659	32695	32806	32767	32668	32717	32687	
711	0	32721	32749	32700	32791	32749	32788	32775	32743	
712	0	32739	32607	32739	32837	32609	32699	32731	32725	
713	0	32786	32575	32727	32711	32669	32847	32631	32775	
714	0	32724	32647	32735	32723	32603	32867	32662	32803	
715	0	32791	32591	32766	32732	32691	32686	32747	32723	
716	0	32721	32631	32707	32839	32720	32707	32715	32775	
717	0	32766	32699	32714	32733	32509	32775	32743	32714	
718	0	32739	32493	32699	32850	32698	32710	32751	32725	
719	0	32742	32663	32707	32795	32575	32855	32621	32619	
720	0	32715	32660	32806	32765	32663	32699	32683	32795	
721	0	32770	32647	32898	32823	32613	32825	32727	32751	
722	0	32706	32643	32821	32711	32737	32839	32759	32639	
723	0	32758	32719	32775	32809	32798	32829	32717	32692	
724	0	32804	32731	32811	32743	32639	32663	32787	32631	
725	0	32738	32623	32683	32773	32692	32643	32675	32698	
726	0	32775	32577	32727	32711	32589	32821	32663	32601	
727	0	32824	32559	32727	32834	32729	32695	32695	32671	
728	0	32822	32706	32711	32807	32662	32838	32758	32674	
729	0	32784	32667	32706	32775	32719	32797	32735	32797	
730	0	32751	32755	32703	32735	32731	32671	32734	32686	
731	0	32694	32844	32751	32703	32559	32858	32687	32751	
732	0	32678	32599	32722	32717	32772	32756	32706	32839	
733	0	32696	32772	32811	32725	32791	32786	32743	32679	
734	0	32829	32717	32759	32759	32711	32767	32719	32679	
735	0	32748	32815	32726	32765	32647	32604	32787	32639	
736	0	32718	32547	32690	32767	32489	32669	32783	32719	
737	0	32716	32671	32721	32685	32647	32687	32647	32629	
738	0	32747	32647	32715	32742	32631	32749	32679	32667	
739	0	32740	32767	32695	32639	32813	32748	32818	32694	
740	0	32803	32673	32731	32759	32675	32743	32687	32710	
741	0	32817	32578	32687	32735	32532	32743	32719	32628	
742	0	32830	32575	32701	32727	32713	32615	32686	32719	
743	0	32823	32739	32627	32742	32731	32647	32791	32647	
744	0	32757	32671	32655	32749	32518	32773	32734	32723	
745	0	32786	32610	32715	32826	32730	32775	32754	32710	
746	0	32757	32668	32695	32815	32757	32831	32714	32714	
747	0	32722	32489	32699	32815	32706	32629	32635	32629	
748	0	32805	32391	32689	32837	32771	32751	32635	32710	
749	0	32877	32639	32723	32799	32692	32775	32721	32647	
750	0	32823	32582	32823	32818	32707	32687	32743	32683	
751	0	32817	32725	32871	32745	32457	32818	32775	32715	
752	0	32855	32482	32855	32795	32670	32731	32814	32619	
753	0	32861	32571	32791	32816	32642	32799	32647	32679	
754	0	32775	32615	32799	32830	32564	32735	32689	32783	
755	0	32719	32711	32743	32735	32733	32804	32807	32727	
756	0	32824	32639	32804	32839	32759	32679	32816	32671	
757	0	32846	32668	32800	32733	32691	32867	32775	32742	
758	0	32775	32692	32801	32789	32710	32805	32796	32647	
759	0	32787	32506	32756	32843	32536	32666	32713	32745	
760	0	32750	32694	32790	32797	32680	32835	32711	32755	
761	0	32749	32641	32741	32775	32546	32743	32589	32691	
762	0	32832	32591	32819	32775	32759	32823	32719	32708	
763	0	32731	32673	32851	32711	32535	32644	32623	32764	
764	0	32669	32719	32814	32796	32713	32831	32647	32741	
765	0	32640	32895	32763	32866	32647	32801	32607	32745	
766	0	32796	32630	32769	32735	32775	32639	32635	32791	
767	0	32852	32698	32738	32735	32693	32799	32685	32655	
768	0	32691	32668	32695	32775	32775	32754	32681	32711	
769	0	32663	32822	32780	32732	32525	32787	32804	32719	
770	0	32770	32607	32727	32727	32689	32702	32794	32789	
771	0	32811	32690	32756	32711	32543	32822	32753	32699	
772	0	32848	32747	32747	32727	32647	32787	32749	32655	
773	0	32863	32829	32726	32699	32799	32775	32642	32715	
774	0	32807	32479	32679	32723	32643	32786	32663	32631	
775	0	32822	32655	32677	32735	32697	32663	32807	32733	
776	0	32830	32628	32723	32735	32524	32751	32761	32679	
777	0	32699	32587	32677	32825	32694	32735	32739	32766	
778	0	32724	32627	32732	32669	32619	32831	32780	32819	
779	0	32800	32715	32815	32775	32757	32647	32844	32733	
780	0	32775	32743	32869	32754	32647	32830	32759	32775	
781	0	32714	32679	32759	32694	32766	32767	32642	32759	
782	0	32672	32679	32759	32749	32739	32810	32663	32769	
783	0	32663	32751	32742	32759	32583	32799	32751	32829	
784	0	32713	32759	32791	32794	32668	32663	32783	32631	
785	0	32678	32655	32775	32797	32643	32809	32775	32695	
786	0	32639	32679	32684	32759	32689	32727	32710	32673	
787	0	32851	32749	32708	32799	32711	32775	32639	32727	
788	0	32748	32647	32708	32807	32563	32667	32647	32705	
789	0	32757	32819	32771	32727	32639	32761	32647	32773	
790	0	32647	32607	32775	32806	32587	32740	32767	32795	
791	0	32760	32756	32692	32705	32709	32740	32743	32713	
792	0	32719	32647	32631	32719	32725	32623	32783	32722	
793	0	32724	32711	32594	32710	32604	32706	32731	32642	
794	0	32735	32605	32703	32749	32659	32723	32731	32746	
795	0	32766	32775	32735	32763	32647	32775	32709	32717	
796	0	32780	32687	32713	32685	32703	32783	32739	32679	
797	0	32836	32703	32745	32799	32475	32743	32749	32743	
798	0	32829	32526	32795	32711	32699	32796	32741	32615	
799	0	32789	32665	32773	32821	32559	32759	32754	32709	
800	0	32852	32647	32799	32699	32663	32759	32741	32711	
801	0	32790	32769	32745	32775	32751	32617	32775	32691	
802	0	32750	32775	32727	32679	32630	32603	32647	32669	
803	0	32775	32533	32767	32789	32751	32750	32647	32775	
804	0	32732	32599	32730	32687	32619	32594	32767	32791	
805	0	32749	32711	32719	32757	32754	32727	32725	32726	
806	0	32738	32605	32735	32707	32795	32839	32684	32732	
807	0	32775	32727	32829	32783	32644	32694	32692	32703	
808	0	32774	32578	32817	32713	32741	32775	32643	32751	
809	0	32765	32613	32819	32814	32722	32902	32749	32692	
810	0	32834	32647	32830	32708	32765	32733	32639	32791	
811	0	32746	32763	32852	32759	32749	32823	32666	32695	
812	0	32688	32519	32739	32716	32559	32681	32705	32743	
813	0	32698	32519	32745	32743	32667	32679	32644	32612	
814	0	32713	32658	32743	32743	32698	32843	32829	32734	
815	0	32785	32705	32645	32799	32592	32827	32799	32771	
816	0	32807	32647	32677	32695	32644	32711	32757	32711	
817	0	32775	32739	32703	32759	32587	32807	32711	32611	
818	0	32806	32524	32725	32741	32763	32642	32662	32731	
819	0	32775	32679	32775	32847	32707	32855	32759	32775	
820	0	32775	32615	32733	32783	32691	32759	32783	32663	
821	0	32751	32583	32767	32691	32749	32772	32775	32711	
822	0	32756	32733	32823	32761	32734	32759	32796	32695	
823	0	32794	32615	32771	32735	32807	32727	32727	32755	
824	0	32807	32791	32825	32814	32633	32784	32758	32791	
825	0	32730	32583	32820	32759	32662	32773	32735	32646	
826	0	32775	32685	32742	32801	32687	32639	32642	32743	
827	0	32722	32681	32803	32801	32733	32869	32635	32726	
828	0	32704	32621	32854	32635	32594	32839	32605	32775	
829	0	32730	32647	32797	32743	32759	32691	32690	32738	
830	0	32720	32671	32722	32745	32743	32762	32681	32635	
831	0	32734	32829	32703	32763	32709	32737	32827	32727	
832	0	32694	32519	32766	32811	32751	32767	32759	32733	
833	0	32784	32751	32745	32633	32757	32659	32755	32647	
834	0	32815	32727	32749	32817	32679	32775	32742	32789	
835	0	32840	32538	32871	32739	32637	32735	32739	32655	
836	0	32879	32683	32847	32807	32695	32835	32767	32719	
837	0	32859	32679	32797	32751	32681	32741	32669	32730	
838	0	32742	32479	32783	32803	32723	32717	32671	32613	
839	0	32748	32631	32743	32822	32727	32783	32611	32741	
840	0	32807	32739	32747	32675	32751	32608	32674	32775	
841	0	32740	32607	32734	32738	32715	32811	32711	32694	
842	0	32746	32609	32727	32754	32775	32695	32839	32775	
843	0	32751	32623	32775	32790	32810	32775	32775	32703	
844	0	32764	32647	32743	32788	32759	32675	32771	32743	
845	0	32731	32598	32726	32663	32695	32773	32773	32679	
846	0	32733	32775	32788	32775	32690	32667	32754	32661	
847	0	32725	32694	32748	32692	32598	32655	32647	32745	
848	0	32750	32839	32724	32711	32739	32567	32646	32633	
849	0	32709	32607	32799	32665	32671	32804	32692	32731	
850	0	32698	32596	32844	32713	32815	32761	32643	32783	
851	0	32687	32703	32771	32751	32707	32639	32721	32699	
852	0	32799	32775	32658	32677	32631	32662	32713	32771	
853	0	32722	32530	32763	32759	32611	32775	32783	32683	
854	0	32740	32775	32717	32754	32647	32743	32641	32686	
855	0	32743	32659	32753	32775	32578	32815	32633	32659	
856	0	32775	32727	32723	32727	32759	32783	32757	32661	
857	0	32775	32526	32647	32764	32769	32647	32753	32575	
858	0	32808	32749	32623	32667	32702	32827	32775	32717	
859	0	32697	32647	32695	32772	32727	32726	32716	32687	
860	0	32751	32646	32697	32701	32541	32710	32671	32711	
861	0	32668	32726	32708	32769	32663	32803	32805	32685	
862	0	32692	32597	32783	32727	32655	32788	32764	32727	
863	0	32698	32615	32839	32775	32703	32663	32687	32679	
864	0	32790	32655	32741	32714	32601	32895	32669	32771	
865	0	32903	32723	32813	32811	32679	32743	32605	32775	
866	0	32859	32607	32790	32719	32575	32803	32647	32671	
867	0	32782	32645	32819	32717	32685	32687	32694	32717	
868	0	32782	32661	32839	32637	32530	32903	32719	32751	
869	0	32736	32775	32807	32711	32736	32775	32801	32775	
870	0	32781	32559	32807	32721	32642	32859	32758	32801	
871	0	32804	32699	32775	32719	32708	32751	32681	32647	
872	0	32801	32643	32721	32741	32490	32775	32678	32769	
873	0	32898	32675	32738	32775	32695	32823	32807	32671	
874	0	32809	32599	32751	32791	32754	32695	32775	32725	
875	0	32714	32487	32759	32813	32743	32775	32743	32641	
876	0	32683	32622	32655	32775	32699	32867	32730	32719	
877	0	32686	32621	32679	32775	32507	32793	32641	32656	
878	0	32835	32711	32631	32834	32719	32719	32571	32799	
879	0	32789	32613	32698	32723	32613	32847	32717	32806	
880	0	32727	32759	32735	32745	32735	32831	32807	32679	
881	0	32734	32775	32769	32708	32687	32711	32717	32763	
882	0	32688	32757	32829	32743	32797	32775	32739	32807	
883	0	32654	32914	32775	32797	32775	32795	32751	32671	
884	0	32575	32812	32834	32774	32739	32692	32708	32775	
885	0	32601	32852	32810	32718	32519	32730	32687	32703	
886	0	32637	32855	32775	32760	32611	32759	32679	32715	
887	0	32555	32595	32799	32766	32623	32747	32684	32656	
888	0	32583	32523	32795	32787	32763	32615	32687	32725	
889	0	32586	32619	32757	32813	32758	32677	32630	32631	
890	0	32614	32549	32669	32838	32583	32773	32626	32703	
891	0	32553	32515	32647	32815	32710	32855	32702	32637	
892	0	32567	32567	32669	32747	32647	32703	32707	32658	
893	0	32573	32501	32689	32855	32711	32743	32751	32702	
894	0	32731	32487	32619	32839	32567	32715	32724	32621	
895	0	32841	32548	32598	32769	32606	32787	32807	32711	
896	0	32955	32278	32590	32823	32527	32762	32711	32643	
897	0	32986	32311	32681	32813	32702	32759	32743	32615	
898	0	32950	32367	32742	32818	32727	32623	32713	32605	
899	0	32981	32391	32719	32795	32790	32823	32711	32708	
900	0	32998	32319	32735	32855	32743	32764	32783	32675	
901	0	33085	32374	32743	32765	32703	32795	32647	32724	
902	0	32981	32327	32786	32831	32751	32729	32615	32676	
903	0	33035	32101	32677	32851	32644	32692	32690	32647	
904	0	33058	32159	32713	32833	32791	32590	32673	32687	
905	0	33116	32201	32645	32775	32794	32697	32741	32711	
906	0	33278	32031	32647	32867	32655	32676	32671	32677	
907	0	33437	32047	32711	32799	32663	32636	32583	32598	
908	0	33445	31879	32707	32822	32615	32630	32662	32603	
909	0	33420	32039	32732	32797	32677	32763	32767	32607	
910	0	33228	32230	32707	32747	32518	32701	32775	32660	
911	0	33155	32263	32711	32775	32647	32775	32775	32657	
912	0	33232	32341	32737	32766	32509	32612	32850	32695	
913	0	33320	32175	32715	32759	32695	32697	32709	32683	
914	0	33328	32339	32767	32662	32699	32803	32775	32749	
915	0	33244	32339	32811	32703	32570	32659	32827	32709	
916	0	33068	32562	32775	32663	32663	32754	32852	32743	
917	0	33058	32678	32722	32698	32739	32751	32703	32671	
918	0	32998	32647	32863	32637	32679	32647	32706	32637	
919	0	32942	32855	32922	32743	32647	32823	32855	32750	
920	0	32924	33099	32943	32639	32475	32749	32820	32819	
921	0	32764	33111	33007	32636	32620	32791	32860	32763	
922	0	32551	33374	33006	32607	32477	32668	32855	32749	
923	0	32446	33381	32938	32647	32655	32863	32869	32845	
924	0	32357	33662	33054	32647	32567	32771	32759	32703	
925	0	32258	33555	33007	32609	32734	32811	32765	32835	
926	0	32148	33654	32971	32634	32567	32721	32810	32822	
927	0	32051	33879	32917	32557	32935	32850	32831	32782	
928	0	32041	33591	32931	32607	32903	32831	32791	32839	
929	0	32028	33621	32945	32639	33059	32731	32765	32809	
930	0	32084	33743	32983	32604	33015	32891	32718	32877	
931	0	32097	33447	33045	32635	33047	32775	32707	32846	
932	0	32191	33463	32916	32643	32783	32887	32701	32786	
933	0	32325	33287	32852	32740	32854	32749	32727	32820	
934	0	32391	33131	32823	32747	32788	32747	32664	32853	
935	0	32460	33083	32786	32645	32782	32767	32623	32718	
936	0	32493	33077	32771	32742	32607	32647	32615	32791	
937	0	32526	32927	32677	32707	32663	32756	32695	32754	
938	0	32470	32999	32689	32775	32599	32814	32698	32811	
939	0	32440	32741	32571	32843	32703	32819	32683	32772	
940	0	32423	32819	32703	32850	32604	32714	32666	32715	
941	0	32377	32709	32745	32811	32619	32727	32623	32757	
942	0	32412	32763	32771	32671	32494	32847	32575	32684	
943	0	32445	32647	32695	32801	32348	32839	32565	32771	
944	0	32462	32623	32627	32850	32412	32679	32615	32727	
945	0	32539	32723	32549	32775	32195	32844	32579	32711	
946	0	32622	32541	32591	32827	32455	32757	32716	32721	
947	0	32634	32490	32629	32794	32431	32835	32692	32754	
948	0	32583	32639	32647	32839	32525	32655	32731	32711	
949	0	32557	32575	32743	32865	32383	32775	32717	32693	
950	0	32620	32415	32685	32799	32577	32751	32603	32671	
951	0	32699	32679	32615	32811	32482	32647	32613	32717	
952	0	32739	32519	32606	32735	32647	32775	32642	32751	
953	0	32788	32623	32679	32829	32535	32647	32775	32635	
954	0	32880	32423	32669	32827	32743	32795	32699	32679	
955	0	32938	32519	32647	32699	32717	32703	32687	32692	
956	0	32917	32580	32646	32781	32725	32809	32727	32751	
957	0	32919	32500	32694	32695	32630	32834	32716	32713	
958	0	32842	32531	32691	32795	32742	32834	32660	32719	
959	0	32882	32567	32706	32772	32637	32710	32639	32759	
960	0	32841	32343	32679	32807	32869	32791	32700	32727	
961	0	32855	32557	32688	32839	32807	32695	32709	32733	
962	0	32881	32483	32747	32827	32683	32828	32711	32707	
963	0	32914	32567	32695	32821	32687	32719	32695	32711	
964	0	32898	32589	32755	32762	32566	32697	32691	32647	
965	0	32905	32359	32775	32796	32711	32843	32743	32743	
966	0	32903	32423	32745	32766	32603	32717	32687	32638	
967	0	32839	32550	32775	32754	32792	32799	32738	32711	
968	0	32877	32595	32751	32823	32811	32676	32740	32679	
969	0	32947	32559	32826	32691	32790	32822	32719	32789	
970	0	32903	32462	32801	32823	32715	32758	32756	32647	
971	0	32918	32511	32794	32772	32543	32775	32719	32773	
972	0	32967	32692	32730	32815	32735	32615	32807	32710	
973	0	32944	32567	32775	32748	32519	32743	32772	32663	
974	0	32822	32735	32723	32733	32797	32787	32783	32723	
975	0	32908	32471	32711	32727	32789	32662	32743	32615	
976	0	32898	32551	32719	32775	32679	32757	32839	32687	
977	0	32861	32556	32783	32775	32725	32735	32787	32671	
978	0	32857	32535	32706	32765	32734	32855	32695	32663	
979	0	32880	32687	32758	32807	32605	32851	32641	32719	
980	0	32843	32671	32738	32775	32694	32783	32775	32665	
981	0	32699	32597	32807	32836	32677	32775	32745	32743	
982	0	32749	32670	32839	32809	32702	32918	32782	32741	
983	0	32764	32630	32843	32685	32709	32671	32727	32659	
984	0	32756	32770	32819	32647	32741	32799	32793	32749	
985	0	32771	32798	32773	32620	32647	32825	32707	32691	
986	0	32743	32547	32743	32807	32647	32631	32677	32727	
987	0	32839	32639	32662	32819	32713	32711	32755	32685	
988	0	32755	32695	32731	32798	32804	32797	32743	32723	
989	0	32775	32615	32785	32821	32789	32846	32647	32623	
990	0	32810	32702	32775	32789	32595	32702	32621	32735	
991	0	32742	32543	32759	32763	32663	32798	32647	32619	
992	0	32753	32636	32743	32835	32642	32748	32647	32745	
993	0	32741	32575	32759	32735	32687	32797	32715	32679	
994	0	32754	32654	32756	32804	32709	32819	32764	32710	
995	0	32764	32659	32738	32775	32571	32659	32655	32679	
996	0	32737	32505	32795	32745	32673	32797	32615	32715	
997	0	32767	32677	32775	32754	32511	32807	32671	32583	
998	0	32783	32658	32775	32773	32767	32751	32748	32719	
999	0	32739	32590	32812	32813	32758	32773	32783	32645	
1000	0	32734	32669	32823	32742	32571	32717	32743	32719	
1001	0	32806	32463	32741	32756	32647	32673	32631	32685	
1002	0	32838	32605	32712	32765	32647	32806	32711	32758	
1003	0	32847	32599	32663	32799	32810	32695	32791	32690	
1004	0	32840	32673	32671	32807	32724	32731	32749	32765	
1005	0	32807	32551	32695	32734	32702	32723	32732	32762	
1006	0	32818	32539	32732	32782	32726	32665	32711	32738	
1007	0	32771	32553	32759	32795	32618	32655	32735	32725	
1008	0	32734	32647	32807	32739	32709	32731	32775	32715	
1009	0	32740	32647	32820	32726	32701	32837	32799	32731	
1010	0	32734	32645	32839	32678	32647	32735	32665	32707	
1011	0	32732	32703	32785	32738	32717	32734	32647	32647	
1012	0	32773	32829	32706	32749	32703	32892	32791	32772	
1013	0	32770	32531	32690	32850	32607	32775	32757	32734	
1014	0	32751	32687	32701	32748	32669	32689	32789	32723	
1015	0	32737	32644	32695	32824	32507	32707	32733	32717	
1016	0	32694	32703	32711	32717	32660	32715	32647	32763	
1017	0	32679	32567	32727	32775	32529	32815	32641	32736	
1018	0	32708	32645	32727	32657	32703	32662	32621	32660	
1019	0	32806	32791	32695	32730	32543	32745	32662	32799	
1020	0	32812	32743	32723	32823	32699	32771	32663	32771	
1021	0	32765	32773	32775	32756	32606	32767	32702	32747	
1022	0	32772	32627	32791	32830	32751	32759	32685	32773	
1023	0	32716	32711	32836	32739	32559	32655	32703	32667	
1024	0	32850	32647	32849	32855	32691	32799	32735	32711	
1025	0	32796	32607	32839	32759	32553	32775	32741	32668	
1026	0	32773	32667	32815	32818	32719	32677	32750	32551	
1027	0	32786	32674	32881	32815	32575	32748	32661	32695	
1028	0	32790	32738	32823	32718	32694	32775	32615	32659	
1029	0	32809	32559	32775	32786	32583	32807	32639	32743	
1030	0	32798	32738	32864	32671	32745	32641	32645	32783	
1031	0	32812	32743	32823	32698	32642	32775	32761	32727	
1032	0	32782	32571	32715	32783	32661	32781	32807	32743	
1033	0	32802	32677	32685	32711	32543	32834	32802	32719	
1034	0	32791	32691	32679	32771	32717	32811	32759	32791	
1035	0	32769	32644	32745	32828	32551	32805	32708	32661	
1036	0	32716	32607	32735	32773	32733	32770	32835	32610	
1037	0	32738	32511	32746	32798	32759	32647	32726	32663	
1038	0	32722	32751	32770	32659	32735	32773	32703	32710	
1039	0	32723	32662	32711	32773	32767	32647	32723	32741	
1040	0	32735	32719	32751	32655	32735	32695	32629	32799	
1041	0	32807	32557	32751	32743	32743	32706	32731	32810	
1042	0	32870	32671	32727	32683	32610	32767	32699	32761	
1043	0	32808	32711	32773	32749	32692	32841	32755	32793	
1044	0	32752	32743	32741	32737	32522	32775	32718	32754	
1045	0	32748	32803	32767	32743	32769	32681	32647	32673	
1046	0	32767	32635	32775	32749	32658	32815	32675	32743	
1047	0	32867	32691	32729	32775	32679	32799	32631	32647	
1048	0	32818	32831	32757	32829	32603	32789	32671	32687	
1049	0	32749	32583	32719	32695	32711	32669	32766	32727	
1050	0	32753	32755	32788	32823	32658	32775	32799	32671	
1051	0	32744	32709	32771	32738	32647	32831	32710	32789	
1052	0	32771	32674	32699	32759	32735	32755	32758	32711	
1053	0	32813	32741	32766	32762	32636	32809	32606	32690	
1054	0	32762	32491	32762	32791	32679	32805	32703	32710	
1055	0	32775	32541	32773	32735	32511	32681	32826	32787	
1056	0	32765	32743	32812	32791	32595	32775	32741	32791	
1057	0	32769	32741	32813	32735	32591	32773	32683	32720	
1058	0	32754	32767	32752	32787	32751	32775	32711	32694	
1059	0	32719	32787	32821	32770	32735	32791	32639	32623	
1060	0	32758	32567	32743	32795	32645	32637	32635	32762	
1061	0	32764	32627	32759	32787	32706	32738	32622	32647	
1062	0	32740	32709	32750	32780	32535	32773	32685	32739	
1063	0	32700	32695	32799	32811	32676	32694	32727	32639	
1064	0	32766	32583	32763	32735	32527	32798	32743	32718	
1065	0	32793	32543	32754	32763	32679	32773	32759	32759	
1066	0	32758	32692	32759	32647	32735	32667	32679	32717	
1067	0	32698	32647	32802	32811	32735	32813	32678	32730	
1068	0	32652	32831	32741	32809	32754	32775	32671	32675	
1069	0	32734	32565	32671	32827	32703	32823	32635	32669	
1070	0	32704	32642	32707	32801	32634	32662	32757	32703	
1071	0	32687	32637	32654	32703	32699	32799	32734	32743	
1072	0	32718	32590	32701	32789	32647	32663	32741	32719	
1073	0	32797	32571	32667	32694	32771	32821	32742	32695	
1074	0	32852	32570	32663	32751	32647	32615	32775	32775	
1075	0	32791	32766	32645	32765	32771	32647	32769	32661	
1076	0	32784	32597	32679	32727	32676	32839	32637	32748	
1077	0	32775	32619	32685	32795	32662	32717	32647	32725	
1078	0	32808	32615	32677	32719	32727	32738	32679	32678	
1079	0	32751	32613	32733	32735	32519	32831	32773	32763	
1080	0	32750	32812	32724	32641	32641	32653	32834	32731	
1081	0	32738	32587	32687	32789	32537	32854	32767	32763	
1082	0	32654	32703	32756	32701	32662	32807	32711	32713	
1083	0	32752	32702	32739	32738	32587	32775	32692	32775	
1084	0	32793	32772	32749	32804	32703	32705	32695	32749	
1085	0	32783	32782	32735	32786	32695	32817	32703	32807	
1086	0	32775	32799	32775	32647	32743	32801	32795	32763	
1087	0	32743	32487	32767	32775	32698	32715	32747	32761	
1088	0	32743	32697	32759	32726	32583	32821	32743	32731	
1089	0	32766	32595	32787	32732	32718	32660	32731	32671	
1090	0	32690	32755	32790	32751	32620	32742	32644	32701	
1091	0	32724	32597	32819	32811	32701	32759	32707	32657	
1092	0	32743	32675	32821	32763	32711	32815	32743	32700	
1093	0	32799	32719	32766	32727	32642	32855	32735	32615	
1094	0	32804	32695	32845	32735	32689	32693	32711	32789	
1095	0	32722	32767	32811	32735	32643	32831	32753	32775	
1096	0	32722	32487	32844	32770	32671	32739	32703	32727	
1097	0	32738	32709	32867	32719	32561	32841	32633	32759	
1098	0	32758	32580	32841	32813	32741	32775	32735	32663	
1099	0	32748	32751	32827	32742	32622	32741	32662	32754	
1100	0	32775	32519	32798	32769	32727	32701	32663	32759	
1101	0	32730	32682	32830	32717	32531	32791	32726	32723	
1102	0	32705	32658	32803	32829	32758	32747	32713	32787	
1103	0	32711	32810	32759	32703	32829	32607	32719	32685	
1104	0	32690	32517	32745	32731	32695	32831	32795	32775	
1105	0	32665	32715	32739	32765	32583	32698	32743	32749	
1106	0	32775	32676	32679	32700	32694	32711	32717	32647	
1107	0	32821	32743	32676	32751	32575	32631	32659	32749	
1108	0	32759	32535	32740	32726	32647	32850	32647	32647	
1109	0	32775	32692	32771	32723	32526	32772	32599	32791	
1110	0	32743	32704	32711	32742	32683	32775	32643	32797	
1111	0	32758	32791	32711	32762	32639	32810	32627	32659	
1112	0	32829	32671	32711	32748	32679	32798	32718	32738	
1113	0	32843	32695	32834	32807	32698	32765	32605	32687	
1114	0	32760	32731	32797	32759	32750	32631	32723	32690	
1115	0	32719	32581	32759	32709	32678	32799	32790	32723	
1116	0	32757	32527	32694	32661	32626	32741	32719	32603	
1117	0	32807	32749	32691	32767	32545	32775	32708	32719	
1118	0	32791	32623	32738	32699	32669	32815	32597	32706	
1119	0	32787	32799	32709	32828	32611	32647	32689	32702	
1120	0	32759	32535	32775	32751	32743	32671	32793	32743	
1121	0	32797	32682	32793	32827	32545	32799	32743	32679	
1122	0	32726	32611	32831	32759	32599	32764	32764	32721	
1123	0	32756	32757	32759	32795	32642	32758	32741	32717	
1124	0	32743	32579	32818	32791	32703	32644	32830	32755	
1125	0	32740	32711	32783	32692	32543	32814	32853	32687	
1126	0	32742	32703	32815	32748	32678	32763	32743	32639	
1127	0	32734	32767	32831	32679	32510	32799	32694	32729	
1128	0	32738	32567	32771	32870	32639	32803	32631	32743	
1129	0	32858	32767	32805	32805	32561	32647	32629	32690	
1130	0	32804	32711	32791	32695	32711	32814	32748	32738	
1131	0	32839	32758	32775	32757	32629	32715	32715	32664	
1132	0	32750	32487	32730	32694	32687	32761	32738	32787	
1133	0	32758	32686	32725	32807	32516	32731	32726	32723	
1134	0	32732	32663	32722	32807	32679	32695	32647	32749	
1135	0	32828	32751	32733	32687	32564	32815	32791	32639	
1136	0	32807	32583	32757	32703	32631	32795	32742	32810	
1137	0	32775	32614	32743	32759	32567	32619	32647	32685	
1138	0	32775	32738	32801	32807	32791	32755	32663	32794	
1139	0	32745	32613	32743	32807	32631	32802	32793	32637	
1140	0	32800	32743	32711	32685	32705	32689	32743	32791	
1141	0	32753	32759	32725	32785	32775	32843	32719	32764	
1142	0	32829	32577	32775	32687	32747	32667	32684	32731	
1143	0	32743	32663	32739	32775	32539	32791	32733	32751	
1144	0	32775	32647	32743	32835	32683	32725	32703	32755	
1145	0	32705	32767	32809	32689	32554	32775	32735	32711	
1146	0	32801	32541	32747	32803	32682	32807	32700	32718	
1147	0	32766	32630	32758	32663	32533	32669	32657	32639	
1148	0	32718	32647	32693	32771	32705	32839	32695	32758	
1149	0	32771	32607	32709	32695	32791	32903	32766	32615	
1150	0	32782	32705	32742	32804	32731	32823	32729	32715	
1151	0	32775	32519	32757	32689	32717	32751	32804	32751	
1152	0	32828	32647	32695	32743	32669	32759	32764	32683	
1153	0	32761	32663	32767	32762	32655	32689	32754	32727	
1154	0	32798	32731	32789	32707	32731	32757	32683	32687	
1155	0	32784	32683	32767	32759	32635	32807	32683	32680	
1156	0	32800	32605	32833	32661	32767	32671	32631	32734	
1157	0	32768	32743	32763	32791	32613	32808	32715	32647	
1158	0	32721	32471	32759	32849	32647	32750	32655	32775	
1159	0	32705	32739	32799	32695	32495	32806	32749	32725	
1160	0	32695	32567	32756	32839	32729	32789	32767	32666	
1161	0	32719	32750	32751	32812	32769	32655	32723	32684	
1162	0	32737	32551	32763	32739	32759	32775	32731	32679	
1163	0	32681	32749	32813	32655	32687	32695	32731	32748	
1164	0	32739	32639	32754	32806	32751	32791	32683	32735	
1165	0	32739	32805	32783	32735	32608	32637	32643	32655	
1166	0	32764	32699	32781	32695	32677	32751	32743	32807	
1167	0	32747	32711	32763	32756	32612	32807	32740	32767	
1168	0	32762	32797	32719	32823	32722	32743	32765	32619	
1169	0	32722	32567	32797	32727	32623	32738	32751	32719	
1170	0	32820	32756	32767	32790	32730	32882	32836	32679	
1171	0	32786	32699	32743	32685	32615	32887	32775	32677	
1172	0	32799	32775	32705	32750	32764	32795	32805	32642	
1173	0	32792	32683	32733	32719	32747	32749	32693	32687	
1174	0	32758	32684	32718	32815	32788	32713	32635	32757	
1175	0	32820	32725	32711	32699	32715	32647	32647	32686	
1176	0	32840	32791	32741	32767	32607	32708	32771	32707	
1177	0	32840	32583	32747	32739	32722	32679	32775	32683	
1178	0	32828	32730	32735	32783	32731	32841	32729	32771	
1179	0	32807	32705	32851	32799	32727	32647	32743	32775	
1180	0	32824	32799	32807	32703	32607	32746	32774	32729	
1181	0	32799	32549	32775	32735	32717	32847	32738	32790	
1182	0	32846	32661	32726	32639	32623	32763	32623	32764	
1183	0	32764	32639	32800	32775	32689	32805	32693	32794	
1184	0	32773	32722	32775	32739	32775	32854	32775	32663	
1185	0	32771	32551	32787	32791	32773	32689	32725	32697	
1186	0	32790	32564	32719	32773	32773	32607	32775	32631	
1187	0	32775	32749	32711	32773	32643	32741	32703	32673	
1188	0	32778	32683	32726	32817	32855	32741	32627	32669	
1189	0	32820	32738	32719	32683	32710	32711	32690	32759	
1190	0	32730	32533	32767	32823	32751	32757	32638	32727	
1191	0	32758	32751	32775	32720	32679	32631	32715	32723	
1192	0	32742	32707	32735	32767	32735	32708	32724	32788	
1193	0	32736	32775	32711	32715	32703	32767	32711	32696	
1194	0	32751	32566	32746	32751	32731	32807	32775	32710	
1195	0	32726	32711	32747	32806	32717	32775	32772	32676	
1196	0	32695	32687	32800	32773	32676	32695	32807	32719	
1197	0	32743	32770	32823	32759	32677	32727	32655	32703	
1198	0	32775	32524	32836	32719	32519	32749	32687	32687	
1199	0	32792	32614	32765	32699	32663	32775	32677	32775	
1200	0	32727	32763	32731	32839	32621	32671	32751	32805	
1201	0	32726	32570	32739	32767	32647	32833	32694	32671	
1202	0	32808	32645	32739	32799	32435	32757	32750	32724	
1203	0	32769	32727	32783	32775	32554	32775	32731	32647	
1204	0	32762	32743	32759	32692	32517	32745	32711	32747	
1205	0	32786	32603	32743	32767	32627	32743	32729	32695	
1206	0	32727	32683	32735	32799	32503	32759	32772	32735	
1207	0	32775	32543	32731	32695	32617	32811	32845	32719	
1208	0	32787	32715	32767	32773	32503	32632	32751	32642	
1209	0	32827	32515	32827	32775	32698	32819	32826	32669	
1210	0	32800	32711	32827	32671	32468	32727	32741	32709	
1211	0	32735	32610	32849	32722	32726	32806	32601	32660	
1212	0	32686	32783	32821	32767	32583	32781	32629	32706	
1213	0	32692	32677	32775	32677	32703	32742	32743	32685	
1214	0	32717	32751	32799	32748	32614	32819	32755	32739	
1215	0	32667	32671	32855	32715	32719	32687	32717	32670	
1216	0	32647	32807	32771	32805	32734	32760	32753	32719	
1217	0	32687	32662	32757	32895	32706	32769	32671	32713	
1218	0	32737	32571	32791	32775	32722	32687	32604	32803	
1219	0	32756	32621	32827	32831	32507	32695	32731	32806	
1220	0	32858	32681	32703	32727	32722	32728	32739	32819	
1221	0	32861	32719	32767	32718	32743	32854	32699	32726	
1222	0	32805	32621	32795	32623	32705	32775	32733	32709	
1223	0	32850	32767	32755	32691	32743	32805	32610	32751	
1224	0	32817	32731	32727	32725	32551	32681	32639	32695	
1225	0	32806	32545	32764	32743	32703	32709	32694	32751	
1226	0	32809	32559	32767	32775	32556	32815	32705	32633	
1227	0	32784	32823	32722	32738	32654	32711	32711	32694	
1228	0	32713	32695	32742	32791	32582	32791	32753	32708	
1229	0	32687	32751	32829	32756	32681	32655	32711	32751	
1230	0	32747	32538	32727	32743	32546	32819	32775	32701	
1231	0	32775	32547	32731	32791	32694	32718	32727	32631	
1232	0	32751	32711	32694	32681	32564	32829	32643	32759	
1233	0	32746	32669	32706	32787	32692	32687	32671	32711	
1234	0	32806	32709	32762	32787	32607	32739	32673	32827	
1235	0	32781	32832	32751	32791	32725	32795	32733	32766	
1236	0	32825	32575	32807	32763	32844	32775	32743	32748	
1237	0	32808	32551	32815	32705	32830	32805	32751	32741	
1238	0	32782	32623	32883	32770	32787	32809	32730	32677	
1239	0	32733	32695	32789	32711	32647	32813	32723	32749	
1240	0	32737	32759	32758	32830	32676	32655	32711	32773	
1241	0	32784	32647	32747	32692	32564	32723	32754	32742	
1242	0	32790	32733	32775	32782	32679	32799	32783	32621	
1243	0	32757	32763	32812	32743	32625	32673	32785	32659	
1244	0	32754	32775	32785	32717	32743	32813	32619	32601	
1245	0	32768	32509	32753	32799	32735	32739	32674	32713	
1246	0	32713	32687	32775	32665	32747	32647	32647	32753	
1247	0	32748	32609	32815	32812	32701	32771	32567	32655	
1248	0	32707	32623	32802	32743	32791	32751	32662	32727	
1249	0	32725	32676	32830	32739	32715	32763	32775	32631	
1250	0	32761	32767	32883	32784	32749	32703	32755	32716	
1251	0	32687	32627	32903	32758	32719	32661	32751	32679	
1252	0	32669	32439	32797	32807	32493	32732	32715	32754	
1253	0	32724	32647	32735	32767	32662	32743	32711	32695	
1254	0	32710	32642	32773	32802	32593	32901	32759	32743	
1255	0	32684	32679	32761	32830	32789	32839	32774	32706	
1256	0	32745	32647	32743	32859	32783	32673	32765	32751	
1257	0	32775	32681	32741	32742	32679	32764	32737	32706	
1258	0	32785	32587	32757	32818	32711	32748	32687	32667	
1259	0	32759	32713	32850	32800	32749	32765	32743	32692	
1260	0	32800	32623	32804	32645	32751	32611	32714	32647	
1261	0	32775	32711	32819	32751	32613	32711	32716	32813	
1262	0	32756	32801	32805	32775	32663	32772	32709	32737	
1263	0	32770	32543	32771	32721	32581	32773	32751	32797	
1264	0	32832	32596	32819	32743	32711	32805	32761	32722	
1265	0	32836	32731	32769	32707	32623	32679	32695	32647	
1266	0	32788	32741	32820	32756	32647	32669	32742	32759	
1267	0	32793	32675	32735	32727	32662	32775	32663	32721	
1268	0	32759	32654	32689	32822	32743	32837	32643	32727	
1269	0	32767	32660	32691	32734	32760	32807	32645	32722	
1270	0	32743	32741	32740	32799	32573	32838	32711	32742	
1271	0	32747	32823	32691	32759	32639	32813	32681	32694	
1272	0	32722	32571	32700	32684	32501	32658	32609	32738	
1273	0	32775	32636	32751	32767	32687	32711	32807	32662	
1274	0	32759	32679	32722	32701	32727	32759	32727	32643	
1275	0	32783	32767	32663	32754	32749	32751	32843	32634	
1276	0	32809	32679	32759	32807	32711	32834	32711	32711	
1277	0	32788	32775	32727	32695	32707	32775	32731	32631	
1278	0	32767	32850	32769	32761	32741	32602	32631	32773	
1279	0	32734	32603	32741	32797	32761	32735	32639	32767	
1280	0	32737	32749	32739	32675	32751	32647	32615	32683	
1281	0	32710	32675	32727	32745	32723	32867	32719	32735	
1282	0	32758	32742	32738	32743	32630	32677	32621	32722	
1283	0	32743	32566	32767	32693	32739	32797	32719	32719	
1284	0	32729	32647	32771	32811	32605	32775	32801	32761	
1285	0	32770	32565	32815	32846	32687	32709	32729	32734	
1286	0	32779	32679	32859	32717	32479	32735	32739	32780	
1287	0	32743	32783	32781	32798	32687	32791	32735	32775	
1288	0	32726	32519	32772	32811	32599	32803	32756	32688	
1289	0	32742	32621	32823	32677	32691	32845	32751	32729	
1290	0	32783	32634	32755	32743	32583	32699	32807	32742	
1291	0	32701	32669	32793	32723	32658	32791	32751	32791	
1292	0	32734	32769	32745	32743	32532	32758	32759	32755	
1293	0	32769	32551	32701	32751	32659	32805	32679	32647	
1294	0	32750	32730	32667	32753	32559	32711	32599	32681	
1295	0	32724	32694	32647	32759	32717	32797	32679	32612	
1296	0	32703	32606	32702	32853	32759	32679	32730	32747	
1297	0	32805	32767	32709	32742	32705	32774	32722	32599	
1298	0	32741	32771	32694	32763	32701	32829	32799	32739	
1299	0	32751	32617	32751	32659	32621	32671	32686	32641	
1300	0	32766	32531	32735	32836	32813	32647	32727	32743	
1301	0	32827	32700	32756	32694	32783	32839	32804	32655	
1302	0	32764	32695	32791	32756	32623	32749	32763	32710	
1303	0	32794	32707	32837	32815	32681	32763	32766	32695	
1304	0	32787	32770	32756	32711	32676	32623	32799	32754	
1305	0	32740	32519	32722	32814	32685	32738	32749	32755	
1306	0	32774	32679	32775	32871	32695	32751	32765	32647	
1307	0	32775	32715	32714	32663	32739	32739	32674	32685	
1308	0	32799	32623	32739	32807	32486	32613	32647	32647	
1309	0	32817	32695	32759	32699	32671	32811	32586	32765	
1310	0	32809	32775	32755	32741	32743	32775	32763	32689	
1311	0	32772	32603	32766	32698	32735	32805	32761	32741	
1312	0	32775	32538	32791	32761	32711	32787	32731	32631	
1313	0	32803	32695	32749	32806	32607	32662	32629	32751	
1314	0	32712	32635	32791	32682	32671	32753	32711	32748	
1315	0	32738	32711	32679	32807	32693	32749	32690	32683	
1316	0	32736	32775	32699	32849	32739	32751	32802	32663	
1317	0	32726	32567	32743	32764	32617	32676	32771	32617	
1318	0	32711	32739	32692	32775	32666	32812	32715	32710	
1319	0	32725	32658	32707	32724	32573	32715	32701	32728	
1320	0	32751	32759	32711	32686	32663	32843	32756	32757	
1321	0	32807	32791	32735	32764	32516	32699	32748	32772	
1322	0	32812	32555	32817	32715	32685	32693	32647	32679	
1323	0	32802	32532	32775	32767	32647	32807	32623	32731	
1324	0	32773	32711	32755	32823	32709	32783	32715	32595	
1325	0	32802	32647	32731	32742	32611	32695	32665	32743	
1326	0	32713	32701	32771	32795	32741	32722	32750	32733	
1327	0	32736	32775	32769	32767	32639	32727	32759	32709	
1328	0	32694	32615	32759	32679	32743	32791	32732	32740	
1329	0	32737	32537	32787	32764	32671	32775	32767	32647	
1330	0	32791	32674	32767	32751	32799	32671	32679	32731	
1331	0	32769	32702	32807	32723	32719	32822	32647	32642	
1332	0	32781	32689	32756	32736	32725	32770	32623	32748	
1333	0	32790	32734	32731	32706	32742	32783	32711	32634	
1334	0	32789	32623	32711	32833	32599	32565	32715	32793	
1335	0	32777	32578	32819	32799	32663	32747	32775	32685	
1336	0	32795	32591	32738	32654	32499	32671	32799	32775	
1337	0	32813	32734	32799	32739	32615	32802	32711	32783	
1338	0	32732	32635	32813	32742	32598	32756	32637	32631	
1339	0	32758	32707	32806	32775	32743	32660	32791	32699	
1340	0	32804	32711	32755	32707	32713	32789	32803	32659	
1341	0	32821	32807	32805	32764	32621	32708	32743	32711	
1342	0	32789	32554	32783	32815	32677	32807	32775	32685	
1343	0	32818	32687	32739	32719	32599	32707	32749	32799	
1344	0	32764	32647	32775	32787	32702	32815	32707	32743	
1345	0	32724	32727	32771	32773	32699	32804	32660	32584	
1346	0	32742	32534	32794	32738	32773	32803	32643	32764	
1347	0	32724	32564	32786	32729	32643	32669	32806	32775	
1348	0	32710	32710	32815	32809	32723	32771	32722	32643	
1349	0	32706	32710	32775	32687	32604	32791	32691	32743	
1350	0	32681	32595	32787	32807	32719	32859	32749	32668	
1351	0	32743	32701	32818	32842	32732	32740	32695	32799	
1352	0	32729	32530	32797	32727	32773	32767	32751	32764	
1353	0	32768	32574	32775	32789	32713	32791	32709	32607	
1354	0	32824	32711	32692	32805	32719	32599	32674	32772	
1355	0	32714	32647	32684	32719	32635	32769	32615	32671	
1356	0	32719	32716	32735	32759	32734	32707	32703	32775	
1357	0	32719	32836	32764	32771	32647	32775	32647	32759	
1358	0	32790	32847	32775	32767	32685	32727	32734	32623	
1359	0	32714	32807	32770	32701	32501	32717	32735	32735	
1360	0	32764	32631	32751	32767	32717	32797	32719	32641	
1361	0	32780	32709	32743	32766	32579	32807	32711	32701	
1362	0	32730	32775	32724	32679	32735	32821	32730	32636	
1363	0	32734	32647	32751	32731	32590	32638	32694	32775	
1364	0	32830	32669	32723	32775	32698	32775	32663	32775	
1365	0	32791	32751	32769	32693	32491	32692	32706	32629	
1366	0	32786	32541	32736	32799	32647	32748	32749	32759	
1367	0	32805	32606	32716	32788	32526	32698	32823	32775	
1368	0	32762	32667	32733	32743	32661	32623	32815	32701	
1369	0	32760	32677	32742	32787	32596	32879	32847	32746	
1370	0	32743	32669	32773	32727	32737	32807	32791	32673	
1371	0	32798	32775	32819	32748	32602	32703	32737	32798	
1372	0	32748	32457	32767	32799	32735	32658	32658	32743	
1373	0	32730	32635	32751	32732	32519	32814	32647	32677	
1374	0	32685	32647	32727	32797	32629	32695	32647	32719	
1375	0	32738	32563	32757	32692	32586	32699	32755	32637	
1376	0	32701	32722	32722	32764	32798	32716	32837	32748	
1377	0	32687	32807	32709	32745	32765	32620	32789	32693	
1378	0	32757	32574	32781	32693	32698	32748	32723	32678	
1379	0	32757	32647	32739	32743	32615	32775	32666	32647	
1380	0	32787	32678	32775	32700	32709	32734	32679	32773	
1381	0	32804	32719	32787	32805	32727	32647	32711	32835	
1382	0	32836	32603	32797	32733	32743	32735	32769	32715	
1383	0	32807	32575	32855	32707	32679	32831	32687	32775	
1384	0	32783	32617	32830	32775	32511	32847	32711	32681	
1385	0	32781	32663	32761	32679	32635	32838	32681	32791	
1386	0	32745	32562	32775	32764	32514	32810	32717	32647	
1387	0	32789	32745	32807	32791	32647	32795	32658	32717	
1388	0	32812	32719	32789	32742	32564	32783	32743	32628	
1389	0	32832	32543	32807	32795	32671	32839	32734	32711	
1390	0	32785	32686	32804	32796	32598	32721	32689	32731	
1391	0	32701	32630	32815	32719	32630	32809	32734	32788	
1392	0	32705	32743	32735	32854	32519	32815	32775	32740	
1393	0	32763	32670	32797	32784	32663	32854	32661	32669	
1394	0	32720	32498	32717	32759	32532	32691	32634	32709	
1395	0	32714	32615	32733	32831	32715	32814	32734	32685	
1396	0	32764	32546	32733	32770	32713	32729	32723	32717	
1397	0	32735	32717	32843	32767	32663	32797	32732	32659	
1398	0	32726	32703	32835	32751	32732	32663	32688	32727	
1399	0	32763	32711	32817	32692	32807	32767	32765	32761	
1400	0	32749	32839	32764	32711	32815	32759	32621	32647	
1401	0	32719	32567	32719	32718	32739	32783	32602	32742	
1402	0	32772	32676	32706	32655	32791	32775	32610	32684	
1403	0	32751	32685	32717	32771	32751	32757	32631	32743	
1404	0	32759	32642	32735	32703	32791	32794	32755	32767	
1405	0	32718	32711	32751	32692	32791	32607	32751	32710	
1406	0	32703	32514	32731	32759	32621	32708	32739	32708	
1407	0	32706	32583	32743	32732	32735	32801	32719	32676	
1408	0	32680	32683	32885	32791	32647	32575	32703	32685	
1409	0	32797	32695	32812	32759	32763	32761	32735	32723	
1410	0	32795	32687	32869	32711	32679	32756	32747	32644	
1411	0	32729	32663	32775	32717	32767	32877	32797	32695	
1412	0	32802	32743	32762	32833	32810	32639	32671	32641	
1413	0	32781	32698	32711	32724	32635	32834	32679	32711	
1414	0	32769	32543	32738	32769	32699	32802	32647	32662	
1415	0	32805	32579	32775	32791	32679	32726	32773	32709	
1416	0	32826	32679	32831	32815	32716	32665	32797	32727	
1417	0	32772	32679	32843	32798	32559	32773	32775	32638	
1418	0	32799	32763	32843	32703	32711	32685	32789	32714	
1419	0	32734	32684	32843	32767	32583	32663	32818	32715	
1420	0	32749	32565	32791	32713	32702	32836	32767	32671	
1421	0	32781	32735	32741	32767	32721	32743	32695	32731	
1422	0	32783	32663	32725	32795	32771	32815	32655	32690	
1423	0	32758	32671	32759	32683	32775	32655	32633	32805	
1424	0	32734	32753	32751	32772	32775	32775	32743	32663	
1425	0	32706	32566	32795	32689	32583	32743	32695	32743	
1426	0	32719	32513	32756	32755	32715	32767	32683	32719	
1427	0	32668	32605	32775	32695	32556	32695	32670	32775	
1428	0	32735	32581	32687	32718	32729	32775	32674	32666	
1429	0	32759	32711	32711	32754	32655	32829	32693	32685	
1430	0	32801	32695	32731	32695	32807	32759	32641	32739	
1431	0	32809	32703	32771	32771	32557	32764	32696	32694	
1432	0	32826	32493	32706	32730	32699	32852	32819	32775	
1433	0	32754	32581	32727	32775	32470	32719	32771	32738	
1434	0	32751	32630	32775	32711	32687	32747	32826	32791	
1435	0	32749	32749	32703	32746	32699	32775	32698	32715	
1436	0	32779	32703	32719	32757	32751	32612	32685	32671	
1437	0	32816	32734	32723	32743	32749	32716	32715	32723	
1438	0	32738	32743	32807	32736	32590	32687	32747	32647	
1439	0	32796	32551	32795	32695	32659	32713	32767	32727	
1440	0	32720	32685	32733	32769	32505	32762	32775	32718	
1441	0	32742	32709	32815	32699	32695	32687	32738	32705	
1442	0	32726	32647	32732	32813	32567	32828	32638	32671	
1443	0	32767	32727	32713	32677	32719	32763	32633	32742	
1444	0	32805	32873	32759	32854	32511	32753	32647	32731	
1445	0	32760	32615	32783	32903	32631	32785	32799	32607	
1446	0	32807	32785	32715	32711	32605	32717	32757	32762	
1447	0	32759	32679	32751	32793	32749	32718	32711	32775	
1448	0	32762	32805	32761	32775	32723	32827	32723	32617	
1449	0	32759	32526	32748	32823	32519	32695	32719	32759	
1450	0	32767	32655	32823	32734	32707	32775	32646	32748	
1451	0	32745	32599	32813	32743	32711	32827	32715	32708	
1452	0	32787	32615	32807	32823	32727	32642	32692	32765	
1453	0	32751	32679	32743	32735	32739	32730	32666	32711	
1454	0	32738	32517	32759	32756	32711	32797	32669	32757	
1455	0	32748	32563	32769	32739	32620	32775	32688	32622	
1456	0	32775	32566	32775	32762	32662	32818	32633	32683	
1457	0	32717	32615	32767	32799	32543	32782	32682	32771	
1458	0	32725	32647	32852	32711	32695	32738	32669	32791	
1459	0	32754	32815	32809	32755	32687	32787	32677	32708	
1460	0	32716	32823	32743	32733	32717	32743	32839	32671	
1461	0	32723	32629	32775	32807	32559	32853	32743	32827	
1462	0	32749	32613	32747	32757	32751	32615	32709	32661	
1463	0	32709	32794	32786	32692	32615	32783	32770	32810	
1464	0	32783	32622	32759	32791	32735	32759	32731	32813	
1465	0	32730	32795	32743	32799	32764	32725	32767	32694	
1466	0	32708	32599	32695	32677	32641	32679	32802	32726	
1467	0	32753	32759	32702	32795	32695	32727	32775	32731	
1468	0	32724	32647	32765	32775	32583	32807	32773	32703	
1469	0	32716	32755	32703	32647	32698	32647	32735	32743	
1470	0	32808	32519	32683	32763	32597	32807	32749	32705	
1471	0	32748	32765	32727	32783	32715	32757	32623	32767	
1472	0	32766	32637	32690	32773	32623	32765	32722	32661	
1473	0	32761	32685	32743	32775	32694	32810	32762	32734	
1474	0	32736	32767	32721	32727	32647	32679	32743	32709	
1475	0	32746	32483	32763	32799	32642	32739	32802	32591	
1476	0	32810	32631	32765	32815	32535	32815	32768	32660	
1477	0	32788	32583	32763	32773	32684	32637	32767	32663	
1478	0	32738	32580	32775	32799	32551	32807	32773	32768	
1479	0	32791	32642	32793	32707	32695	32730	32759	32749	
1480	0	32767	32455	32711	32783	32599	32817	32695	32716	
1481	0	32752	32403	32719	32647	32757	32775	32722	32754	
1482	0	32797	32683	32733	32749	32647	32815	32693	32663	
1483	0	32824	32631	32719	32775	32702	32687	32634	32701	
1484	0	32835	32575	32751	32831	32802	32735	32723	32690	
1485	0	32836	32631	32735	32819	32639	32831	32799	32772	
1486	0	32790	32747	32725	32725	32743	32673	32756	32644	
1487	0	32855	32594	32735	32815	32575	32806	32743	32748	
1488	0	32748	32499	32780	32727	32677	32803	32599	32670	
1489	0	32775	32549	32797	32775	32572	32719	32683	32722	
1490	0	32818	32527	32743	32727	32787	32799	32709	32637	
1491	0	32708	32775	32782	32775	32839	32647	32717	32740	
1492	0	32703	32757	32790	32725	32703	32614	32807	32687	
1493	0	32736	32748	32757	32712	32773	32815	32775	32755	
1494	0	32749	32841	32775	32759	32743	32772	32787	32721	
1495	0	32759	32583	32719	32719	32749	32742	32703	32666	
1496	0	32791	32763	32742	32802	32725	32763	32713	32742	
1497	0	32816	32703	32739	32773	32643	32679	32699	32775	
1498	0	32814	32709	32689	32743	32722	32790	32631	32684	
1499	0	32782	32802	32724	32757	32585	32647	32655	32687	
1500	0	32776	32553	32758	32847	32703	32820	32631	32705	
1501	0	32718	32567	32775	32757	32546	32828	32615	32663	
1502	0	32783	32647	32847	32714	32721	32789	32660	32723	
1503	0	32772	32647	32847	32767	32489	32682	32707	32657	
1504	0	32812	32796	32807	32711	32647	32791	32791	32754	
1505	0	32769	32574	32758	32767	32599	32791	32775	32703	
1506	0	32719	32725	32775	32807	32706	32739	32743	32655	
1507	0	32760	32702	32721	32745	32509	32807	32772	32747	
1508	0	32727	32757	32791	32765	32679	32747	32742	32805	
1509	0	32790	32903	32853	32735	32543	32823	32767	32675	
1510	0	32762	32567	32767	32735	32703	32758	32647	32802	
1511	0	32790	32812	32775	32719	32569	32703	32576	32771	
1512	0	32809	32725	32705	32684	32660	32791	32645	32767	
1513	0	32729	32839	32701	32806	32674	32775	32635	32727	
1514	0	32695	32677	32721	32839	32719	32819	32639	32673	
1515	0	32675	32638	32704	32703	32647	32683	32726	32751	
1516	0	32703	32691	32668	32775	32733	32791	32763	32718	
1517	0	32708	32694	32735	32812	32742	32785	32775	32677	
1518	0	32772	32807	32807	32707	32583	32700	32765	32719	
1519	0	32730	32627	32803	32797	32695	32698	32670	32675	
1520	0	32754	32827	32819	32735	32479	32759	32711	32703	
1521	0	32756	32655	32861	32701	32671	32815	32785	32705	
1522	0	32751	32685	32834	32820	32615	32827	32676	32647	
1523	0	32747	32823	32847	32817	32717	32647	32717	32687	
1524	0	32722	32547	32787	32708	32574	32711	32698	32690	
1525	0	32756	32710	32853	32775	32759	32811	32797	32747	
1526	0	32743	32655	32802	32745	32655	32797	32733	32719	
1527	0	32735	32687	32823	32743	32685	32803	32775	32719	
1528	0	32711	32727	32804	32754	32575	32647	32755	32811	
1529	0	32732	32547	32734	32722	32701	32775	32741	32758	
1530	0	32781	32684	32751	32734	32559	32773	32694	32687	
1531	0	32865	32655	32703	32811	32711	32626	32743	32703	
1532	0	32874	32715	32727	32691	32661	32698	32823	32763	
1533	0	32825	32575	32743	32800	32731	32775	32767	32745	
1534	0	32850	32662	32695	32813	32611	32754	32663	32715	
1535	0	32743	32702	32658	32725	32694	32823	32633	32742	
1536	0	32855	32635	32767	32797	32514	32857	32756	32745	
1537	0	32775	32655	32743	32715	32715	32727	32757	32749	
1538	0	32758	32687	32739	32705	32530	32789	32813	32719	
1539	0	32816	32759	32775	32714	32698	32771	32775	32642	
1540	0	32820	32527	32821	32802	32580	32815	32655	32749	
1541	0	32781	32772	32759	32805	32637	32641	32647	32655	
1542	0	32788	32765	32735	32669	32541	32765	32655	32603	
1543	0	32749	32742	32711	32735	32773	32729	32675	32687	
1544	0	32736	32607	32704	32767	32663	32799	32680	32699	
1545	0	32747	32717	32709	32763	32726	32517	32771	32731	
1546	0	32727	32717	32773	32823	32602	32852	32749	32706	
1547	0	32770	32627	32679	32747	32703	32687	32733	32693	
1548	0	32745	32767	32747	32735	32657	32813	32799	32663	
1549	0	32692	32633	32720	32807	32724	32685	32736	32647	
1550	0	32748	32668	32711	32739	32659	32764	32755	32679	
1551	0	32743	32735	32757	32797	32743	32717	32639	32695	
1552	0	32771	32722	32707	32855	32503	32804	32599	32807	
1553	0	32775	32835	32708	32738	32701	32621	32644	32759	
1554	0	32810	32627	32705	32815	32565	32757	32710	32869	
1555	0	32770	32553	32639	32775	32703	32754	32717	32787	
1556	0	32732	32673	32703	32677	32543	32799	32695	32667	
1557	0	32707	32659	32679	32822	32663	32646	32706	32717	
1558	0	32781	32663	32714	32759	32551	32799	32759	32708	
1559	0	32779	32583	32714	32695	32702	32773	32679	32735	
1560	0	32724	32671	32767	32785	32519	32735	32647	32743	
1561	0	32748	32607	32733	32791	32711	32671	32631	32701	
1562	0	32762	32755	32719	32711	32668	32761	32669	32805	
1563	0	32746	32483	32823	32751	32563	32795	32623	32727	
1564	0	32760	32727	32775	32775	32613	32647	32727	32641	
1565	0	32719	32643	32794	32790	32543	32783	32658	32819	
1566	0	32755	32814	32791	32645	32701	32735	32637	32769	
1567	0	32756	32591	32820	32757	32703	32859	32708	32655	
1568	0	32749	32693	32783	32749	32599	32836	32697	32775	
1569	0	32743	32605	32710	32807	32639	32772	32671	32686	
1570	0	32703	32603	32699	32759	32669	32715	32735	32672	
1571	0	32728	32582	32767	32741	32775	32789	32663	32685	
1572	0	32796	32710	32855	32735	32721	32759	32684	32731	
1573	0	32763	32725	32758	32847	32591	32807	32711	32743	
1574	0	32742	32575	32763	32707	32655	32669	32839	32723	
1575	0	32759	32508	32743	32775	32586	32711	32809	32755	
1576	0	32767	32679	32769	32875	32711	32775	32804	32639	
1577	0	32742	32615	32715	32750	32487	32811	32767	32731	
1578	0	32773	32739	32687	32731	32757	32751	32753	32748	
1579	0	32797	32407	32642	32813	32743	32763	32718	32703	
1580	0	32775	32711	32725	32807	32796	32797	32706	32694	
1581	0	32783	32647	32751	32727	32762	32723	32772	32770	
1582	0	32759	32747	32775	32767	32559	32787	32766	32700	
1583	0	32732	32497	32727	32769	32692	32804	32759	32754	
1584	0	32734	32643	32791	32641	32519	32767	32687	32775	
1585	0	32775	32742	32715	32735	32683	32727	32679	32682	
1586	0	32756	32763	32739	32740	32691	32751	32607	32703	
1587	0	32729	32876	32743	32732	32690	32806	32660	32679	
1588	0	32786	32611	32685	32811	32685	32629	32679	32753	
1589	0	32806	32711	32671	32781	32667	32783	32643	32735	
1590	0	32826	32639	32723	32739	32686	32815	32639	32615	
1591	0	32839	32734	32769	32737	32467	32692	32647	32751	
1592	0	32722	32854	32773	32783	32751	32830	32799	32759	
1593	0	32717	32579	32826	32783	32564	32697	32771	32727	
1594	0	32748	32703	32797	32727	32716	32759	32753	32775	
1595	0	32774	32679	32769	32775	32551	32633	32683	32637	
1596	0	32751	32759	32791	32846	32691	32790	32711	32721	
1597	0	32690	32885	32789	32687	32655	32767	32826	32738	
1598	0	32775	32560	32722	32739	32703	32547	32811	32647	
1599	0	32833	32711	32791	32751	32636	32679	32805	32755	
1600	0	32812	32671	32707	32747	32539	32769	32805	32727	
1601	0	32736	32602	32791	32676	32712	32623	32775	32711	
1602	0	32806	32677	32801	32759	32749	32786	32815	32719	
1603	0	32826	32703	32823	32799	32807	32803	32735	32689	
1604	0	32786	32599	32822	32731	32695	32554	32703	32658	
1605	0	32715	32739	32739	32710	32758	32811	32731	32721	
1606	0	32769	32549	32742	32727	32677	32799	32647	32627	
1607	0	32711	32591	32773	32773	32591	32807	32574	32727	
1608	0	32773	32723	32791	32647	32679	32759	32645	32647	
1609	0	32711	32603	32746	32783	32612	32714	32615	32788	
1610	0	32723	32799	32711	32810	32773	32771	32593	32735	
1611	0	32694	32573	32790	32759	32815	32759	32631	32679	
1612	0	32679	32767	32835	32702	32591	32723	32710	32817	
1613	0	32647	32676	32831	32805	32590	32788	32719	32711	
1614	0	32675	32902	32787	32745	32603	32764	32667	32730	
1615	0	32653	32595	32759	32791	32686	32685	32711	32695	
1616	0	32667	32787	32694	32698	32749	32767	32711	32755	
1617	0	32645	32775	32663	32724	32527	32775	32763	32685	
1618	0	32649	32815	32673	32823	32685	32749	32695	32647	
1619	0	32643	32535	32703	32707	32621	32815	32671	32806	
1620	0	32645	32613	32726	32797	32713	32647	32611	32726	
1621	0	32697	32603	32687	32847	32609	32703	32727	32756	
1622	0	32647	32593	32758	32748	32762	32858	32699	32639	
1623	0	32608	32535	32615	32790	32731	32727	32677	32719	
1624	0	32626	32587	32647	32711	32775	32775	32709	32679	
1625	0	32710	32575	32620	32791	32743	32738	32684	32727	
1626	0	32698	32431	32621	32863	32765	32711	32607	32703	
1627	0	32786	32355	32647	32843	32772	32831	32655	32607	
1628	0	32764	32409	32655	32915	32743	32727	32709	32711	
1629	0	32868	32386	32660	32749	32787	32799	32756	32671	
1630	0	32869	32430	32654	32855	32713	32695	32786	32690	
1631	0	32954	32463	32647	32850	32731	32823	32647	32723	
1632	0	32885	32239	32615	32791	32740	32759	32685	32687	
1633	0	32932	32319	32658	32860	32540	32727	32734	32675	
1634	0	33036	32287	32642	32838	32702	32633	32715	32599	
1635	0	33030	32151	32611	32772	32579	32805	32643	32723	
1636	0	33074	32187	32621	32873	32629	32738	32674	32676	
1637	0	33250	31940	32703	32831	32463	32703	32751	32615	
1638	0	33391	31911	32711	32854	32603	32594	32741	32628	
1639	0	33391	32082	32754	32832	32602	32813	32721	32605	
1640	0	33325	32079	32775	32726	32663	32699	32790	32708	
1641	0	33194	32301	32786	32785	32582	32722	32741	32685	
1642	0	33170	32183	32759	32812	32751	32605	32731	32609	
1643	0	33191	32327	32749	32739	32687	32751	32758	32759	
1644	0	33305	32413	32729	32722	32703	32741	32855	32696	
1645	0	33388	32407	32773	32733	32557	32735	32709	32727	
1646	0	33300	32543	32797	32775	32720	32797	32647	32722	
1647	0	33188	32498	32751	32745	32751	32679	32707	32659	
1648	0	33117	32558	32807	32658	32731	32725	32735	32743	
1649	0	33029	32691	32869	32687	32677	32757	32798	32743	
1650	0	32947	32821	32919	32675	32519	32679	32795	32694	
1651	0	32804	33059	32911	32604	32621	32674	32926	32725	
1652	0	32702	32983	32978	32676	32599	32739	32826	32763	
1653	0	32590	33309	32958	32587	32647	32807	32933	32711	
1654	0	32413	33468	32939	32545	32605	32743	32883	32775	
1655	0	32338	33455	32959	32582	32669	32815	32830	32695	
1656	0	32329	33595	32903	32642	32733	32764	32807	32831	
1657	0	32338	33398	32966	32583	32643	32793	32845	32791	
1658	0	32252	33593	32967	32579	32709	32703	32797	32804	
1659	0	32205	33593	32967	32739	32569	32815	32749	32839	
1660	0	32210	33743	33007	32694	32711	32869	32739	32827	
1661	0	32065	33455	32927	32687	32741	32669	32735	32786	
1662	0	32081	33574	32903	32599	32783	32669	32783	32837	
1663	0	32219	33415	32809	32742	32671	32803	32735	32831	
1664	0	32326	33351	32818	32775	32603	32703	32676	32751	
1665	0	32495	33039	32831	32636	32711	32829	32703	32743	
1666	0	32521	33046	32839	32786	32527	32835	32689	32690	
1667	0	32551	32991	32804	32767	32784	32676	32707	32839	
1668	0	32527	32959	32742	32671	32655	32749	32631	32815	
1669	0	32500	33028	32749	32773	32727	32707	32557	32751	
1670	0	32470	32663	32731	32766	32727	32807	32598	32796	
1671	0	32492	32791	32667	32831	32694	32678	32687	32727	
1672	0	32460	32725	32634	32823	32723	32771	32613	32791	
1673	0	32455	32687	32667	32802	32829	32839	32671	32714	
1674	0	32558	32636	32709	32822	32683	32831	32711	32839	
1675	0	32512	32698	32621	32725	32723	32871	32629	32775	
1676	0	32601	32548	32615	32817	32737	32806	32614	32677	
1677	0	32559	32627	32619	32795	32763	32733	32617	32751	
1678	0	32562	32559	32691	32693	32775	32839	32595	32748	
1679	0	32613	32659	32755	32775	32585	32722	32567	32631	
1680	0	32662	32683	32679	32817	32719	32694	32535	32728	
1681	0	32706	32493	32715	32711	32603	32839	32630	32751	
1682	0	32719	32551	32711	32818	32735	32742	32584	32663	
1683	0	32745	32635	32703	32773	32716	32695	32717	32695	
1684	0	32768	32455	32690	32701	32743	32814	32703	32624	
1685	0	32718	32519	32689	32902	32739	32597	32743	32745	
1686	0	32783	32557	32687	32863	32647	32709	32692	32713	
1687	0	32811	32623	32731	32797	32758	32755	32730	32628	
1688	0	32872	32667	32698	32783	32751	32607	32836	32679	
1689	0	32775	32447	32719	32822	32743	32717	32785	32621	
1690	0	32800	32634	32836	32743	32764	32775	32721	32663	
1691	0	32773	32594	32791	32775	32709	32687	32802	32741	
1692	0	32853	32735	32772	32767	32551	32825	32838	32735	
1693	0	32909	32469	32718	32751	32647	32797	32695	32773	
1694	0	32959	32598	32711	32805	32529	32845	32682	32751	
1695	0	32893	32543	32695	32815	32679	32847	32659	32671	
1696	0	32941	32621	32639	32827	32626	32821	32726	32647	
1697	0	32890	32487	32643	32673	32671	32629	32631	32723	
1698	0	32889	32679	32679	32785	32620	32791	32634	32644	
1699	0	32882	32654	32735	32783	32684	32671	32611	32727	
1700	0	32878	32631	32739	32743	32647	32726	32715	32711	
1701	0	32854	32655	32759	32767	32726	32663	32703	32719	
1702	0	32872	32455	32719	32732	32567	32796	32703	32725	
1703	0	32871	32562	32818	32731	32707	32823	32767	32677	
1704	0	32826	32540	32789	32733	32790	32647	32759	32719	
1705	0	32839	32598	32805	32722	32807	32791	32739	32815	
1706	0	32797	32426	32725	32732	32802	32772	32711	32667	
1707	0	32838	32607	32715	32775	32675	32619	32735	32699	
1708	0	32806	32591	32750	32767	32694	32643	32725	32717	
1709	0	32820	32662	32724	32759	32727	32733	32647	32759	
1710	0	32871	32679	32775	32837	32667	32655	32660	32676	
1711	0	32828	32671	32791	32723	32740	32775	32706	32775	
1712	0	32814	32499	32751	32767	32547	32822	32694	32775	
1713	0	32783	32571	32738	32727	32710	32855	32750	32711	
1714	0	32829	32509	32785	32773	32471	32679	32739	32743	
1715	0	32782	32611	32819	32767	32671	32716	32694	32660	
1716	0	32816	32702	32806	32695	32637	32805	32675	32710	
1717	0	32844	32507	32827	32727	32705	32835	32693	32629	
1718	0	32836	32599	32834	32667	32767	32635	32735	32695	
1719	0	32903	32689	32815	32738	32658	32711	32757	32634	
1720	0	32891	32631	32773	32671	32701	32821	32775	32691	
1721	0	32815	32681	32759	32787	32553	32791	32654	32620	
1722	0	32859	32599	32775	32835	32679	32775	32674	32719	
1723	0	32851	32597	32783	32692	32535	32615	32669	32735	
1724	0	32794	32748	32742	32759	32687	32789	32845	32717	
1725	0	32791	32663	32762	32711	32609	32690	32787	32735	
1726	0	32850	32647	32708	32775	32687	32755	32754	32687	
1727	0	32812	32727	32711	32692	32659	32789	32674	32725	
1728	0	32864	32743	32711	32855	32613	32727	32686	32667	
1729	0	32783	32530	32718	32759	32725	32615	32703	32738	
1730	0	32824	32709	32724	32711	32607	32751	32719	32647	
1731	0	32839	32647	32711	32775	32659	32839	32736	32699	
1732	0	32745	32747	32757	32670	32759	32842	32739	32793	
1733	0	32742	32623	32711	32743	32743	32682	32693	32796	
1734	0	32812	32551	32775	32775	32699	32802	32643	32717	
1735	0	32786	32679	32727	32775	32557	32813	32810	32775	
1736	0	32803	32667	32783	32799	32819	32727	32694	32711	
1737	0	32864	32612	32765	32719	32791	32847	32723	32727	
1738	0	32759	32647	32783	32818	32583	32698	32797	32763	
1739	0	32748	32531	32807	32711	32767	32851	32751	32679	
1740	0	32732	32487	32775	32791	32541	32847	32683	32703	
1741	0	32727	32647	32737	32810	32663	32737	32681	32625	
1742	0	32684	32671	32757	32807	32477	32839	32775	32703	
1743	0	32711	32711	32795	32789	32748	32725	32743	32678	
1744	0	32702	32647	32791	32791	32742	32679	32751	32735	
1745	0	32751	32747	32819	32799	32703	32703	32775	32583	
1746	0	32757	32556	32790	32671	32711	32723	32647	32707	
1747	0	32671	32567	32757	32757	32551	32658	32722	32647	
1748	0	32633	32711	32701	32695	32671	32775	32733	32709	
1749	0	32708	32707	32737	32775	32583	32754	32745	32644	
1750	0	32751	32695	32702	32747	32764	32679	32755	32707	
1751	0	32791	32671	32722	32783	32775	32749	32723	32679	
1752	0	32738	32695	32719	32660	32615	32805	32647	32767	
1753	0	32734	32541	32763	32709	32709	32773	32686	32703	
1754	0	32797	32747	32695	32799	32613	32775	32706	32771	
1755	0	32785	32733	32683	32700	32743	32679	32807	32799	
1756	0	32744	32797	32718	32771	32526	32839	32710	32758	
1757	0	32745	32845	32733	32775	32677	32727	32720	32775	
1758	0	32793	32583	32691	32807	32598	32831	32710	32717	
1759	0	32735	32751	32695	32799	32743	32610	32775	32775	
1760	0	32759	32694	32711	32714	32599	32839	32703	32800	
1761	0	32775	32708	32731	32769	32701	32743	32695	32763	
1762	0	32797	32594	32707	32769	32623	32816	32612	32747	
1763	0	32761	32527	32711	32763	32738	32622	32647	32647	
1764	0	32815	32741	32753	32853	32615	32775	32791	32679	
1765	0	32836	32759	32711	32722	32839	32759	32771	32620	
1766	0	32898	32646	32731	32757	32875	32775	32731	32701	
1767	0	32844	32703	32646	32775	32599	32771	32727	32679	
1768	0	32813	32759	32747	32729	32716	32829	32689	32741	
1769	0	32769	32549	32796	32775	32596	32647	32695	32675	
1770	0	32756	32495	32823	32865	32813	32747	32733	32743	
1771	0	32760	32695	32749	32810	32702	32803	32751	32719	
1772	0	32668	32721	32828	32863	32783	32722	32767	32756	
1773	0	32773	32671	32783	32791	32754	32738	32711	32723	
1774	0	32732	32685	32745	32790	32605	32758	32578	32724	
1775	0	32736	32727	32775	32741	32642	32695	32750	32692	
1776	0	32769	32532	32727	32757	32533	32851	32710	32726	
1777	0	32770	32727	32789	32647	32661	32723	32775	32737	
1778	0	32788	32695	32738	32767	32675	32806	32757	32711	
1779	0	32788	32679	32838	32705	32735	32863	32693	32817	
1780	0	32804	32623	32837	32791	32689	32698	32663	32695	
1781	0	32714	32705	32796	32679	32447	32719	32733	32726	
1782	0	32733	32747	32775	32715	32603	32669	32694	32707	
1783	0	32754	32571	32759	32687	32487	32791	32689	32737	
1784	0	32710	32702	32775	32764	32643	32767	32743	32647	
1785	0	32787	32709	32757	32743	32491	32695	32791	32679	
1786	0	32672	32615	32767	32730	32695	32745	32782	32733	
1787	0	32723	32671	32775	32700	32742	32715	32660	32701	
1788	0	32732	32695	32739	32711	32662	32775	32679	32671	
1789	0	32751	32501	32749	32821	32713	32571	32791	32681	
1790	0	32783	32511	32692	32831	32679	32727	32721	32758	
1791	0	32861	32727	32687	32677	32671	32735	32667	32680	
1792	0	32775	32679	32721	32823	32555	32807	32707	32671	
1793	0	32799	32681	32709	32720	32740	32687	32783	32746	
1794	0	32765	32738	32692	32813	32547	32717	32690	32690	
1795	0	32757	32582	32719	32819	32661	32847	32691	32743	
1796	0	32743	32567	32679	32791	32645	32783	32811	32677	
1797	0	32793	32592	32730	32839	32743	32775	32786	32759	
1798	0	32711	32685	32750	32827	32770	32647	32819	32702	
1799	0	32716	32703	32795	32833	32626	32687	32647	32759	
1800	0	32739	32694	32727	32833	32711	32723	32683	32675	
1801	0	32676	32701	32787	32773	32715	32791	32806	32701	
1802	0	32743	32647	32791	32725	32775	32871	32730	32743	
1803	0	32783	32581	32703	32785	32662	32859	32691	32703	
1804	0	32763	32703	32781	32691	32717	32721	32732	32763	
1805	0	32769	32685	32756	32775	32595	32789	32735	32661	
1806	0	32806	32773	32771	32803	32759	32796	32701	32701	
1807	0	32807	32839	32757	32709	32734	32847	32727	32686	
1808	0	32708	32518	32742	32775	32615	32715	32775	32740	
1809	0	32763	32623	32743	32722	32686	32815	32740	32751	
1810	0	32769	32687	32767	32775	32658	32775	32716	32671	
1811	0	32738	32679	32775	32815	32726	32775	32738	32738	
1812	0	32658	32647	32757	32752	32775	32629	32766	32724	
1813	0	32675	32519	32791	32731	32657	32807	32690	32711	
1814	0	32706	32738	32754	32791	32658	32747	32715	32741	
1815	0	32727	32751	32727	32642	32615	32825	32679	32605	
1816	0	32765	32767	32708	32771	32754	32739	32775	32715	
1817	0	32754	32517	32762	32839	32719	32626	32727	32672	
1818	0	32804	32567	32751	32751	32687	32705	32679	32823	
1819	0	32807	32691	32727	32786	32647	32791	32741	32796	
1820	0	32818	32613	32783	32787	32727	32666	32773	32687	
1821	0	32796	32741	32811	32738	32743	32803	32735	32733	
1822	0	32821	32823	32748	32759	32715	32735	32711	32684	
1823	0	32756	32517	32785	32671	32727	32839	32655	32807	
1824	0	32711	32663	32855	32773	32671	32674	32663	32775	
1825	0	32786	32665	32775	32767	32711	32859	32751	32687	
1826	0	32786	32868	32695	32686	32700	32785	32738	32775	
1827	0	32770	32545	32727	32770	32639	32839	32766	32706	
1828	0	32808	32675	32700	32775	32735	32749	32791	32763	
1829	0	32732	32741	32735	32770	32791	32662	32661	32659	
1830	0	32757	32681	32725	32835	32607	32830	32617	32715	
1831	0	32801	32679	32791	32743	32679	32842	32789	32643	
1832	0	32734	32739	32791	32805	32589	32743	32756	32685	
1833	0	32744	32711	32773	32677	32647	32751	32847	32647	
1834	0	32724	32515	32799	32775	32721	32623	32731	32735	
1835	0	32732	32500	32763	32730	32719	32718	32671	32730	
1836	0	32688	32599	32738	32805	32707	32703	32567	32707	
1837	0	32685	32695	32735	32805	32771	32755	32631	32726	
1838	0	32718	32647	32757	32707	32739	32647	32583	32615	
1839	0	32723	32755	32715	32709	32730	32719	32713	32750	
1840	0	32759	32820	32731	32671	32767	32843	32692	32733	
1841	0	32770	32503	32759	32754	32603	32685	32775	32739	
1842	0	32736	32687	32731	32829	32703	32773	32813	32763	
1843	0	32745	32694	32815	32759	32515	32679	32710	32831	
1844	0	32806	32711	32730	32783	32713	32743	32646	32750	
1845	0	32775	32564	32797	32695	32690	32738	32711	32634	
1846	0	32831	32647	32726	32759	32708	32775	32623	32750	
1847	0	32806	32715	32702	32815	32717	32757	32775	32743	
1848	0	32847	32669	32725	32699	32679	32613	32810	32659	
1849	0	32788	32703	32749	32743	32631	32732	32683	32685	
1850	0	32785	32775	32825	32743	32785	32694	32727	32635	
1851	0	32791	32617	32787	32807	32578	32791	32727	32767	
1852	0	32703	32722	32771	32759	32701	32837	32683	32714	
1853	0	32678	32823	32764	32739	32579	32660	32595	32743	
1854	0	32743	32707	32756	32766	32738	32752	32644	32738	
1855	0	32726	32763	32763	32739	32571	32735	32703	32717	
1856	0	32737	32548	32796	32767	32720	32819	32725	32730	
1857	0	32748	32685	32799	32757	32734	32684	32703	32731	
1858	0	32802	32643	32775	32743	32807	32918	32743	32687	
1859	0	32801	32531	32790	32745	32775	32787	32757	32711	
1860	0	32813	32493	32746	32787	32830	32791	32796	32677	
1861	0	32774	32647	32759	32719	32734	32833	32718	32735	
1862	0	32807	32655	32737	32766	32775	32655	32700	32679	
1863	0	32752	32583	32759	32719	32535	32628	32749	32690	
1864	0	32757	32675	32686	32703	32647	32806	32765	32735	
1865	0	32748	32710	32706	32765	32671	32647	32694	32695	
1866	0	32785	32727	32693	32811	32573	32749	32687	32775	
1867	0	32760	32775	32705	32681	32647	32749	32690	32743	
1868	0	32736	32495	32722	32743	32655	32747	32759	32719	
1869	0	32799	32559	32759	32743	32755	32791	32707	32763	
1870	0	32743	32694	32786	32835	32862	32785	32671	32757	
1871	0	32781	32733	32805	32735	32775	32801	32731	32691	
1872	0	32828	32735	32767	32863	32759	32639	32796	32731	
1873	0	32740	32701	32775	32748	32782	32666	32791	32715	
1874	0	32759	32805	32763	32743	32730	32775	32775	32639	
1875	0	32802	32591	32727	32733	32666	32685	32723	32751	
1876	0	32734	32647	32703	32765	32621	32822	32694	32639	
1877	0	32748	32667	32743	32823	32719	32639	32605	32765	
1878	0	32690	32759	32722	32695	32663	32805	32695	32706	
1879	0	32699	32815	32742	32703	32687	32707	32647	32631	
1880	0	32742	32541	32691	32711	32694	32783	32725	32690	
1881	0	32721	32743	32733	32669	32719	32620	32637	32726	
1882	0	32813	32655	32775	32703	32657	32799	32677	32669	
1883	0	32825	32759	32787	32807	32615	32715	32699	32719	
1884	0	32804	32495	32795	32727	32631	32799	32831	32737	
1885	0	32806	32713	32759	32715	32574	32658	32763	32810	
1886	0	32786	32647	32707	32764	32715	32714	32764	32727	
1887	0	32754	32723	32751	32679	32715	32775	32685	32642	
1888	0	32802	32794	32755	32746	32751	32803	32675	32725	
1889	0	32845	32559	32794	32775	32598	32775	32588	32707	
1890	0	32827	32681	32711	32722	32732	32685	32658	32748	
1891	0	32804	32677	32797	32762	32669	32803	32661	32815	
1892	0	32798	32795	32739	32787	32670	32837	32639	32663	
1893	0	32710	32903	32711	32831	32719	32871	32739	32787	
1894	0	32745	32539	32687	32799	32655	32679	32711	32692	
1895	0	32743	32634	32679	32692	32676	32614	32719	32743	
1896	0	32745	32702	32665	32775	32597	32747	32679	32663	
1897	0	32795	32647	32666	32688	32679	32703	32681	32735	
1898	0	32716	32692	32786	32807	32711	32726	32685	32703	
1899	0	32722	32659	32799	32800	32735	32719	32631	32613	
1900	0	32785	32743	32863	32682	32769	32854	32675	32715	
1901	0	32823	32723	32875	32719	32607	32775	32629	32711	
1902	0	32795	32775	32877	32747	32725	32775	32813	32667	
1903	0	32775	32521	32829	32685	32631	32743	32837	32743	
1904	0	32807	32714	32838	32759	32715	32710	32799	32741	
1905	0	32810	32727	32789	32797	32661	32831	32735	32627	
1906	0	32855	32867	32743	32727	32741	32629	32714	32721	
1907	0	32750	32599	32701	32787	32685	32783	32723	32641	
1908	0	32723	32563	32703	32855	32850	32742	32765	32734	
1909	0	32762	32708	32722	32702	32751	32829	32751	32691	
1910	0	32763	32679	32787	32807	32687	32698	32738	32679	
1911	0	32804	32617	32765	32785	32543	32804	32743	32674	
1912	0	32844	32805	32731	32702	32615	32863	32775	32726	
1913	0	32828	32747	32715	32722	32543	32647	32797	32683	
1914	0	32815	32823	32727	32751	32707	32727	32811	32727	
1915	0	32800	32635	32729	32729	32721	32775	32837	32762	
1916	0	32769	32621	32786	32706	32785	32613	32697	32642	
1917	0	32807	32707	32797	32771	32733	32817	32701	32763	
1918	0	32798	32607	32775	32683	32756	32795	32679	32663	
1919	0	32729	32477	32879	32771	32703	32767	32667	32767	
1920	0	32754	32690	32803	32813	32775	32766	32775	32820	
1921	0	32867	32707	32718	32727	32763	32699	32775	32721	
1922	0	32789	32786	32726	32821	32613	32775	32759	32775	
1923	0	32743	32563	32775	32751	32693	32647	32663	32771	
1924	0	32745	32565	32772	32723	32706	32724	32689	32845	
1925	0	32714	32667	32749	32775	32642	32795	32642	32745	
1926	0	32727	32630	32726	32765	32623	32711	32669	32773	
1927	0	32741	32610	32775	32799	32577	32785	32772	32743	
1928	0	32720	32717	32743	32647	32743	32735	32709	32687	
1929	0	32757	32629	32814	32787	32598	32623	32719	32743	
1930	0	32745	32565	32789	32742	32677	32729	32703	32695	
1931	0	32812	32751	32759	32790	32639	32727	32739	32771	
1932	0	32804	32717	32751	32754	32703	32826	32679	32689	
1933	0	32788	32730	32738	32799	32735	32607	32629	32751	
1934	0	32804	32769	32677	32775	32683	32873	32647	32749	
1935	0	32812	32837	32658	32741	32679	32662	32769	32647	
1936	0	32765	32519	32734	32763	32620	32791	32717	32725	
1937	0	32738	32731	32731	32798	32679	32612	32700	32735	
1938	0	32783	32695	32703	32705	32698	32847	32719	32692	
1939	0	32681	32767	32767	32763	32743	32815	32797	32703	
1940	0	32764	32567	32823	32726	32599	32887	32655	32647	
1941	0	32775	32693	32775	32751	32801	32615	32623	32713	
1942	0	32729	32645	32799	32775	32608	32759	32647	32662	
1943	0	32772	32679	32791	32730	32722	32747	32686	32655	
1944	0	32754	32532	32791	32823	32585	32791	32775	32727	
1945	0	32775	32711	32785	32803	32730	32663	32790	32693	
1946	0	32751	32660	32803	32731	32583	32800	32677	32763	
1947	0	32801	32738	32805	32775	32743	32748	32715	32671	
1948	0	32787	32803	32735	32662	32676	32814	32710	32743	
1949	0	32777	32615	32751	32736	32813	32695	32666	32679	
1950	0	32743	32659	32714	32785	32715	32793	32675	32783	
1951	0	32748	32743	32711	32839	32732	32756	32625	32775	
1952	0	32775	32647	32733	32813	32619	32829	32703	32660	
1953	0	32773	32705	32659	32723	32687	32639	32738	32687	
1954	0	32791	32559	32709	32719	32673	32775	32775	32693	
1955	0	32705	32541	32721	32703	32738	32837	32695	32775	
1956	0	32733	32676	32717	32740	32695	32763	32732	32757	
1957	0	32727	32687	32711	32716	32763	32783	32717	32756	
1958	0	32775	32679	32755	32783	32775	32724	32658	32707	
1959	0	32739	32735	32759	32805	32723	32843	32612	32797	
1960	0	32733	32567	32763	32770	32775	32827	32647	32755	
1961	0	32784	32797	32783	32775	32706	32683	32679	32679	
1962	0	32797	32647	32759	32749	32811	32791	32787	32719	
1963	0	32759	32764	32741	32771	32767	32852	32793	32711	
1964	0	32784	32509	32775	32813	32743	32642	32753	32727	
1965	0	32731	32663	32758	32692	32718	32799	32740	32711	
1966	0	32731	32607	32787	32790	32683	32839	32784	32620	
1967	0	32799	32703	32783	32679	32591	32756	32773	32661	
1968	0	32862	32567	32790	32726	32687	32713	32749	32607	
1969	0	32792	32732	32751	32786	32615	32709	32702	32715	
1970	0	32725	32711	32739	32745	32691	32745	32643	32791	
1971	0	32698	32759	32754	32791	32594	32615	32642	32699	
1972	0	32730	32639	32719	32775	32711	32667	32700	32755	
1973	0	32744	32619	32689	32674	32643	32735	32647	32765	
1974	0	32772	32691	32655	32718	32717	32615	32706	32726	
1975	0	32718	32751	32730	32685	32669	32801	32770	32759	
1976	0	32730	32820	32733	32759	32631	32773	32781	32639	
1977	0	32704	32583	32789	32755	32479	32743	32709	32623	
1978	0	32738	32727	32711	32705	32690	32605	32663	32675	
1979	0	32757	32683	32739	32807	32566	32812	32647	32758	
1980	0	32788	32655	32763	32727	32623	32742	32669	32743	
1981	0	32694	32671	32767	32747	32503	32807	32739	32799	
1982	0	32738	32742	32718	32790	32719	32821	32686	32775	
1983	0	32762	32765	32783	32749	32551	32663	32687	32789	
1984	0	32771	32537	32679	32822	32743	32799	32635	32741	
1985	0	32770	32647	32655	32707	32729	32763	32663	32761	
1986	0	32800	32630	32679	32749	32718	32660	32705	32731	
1987	0	32830	32714	32690	32820	32543	32795	32719	32675	
1988	0	32767	32497	32775	32727	32679	32775	32679	32725	
1989	0	32793	32646	32783	32822	32498	32613	32831	32671	
1990	0	32804	32723	32806	32820	32629	32811	32801	32668	
1991	0	32732	32783	32775	32711	32503	32755	32737	32719	
1992	0	32729	32551	32871	32775	32671	32764	32751	32684	
1993	0	32767	32646	32797	32820	32534	32817	32748	32767	
1994	0	32758	32671	32845	32719	32623	32675	32797	32739	
1995	0	32716	32748	32758	32809	32599	32825	32795	32623	
1996	0	32783	32611	32758	32743	32739	32804	32711	32743	
1997	0	32743	32621	32703	32791	32669	32679	32829	32647	
1998	0	32743	32734	32761	32660	32579	32745	32719	32762	
1999	0	32762	32679	32729	32727	32731	32823	32674	32703	
2000	0	32774	32655	32789	32791	32549	32847	32677	32721	
2001	0	32772	32670	32811	32770	32645	32823	32631	32666	
2002	0	32727	32703	32775	32789	32714	32723	32735	32699	
2003	0	32789	32805	32794	32668	32703	32796	32822	32734	
2004	0	32775	32583	32817	32743	32709	32687	32757	32749	
2005	0	32715	32545	32845	32689	32799	32791	32725	32671	
2006	0	32754	32629	32818	32757	32767	32583	32763	32719	
2007	0	32759	32735	32838	32722	32834	32775	32787	32695	
2008	0	32829	32737	32775	32705	32691	32765	32775	32631	
2009	0	32771	32713	32847	32771	32787	32695	32655	32698	
2010	0	32773	32615	32797	32811	32811	32815	32631	32719	
2011	0	32718	32519	32791	32775	32743	32835	32645	32719	
2012	0	32767	32563	32727	32791	32733	32769	32713	32719	
2013	0	32748	32703	32683	32717	32543	32785	32727	32766	
2014	0	32730	32647	32761	32815	32735	32691	32703	32705	
2015	0	32731	32786	32742	32775	32485	32814	32727	32627	
2016	0	32753	32493	32695	32679	32722	32763	32775	32756	
2017	0	32836	32723	32655	32791	32647	32621	32731	32749	
2018	0	32796	32582	32642	32775	32759	32823	32678	32687	
2019	0	32838	32662	32727	32738	32551	32717	32630	32719	
2020	0	32766	32546	32785	32775	32695	32805	32612	32763	
2021	0	32758	32631	32756	32820	32519	32698	32646	32759	
2022	0	32782	32756	32807	32731	32662	32847	32754	32787	
2023	0	32766	32637	32786	32807	32543	32771	32759	32717	
2024	0	32783	32733	32839	32674	32711	32783	32727	32733	
2025	0	32781	32579	32859	32827	32546	32835	32769	32743	
2026	0	32795	32759	32775	32813	32711	32818	32743	32695	
2027	0	32775	32583	32772	32741	32626	32795	32767	32721	
2028	0	32742	32683	32815	32804	32721	32687	32731	32601	
2029	0	32775	32747	32770	32663	32601	32707	32627	32698	
2030	0	32794	32538	32743	32775	32807	32683	32741	32691	
2031	0	32773	32695	32769	32773	32575	32766	32695	32757	
2032	0	32713	32671	32745	32726	32703	32700	32663	32711	
2033	0	32675	32797	32727	32763	32495	32691	32686	32735	
2034	0	32708	32455	32643	32775	32646	32775	32733	32773	
2035	0	32662	32637	32615	32711	32543	32705	32719	32727	
2036	0	32741	32749	32717	32767	32707	32795	32683	32775	
2037	0	32759	32583	32743	32787	32639	32655	32721	32767	
2038	0	32731	32643	32666	32735	32735	32698	32645	32799	
2039	0	32722	32711	32763	32759	32765	32621	32621	32743	
2040	0	32748	32583	32773	32663	32827	32775	32701	32628	
2041	0	32753	32727	32775	32739	32810	32757	32867	32775	
2042	0	32795	32663	32731	32749	32722	32823	32783	32731	
2043	0	32753	32666	32718	32758	32709	32695	32739	32743	
2044	0	32706	32775	32773	32723	32525	32804	32805	32715	
2045	0	32741	32823	32756	32790	32767	32702	32687	32769	
2046	0	32771	32815	32799	32831	32748	32739	32716	32647	
2047	0	32797	32629	32762	32850	32638	32803	32702	32769	
2048	0	32703	32541	32795	32719	32709	32783	32705	32715	
2049	0	32766	32743	32783	32775	32767	32647	32660	32755	
2050	0	32764	32845	32743	32821	32699	32790	32735	32711	
2051	0	32755	32750	32743	32818	32819	32775	32668	32732	
2052	0	32765	32804	32751	32757	32718	32807	32631	32727	
2053	0	32778	32605	32695	32747	32717	32647	32811	32766	
2054	0	32788	32609	32753	32815	32614	32809	32731	32771	
2055	0	32801	32681	32767	32709	32700	32799	32725	32685	
2056	0	32738	32631	32720	32806	32553	32839	32753	32691	
2057	0	32810	32734	32719	32723	32775	32738	32671	32694	
2058	0	32803	32599	32711	32761	32775	32821	32727	32647	
2059	0	32714	32679	32735	32739	32615	32683	32727	32757	
2060	0	32767	32663	32754	32699	32647	32789	32789	32807	
2061	0	32806	32791	32739	32759	32518	32751	32743	32620	
2062	0	32763	32735	32789	32755	32683	32797	32783	32682	
2063	0	32775	32621	32747	32724	32647	32687	32683	32583	
2064	0	32775	32557	32787	32739	32654	32615	32663	32702	
2065	0	32751	32499	32865	32765	32692	32839	32775	32659	
2066	0	32804	32572	32775	32761	32541	32759	32767	32667	
2067	0	32769	32687	32771	32791	32687	32751	32751	32629	
2068	0	32709	32689	32791	32711	32647	32591	32775	32727	
2069	0	32820	32687	32775	32751	32766	32796	32735	32701	
2070	0	32754	32767	32859	32765	32623	32895	32655	32647	
2071	0	32781	32607	32826	32679	32745	32687	32595	32710	
2072	0	32753	32701	32791	32780	32655	32819	32695	32685	
2073	0	32760	32655	32713	32716	32694	32795	32719	32739	
2074	0	32710	32767	32703	32633	32535	32723	32735	32743	
2075	0	32782	32607	32722	32733	32623	32789	32719	32747	
2076	0	32771	32605	32719	32691	32543	32741	32687	32647	
2077	0	32749	32617	32771	32707	32687	32759	32663	32724	
2078	0	32829	32698	32747	32759	32639	32695	32791	32723	
2079	0	32833	32571	32783	32753	32762	32727	32807	32676	
2080	0	32791	32721	32828	32711	32775	32791	32759	32755	
2081	0	32762	32615	32698	32837	32685	32799	32716	32775	
2082	0	32811	32655	32783	32767	32623	32815	32759	32724	
2083	0	32823	32743	32783	32820	32676	32679	32703	32775	
2084	0	32788	32583	32742	32711	32574	32799	32711	32775	
2085	0	32765	32775	32743	32775	32702	32685	32719	32759	
2086	0	32796	32674	32775	32719	32527	32797	32855	32658	
2087	0	32775	32742	32773	32832	32727	32679	32747	32783	
2088	0	32818	32607	32775	32757	32590	32801	32751	32756	
2089	0	32748	32690	32711	32786	32727	32845	32708	32701	
2090	0	32696	32742	32703	32786	32613	32847	32663	32775	
2091	0	32676	32679	32711	32747	32718	32715	32647	32685	
2092	0	32738	32793	32726	32763	32518	32799	32614	32725	
2093	0	32791	32561	32722	32719	32703	32833	32603	32769	
2094	0	32757	32638	32727	32729	32639	32767	32639	32699	
2095	0	32727	32621	32703	32795	32791	32715	32719	32723	
2096	0	32724	32742	32733	32711	32668	32694	32706	32733	
2097	0	32692	32565	32727	32751	32711	32773	32775	32666	
2098	0	32700	32715	32767	32775	32720	32765	32655	32671	
2099	0	32751	32692	32827	32679	32741	32724	32774	32683	
2100	0	32768	32839	32795	32727	32749	32799	32690	32711	
2101	0	32743	32469	32775	32755	32773	32647	32671	32758	
2102	0	32762	32647	32826	32853	32695	32838	32771	32693	
2103	0	32708	32703	32781	32837	32692	32689	32738	32754	
2104	0	32756	32717	32784	32703	32703	32773	32695	32767	
2105	0	32781	32607	32809	32839	32636	32743	32732	32711	
2106	0	32779	32691	32815	32827	32759	32757	32661	32747	
2107	0	32807	32731	32787	32807	32726	32759	32667	32625	
2108	0	32771	32571	32797	32775	32635	32801	32787	32647	
2109	0	32707	32742	32787	32771	32727	32647	32735	32771	
2110	0	32738	32558	32762	32775	32671	32775	32743	32671	
2111	0	32734	32706	32759	32725	32765	32788	32711	32710	
2112	0	32784	32639	32759	32740	32647	32607	32711	32647	
2113	0	32824	32765	32726	32711	32759	32788	32743	32583	
2114	0	32775	32574	32767	32756	32695	32823	32642	32767	
2115	0	32778	32735	32773	32676	32709	32789	32757	32663	
2116	0	32751	32739	32739	32757	32523	32647	32765	32758	
2117	0	32780	32654	32771	32647	32708	32787	32718	32710	
2118	0	32834	32717	32759	32774	32675	32739	32735	32771	
2119	0	32745	32735	32807	32679	32723	32891	32631	32755	
2120	0	32765	32535	32769	32736	32743	32717	32727	32767	
2121	0	32786	32585	32793	32679	32499	32715	32758	32773	
2122	0	32751	32677	32805	32815	32663	32751	32749	32723	
2123	0	32748	32662	32807	32765	32623	32767	32786	32735	
2124	0	32773	32734	32789	32735	32719	32807	32727	32611	
2125	0	32797	32796	32775	32690	32685	32663	32647	32734	
2126	0	32772	32533	32775	32743	32743	32822	32696	32694	
2127	0	32711	32689	32831	32703	32695	32725	32703	32678	
2128	0	32770	32647	32743	32733	32519	32791	32671	32743	
2129	0	32722	32689	32773	32723	32695	32635	32751	32687	
2130	0	32698	32559	32762	32791	32631	32822	32740	32730	
2131	0	32655	32647	32749	32839	32695	32755	32733	32685	
2132	0	32692	32687	32798	32751	32702	32766	32657	32734	
2133	0	32764	32637	32756	32796	32739	32605	32703	32755	
2134	0	32799	32677	32733	32715	32723	32770	32621	32647	
2135	0	32820	32701	32745	32799	32612	32743	32765	32759	
2136	0	32818	32495	32730	32775	32738	32829	32763	32701	
2137	0	32759	32612	32639	32724	32751	32679	32807	32687	
2138	0	32761	32717	32677	32827	32742	32659	32742	32742	
2139	0	32767	32479	32749	32645	32735	32707	32811	32731	
2140	0	32724	32647	32743	32803	32659	32555	32829	32783	
2141	0	32769	32589	32725	32733	32805	32711	32735	32748	
2142	0	32751	32647	32691	32772	32763	32715	32668	32723	
2143	0	32711	32729	32721	32711	32733	32773	32672	32759	
2144	0	32773	32599	32751	32775	32757	32639	32707	32646	
2145	0	32728	32582	32721	32807	32700	32647	32731	32671	
2146	0	32706	32815	32703	32775	32775	32740	32703	32715	
2147	0	32713	32681	32735	32805	32717	32821	32734	32647	
