# OpenSignals Text File Format
# {"00:07:80:3B:46:38": {"sensor": ["CUSTOM/0.5/1.0/V", "CUSTOM/0.5/1.0/V", "CUSTOM/0.5/1.0/V", "CUSTOM/0.5/1.0/V", "CUSTOM/0.5/1.0/V", "CUSTOM/0.5/1.0/V", "CUSTOM/0.5/1.0/V", "CUSTOM/0.5/1.0/V"], "device name": "EMGs", "column": ["nSeq", "DI", "RA_L", "RA_R", "OE_L", "OE:R", "IL_L", "IL_R", "MF_L", "MF_R"], "sync interval": 2, "time": "16:50:25.245", "comments": "", "device connection": "BTH00:07:80:3B:46:38", "channels": [1, 2, 3, 4, 5, 6, 7, 8], "date": "2017-5-22", "mode": 0, "digital IO": [0, 1], "firmware version": 772, "device": "biosignalsplux", "position": 0, "sampling rate": 1000, "label": ["RA_L", "RA_R", "OE_L", "OE:R", "IL_L", "IL_R", "MF_L", "MF_R"], "resolution": [16, 16, 16, 16, 16, 16, 16, 16], "special": [{}, {}, {}, {}, {}, {}, {}, {}]}}
# EndOfHeader
0	0	32883	32627	32603	32463	32434	32675	32719	32578	
1	0	32817	32707	32615	32382	32772	32643	32481	32151	
2	0	32839	32653	32474	32410	32775	32839	32449	32439	
3	0	32891	32558	32578	32374	32562	32859	32743	33055	
4	0	32885	32637	32487	32289	32926	32511	32690	32788	
5	0	32786	32759	32647	32183	33223	32473	32570	32647	
6	0	32852	32699	32647	32226	32806	32683	32479	32449	
7	0	32890	32404	32747	32231	32322	32875	32836	32677	
8	0	32865	32623	32636	32515	32570	33005	32631	32885	
9	0	32763	32647	32759	32692	32703	32794	32801	32933	
10	0	32764	32675	32745	33055	32726	32849	32679	32978	
11	0	32646	32767	32854	33335	32773	32807	32730	33018	
12	0	32589	32743	32841	33499	32903	32708	32839	33143	
13	0	32567	32933	32883	33359	32719	32747	32899	32903	
14	0	32615	32807	32933	33319	32566	32682	32742	32373	
15	0	32655	32869	32946	33223	32705	32417	32691	32223	
16	0	32775	32749	32975	33147	32635	32581	32633	32615	
17	0	32798	32710	33013	32967	32756	32807	32757	32797	
18	0	32797	32759	32726	32743	32807	32767	32647	32629	
19	0	32814	32683	32763	32593	32827	32739	32837	32759	
20	0	32751	32667	32574	32535	32775	32737	32631	32683	
21	0	32731	32710	32461	32470	32699	32485	32659	32383	
22	0	32739	32764	32631	32403	32743	32554	32431	32047	
23	0	32786	32605	32595	32286	32809	32703	32410	32263	
24	0	32927	32607	32635	32175	32793	32917	32663	32647	
25	0	32919	32528	32612	32066	32799	32747	32635	32735	
26	0	32885	32740	32629	32119	32809	32449	32628	32505	
27	0	32839	32743	32697	32375	32767	32593	32501	32683	
28	0	32782	32583	32751	32420	32638	32903	32842	32677	
29	0	32686	32798	32775	32811	32927	32871	32615	32391	
30	0	32623	32743	32850	33071	33091	32367	32380	32102	
31	0	32631	32923	32827	33331	32888	32374	32389	32302	
32	0	32684	32835	33008	33323	32725	32634	32559	32660	
33	0	32615	32763	32944	33425	32426	33037	32887	33173	
34	0	32727	32708	32805	33361	32535	32925	32930	33287	
35	0	32732	32720	32743	33436	32743	32662	32587	32899	
36	0	32687	32647	32886	33131	32647	32762	32809	32791	
37	0	32709	32807	32710	32951	32639	32926	32763	33010	
38	0	32662	32814	32789	32935	32807	32927	32695	32741	
39	0	32770	32885	32863	32647	32924	32919	32497	32372	
40	0	32824	32820	32792	32391	32556	32567	32813	32247	
41	0	32742	32775	32742	32327	32356	32564	32834	32439	
42	0	32831	32742	32602	32319	32999	32391	32571	32129	
43	0	32903	32655	32175	32203	33279	32647	32383	32832	
44	0	32928	32503	32386	32115	32850	33111	32753	33639	
45	0	32929	32559	32639	32027	32804	33055	32785	33353	
46	0	32960	32438	32645	32187	32693	33172	32783	33127	
47	0	32953	32539	32739	32359	32655	33058	32759	33058	
48	0	32822	32631	32927	32723	32599	32565	32991	32940	
49	0	32807	32811	33021	32959	32509	32417	32903	32519	
50	0	32605	32903	32991	33277	32788	32233	32887	32083	
51	0	32470	32855	32551	33257	32785	32194	33061	32435	
52	0	32546	32903	32316	33135	32943	32273	32628	32272	
53	0	32693	32887	32734	33042	33115	32110	32506	32055	
54	0	32637	32951	32757	33071	32743	32551	32463	32195	
55	0	32736	32887	32626	33029	32492	33063	32391	32676	
56	0	32702	33035	32806	33003	32679	33823	32247	33149	
57	0	32821	32662	33151	32975	32603	33388	32503	33283	
58	0	32847	32317	33234	32879	32826	32775	32519	32628	
59	0	32882	32555	32903	32583	32811	32736	32519	32627	
60	0	32749	32661	32487	32615	32727	32726	32611	32459	
61	0	32744	32705	32439	32506	32717	32599	32813	32334	
62	0	32785	32611	32383	32523	32775	32647	32615	32419	
63	0	32807	32637	32372	32487	32729	32589	32743	32411	
64	0	32977	32423	32667	32211	32820	32439	32693	32335	
65	0	33010	32391	32941	32177	32863	32757	32575	32571	
66	0	32842	32663	32964	32235	32647	33175	32639	32695	
67	0	32831	32647	33050	32383	32447	32783	32725	32711	
68	0	32743	32723	32885	32667	32455	32500	32827	32639	
69	0	32644	32879	32439	32850	32623	32655	32739	32031	
70	0	32580	32809	31947	33113	32783	32550	32855	32622	
71	0	32673	32883	32429	33328	33047	32819	32805	33605	
72	0	32576	32897	32815	33407	33036	32837	32582	33321	
73	0	32603	32692	32607	33439	32797	32860	32519	33114	
74	0	32686	32759	32844	33389	32805	32751	32581	32879	
75	0	32733	32775	33122	33215	32822	32683	32841	33031	
76	0	32677	32687	33123	33099	32746	32527	32851	33043	
77	0	32596	32959	33059	32903	32831	32521	32545	32499	
78	0	32672	32735	32995	32819	32871	32662	32565	31895	
79	0	32957	32767	32823	32575	32647	32590	32551	32159	
80	0	32879	32914	32487	32415	32643	32670	32604	31963	
81	0	32887	32863	32306	32183	32647	32447	32701	32523	
82	0	32761	32903	32469	32191	32624	32805	32871	33183	
83	0	32685	32847	32447	32251	32958	32847	32589	32915	
84	0	32846	32628	32674	32039	32827	32866	32683	32450	
85	0	32732	32601	32723	31918	33027	32739	32743	32974	
86	0	32615	32629	32742	32119	32715	32823	32694	33245	
87	0	32722	32453	32847	32338	32591	32881	32590	33003	
88	0	32799	32538	33004	32571	32667	32866	32871	32933	
89	0	32774	32663	33223	32935	32489	32575	32775	32684	
90	0	32839	32747	33231	33192	32534	32492	32850	32527	
91	0	32758	32867	33235	33279	32429	32455	32629	32143	
92	0	32583	32843	33065	33478	32806	32647	32407	32233	
93	0	32594	32725	32584	33455	33203	32810	32484	32551	
94	0	32636	32768	32109	33439	33159	32735	32736	32623	
95	0	32724	32775	32207	33385	33095	32739	32839	33042	
96	0	32773	32879	32557	33254	32615	32746	32814	32822	
97	0	32844	32831	32617	33065	32614	32695	32655	32735	
98	0	32799	32757	32687	32807	32519	32753	32655	32759	
99	0	32798	32647	32663	32603	32738	33037	32710	32879	
100	0	32847	32687	32551	32524	32871	32803	32447	32479	
101	0	32790	32671	32646	32375	33022	32323	32383	32135	
102	0	32789	32666	32489	32434	32939	32413	32473	32391	
103	0	32870	32687	32647	32307	32852	32655	32535	32339	
104	0	32933	32569	32687	32221	32571	32647	32791	32549	
105	0	32946	32565	32811	32068	32434	32875	32691	32751	
106	0	32895	32579	32847	32159	32675	32838	32621	32735	
107	0	32752	32605	32847	32342	32615	32845	32701	32627	
108	0	32720	32694	32935	32551	32693	32786	32807	32611	
109	0	32687	32639	32775	32663	32858	32603	32435	32217	
110	0	32573	32769	32665	33069	32894	32531	32806	32863	
111	0	32680	32679	32642	33151	32903	32808	32759	33010	
112	0	32613	32851	32687	33415	32860	32757	32775	32745	
113	0	32594	32943	33031	33319	32661	32667	32668	32623	
114	0	32621	32912	33102	33327	32423	32831	32887	33037	
115	0	32690	32722	33001	33351	32655	32839	33063	33629	
116	0	32710	32924	32751	33231	32735	32641	33031	33327	
117	0	32732	32988	32715	33039	32671	32605	32816	32787	
118	0	32817	32685	32775	32839	32775	32599	32467	32473	
119	0	32855	32732	32621	32739	32758	32604	32540	32458	
120	0	32868	32615	32664	32556	32711	32695	32451	32259	
121	0	32823	32527	32775	32431	32929	32681	32223	31632	
122	0	32856	32663	32607	32326	32903	32887	32000	31527	
123	0	32903	32647	32771	32301	32831	32927	32151	32181	
124	0	32943	32500	32831	32150	32829	32815	32515	32821	
125	0	32856	32543	32539	32059	32820	32935	32891	33091	
126	0	32960	32527	32659	32083	32426	33191	32863	33025	
127	0	32836	32674	32670	32391	32399	33175	32775	33095	
128	0	32784	32679	32564	32535	32613	32935	32737	33142	
129	0	32699	32772	32587	32831	32889	32629	32924	32818	
130	0	32646	32692	32717	32999	33028	32427	32833	32927	
131	0	32666	32813	32956	33236	32703	32423	32814	32711	
132	0	32615	32959	32941	33302	32926	32579	32563	32124	
133	0	32726	32791	32799	33311	32846	32514	32551	32387	
134	0	32700	32796	32663	33375	32831	32678	32417	32611	
135	0	32668	32781	32764	33283	32735	32969	32783	33205	
136	0	32721	32854	32783	33251	32415	32999	32979	33727	
137	0	32774	32735	32711	33053	32679	32615	32957	32855	
138	0	32750	32764	32747	32877	32663	32391	32805	32590	
139	0	32775	32834	32755	32715	32775	32275	32671	32454	
140	0	32896	32687	32671	32582	32775	32455	32427	32383	
141	0	32872	32551	32699	32439	32847	32692	32431	31903	
142	0	32850	32611	32803	32427	32757	32882	32567	32187	
143	0	32834	32551	32845	32339	32852	32946	32647	33035	
144	0	32862	32733	32803	32247	32845	32711	32549	32775	
145	0	32914	32567	32578	32044	32963	32583	32542	32477	
146	0	32886	32543	32683	32103	33039	32674	32749	32593	
147	0	32759	32667	32642	32310	32925	32620	32898	32679	
148	0	32711	32724	32486	32550	32554	32731	32909	32583	
149	0	32774	32795	32855	32807	32369	33018	32718	33003	
150	0	32719	32767	32902	33023	32365	33071	32914	33199	
151	0	32612	32947	32683	33200	32733	32841	32695	32749	
152	0	32564	32971	32819	33263	32839	32847	32679	32967	
153	0	32518	33111	32804	33255	32946	32573	32611	32245	
154	0	32525	32879	32847	33356	32825	32493	32677	32545	
155	0	32693	32669	32903	33279	32757	32443	32733	32846	
156	0	32644	32919	32746	33155	32719	32527	32615	32535	
157	0	32745	32660	32855	32997	32687	32749	32882	32711	
158	0	32718	32675	32790	32979	32830	32701	32805	32219	
159	0	32751	32783	32615	32771	32967	32551	32325	31911	
160	0	32897	32547	32655	32631	32687	32707	32527	32610	
161	0	32896	32643	32647	32489	32551	32999	32561	33213	
162	0	32846	32510	32519	32439	32762	33065	32485	32863	
163	0	32836	32771	32714	32231	32786	32938	32319	32607	
164	0	32782	32869	32558	32177	32706	32829	32709	32947	
165	0	32874	32492	32675	32052	32795	32567	32933	32742	
166	0	32924	32423	32601	32067	32755	32443	32685	32565	
167	0	32852	32562	32631	32303	32682	32647	32767	32699	
168	0	32877	32549	32719	32537	32771	32574	32910	32691	
169	0	32775	32758	32726	32829	32894	32543	32713	32834	
170	0	32717	32717	32803	33106	32806	32836	32727	32773	
171	0	32756	32711	32855	33223	32754	32851	32751	32290	
172	0	32609	32887	32769	33391	32685	32824	32679	32461	
173	0	32559	33095	32863	33287	32575	32743	32634	32479	
174	0	32657	32899	32815	33362	32964	32609	32391	32325	
175	0	32629	32941	32903	33287	32948	32474	32459	32467	
176	0	32747	32796	32951	33109	32743	32646	32743	32687	
177	0	32801	32711	32862	32889	32706	32495	32719	32581	
178	0	32841	32732	32835	32870	32711	32647	32439	32615	
179	0	32867	32663	32717	32679	32647	32798	32647	32484	
180	0	32820	32617	32799	32605	32699	32597	32551	32391	
181	0	32775	32623	32710	32452	32775	32668	32783	32578	
182	0	32758	32606	32591	32436	32775	32831	32663	33028	
183	0	32758	32675	32628	32303	32879	32935	32482	33137	
184	0	32750	32694	32585	32087	32787	32819	32581	32933	
185	0	32895	32518	32687	32099	32623	32612	32646	32675	
186	0	32914	32526	32491	32135	32756	32631	32755	32927	
187	0	32775	32619	32685	32407	32627	32735	32989	32775	
188	0	32856	32607	32751	32543	32589	32724	32941	32949	
189	0	32775	32697	32676	32679	32707	33021	33051	32623	
190	0	32782	32705	32862	32971	32963	32671	32808	32619	
191	0	32694	32821	32786	33119	32967	32231	32447	31962	
192	0	32597	32994	32974	33278	32739	32462	32247	32147	
193	0	32551	32990	32811	33325	32759	32987	32263	32775	
194	0	32666	33027	32750	33335	32717	33093	32401	32847	
195	0	32721	32847	32773	33344	32775	32811	32702	32888	
196	0	32647	32743	32631	33355	32831	32702	32835	33018	
197	0	32717	32815	32805	33117	32631	32767	32831	32865	
198	0	32712	32841	32807	32845	32535	32919	32679	33009	
199	0	32786	32695	32567	32743	32630	32941	32558	32459	
200	0	32754	32692	32700	32543	32807	32411	32259	31821	
201	0	32819	32530	32775	32418	32835	32401	32735	32255	
202	0	32867	32590	32623	32244	32735	32548	32822	32607	
203	0	32903	32477	32682	32307	32717	32732	32850	32599	
204	0	32857	32631	32775	32219	32719	32738	32599	32615	
205	0	32898	32695	32647	32015	32575	32799	32839	32663	
206	0	32891	32676	32739	32043	32771	32870	32733	32751	
207	0	32830	32813	32759	32261	32813	32706	32759	32854	
208	0	32829	32796	32626	32507	32679	32670	32615	32738	
209	0	32770	32769	32837	32795	32855	32603	32706	32507	
210	0	32812	32823	32883	32986	32823	32569	32705	32475	
211	0	32741	32743	32797	33235	32819	32692	32551	32422	
212	0	32653	32879	32882	33263	32750	32873	32407	32543	
213	0	32492	32983	32802	33339	32924	32843	32339	32315	
214	0	32564	32918	32903	33325	33053	32286	32348	32055	
215	0	32694	32914	32767	33303	32455	32587	32858	32995	
216	0	32711	32847	32850	33223	32331	32971	33199	33519	
217	0	32716	32611	32807	33083	32357	32919	32881	33535	
218	0	32767	32671	32784	32903	32823	32713	32671	32949	
219	0	32820	32619	32891	32667	33415	32367	32372	32093	
220	0	32826	32719	32747	32617	33437	32483	32535	32375	
221	0	32874	32743	32563	32443	33071	32621	32811	33093	
222	0	32895	32639	32739	32391	32709	32863	32855	33020	
223	0	32807	32609	32743	32354	32428	32661	32806	32627	
224	0	32790	32711	32671	32111	32445	32965	32738	32460	
225	0	32863	32689	32559	32095	32426	32996	32759	32791	
226	0	32901	32527	32455	32111	32694	32775	32895	33149	
227	0	32850	32575	32497	32327	33043	32887	32742	32989	
228	0	32781	32567	32601	32574	33015	32738	32785	32775	
229	0	32862	32583	32639	32758	32495	32604	32797	32638	
230	0	32706	32823	32749	32937	32695	32535	32674	32503	
231	0	32663	32847	32867	33235	32757	32555	32715	32551	
232	0	32622	32885	32722	33430	32876	32452	32773	32457	
233	0	32647	32847	32909	33327	32871	32811	32775	32455	
234	0	32730	32731	32892	33311	32775	33174	32235	32466	
235	0	32731	32749	32820	33201	32797	33005	32519	32481	
236	0	32621	32775	32614	33327	32711	32721	32599	32199	
237	0	32656	32775	32775	33007	32691	32577	32641	31941	
238	0	32820	32759	32767	32806	32607	32386	32423	32335	
239	0	32825	32717	32603	32695	32670	32535	32615	32767	
240	0	32775	32753	32732	32599	32762	32463	32477	32647	
241	0	32912	32599	32763	32503	32807	32574	32628	32970	
242	0	32930	32450	32871	32359	32667	32931	32675	32915	
243	0	32891	32603	32855	32306	32668	33181	32527	32637	
244	0	32784	32729	32742	32194	32802	32807	32598	32765	
245	0	32805	32647	32823	32043	33095	32646	32587	32582	
246	0	32916	32637	32790	31975	32598	33367	32646	32546	
247	0	32841	32604	32743	32195	32679	33177	32566	32475	
248	0	32710	32703	32634	32519	32987	32247	32619	32287	
249	0	32711	32743	32799	32683	33083	32252	32717	32743	
250	0	32715	32771	32818	32892	32647	32687	32895	32807	
251	0	32669	32847	32804	33159	32725	32786	32885	32837	
252	0	32588	32831	32719	33335	32607	32613	32631	32491	
253	0	32570	32819	32773	33471	32863	32491	32684	32350	
254	0	32626	32927	32775	33287	32615	32415	32665	32373	
255	0	32701	32935	32725	33367	32727	32743	32827	32953	
256	0	32671	32861	32806	33283	32743	32838	32642	33151	
257	0	32727	32708	32730	33255	32986	32735	32743	32943	
258	0	32832	32667	32735	32964	32708	33019	32742	32727	
259	0	32807	32663	32815	32767	32605	32814	32859	32494	
260	0	32791	32634	32647	32502	32356	32735	32787	32742	
261	0	32838	32619	32589	32376	32525	32583	32759	32574	
262	0	32815	32727	32607	32263	32900	32321	32740	32705	
263	0	32868	32623	32666	32161	32997	32492	32719	32690	
264	0	32954	32357	32612	32041	32791	32887	32583	32855	
265	0	32933	32487	32595	32047	32587	33204	32491	32791	
266	0	32869	32662	32535	32135	32747	33069	32487	32459	
267	0	32826	32791	32583	32313	32679	32699	32461	32471	
268	0	32820	32845	32643	32546	32919	32543	32545	32251	
269	0	32724	32887	32911	32771	32687	32711	32589	32687	
270	0	32759	32775	32987	32993	32713	32871	32765	32644	
271	0	32710	32860	32977	33267	32481	32807	32864	33082	
272	0	32566	32902	32871	33453	32734	32717	33015	33383	
273	0	32566	32903	32903	33548	32719	32479	32622	32843	
274	0	32594	32900	32549	33479	32971	32333	32784	32623	
275	0	32591	32850	32729	33301	32671	32451	32685	32438	
276	0	32662	32875	32721	33127	32852	32722	32685	32447	
277	0	32769	32661	32643	32999	32765	33085	32297	32391	
278	0	32722	32717	32839	32799	32966	32941	32412	32041	
279	0	32786	32675	32660	32610	32790	32799	32495	32511	
280	0	32858	32663	32555	32499	32677	32959	32607	32790	
281	0	32826	32621	32659	32371	32711	32747	32564	32943	
282	0	32857	32687	32655	32311	32665	32519	32639	32679	
283	0	32818	32750	32815	32355	32931	32807	32631	32489	
284	0	32869	32775	32862	32231	32842	32578	32615	32807	
285	0	32824	32658	32804	32047	32749	32677	32731	32863	
286	0	32923	32597	32751	32071	32575	32931	32929	32914	
287	0	32830	32727	32855	32263	32715	32971	32895	32995	
288	0	32793	32713	32861	32563	32775	32837	32966	33023	
289	0	32775	32771	32668	32861	32686	32667	32708	32763	
290	0	32714	32735	32701	33079	32802	32534	32683	32583	
291	0	32687	32821	32635	33207	32677	32465	32615	32533	
292	0	32589	32987	32847	33287	32903	32355	32553	32455	
293	0	32591	32890	32871	33283	32759	32703	32729	32255	
294	0	32642	32786	32882	33213	32844	32823	32623	32106	
295	0	32748	32590	32833	33309	32727	32859	32557	32343	
296	0	32748	32563	32798	33270	32823	32999	32391	32423	
297	0	32724	32639	32703	33198	32871	32655	32699	32647	
298	0	32721	32751	32646	32975	32710	32679	32557	32659	
299	0	32716	32811	32662	32828	32798	32913	32708	33011	
300	0	32729	32775	32763	32525	32718	32655	32797	33357	
301	0	32835	32742	32749	32254	32800	32459	32657	32855	
302	0	32871	32749	32826	32076	32593	32620	32759	32533	
303	0	32894	32708	32805	31965	32706	32707	32563	32506	
304	0	32858	32619	32711	31895	32607	32807	32497	32295	
305	0	32812	32575	32658	31925	32844	32735	32740	32555	
306	0	32924	32531	32463	32156	32757	32787	32739	32665	
307	0	32886	32635	32500	32372	32897	32647	32703	32503	
308	0	32812	32711	32631	32621	32796	32559	32637	32647	
309	0	32775	32775	32661	32821	32691	32511	32767	32683	
310	0	32673	32858	32775	33077	32729	32951	32797	32831	
311	0	32657	32862	32789	33251	32638	33153	32662	32899	
312	0	32660	32758	32933	33447	32744	32950	32636	32239	
313	0	32626	32902	32871	33410	32737	32637	32626	32431	
314	0	32597	32987	32758	33383	32811	32756	32758	32551	
315	0	32636	32797	32745	33383	32717	32534	32547	32614	
316	0	32712	32671	32871	33240	32706	32367	32683	32775	
317	0	32715	32771	32859	33111	32539	32610	32919	33146	
318	0	32734	32807	32783	32879	32535	32983	32895	32845	
319	0	32757	32789	32843	32663	32550	32787	32751	32698	
320	0	32878	32662	32959	32550	32745	32647	32671	32761	
321	0	32878	32607	32813	32493	32690	32709	32603	32483	
322	0	32791	32645	32635	32487	32871	32903	32513	32351	
323	0	32788	32718	32741	32487	32883	32721	32381	32295	
324	0	32877	32527	32690	32239	32923	32679	32647	32160	
325	0	32855	32629	32591	32087	33015	32724	32635	32487	
326	0	32758	32621	32421	32078	32921	32798	32463	32839	
327	0	32775	32614	32483	32211	32775	32565	32655	32711	
328	0	32830	32671	32851	32469	32617	32415	32747	32691	
329	0	32788	32762	32935	32679	32479	32431	32567	32430	
330	0	32691	32771	32807	32903	32798	32547	33047	33238	
331	0	32586	32827	32879	33159	32823	32647	32943	32947	
332	0	32565	32903	32775	33295	32757	33124	32695	32359	
333	0	32622	32767	32863	33322	32631	33122	32775	33271	
334	0	32633	32793	32945	33369	32677	32834	32634	32903	
335	0	32722	32767	32823	33375	33035	32402	32435	32237	
336	0	32724	32899	32893	33263	32845	32655	32274	32135	
337	0	32716	32815	32823	33065	32850	32916	32523	32475	
338	0	32708	32755	32598	32903	32731	32755	32692	32563	
339	0	32773	32692	32645	32789	32427	32718	32787	32671	
340	0	32815	32571	32687	32571	32506	32858	32942	33074	
341	0	32780	32694	32607	32457	32731	32580	32773	32579	
342	0	32783	32707	32509	32354	32925	32361	32549	32298	
343	0	32864	32705	32732	32239	32933	32501	32659	32638	
344	0	32854	32710	32643	32285	32635	32727	32685	32885	
345	0	32879	32722	32514	32135	32738	32719	32537	32747	
346	0	32845	32705	32611	32031	32450	32735	32645	32786	
347	0	32834	32635	32591	32255	33138	32447	32429	32543	
348	0	32789	32687	32679	32447	32927	32709	32587	32391	
349	0	32703	32714	32790	32661	32766	32754	32582	32352	
350	0	32733	32671	32735	33017	32830	32871	32722	32804	
351	0	32708	32931	32878	33251	32590	33059	32842	33399	
352	0	32679	32851	32843	33431	32559	32827	32839	33111	
353	0	32608	32971	32815	33367	32771	32775	32534	32814	
354	0	32556	32963	32949	33399	32919	32738	32601	32767	
355	0	32662	32831	32967	33271	32923	32598	32518	32687	
356	0	32758	32919	32806	33186	32557	32619	32647	32439	
357	0	32826	32815	32871	33023	32697	32871	32912	32765	
358	0	32801	32847	32935	32950	32687	32827	32775	32788	
359	0	32820	32951	32647	32719	32759	32727	32659	32812	
360	0	32767	33015	32600	32571	32662	32794	32919	32813	
361	0	32713	32896	32812	32356	32582	32659	32721	32644	
362	0	32550	33095	32771	32338	32756	32379	32503	32559	
363	0	32622	32967	32575	32245	32775	32613	32647	32555	
364	0	32566	32903	32614	32135	32759	32743	32511	32327	
365	0	32503	32775	32497	32103	32808	32684	32607	32157	
366	0	32546	32679	32541	32082	32534	32578	32764	32203	
367	0	32597	32415	32791	32303	32615	32772	32805	32698	
368	0	32676	32444	32791	32551	32662	32671	32755	32823	
369	0	32460	32601	32639	32753	32829	32647	32860	32993	
370	0	32255	32738	32733	33047	32868	32759	32839	32910	
371	0	32220	32646	32751	33301	32767	32568	32583	32420	
372	0	32316	32567	32661	33272	32830	32743	32843	32210	
373	0	32343	32508	32603	33266	32743	32679	32731	32223	
374	0	32515	32391	32538	33260	32796	32775	32901	33001	
375	0	32626	32307	32535	33166	32671	32986	32919	33205	
376	0	32631	32319	32556	33135	32879	32742	32765	32827	
377	0	32606	32279	32771	32903	32774	32497	32781	32515	
378	0	32634	32365	32769	32686	32623	32557	32837	32486	
379	0	32773	32198	32797	32617	32707	32890	32832	33175	
380	0	33026	32064	32676	32375	32851	32918	32719	32695	
381	0	33202	31979	32767	32367	32863	32627	32375	32375	
382	0	33318	32061	32567	32263	32791	32587	32749	32487	
383	0	33499	31973	32463	32268	32751	32771	32766	32883	
384	0	33725	31847	32464	32231	32647	32935	32722	32871	
385	0	33856	31871	32722	32111	32941	32703	32452	32559	
386	0	33697	31894	32727	32127	32679	32463	32581	32171	
387	0	33700	32015	32666	32293	32982	32498	32518	32307	
388	0	33512	32214	32771	32565	32623	32758	32733	32692	
389	0	33214	32519	32838	32764	32861	32971	32495	32402	
390	0	32989	32671	32763	32966	32817	32775	32771	32739	
391	0	32668	32995	32996	33227	32831	32461	32575	32455	
392	0	32559	33287	33127	33498	32763	32227	32531	32231	
393	0	32479	33487	33170	33468	32495	32477	32671	32732	
394	0	32579	33375	33241	33466	32646	32762	32612	32941	
395	0	32754	33312	33021	33431	32502	32747	32579	32959	
396	0	32934	33371	32932	33258	32922	32695	32479	32815	
397	0	33035	33473	33033	33110	32903	32734	32173	32743	
398	0	33061	33492	32836	33005	32826	32775	32157	32540	
399	0	33202	33239	32823	32823	32903	32605	32247	32503	
400	0	33321	33143	32846	32738	32615	32873	32301	32753	
401	0	33251	33103	32754	32599	32743	32971	32289	32723	
402	0	33263	33206	32646	32483	32767	32756	32399	32677	
403	0	33215	33199	32579	32439	32973	32529	32351	32799	
404	0	33231	33135	32797	32263	32706	32598	32641	32903	
405	0	33231	33039	32891	32273	32799	32667	32764	33093	
406	0	33149	33111	32775	32259	32757	32683	32759	33011	
407	0	32900	33269	32783	32425	32870	32699	32570	32663	
408	0	32690	33159	32935	32605	32763	32675	32535	32546	
409	0	32555	33183	32839	32705	32665	32703	32481	32495	
410	0	32396	33124	32679	32895	32613	33055	32815	32923	
411	0	32207	33074	32570	33182	32735	33159	32734	32799	
412	0	32245	32811	32551	33307	32815	32964	32607	32849	
413	0	32192	32718	32947	33262	32743	32854	32865	33219	
414	0	32231	32731	32983	33220	32999	32775	32731	33084	
415	0	32214	32799	32845	33235	32637	32563	32870	32479	
416	0	32157	32836	32893	33155	32732	32629	32916	32519	
417	0	32158	32731	32796	32853	32583	32602	32975	32311	
418	0	32209	32695	32642	32773	32607	32555	32683	32358	
419	0	32116	32962	32679	32762	32808	32667	32743	32579	
420	0	32184	32738	32587	32687	32763	32775	32647	32819	
421	0	32213	32666	32451	32364	32743	32902	32699	32643	
422	0	32449	32615	32471	32114	32641	32748	32535	32647	
423	0	32590	32705	32431	32015	32787	32727	32799	32519	
424	0	32624	32646	32353	31799	32359	32818	32893	32734	
425	0	32711	32519	32367	31810	32681	32799	32935	32739	
426	0	32711	32735	32399	31991	32501	32717	32967	32711	
427	0	32714	32775	32748	32182	32663	32661	32967	32701	
428	0	32615	32707	32855	32534	32775	32586	32957	32843	
429	0	32552	32663	32887	32829	32787	32487	32749	32499	
430	0	32535	32726	32804	33055	32894	32620	32481	32406	
431	0	32578	32826	32903	33285	32855	32642	32638	32495	
432	0	32571	32759	32675	33343	32799	33061	32515	32623	
433	0	32685	32729	32626	33452	32470	33238	32641	32623	
434	0	32658	32581	32841	33317	32425	33050	32580	32903	
435	0	32708	32786	32871	33399	32843	32450	32578	32480	
436	0	32647	32804	32807	33181	32975	32185	32556	32365	
437	0	32673	32743	33051	33063	32866	32575	32903	32583	
438	0	32870	32729	32931	32971	32884	32598	32467	32287	
439	0	32824	32463	32658	32677	32871	32559	32941	32743	
440	0	32882	32591	32715	32581	32943	32647	32859	32871	
441	0	32959	32557	32471	32446	32671	32775	32870	33053	
442	0	32916	32431	32708	32367	32562	32919	32527	32775	
443	0	32900	32686	32567	32231	32583	32874	32775	32699	
444	0	33081	32493	32575	32183	32751	32767	32767	32673	
445	0	33033	32504	32748	32082	32870	32641	32331	32689	
446	0	33035	32404	32799	32211	32555	32750	32791	33109	
447	0	33014	32541	32706	32426	32591	32695	32723	32805	
448	0	32834	32643	32535	32500	32739	32732	32439	32575	
449	0	32860	32647	32914	32687	32983	32937	32535	32511	
450	0	32737	32607	32807	32981	32877	32822	32743	32602	
451	0	32614	32767	32888	33209	32583	32679	32962	32943	
452	0	32595	32775	32887	33346	32610	32683	32819	32775	
453	0	32684	32671	32963	33314	32723	32578	32751	32945	
454	0	32780	32713	32875	33306	32931	32647	32861	33243	
455	0	32667	32825	32812	33123	32839	32547	32623	32887	
456	0	32734	32955	32775	33086	32630	32939	32383	32299	
457	0	32607	33082	32686	32866	32933	32935	32349	31959	
458	0	32748	32799	32643	32703	32793	32730	32731	32977	
459	0	32791	32642	32558	32679	32855	32891	32710	32615	
460	0	32903	32591	32703	32545	32781	32863	32479	32386	
461	0	32926	32611	32793	32474	32974	32694	32421	32156	
462	0	32877	32503	32647	32459	32871	32429	32487	32207	
463	0	32855	32557	32590	32407	32857	32191	32607	31942	
464	0	32942	32517	32743	32135	32678	32707	32667	32549	
465	0	33084	32494	32855	32119	32759	32741	32615	32401	
466	0	33099	32483	32754	32084	32635	32660	32704	32783	
467	0	32885	32615	32559	32287	32666	32671	32869	32915	
468	0	32655	32879	32495	32573	32835	32565	32735	32855	
469	0	32615	32879	32555	32786	32639	32619	32635	32468	
470	0	32605	32821	32742	32961	32791	32859	32551	32483	
471	0	32566	32929	32751	33104	32739	32839	32831	33139	
472	0	32566	32998	32804	33195	32866	32825	32667	33077	
473	0	32598	32959	32801	33327	32569	32767	32895	33107	
474	0	32682	32759	32903	33234	32615	32603	32986	33194	
475	0	32742	32773	32967	33267	32775	32534	32659	32887	
476	0	32760	32739	32816	33239	32898	32560	32634	32662	
477	0	32806	32703	32694	32967	32921	32823	32764	32375	
478	0	32784	32711	32783	32791	32647	32834	32894	32613	
479	0	32840	32647	32703	32642	32843	32738	32614	32263	
480	0	32883	32675	32607	32423	32694	32783	32548	32282	
481	0	32900	32621	32711	32391	32745	32759	32564	32345	
482	0	32773	32671	32847	32445	32985	32917	32287	32375	
483	0	32918	32647	32731	32263	32759	32999	32363	32615	
484	0	32824	32583	32790	32183	33083	32663	32634	32623	
485	0	32852	32484	32607	32077	32715	32625	32671	32808	
486	0	32881	32555	32411	32263	32620	32711	32695	32791	
487	0	32935	32663	32645	32423	32739	32843	32594	32738	
488	0	32893	32805	32739	32615	32647	32738	32623	32847	
489	0	32881	32775	32655	32813	32851	32663	32756	32930	
490	0	32754	32825	32945	33046	32711	32583	32724	32615	
491	0	32684	32819	32999	33279	32811	32643	32636	32638	
492	0	32642	32775	33055	33303	32739	32598	32929	32525	
493	0	32615	32765	32983	33283	32703	32621	32740	32391	
494	0	32574	32791	33103	33234	32903	32539	32871	32767	
495	0	32711	32775	32887	33239	32731	32543	32759	32917	
496	0	32740	32775	32759	33151	32731	32660	32903	32745	
497	0	32678	32805	32623	33021	32767	32558	32773	32658	
498	0	32540	32807	32534	32892	32957	32510	32388	32439	
499	0	32681	32843	32647	32711	33037	32675	32154	32767	
500	0	32798	32767	32759	32555	32597	33150	32485	33057	
501	0	32740	32615	32679	32457	32679	33337	32727	32726	
502	0	32765	32593	32679	32407	32773	32843	32759	32323	
503	0	32854	32511	32685	32415	32956	32519	32659	32427	
504	0	32831	32487	32609	32295	32618	32639	32551	32579	
505	0	32850	32483	32501	32123	32743	32623	32626	32901	
506	0	32937	32530	32500	32058	32902	32279	32719	32903	
507	0	32937	32505	32509	32193	32790	33031	32615	33027	
508	0	32879	32575	32548	32295	32627	33278	32711	33159	
509	0	32827	32726	32703	32639	32594	32991	32391	32818	
510	0	32636	32751	32722	32982	32754	32949	32995	33365	
511	0	32667	32801	32832	33274	32857	32564	32575	32495	
512	0	32724	32919	32895	33490	32724	32437	32750	32563	
513	0	32644	32932	32962	33407	32775	32604	32811	33091	
514	0	32608	32795	32823	33403	32811	32703	32839	33095	
515	0	32559	32899	32822	33215	32998	32635	32757	32719	
516	0	32716	32839	32809	33014	32811	32589	32603	32391	
517	0	32864	32751	32727	32925	32551	32670	32742	32599	
518	0	32791	32731	32717	32831	32831	32747	32695	32647	
519	0	32879	32692	32855	32703	32815	32486	32589	32485	
520	0	32773	32910	32714	32667	32921	32493	32570	32526	
521	0	32783	32699	32743	32418	32821	32703	32893	32870	
522	0	32818	32359	32804	32458	32675	32843	32916	32815	
523	0	32732	32647	32822	32244	32681	33190	32450	32225	
524	0	32729	32702	32575	32160	32577	32790	32671	31988	
525	0	32793	32599	32519	32159	32863	32431	32611	32171	
526	0	32951	32545	32635	32125	32722	32607	32749	32515	
527	0	32911	32469	32610	32363	32719	32711	32643	32559	
528	0	32815	32739	32783	32482	32895	32669	32419	32467	
529	0	32773	32843	32835	32887	32879	32599	32535	32391	
530	0	32679	32662	32647	33037	32703	32287	32546	32335	
531	0	32541	32799	32811	33367	32699	32619	32743	32943	
532	0	32528	32886	32893	33395	32534	33107	32930	33227	
533	0	32476	32791	32901	33367	32703	33111	32595	32791	
534	0	32582	32873	32813	33273	32691	32749	32699	32550	
535	0	32581	32831	32797	33183	32710	32578	32663	32663	
536	0	32679	32681	32879	33111	32734	32599	32774	32884	
537	0	32834	32663	32845	32754	32815	32773	32517	32959	
538	0	32864	32634	32743	32791	32847	32703	32595	32693	
539	0	32838	32769	32915	32647	32980	32553	32694	32613	
540	0	32844	32749	32723	32599	32685	32772	32811	32883	
541	0	32822	32660	32642	32463	32914	32873	32723	32527	
542	0	32902	32642	32627	32391	32919	32457	32551	32285	
543	0	32992	32751	32647	32375	32719	32617	32835	32342	
544	0	32921	32589	32823	32150	32599	32769	32711	32623	
545	0	32975	32614	32743	32135	32611	32773	32683	32508	
546	0	32872	32647	32494	32195	32623	32875	32391	32445	
547	0	32912	32675	32501	32347	32610	33059	32626	32967	
548	0	32880	32647	32431	32467	32699	32894	32839	33191	
549	0	32706	32726	32484	32767	32747	32639	32711	33350	
550	0	32638	32879	32476	32931	32615	32715	32716	33007	
551	0	32612	32772	32559	33031	32758	32621	32781	32607	
552	0	32606	32758	32783	33151	32879	32587	32763	32643	
553	0	32666	32767	32898	33191	32991	32579	32327	32335	
554	0	32512	32756	32823	33235	32619	32741	32527	32388	
555	0	32591	32837	32735	33193	32834	32749	32703	32362	
556	0	32676	32807	32886	33155	32581	33005	32866	32901	
557	0	32722	32845	32918	33019	32511	32869	32863	32967	
558	0	32820	32641	32852	32951	32987	32299	32702	32542	
559	0	32663	32757	32922	32813	32745	32191	32615	32331	
560	0	32775	32775	32767	32742	32967	32483	32579	32827	
561	0	32855	32639	32671	32617	32723	33069	32418	32625	
562	0	32824	32599	32690	32487	32587	33274	32492	32687	
563	0	32856	32475	32583	32335	32951	33115	32591	32788	
564	0	32820	32534	32613	32162	32836	32759	32647	32775	
565	0	32784	32643	32749	32007	32823	32717	32519	32726	
566	0	32807	32631	32705	32039	32695	32677	32759	32626	
567	0	32769	32677	32756	32347	32452	32605	32821	32775	
568	0	32778	32810	32743	32593	32791	32643	32631	32703	
569	0	32732	32859	32662	32738	32669	32631	32941	33063	
570	0	32737	32794	32871	32975	32603	32999	32938	33125	
571	0	32664	32591	32822	33127	32671	32931	32837	32806	
572	0	32580	32620	32799	33327	32519	32767	32541	32527	
573	0	32593	32788	32885	33367	32809	32519	32613	32263	
574	0	32695	32966	32817	33307	33022	32391	32490	31818	
575	0	32690	33042	32750	33214	33071	32519	32537	32229	
576	0	32647	32898	32863	33235	32883	32661	32883	32582	
577	0	32609	32863	32709	33027	32691	32683	32742	32545	
578	0	32647	32621	32895	32891	32729	32647	32745	32463	
579	0	32789	32677	32564	32643	32629	32619	32831	32629	
580	0	32841	32517	32367	32511	32667	32756	32631	32782	
581	0	32894	32663	32537	32407	32831	33015	32414	32831	
582	0	32895	32702	32813	32351	32921	32667	32180	32215	
583	0	33052	32510	32676	32295	32647	32317	32665	32796	
584	0	33017	32727	32756	32184	32663	32553	32831	33079	
585	0	32941	32811	32697	32081	32501	32887	32993	33055	
586	0	32830	32867	32642	32119	33119	32903	32466	32471	
587	0	32799	32766	32647	32366	33199	32901	32547	32755	
588	0	32823	32511	32634	32551	32955	32634	32661	32875	
589	0	32733	32669	32679	32775	32839	32631	32775	32791	
590	0	32786	32855	32811	33013	32431	32799	32891	32820	
591	0	32806	32654	32911	33287	32355	32796	32722	32647	
592	0	32585	32775	32870	33407	32726	32771	32669	32421	
593	0	32637	32518	32743	33375	32647	32894	32852	32615	
594	0	32566	32787	32890	33247	32695	32715	32611	32717	
595	0	32556	32807	32791	33263	32947	32631	32375	32557	
596	0	32669	32775	32659	33175	32935	32539	32583	32556	
597	0	32646	32835	32775	32957	32982	32532	32623	32698	
598	0	32717	32735	32798	32832	32694	32815	32812	32835	
599	0	32824	32631	32725	32787	32756	32799	32625	32711	
600	0	32863	32660	32659	32607	32771	32775	32594	32359	
601	0	32916	32629	32751	32423	32826	32647	32610	32382	
602	0	32955	32638	32699	32301	32811	32535	32619	32231	
603	0	32912	32700	32673	32228	32815	32433	32564	32541	
604	0	32944	32595	32751	32133	32749	32635	32843	33302	
605	0	32895	32605	32785	32135	32629	32614	32753	32934	
606	0	32866	32439	32711	32141	32754	32579	32868	32941	
607	0	32812	32691	32775	32324	32709	32559	32659	32509	
608	0	32686	32695	32775	32430	32813	32553	32613	32332	
609	0	32660	32748	32699	32647	32691	32927	32541	32455	
610	0	32484	32978	32545	32903	32727	33365	32359	32469	
611	0	32505	33071	32679	33147	32959	32933	32525	32563	
612	0	32600	32850	32694	33307	32736	32612	32539	32775	
613	0	32673	32702	32699	33302	32758	32655	32718	32818	
614	0	32690	32911	32846	33283	32722	32691	32684	32431	
615	0	32690	32939	32735	33151	32806	32449	32631	32183	
616	0	32718	32863	32693	33257	32867	32686	32679	32733	
617	0	32723	32885	32863	32991	32935	32589	32775	32501	
618	0	32756	32775	32853	32894	32701	32764	32807	32834	
619	0	32822	32711	32813	32743	32711	32924	32701	32749	
620	0	32783	32739	32775	32599	32487	32837	32675	32669	
621	0	33005	32582	32775	32551	32449	32773	32838	32878	
622	0	33074	32623	32843	32587	32647	32975	32614	32421	
623	0	32957	32695	32832	32351	32871	32543	32615	32545	
624	0	32935	32655	32827	32214	32761	33015	32887	33167	
625	0	32932	32629	32790	32086	32925	32630	32457	32524	
626	0	32934	32647	32739	32087	32943	32349	32568	32453	
627	0	32775	32660	32638	32183	32804	32698	32594	32803	
628	0	32623	32865	32570	32516	32870	32775	32730	32766	
629	0	32711	32723	32567	32621	32861	32623	32726	33287	
630	0	32727	32837	32583	32861	32798	32623	32730	32890	
631	0	32705	32786	32681	33152	32722	32441	32603	32574	
632	0	32694	32751	32805	33412	32604	32510	32661	32497	
633	0	32656	32877	32791	33378	32647	32685	32373	32565	
634	0	32631	32903	32769	33423	32683	33130	32501	32671	
635	0	32679	32903	32810	33282	32663	33259	32558	32551	
636	0	32656	32789	32783	33175	32980	32830	32499	32431	
637	0	32706	32566	32961	33075	32990	32446	32551	32181	
638	0	32711	32714	32956	32838	32701	32363	32807	32438	
639	0	32756	32817	32756	32715	32711	32591	32692	32447	
640	0	32760	32891	32835	32599	32927	32602	32743	32447	
641	0	32758	32619	32785	32561	33059	32451	32476	32026	
642	0	32750	32754	32699	32391	32668	32753	32762	32959	
643	0	32799	32623	32811	32326	32540	33133	32941	33498	
644	0	32833	32599	32599	32202	32727	33049	32735	33149	
645	0	32886	32647	32487	32178	32935	32735	32659	32679	
646	0	32914	32707	32471	32179	32959	32808	32537	32766	
647	0	32864	32703	32621	32391	32903	32636	32611	32594	
648	0	32861	32743	32723	32423	32861	32469	32647	32511	
649	0	32810	32658	32627	32693	32740	32674	32591	32535	
650	0	32801	32775	32719	32847	32519	32819	32825	32935	
651	0	32671	32819	32768	33201	32722	32646	32720	32751	
652	0	32655	32811	32743	33233	32706	32734	32698	32621	
653	0	32637	32879	32937	33404	32793	32598	32954	32903	
654	0	32621	32891	32887	33183	32903	32387	32898	32999	
655	0	32613	32887	32852	33359	32867	32679	32586	32537	
656	0	32678	32815	32919	33159	32703	32871	32771	32727	
657	0	32635	32929	32965	33153	32988	32431	32510	32327	
658	0	32745	32791	32903	32967	32863	32447	32475	32367	
659	0	32815	32607	32851	32721	32685	32831	32222	32114	
660	0	32847	32691	32795	32707	32474	33499	32307	32281	
661	0	32832	32659	32802	32679	32695	33135	32531	32798	
662	0	32855	32615	32694	32574	32999	32623	32502	32478	
663	0	32910	32615	32558	32495	32858	32590	32807	32742	
664	0	32959	32543	32718	32301	32790	32903	32702	33276	
665	0	32928	32446	32531	32039	32691	32775	32765	33147	
666	0	32770	32578	32381	32071	32719	32711	32579	32361	
667	0	32775	32681	32509	32214	32837	32690	32703	32543	
668	0	32780	32763	32575	32343	32833	32711	32749	32629	
669	0	32815	32677	32839	32508	32766	32847	32727	32617	
670	0	32731	32738	32967	32815	32642	32519	32859	32849	
671	0	32692	32799	32851	33086	32609	32263	32479	32595	
672	0	32708	32839	32829	33309	32704	32391	32719	32791	
673	0	32790	32679	32867	33318	32598	32791	32971	33325	
674	0	32687	32615	32775	33251	32873	32967	32711	32878	
675	0	32579	32794	32718	33229	32819	33001	32763	32599	
676	0	32630	32751	32729	33243	32767	33037	32631	32641	
677	0	32647	32798	32647	33107	32807	32687	32772	32587	
678	0	32732	32791	32847	32869	32788	32575	32741	32571	
679	0	32806	32801	32838	32722	32771	32706	32642	32647	
680	0	32818	32757	32850	32591	32797	32592	32647	32263	
681	0	32733	32663	32843	32546	32899	32508	32711	32494	
682	0	32897	32740	32935	32447	32843	32508	32617	32512	
683	0	32916	32605	32799	32391	32960	32563	32442	32354	
684	0	32876	32593	32735	32243	32647	32639	32676	32573	
685	0	32866	32587	32615	32103	32718	32763	32742	32594	
686	0	32826	32583	32303	32191	32717	32749	32719	32555	
687	0	32827	32765	32289	32342	32885	32603	32463	32382	
688	0	32887	32687	32533	32483	32601	32815	32739	32903	
689	0	32843	32631	32727	32813	32615	32847	32751	33364	
690	0	32677	32647	32845	32870	32967	32863	32685	33285	
691	0	32662	32674	32671	33091	32716	32655	32535	32903	
692	0	32617	32703	32743	33213	32823	32799	32524	31965	
693	0	32624	33047	32833	33257	32659	32524	32534	32276	
694	0	32540	32929	32847	33287	32692	32532	32773	32927	
695	0	32566	32807	32914	33223	32535	32897	32801	33213	
696	0	32640	32809	32903	33157	32683	32647	32813	32629	
697	0	32739	32726	32742	32983	32695	32431	32732	32477	
698	0	32740	32615	32695	33001	32996	32399	32399	32587	
699	0	32749	32717	32814	32873	32911	32775	32478	32223	
700	0	32716	32743	32726	32662	32758	33059	32543	32289	
701	0	32783	32754	32647	32543	32898	32758	32476	32469	
702	0	32911	32647	32743	32413	32791	32805	32598	32765	
703	0	32902	32630	32683	32351	32845	32917	32923	33083	
704	0	32955	32631	32646	32135	32631	32788	33131	32838	
705	0	32932	32507	32827	32058	32711	32771	32773	32815	
706	0	32863	32463	32702	32039	32707	32833	32759	32834	
707	0	32944	32430	32812	32324	32855	32742	32710	32967	
708	0	32834	32734	32823	32558	32820	32633	32795	33023	
709	0	32727	32749	32945	32749	32791	32483	32679	32640	
710	0	32658	32847	32754	32879	32703	32437	32647	32559	
711	0	32672	32796	32724	33023	32737	32659	32667	32661	
712	0	32678	32775	32793	33215	32873	32804	32444	32838	
713	0	32703	32879	32739	33381	32854	32739	32635	32450	
714	0	32635	33031	32663	33322	32767	32667	32729	32457	
715	0	32659	32966	32615	33279	32605	32699	32439	32307	
716	0	32674	32935	32662	33206	32727	32793	32695	32663	
717	0	32683	32775	32687	32960	32477	32735	32698	32539	
718	0	32736	32698	32803	32807	32833	32687	32503	32523	
719	0	32671	32723	32811	32663	32818	32686	32711	32647	
720	0	32639	32789	32718	32659	32939	32666	32571	32551	
721	0	32782	32615	32735	32553	32861	32702	32525	32609	
722	0	32868	32542	32751	32407	32551	32775	32644	32559	
723	0	32878	32591	32711	32335	32848	32727	32647	32604	
724	0	32862	32607	32507	32307	33139	32646	32599	32547	
725	0	32814	32635	32698	32095	32869	32719	32743	32933	
726	0	32838	32487	32619	32151	32503	32738	32903	33053	
727	0	32836	32613	32823	32351	32423	32855	32978	32602	
728	0	32801	32678	32741	32623	32575	32707	32858	32387	
729	0	32775	32786	32887	32773	32559	32839	32735	32532	
730	0	32655	32655	32732	32894	32727	32834	32699	32607	
731	0	32674	32695	32763	33173	32997	32535	32463	32519	
732	0	32669	32947	32805	33178	33099	32466	32515	32717	
733	0	32589	32843	32695	33210	33078	32476	32505	32685	
734	0	32587	32963	32751	33227	32991	32671	32501	32494	
735	0	32732	32883	32759	33207	32767	32881	32462	32425	
736	0	32721	32742	32679	33171	32531	33294	32439	32935	
737	0	32730	32799	32786	32943	32621	33350	32762	33311	
738	0	32803	32771	32717	32839	32617	32973	32795	32967	
739	0	32824	32641	32717	32659	32775	32531	32707	32487	
740	0	32817	32679	32677	32645	32871	32157	32655	32391	
741	0	32775	32668	32815	32535	32710	32671	32724	33018	
742	0	32797	32512	32705	32439	32698	32743	32727	32914	
743	0	32768	32719	32813	32433	32934	32766	32642	32534	
744	0	32863	32739	32759	32128	32749	32647	32859	32870	
745	0	32933	32571	32677	32003	32595	32694	33015	33031	
746	0	32884	32583	32475	32007	32795	32419	32727	32439	
747	0	32775	32679	32557	32215	32645	32543	32775	32486	
748	0	32817	32602	32763	32485	32758	32551	32588	32604	
749	0	32743	32883	32711	32612	32679	32615	32548	32533	
750	0	32727	32801	32709	32900	32794	32759	32584	32495	
751	0	32658	32748	32775	33102	33063	32858	32367	32876	
752	0	32594	32895	32755	33321	32901	32839	32491	32903	
753	0	32610	32943	32962	33311	32783	32770	32643	32567	
754	0	32679	32848	32867	33262	32815	32665	32591	32511	
755	0	32727	32733	32797	33279	32745	32737	32674	32726	
756	0	32636	32701	32711	33159	32707	32823	32789	32847	
757	0	32636	32819	32722	33127	32671	32669	32605	32675	
758	0	32735	32899	32855	32965	32567	32571	32823	33030	
759	0	32807	32879	32707	32726	32687	32829	32875	32751	
760	0	32807	32875	32831	32662	32602	32807	32587	32493	
761	0	32818	32735	32875	32499	32711	32742	32743	32575	
762	0	32754	32733	32785	32498	32941	32631	32531	32147	
763	0	32747	32775	32763	32503	33111	32402	32578	32156	
764	0	32886	32591	32813	32420	32923	32535	32583	32349	
765	0	32934	32450	32786	32159	32799	32603	32758	33019	
766	0	32881	32599	32562	32153	32722	32595	32775	32831	
767	0	32842	32647	32717	32199	32717	32681	32679	32263	
768	0	32802	32555	32635	32295	32866	32671	32555	32455	
769	0	32831	32586	32540	32575	33031	32759	32739	32562	
770	0	32806	32622	32576	32863	32647	33001	32503	33026	
771	0	32688	32767	32757	33174	32839	33111	32303	32663	
772	0	32663	32775	32994	33374	32459	32911	32805	33303	
773	0	32711	32730	32845	33429	32519	32927	33079	33327	
774	0	32710	32675	32871	33346	32615	32662	32766	32867	
775	0	32724	32837	32717	33263	32850	32567	32647	33004	
776	0	32673	32798	32639	33179	32838	32559	32717	32940	
777	0	32721	32843	32770	33070	32869	32495	32743	32399	
778	0	32667	32819	32766	32937	32868	32505	32615	31943	
779	0	32686	32647	32743	32807	32799	32682	32237	32071	
780	0	32701	32705	32647	32647	32827	32858	32421	32403	
781	0	32685	32817	32647	32541	32678	32949	32805	33045	
782	0	32684	32807	32727	32535	32951	32903	32573	32844	
783	0	32737	32703	32767	32565	32550	32887	32743	32245	
784	0	32846	32663	32783	32327	32885	32679	32503	31975	
785	0	32886	32669	32802	32199	32646	32647	32644	32513	
786	0	32986	32467	32683	32142	32831	32667	32707	32804	
787	0	32908	32519	32516	32319	32645	32723	32903	33065	
788	0	32816	32647	32782	32474	32751	32958	32911	33357	
789	0	32711	32634	32817	32633	32607	32866	32849	32674	
790	0	32730	32751	32789	32899	32647	32763	32575	32672	
791	0	32659	32788	32719	33119	32827	32671	32592	32293	
792	0	32660	32837	32813	33319	32799	32685	32647	32631	
793	0	32627	32886	32765	33307	32748	32775	32679	32878	
794	0	32653	32806	32870	33295	32509	32691	32691	32923	
795	0	32658	32842	32829	33307	32857	32391	32549	32450	
796	0	32726	32751	32811	33199	32687	32502	32767	32615	
797	0	32742	32687	32775	33003	32647	32763	32755	32775	
798	0	32783	32837	32807	32902	32756	32739	32583	32455	
799	0	32807	32784	32813	32746	32935	32470	32575	32367	
800	0	32862	32655	32681	32578	32918	32639	32631	32363	
801	0	32827	32647	32599	32567	32551	32927	32765	33003	
802	0	32808	32723	32557	32471	32767	32775	32543	32364	
803	0	32757	32687	32722	32341	32759	32790	32655	32511	
804	0	32867	32719	32668	32223	32789	32655	32746	32639	
805	0	32854	32717	32711	32191	32689	32551	32875	32594	
806	0	32861	32718	32722	32125	32518	32741	32771	32831	
807	0	32836	32671	32619	32385	32940	32566	32708	32359	
808	0	32759	32663	32749	32550	32999	32391	32579	32391	
809	0	32690	32685	32799	32754	32855	32573	32659	32424	
810	0	32652	32684	32711	32987	32765	32803	32487	32935	
811	0	32620	32877	32887	33151	32639	32873	32951	33247	
812	0	32634	32879	32887	33371	32559	32787	32861	33133	
813	0	32601	32823	32903	33335	32501	32671	32762	32914	
814	0	32687	32831	32852	33287	32839	32630	32749	32715	
815	0	32703	32823	32793	33391	33041	32527	32498	32306	
816	0	32600	32855	32742	33227	32854	32811	32446	32655	
817	0	32732	32787	32805	33061	32741	33111	32548	32994	
818	0	32860	32855	32614	32922	32601	32911	32617	32707	
819	0	32887	32775	32647	32759	32819	32813	32671	33005	
820	0	32865	32647	32836	32694	32772	32987	32635	32567	
821	0	32866	32702	32757	32551	32803	32970	32751	32391	
822	0	32926	32647	32767	32471	32738	32835	32767	32566	
823	0	32926	32702	32706	32343	32804	32550	32539	32141	
824	0	32933	32679	32603	32277	33069	32263	32505	32493	
825	0	32989	32573	32742	32202	32899	32628	32669	32921	
826	0	32962	32519	32717	32135	32765	32759	32769	32676	
827	0	32814	32551	32647	32322	32694	32633	32883	32748	
828	0	32815	32556	32563	32493	32793	32503	32671	32351	
829	0	32679	32635	32699	32677	33017	32719	32555	32235	
830	0	32681	32719	32827	32903	32583	32925	32525	32563	
831	0	32679	32662	32863	33074	32719	32911	32662	32700	
832	0	32681	32706	32899	33227	32718	32737	32763	32791	
833	0	32742	32914	32793	33295	32829	32658	32627	32691	
834	0	32647	32835	32793	33220	32771	32735	32637	32743	
835	0	32712	32893	32719	33223	32605	32775	32687	32845	
836	0	32679	32822	32703	33199	32822	32646	32665	32733	
837	0	32667	32706	32773	33039	32813	32747	32799	32903	
838	0	32732	32686	32775	32935	32735	32794	32580	32679	
839	0	32766	32575	32742	32773	32790	32820	32722	32787	
840	0	32821	32578	32757	32729	32783	32723	32852	32535	
841	0	32883	32687	32676	32543	32723	32586	32793	32614	
842	0	32797	32735	32647	32493	32884	32565	32574	32455	
843	0	32815	32765	32615	32280	32454	32754	32467	32567	
844	0	32794	32707	32738	32146	32579	32874	32789	32643	
845	0	32720	32693	32805	32046	32854	32658	32489	32607	
846	0	32743	32627	32691	32071	32735	32580	32806	32706	
847	0	32804	32679	32635	32237	32591	32477	32893	32919	
848	0	32793	32761	32663	32535	32605	32522	32813	32655	
849	0	32782	32686	32513	32725	32663	32489	32623	32461	
850	0	32729	32815	32751	32939	32749	32582	32545	32299	
851	0	32622	32763	32818	33092	32577	32751	32674	32423	
852	0	32534	32941	32679	33323	32466	33407	32431	32470	
853	0	32588	32869	32818	33239	32626	33106	32371	32367	
854	0	32697	32855	32865	33237	32727	32717	32607	32799	
855	0	32686	32786	32715	33263	32773	32571	32628	32745	
856	0	32678	32847	32770	33238	32795	32759	32726	33063	
857	0	32732	32733	32816	33078	32683	32873	32874	33175	
858	0	32765	32645	32895	32829	32785	32690	32758	32941	
859	0	32783	32607	32743	32783	33060	32447	32382	32511	
860	0	32743	32838	32670	32592	32989	32590	32570	32455	
861	0	32810	32806	32772	32567	32811	32815	32738	32637	
862	0	32911	32723	32775	32373	32759	32643	32970	32679	
863	0	32944	32587	32571	32355	32858	32551	32786	32695	
864	0	32856	32719	32694	32284	32567	32619	32763	32367	
865	0	32868	32735	32711	32199	32757	32571	32629	32391	
866	0	32957	32509	32725	32135	32677	32331	32540	32187	
867	0	32884	32559	32759	32207	32877	33073	32367	32679	
868	0	32783	32599	32645	32383	32764	33407	32375	32642	
869	0	32804	32647	32754	32695	32817	32951	32785	33191	
870	0	32740	32748	32900	32995	32806	32923	32725	33133	
871	0	32634	32773	32775	33127	32925	32756	32588	32623	
872	0	32606	32799	32749	33351	32839	32591	32626	32559	
873	0	32617	32711	32875	33342	32845	32567	32784	32557	
874	0	32662	32723	32683	33287	32843	32500	32572	32522	
875	0	32702	32843	32719	33268	32887	32595	32659	32484	
876	0	32740	32839	32873	33183	32575	32658	32687	32669	
877	0	32701	32814	32873	32960	32941	32762	32683	32547	
878	0	32727	32747	32756	32899	32707	32623	32484	32445	
879	0	32775	32679	32727	32679	32607	32851	32742	32979	
880	0	32838	32759	32775	32566	32647	32755	32621	32935	
881	0	32815	32679	32668	32531	32663	32689	32735	32731	
882	0	32760	32583	32724	32454	32621	32587	32845	32647	
883	0	32733	32716	32724	32411	32594	32635	32641	32586	
884	0	32868	32679	32767	32062	32745	32732	32647	32324	
885	0	32890	32519	32684	31999	32647	32703	32985	32893	
886	0	32858	32628	32594	32087	32759	32557	32813	32602	
887	0	32822	32663	32739	32302	32994	32621	32676	32407	
888	0	32683	32611	32675	32461	32943	32615	32646	32391	
889	0	32729	32723	32707	32679	32734	32883	32623	32461	
890	0	32716	32756	32675	32858	32820	32935	32661	32487	
891	0	32696	32687	32695	33135	32885	32903	32512	32497	
892	0	32667	32805	32807	33276	32818	32723	32691	32786	
893	0	32662	32925	32749	33319	32723	32668	32791	32887	
894	0	32599	32807	32639	33415	32735	32524	32687	32578	
895	0	32634	32957	32799	33213	32887	32617	32698	32623	
896	0	32705	32911	32811	33255	32941	32663	32463	32356	
897	0	32795	32679	32791	33078	32747	32615	32562	32604	
898	0	32879	32742	32671	32825	32621	32659	32855	32662	
899	0	32892	32674	32743	32759	32647	32527	32578	32326	
900	0	32900	32583	32765	32567	32629	32918	32655	32887	
901	0	32850	32647	32657	32591	32623	32969	32671	33415	
902	0	33014	32471	32794	32413	32758	32718	32818	33031	
903	0	32999	32613	32783	32429	32887	32631	32683	32803	
904	0	33006	32669	32786	32171	32673	32738	32827	32819	
905	0	32910	32615	32621	32135	32772	32718	32471	32391	
906	0	32826	32773	32671	32181	32823	32812	32411	32383	
907	0	32700	32794	32654	32258	32775	33206	32433	32557	
908	0	32644	32982	32571	32447	32711	32871	32797	32727	
909	0	32606	32980	32625	32766	32758	32609	32618	32808	
910	0	32691	32914	32809	32951	32758	32614	32718	32679	
911	0	32575	32935	32710	33092	32823	32690	32775	32787	
912	0	32653	32891	32903	33318	32879	32589	32671	32562	
913	0	32605	32742	32925	33271	32914	32499	32671	32439	
914	0	32682	32860	32741	33303	33031	32559	32391	32431	
915	0	32653	32918	32898	33271	32865	32591	32495	32507	
916	0	32775	32797	32819	33238	32700	33089	32887	33185	
917	0	32747	32811	32757	32959	32764	33073	32807	32927	
918	0	32751	32671	32786	32871	32631	32749	32583	32771	
919	0	32857	32699	32717	32722	32431	32754	32797	32843	
920	0	32855	32734	32763	32641	32501	32719	32767	32874	
921	0	32758	32633	32587	32534	32530	32711	32695	32660	
922	0	32793	32696	32723	32415	32919	32506	32621	32483	
923	0	32740	32669	32751	32415	32791	32495	32354	32503	
924	0	32808	32639	32647	32231	32803	32862	32871	32972	
925	0	32892	32647	32615	32158	32642	33009	32791	33029	
926	0	32906	32735	32681	32135	32859	32751	32577	32661	
927	0	32864	32599	32687	32247	33091	32519	32619	32566	
928	0	32767	32739	32692	32547	32855	32662	32796	32557	
929	0	32829	32609	32548	32751	32747	32603	32571	32387	
930	0	32724	32605	32727	32856	32663	32558	32553	32509	
931	0	32686	32636	32769	33069	32687	32615	32589	32489	
932	0	32644	32838	32796	33287	32675	32707	32597	32402	
933	0	32626	32925	32867	33327	32709	32674	32699	32391	
934	0	32609	32882	32657	33295	32585	32829	32809	33095	
935	0	32548	32876	32887	33243	32959	32803	32719	32941	
936	0	32646	32811	32866	33194	33133	32738	32591	32671	
937	0	32733	32794	32848	33050	32957	32621	32471	32563	
938	0	32722	32850	32636	32774	32597	32703	32731	32895	
939	0	32750	32735	32691	32699	32295	32913	32951	33173	
940	0	32836	32559	32770	32507	32738	32838	32623	32751	
941	0	32884	32685	32822	32463	32892	32671	32498	32587	
942	0	32889	32659	32834	32495	32805	32695	32626	32541	
943	0	32951	32541	32645	32429	32847	32487	32797	32363	
944	0	32919	32661	32724	32214	32799	32671	32731	32622	
945	0	32876	32679	32615	32186	32661	32867	32587	32831	
946	0	32898	32495	32720	32106	32615	32809	32711	32999	
947	0	32850	32681	32583	32349	32659	32682	32711	32534	
948	0	32803	32759	32769	32511	32711	32506	32563	32194	
949	0	32775	32675	32787	32743	32647	32706	32594	32583	
950	0	32767	32871	32647	32865	32637	32771	32461	32775	
951	0	32706	32795	32743	33193	32818	32714	32492	32551	
952	0	32669	32707	32751	33349	32870	32556	32679	32623	
953	0	32633	32892	32847	33295	32647	32637	32889	32924	
954	0	32632	32923	32679	33287	32791	32595	32882	32767	
955	0	32561	32818	32834	33267	32815	32559	32839	32735	
956	0	32684	32852	32789	33241	32837	32535	32479	32749	
957	0	32712	32759	32821	33019	32871	32555	32577	32447	
958	0	32716	32789	32804	32875	32703	33159	32532	32775	
959	0	32758	32829	32783	32751	32633	33350	32367	32655	
960	0	32795	32771	32687	32643	32911	33039	32331	32355	
961	0	32732	32791	32723	32501	33004	32599	32623	32555	
962	0	32803	32614	32703	32350	32759	32759	32943	33234	
963	0	32834	32660	32695	32217	32757	32803	32896	32687	
964	0	32819	32679	32583	32254	32924	32725	32675	32471	
965	0	32846	32565	32628	32066	32855	32493	32599	32426	
966	0	32966	32601	32658	32135	32805	32233	32658	32635	
967	0	32951	32443	32678	32303	32773	32457	32722	32954	
968	0	32846	32631	32647	32603	32831	32879	32622	32671	
969	0	32773	32708	32739	32719	32747	32981	32409	32371	
970	0	32742	32775	32755	32941	32735	32815	32735	32710	
971	0	32772	32867	32739	33094	32687	32762	32690	32903	
972	0	32743	32764	32745	33285	32877	32898	32751	32799	
973	0	32722	32821	32815	33300	32875	32806	32823	32750	
974	0	32712	32839	32835	33231	32815	32677	32535	32445	
975	0	32706	32807	32799	33285	32926	32525	32743	32832	
976	0	32647	32803	32775	33167	32549	32503	32767	32810	
977	0	32647	32703	32662	33031	32591	32791	32767	32755	
978	0	32734	32695	32733	32902	32461	32769	32941	33059	
979	0	32772	32690	32791	32775	32709	32870	32878	33075	
980	0	32852	32623	32725	32606	32914	32631	32541	32615	
981	0	32831	32637	32623	32541	32851	32599	32669	32387	
982	0	32740	32767	32740	32482	32807	32722	32235	31599	
983	0	32752	32701	32740	32405	32793	32434	32551	32156	
984	0	32790	32636	32794	32175	32555	32582	32831	32852	
985	0	32855	32594	32788	32065	32759	32660	32854	32838	
986	0	32903	32535	32647	32127	32327	32663	32887	32903	
987	0	32832	32629	32745	32301	32963	32620	32444	32647	
988	0	32706	32567	32775	32546	32742	32633	32541	32772	
989	0	32699	32756	32719	32743	32917	32987	32623	33029	
990	0	32580	33023	32749	32954	32647	33127	32525	32594	
991	0	32576	32947	32754	33149	32807	32967	32567	32391	
992	0	32568	32994	32695	33287	32525	32687	32722	32523	
993	0	32633	33043	32679	33303	32701	32436	32647	32629	
994	0	32707	32947	32872	33259	32483	32654	32591	32647	
995	0	32684	32991	32858	33178	32858	32623	32726	32627	
996	0	32707	32855	32865	33137	32887	32644	32647	32664	
997	0	32710	32871	32762	33025	32785	32717	32630	32957	
998	0	32720	32951	32859	32883	32773	32765	32687	32895	
999	0	32729	32841	32887	32751	32749	32727	32706	32707	
1000	0	32587	32896	32674	32653	32647	32745	32807	32687	
1001	0	32590	32919	32663	32547	32786	32735	32701	32632	
1002	0	32586	32895	32759	32450	32744	32559	32621	32337	
1003	0	32638	32842	32683	32324	32887	32671	32786	32628	
1004	0	32669	32690	32804	32210	32731	32707	32647	32805	
1005	0	32654	32675	32669	32119	32607	32691	32683	32973	
1006	0	32653	32517	32639	32127	32677	32739	32895	32903	
1007	0	32567	32599	32698	32279	32679	32731	32848	32787	
1008	0	32466	32539	32620	32471	32555	32677	32847	32663	
1009	0	32460	32567	32681	32751	32766	32722	32603	32540	
1010	0	32365	32615	32589	32828	32827	32743	32689	32654	
1011	0	32278	32443	32750	33047	32735	32967	32747	32890	
1012	0	32317	32499	32714	33199	32775	32903	32635	32887	
1013	0	32423	32347	32613	33263	32762	32679	32875	32983	
1014	0	32515	32411	32687	33257	32767	32607	32711	32519	
1015	0	32583	32373	32619	33147	32646	32617	32858	32237	
1016	0	32565	32335	32519	33141	32585	32671	32826	32359	
1017	0	32597	32322	32659	32887	32902	32737	32571	32191	
1018	0	32743	32231	32694	32803	32989	32855	32599	32231	
1019	0	33019	32165	32575	32515	32751	32735	32871	32343	
1020	0	33199	32150	32663	32479	32732	32553	32775	32353	
1021	0	33309	32020	32619	32407	32731	32617	32609	32527	
1022	0	33401	31974	32495	32368	32875	32619	32615	32410	
1023	0	33523	31943	32598	32287	32801	32846	32669	33005	
1024	0	33653	31949	32711	32263	32813	32796	32775	33023	
1025	0	33850	31933	32715	32131	32844	32687	32640	32609	
1026	0	33810	32018	32743	32135	32887	32755	32620	32551	
1027	0	33677	32199	32797	32307	33005	32627	32543	32320	
1028	0	33435	32501	32827	32592	33015	32374	32679	32419	
1029	0	33119	32818	32865	32743	32921	32574	32551	32703	
1030	0	32815	33002	32749	33095	32903	32660	32679	32812	
1031	0	32638	33251	33036	33206	32775	32566	32479	32731	
1032	0	32551	33436	32989	33377	32866	32667	32462	32633	
1033	0	32505	33411	32967	33396	32663	32931	32359	33203	
1034	0	32647	33499	33095	33285	32759	33095	32412	33012	
1035	0	32829	33429	33110	33338	32725	32943	32381	32759	
1036	0	32903	33507	32937	33213	32639	32927	32495	32831	
1037	0	32950	33551	33060	33135	32690	32806	32330	32916	
1038	0	33024	33398	32995	32937	32770	32633	32493	33086	
1039	0	33042	33371	32823	32858	32671	32373	32485	32890	
1040	0	33148	33250	32987	32672	32595	32791	32479	32946	
1041	0	33246	33170	32943	32709	32615	32937	32568	32883	
1042	0	33334	33007	32795	32454	32611	32707	32283	32475	
1043	0	33428	32806	32854	32420	32726	32783	32513	32358	
1044	0	33383	32861	32877	32363	32713	32716	32445	32287	
1045	0	33217	32869	32673	32219	32855	32468	32598	32585	
1046	0	33036	33045	32788	32331	32919	32421	32538	32556	
1047	0	32783	33199	32742	32469	32931	32375	32351	32385	
1048	0	32558	33311	32832	32611	32839	32818	32675	32751	
1049	0	32502	33044	32699	32831	32788	32989	32867	32869	
1050	0	32447	32959	32815	32916	32723	32887	32788	32725	
1051	0	32359	32748	32759	33135	32519	32750	32831	32903	
1052	0	32307	32606	32775	33230	32714	32763	32893	32855	
1053	0	32242	32599	32619	33149	32602	32775	32735	33047	
1054	0	32236	32586	32511	33183	32851	32767	32775	32539	
1055	0	32221	32617	32711	33194	32639	32713	32663	32391	
1056	0	32295	32615	32719	33143	32978	32615	32519	32322	
1057	0	32217	32740	32543	32979	32807	32849	32827	32798	
1058	0	32223	32708	32548	32903	32815	32978	32772	33014	
1059	0	32255	32795	32647	32731	32614	32939	32867	32882	
1060	0	32263	32755	32519	32515	32911	32734	32738	32425	
1061	0	32352	32698	32632	32439	32771	32599	32703	32338	
1062	0	32353	32627	32594	32403	32718	32718	32810	32843	
1063	0	32412	32695	32656	32287	32707	32807	32815	32755	
1064	0	32530	32719	32663	32223	32706	32666	32817	32683	
1065	0	32634	32633	32543	32087	32691	32715	32703	32411	
1066	0	32619	32687	32491	32107	32820	32687	32775	32551	
1067	0	32601	32692	32677	32237	32803	32766	33077	32784	
1068	0	32646	32671	32687	32469	32783	32519	33221	33047	
1069	0	32582	32801	32715	32708	32590	32570	33006	32979	
1070	0	32587	32745	32775	32884	32735	32515	32903	32669	
1071	0	32563	32941	32702	33123	32919	32539	32671	32573	
1072	0	32637	32775	32885	33239	32871	32555	32677	32509	
1073	0	32662	32903	32900	33274	32807	33101	32223	32471	
1074	0	32642	32818	32663	33255	32791	33143	32079	32273	
1075	0	32623	32853	32847	33259	32873	32715	32270	32319	
1076	0	32660	32826	32807	33199	32775	32771	32545	32731	
1077	0	32703	32753	32814	32935	32731	32799	32815	32877	
1078	0	32863	32646	32636	32903	32823	32847	32783	32874	
1079	0	32933	32647	32747	32707	32959	32735	32590	32687	
1080	0	32875	32470	32783	32574	32943	32667	32789	32610	
1081	0	32831	32501	32623	32501	32743	32726	32939	32673	
1082	0	32924	32591	32629	32471	32579	32678	32836	32903	
1083	0	32887	32611	32764	32355	32679	32595	32647	32659	
1084	0	32978	32511	32734	32423	32757	33047	32694	32949	
1085	0	33096	32375	32759	32242	32731	33044	32769	32782	
1086	0	33080	32431	32715	32229	32847	32567	32673	32588	
1087	0	32932	32571	32573	32375	33019	32489	32599	32588	
1088	0	32862	32639	32727	32541	32685	32514	32727	32739	
1089	0	32819	32679	32828	32684	32718	32598	32751	32687	
1090	0	32793	32751	32725	32892	32775	32732	32718	32707	
1091	0	32723	32902	32851	33027	32842	32851	32815	32679	
1092	0	32685	32838	32870	33218	32873	32866	32526	32483	
1093	0	32652	32791	32855	33314	32923	32679	32501	32391	
1094	0	32698	32895	32791	33223	32871	32512	32742	32374	
1095	0	32723	32893	32743	33191	32775	32172	32677	32517	
1096	0	32650	32655	32851	33121	32751	32543	32754	32919	
1097	0	32696	32807	32773	33031	32655	32839	32421	32939	
1098	0	32751	32700	32727	32815	32701	32711	32459	32639	
1099	0	32757	32839	32859	32756	32636	33087	32653	32797	
1100	0	32762	32783	32623	32487	32705	32980	32707	32871	
1101	0	32760	32543	32715	32455	32639	32835	32663	32714	
1102	0	32830	32643	32775	32404	32615	32807	32594	32739	
1103	0	32844	32711	32587	32363	32762	32597	32687	32502	
1104	0	32806	32647	32735	32263	32813	32538	32655	32523	
1105	0	32902	32647	32630	32203	32829	32595	32827	32789	
1106	0	32964	32415	32551	32115	32791	32677	32629	32634	
1107	0	32938	32542	32679	32335	32685	32925	32647	32583	
1108	0	32850	32639	32615	32549	32775	32802	32674	32599	
1109	0	32762	32743	32763	32693	32861	32519	32767	32655	
1110	0	32825	32727	32727	32903	32794	32495	32810	32615	
1111	0	32708	32759	32775	33223	32803	32629	32806	32715	
1112	0	32631	32738	32775	33319	32783	32721	32814	32771	
1113	0	32662	32643	32771	33303	32866	32775	32647	32258	
1114	0	32663	32743	32684	33159	32759	32575	32583	32425	
1115	0	32582	32870	32775	33283	32589	32762	32576	32879	
1116	0	32683	32833	32805	33203	32527	32914	32655	32999	
1117	0	32711	32742	32767	33105	33002	32847	32231	32391	
1118	0	32709	32815	32813	32887	32879	32809	32575	32484	
1119	0	32711	32827	32702	32738	32711	32937	32734	32708	
1120	0	32781	32646	32757	32711	32704	32743	32743	32431	
1121	0	32788	32647	32647	32581	32647	32639	32468	32271	
1122	0	32753	32621	32679	32471	32713	32769	32603	32434	
1123	0	32818	32670	32809	32351	32723	32785	32855	32695	
1124	0	32783	32646	32630	32263	32884	32591	32681	32473	
1125	0	32826	32571	32818	32171	32855	32647	32703	32551	
1126	0	32881	32643	32695	32142	32703	32815	32538	32875	
1127	0	32881	32645	32739	32258	32611	32739	32642	32911	
1128	0	32814	32635	32669	32554	32805	32191	32759	32476	
1129	0	32722	32806	32731	32775	32823	32322	32542	32421	
1130	0	32708	32815	32789	32919	32565	32759	32835	32948	
1131	0	32655	32716	32663	33029	32739	32769	32819	32947	
1132	0	32636	32851	32733	33182	32660	33005	32975	32966	
1133	0	32617	32851	32852	33335	33050	32775	32593	32558	
1134	0	32738	32762	32735	33202	33045	32595	32535	32259	
1135	0	32786	32771	32807	33251	32830	32749	32470	32607	
1136	0	32767	32773	32899	33077	32694	32819	32806	32919	
1137	0	32815	32895	32703	32999	32719	33071	32679	33099	
1138	0	32934	32647	32799	32831	32775	32999	32767	32900	
1139	0	32941	32714	32806	32783	32902	32518	32507	32574	
1140	0	32876	32711	32660	32620	32863	32644	32771	32695	
1141	0	32846	32614	32725	32559	32789	32715	32887	33029	
1142	0	32727	32749	32671	32493	32710	32701	32775	32391	
1143	0	32742	32812	32711	32391	32743	32511	32421	32051	
1144	0	32817	32547	32727	32287	32681	32503	32507	32547	
1145	0	32931	32647	32639	32111	32839	32623	32601	32674	
1146	0	32921	32492	32711	32199	32623	32775	32617	32775	
1147	0	32879	32591	32605	32279	32413	32875	32519	32823	
1148	0	32743	32660	32718	32587	32675	32895	32519	32589	
1149	0	32757	32627	32801	32750	32723	32711	32695	32514	
1150	0	32710	32743	32787	32902	32667	32735	32847	32987	
1151	0	32679	32815	32702	33133	32699	32711	32859	33046	
1152	0	32636	32855	32738	33116	32727	32577	32770	32749	
1153	0	32639	32836	32823	33235	32895	32541	32647	32607	
1154	0	32609	32967	32734	33255	33007	32431	32591	32274	
1155	0	32583	32827	32855	33302	32823	32543	32551	32463	
1156	0	32566	32871	32823	33195	32804	32903	32423	32503	
1157	0	32647	32871	32692	33113	32919	33094	32596	32595	
1158	0	32726	32931	32813	32879	32890	32951	32743	32679	
1159	0	32786	32661	32807	32711	32751	32647	32491	32519	
1160	0	32804	32699	32569	32511	32775	32630	32703	32509	
1161	0	32836	32646	32612	32438	32647	32583	32543	32327	
1162	0	32775	32669	32775	32455	32556	32663	32841	32831	
1163	0	32879	32611	32831	32363	32685	32791	32911	33080	
1164	0	32857	32642	32663	32333	32670	32758	32865	32951	
1165	0	32832	32589	32607	32159	32712	32741	32739	32709	
1166	0	32859	32539	32734	32257	32925	32715	32667	32545	
1167	0	32870	32603	32641	32285	32945	32631	32525	32423	
1168	0	32860	32637	32663	32500	33044	32719	32647	32355	
1169	0	32749	32762	32765	32639	32859	32703	32621	32535	
1170	0	32702	32751	32658	32951	32842	32621	32697	32484	
1171	0	32598	32871	32754	33153	32862	32595	32430	32466	
1172	0	32635	32855	32745	33383	32703	32589	32739	32734	
1173	0	32683	32719	32867	33399	32687	32663	32925	33132	
1174	0	32663	32861	32663	33303	32623	32685	32828	32973	
1175	0	32665	32869	32775	33295	32707	32671	32581	32866	
1176	0	32678	32663	32902	33171	32735	32674	32567	32671	
1177	0	32719	32749	32763	33127	32711	32816	32476	32343	
1178	0	32757	32799	32615	32802	32748	33095	32559	32675	
1179	0	32788	32507	32822	32740	32643	32903	32839	32790	
1180	0	32857	32668	32767	32615	32675	32807	32667	32623	
1181	0	32746	32587	32727	32487	32914	32583	32519	32543	
1182	0	32841	32703	32732	32407	32791	32667	32630	32773	
1183	0	32841	32745	32722	32358	32812	32875	32658	32611	
1184	0	32830	32607	32767	32299	32939	32767	32603	32487	
1185	0	32824	32659	32551	32147	32799	32863	32690	32738	
1186	0	32866	32637	32709	32117	32951	32775	32763	32807	
1187	0	32843	32647	32669	32263	32815	32703	32845	32951	
1188	0	32764	32663	32767	32420	32759	32711	32682	32655	
1189	0	32767	32709	32605	32681	32727	32563	32559	32433	
1190	0	32786	32684	32679	32947	32633	32607	32626	32497	
1191	0	32742	32835	32862	33064	32757	32695	32726	32791	
1192	0	32786	32821	32866	33213	32747	32845	32829	32941	
1193	0	32599	32831	32852	33264	32755	32854	32807	32879	
1194	0	32578	32959	32764	33295	32767	32675	32615	32445	
1195	0	32583	32965	32804	33261	32754	32589	32471	32335	
1196	0	32644	32765	32866	33103	32738	32500	32615	32389	
1197	0	32749	32802	32693	33105	32791	32548	32590	32445	
1198	0	32743	32745	32815	32805	32685	32700	32763	32864	
1199	0	32770	32771	32663	32786	32726	32727	32815	32799	
1200	0	32843	32722	32731	32583	32823	32764	32482	32583	
1201	0	32834	32619	32586	32511	32818	32751	32691	32733	
1202	0	32794	32647	32823	32457	32795	32769	32707	32863	
1203	0	32823	32723	32711	32314	32469	33041	32759	32935	
1204	0	32868	32467	32703	32275	32807	32975	32627	32605	
1205	0	32863	32503	32738	32172	32795	32623	32568	32597	
1206	0	32860	32551	32669	32147	32765	32367	32583	32833	
1207	0	32880	32491	32718	32245	32677	32669	32813	32919	
1208	0	32932	32583	32794	32471	32663	32647	32841	32627	
1209	0	32793	32567	32628	32706	32773	32647	32694	32449	
1210	0	32681	32677	32871	32775	32933	32979	32513	31673	
1211	0	32588	32801	32826	33095	32964	32535	32590	32135	
1212	0	32531	32775	32659	33221	32774	32623	32773	32687	
1213	0	32601	32959	32847	33309	32789	32748	32795	32675	
1214	0	32662	32785	32864	33207	32755	32719	32629	32895	
1215	0	32725	32858	32743	33287	32759	32391	32619	32609	
1216	0	32765	32759	32758	33167	32759	32671	32597	32599	
1217	0	32807	32790	32827	33099	32669	32995	32351	32615	
1218	0	32794	32687	32845	32926	32575	33091	32647	32597	
1219	0	32819	32731	32743	32676	32611	32919	32626	32564	
1220	0	32850	32763	32771	32668	32658	32647	32541	32719	
1221	0	32812	32661	32578	32531	32479	32829	32499	33223	
1222	0	32758	32698	32638	32406	32411	32819	32863	33023	
1223	0	32807	32726	32628	32365	32643	32645	32846	32615	
1224	0	32832	32764	32690	32243	32963	32432	32638	32330	
1225	0	32765	32551	32555	32105	33077	32474	32620	32415	
1226	0	32808	32615	32695	32135	32842	32623	32826	32577	
1227	0	32808	32519	32691	32134	32727	32813	32734	32692	
1228	0	32856	32579	32687	32486	32726	32927	32751	33030	
1229	0	32810	32631	32735	32561	32703	32733	32807	32871	
1230	0	32735	32787	32711	32877	32734	32758	32677	32955	
1231	0	32707	32895	32757	32964	32871	32647	32491	32647	
1232	0	32720	32831	32854	33199	32819	32527	32676	32635	
1233	0	32683	32804	32862	33188	32727	32783	32775	32863	
1234	0	32756	32763	32917	33262	32687	32695	32773	32759	
1235	0	32758	32855	32877	33307	32723	32727	32502	32610	
1236	0	32703	32759	32747	33275	32659	32637	32738	32852	
1237	0	32732	32755	32803	33031	32740	32662	32762	32803	
1238	0	32735	32757	32790	32939	32746	32811	32695	32823	
1239	0	32830	32647	32703	32833	32887	32877	32639	32935	
1240	0	32843	32698	32685	32609	32806	32695	32805	32676	
1241	0	32807	32635	32687	32447	32813	32727	32861	32645	
1242	0	32841	32723	32742	32455	32797	32592	32694	32879	
1243	0	32821	32590	32772	32327	32769	32611	32647	32954	
1244	0	32873	32733	32682	32259	32613	32687	32772	33159	
1245	0	32810	32607	32681	32097	32715	33022	32287	32486	
1246	0	32782	32708	32630	32203	32791	32891	32443	31945	
1247	0	32791	32757	32743	32263	32583	32563	32775	32295	
1248	0	32773	32775	32787	32522	32719	32591	32607	32199	
1249	0	32775	32735	32659	32537	32862	32523	32316	31903	
1250	0	32613	32662	32775	32895	33013	32497	32564	32495	
1251	0	32604	32873	32850	33090	32774	32913	32903	33586	
1252	0	32631	32839	32871	33159	32729	32839	32775	33186	
1253	0	32680	32797	32775	33323	32647	32877	32862	32914	
1254	0	32669	32903	32775	33272	32798	32715	32423	32417	
1255	0	32703	32815	32748	33327	32787	32759	32467	32516	
1256	0	32742	32989	32739	33098	32815	32793	32454	32503	
1257	0	32713	32961	32804	33067	32766	32855	32676	32836	
1258	0	32818	32817	32711	32871	32711	32567	32939	32771	
1259	0	32846	32823	32662	32791	32819	32531	32663	32606	
1260	0	32839	32639	32770	32655	32742	32637	32715	32835	
1261	0	32861	32735	32762	32647	32738	32701	32545	32739	
1262	0	32825	32605	32775	32428	32644	32807	32666	32603	
1263	0	32861	32645	32684	32322	32729	32615	32619	32621	
1264	0	32871	32567	32702	32287	32835	32766	32775	32743	
1265	0	32874	32519	32707	32132	32976	32811	32533	32671	
1266	0	32876	32639	32710	32147	32993	32667	32221	32543	
1267	0	32855	32695	32590	32239	32951	32737	32676	32801	
1268	0	32800	32475	32690	32470	32706	32957	33139	33371	
1269	0	32762	32694	32727	32643	32723	32883	32919	33031	
1270	0	32655	32802	32808	32879	32692	32421	32869	32822	
1271	0	32716	32867	32702	32999	32703	32471	32982	32775	
1272	0	32647	32871	32900	33295	32775	32471	32775	32419	
1273	0	32626	32903	32919	33331	32805	32615	32615	32531	
1274	0	32612	33039	32867	33238	32908	32903	32412	32575	
1275	0	32685	32919	32658	33347	32791	33375	32277	32589	
1276	0	32639	32981	32852	33265	32695	33051	32617	32885	
1277	0	32605	32999	32787	33095	32749	32527	32612	32671	
1278	0	32679	32819	32647	32961	32562	32611	32903	32915	
1279	0	32785	32831	32754	32706	32533	32695	32590	32705	
1280	0	32838	32659	32679	32685	32639	32499	32647	32387	
1281	0	32832	32718	32657	32507	32735	32543	32551	32494	
1282	0	32836	32775	32679	32571	32741	32499	32639	32623	
1283	0	32831	32639	32711	32387	32595	32718	32516	32763	
1284	0	32884	32710	32615	32253	32551	32698	32719	32615	
1285	0	32835	32607	32663	32175	32583	32566	32605	32359	
1286	0	32881	32551	32743	32087	32749	32665	32700	32365	
1287	0	32847	32573	32723	32195	32548	32635	32535	32491	
1288	0	32825	32599	32615	32435	32623	32767	32743	32749	
1289	0	32742	32647	32731	32655	32551	33031	32775	32839	
1290	0	32706	32675	32721	32815	32815	32850	32662	32454	
1291	0	32682	32788	32900	33123	32967	32655	32423	32738	
1292	0	32799	32885	32795	33153	32903	32743	32647	32495	
1293	0	32730	32775	32914	33343	32660	32855	32659	32545	
1294	0	32788	32679	32785	33351	32727	32598	32621	32621	
1295	0	32762	32715	32890	33329	32775	32487	32674	33110	
1296	0	32791	32647	32775	33255	32862	32525	32869	33155	
1297	0	32724	32711	32767	33132	32892	32638	32805	33215	
1298	0	32742	32703	32799	32973	32759	32822	32993	33526	
1299	0	32876	32789	32815	32882	32882	32853	32566	32706	
1300	0	32900	32755	32789	32735	32731	32809	32503	31991	
1301	0	32832	32673	32669	32575	32701	33031	32507	32073	
1302	0	32799	32647	32613	32479	32590	33013	32531	32379	
1303	0	32767	32687	32711	32511	32695	32655	32527	32454	
1304	0	32703	32751	32554	32322	32559	32634	32647	32575	
1305	0	32751	32647	32668	32127	32794	32719	32644	32611	
1306	0	32810	32607	32717	32111	32671	32818	32678	32683	
1307	0	32902	32617	32677	32263	32687	32727	32669	32506	
1308	0	32886	32665	32671	32438	32507	32499	32599	32383	
1309	0	32805	32775	32703	32604	32627	32645	32685	32406	
1310	0	32700	32758	32802	32895	32932	32647	32615	32733	
1311	0	32608	32838	32703	33095	32859	32775	32927	32819	
1312	0	32525	32875	32711	33247	32775	32658	32919	32884	
1313	0	32534	32951	32739	33351	32775	32643	32823	32735	
1314	0	32526	32852	32909	33175	32903	32666	32487	32554	
1315	0	32633	32647	32804	33190	32753	32759	32731	32578	
1316	0	32678	32713	32863	33138	32775	32667	32751	32863	
1317	0	32727	32775	32809	33063	32807	32862	32690	32983	
1318	0	32742	32759	32874	32930	32915	32887	32529	32832	
1319	0	32764	32717	32707	32805	32627	32736	32823	32807	
1320	0	32796	32663	32811	32659	32688	32699	32684	32807	
1321	0	32808	32658	32775	32587	32793	32739	32810	32734	
1322	0	32867	32623	32796	32500	32733	32697	32438	32455	
1323	0	32915	32599	32791	32435	32867	32647	32487	32367	
1324	0	32902	32637	32709	32281	32949	32754	32783	32447	
1325	0	32936	32615	32603	32135	32533	32855	32703	32668	
1326	0	32950	32519	32725	32147	32759	32797	32747	32571	
1327	0	32824	32531	32556	32211	32519	32599	32527	32591	
1328	0	32824	32679	32731	32343	32855	32511	32644	32525	
1329	0	32813	32698	32775	32610	32615	32669	32695	32817	
1330	0	32699	32711	32663	32804	32711	32857	32853	32919	
1331	0	32582	32727	32685	33015	32791	32919	32531	32519	
1332	0	32581	32783	32707	33267	32835	32775	32595	32141	
1333	0	32557	32785	32774	33321	32831	32587	32787	32732	
1334	0	32592	32775	32677	33269	32517	32628	32866	32871	
1335	0	32611	32747	32691	33263	32743	32711	32647	32837	
1336	0	32678	32773	32809	33287	32559	32638	32820	32727	
1337	0	32708	32813	32886	33175	32844	32574	32687	32695	
1338	0	32727	32945	32831	32965	32775	32677	32583	32431	
1339	0	32734	32823	32758	32837	32797	32811	32579	32604	
1340	0	32778	32837	32683	32683	32975	32827	32487	32436	
1341	0	32850	32749	32775	32575	32791	32695	32556	32339	
1342	0	32796	32711	32815	32450	32839	32771	32679	32587	
1343	0	32844	32691	32647	32351	32875	32677	32557	32671	
1344	0	32812	32730	32669	32302	32836	32756	32487	32903	
1345	0	32783	32635	32519	32170	32762	32950	32718	32973	
1346	0	32821	32678	32583	32159	32700	32861	32690	32737	
1347	0	32809	32695	32611	32343	32876	32690	32495	32477	
1348	0	32812	32719	32746	32399	32791	32767	32567	32839	
1349	0	32822	32486	32764	32579	32785	32753	32727	32754	
1350	0	32788	32615	32647	32887	32903	32715	32700	32826	
1351	0	32765	32607	32847	33159	32775	32606	32759	32767	
1352	0	32795	32786	32879	33259	32773	32575	32559	32548	
1353	0	32717	32836	32787	33230	32795	32557	32679	32810	
1354	0	32711	32719	32818	33159	32665	32835	32817	32819	
1355	0	32709	32815	32753	33347	32607	32860	32731	32747	
1356	0	32628	32735	32901	33221	32567	32899	32891	32822	
1357	0	32698	32759	32711	33203	32495	32803	32687	32690	
1358	0	32714	32875	32751	33071	32629	32519	32671	32647	
1359	0	32788	32791	32765	32807	32551	32694	32791	32647	
1360	0	32828	32837	32647	32621	32503	32839	32725	32576	
1361	0	32782	32607	32707	32463	32559	32663	32454	32417	
1362	0	32843	32567	32749	32501	32663	32745	32613	32455	
1363	0	32911	32596	32598	32443	32903	32677	32756	32386	
1364	0	32934	32683	32659	32273	32827	32570	32786	32686	
1365	0	32865	32551	32674	32175	32773	32775	32799	32877	
1366	0	32858	32614	32711	32087	32809	32707	32775	32867	
1367	0	32870	32667	32557	32195	32878	32671	32687	32554	
1368	0	32799	32621	32693	32468	32775	32493	32685	32439	
1369	0	32698	32772	32647	32647	32831	32521	32422	32306	
1370	0	32718	32759	32779	32787	32635	32352	32459	32413	
1371	0	32609	32898	32843	32901	32487	32783	32636	32840	
1372	0	32607	32783	32809	33158	32609	32775	32703	33147	
1373	0	32510	32971	32803	33299	32879	32758	32690	33295	
1374	0	32587	32887	32924	33179	32947	32687	32607	32903	
1375	0	32652	32749	32673	33287	32734	33079	32846	32886	
1376	0	32662	32879	32733	33223	32740	33179	32551	32402	
1377	0	32610	32903	32829	33159	32962	32875	32615	32535	
1378	0	32731	32775	32647	32935	32846	32868	32739	32819	
1379	0	32827	32727	32791	32722	32804	32938	32813	32829	
1380	0	32783	32658	32789	32614	32963	32663	32633	32647	
1381	0	32790	32675	32775	32477	32791	32585	32455	32340	
1382	0	32822	32694	32620	32471	32685	32503	32551	32414	
1383	0	32843	32743	32749	32407	32711	32518	32667	32514	
1384	0	32817	32515	32713	32215	32663	32559	32703	32599	
1385	0	32861	32554	32683	32199	32717	32639	32811	32485	
1386	0	32890	32606	32555	32159	32719	32623	32661	32425	
1387	0	32877	32527	32727	32175	32843	32683	32381	32166	
1388	0	32803	32687	32675	32318	32823	32625	32479	32227	
1389	0	32791	32699	32743	32619	32775	32700	32647	32783	
1390	0	32780	32665	32813	32823	32735	32796	32807	33031	
1391	0	32676	32855	32676	32951	32519	32759	32763	32735	
1392	0	32678	32837	32807	33270	33005	32607	32354	32375	
1393	0	32652	32924	32811	33346	32852	32812	32739	33047	
1394	0	32656	32763	32883	33198	32555	32942	32823	33348	
1395	0	32714	32829	32763	33287	32727	32867	32631	32903	
1396	0	32674	32943	32738	33247	32973	32634	32510	32563	
1397	0	32674	32831	32815	32979	32851	32541	33104	33063	
1398	0	32734	32811	32839	32927	32915	32519	33027	32775	
1399	0	32774	32791	32775	32788	32989	32487	32735	32319	
1400	0	32843	32606	32668	32666	32763	32643	32735	32617	
1401	0	32876	32535	32822	32618	32615	32753	32647	32638	
1402	0	32809	32694	32711	32467	33010	32966	32425	32169	
1403	0	32831	32655	32583	32530	33041	33246	32302	32155	
1404	0	32921	32647	32695	32359	32891	33199	32530	32709	
1405	0	32900	32679	32703	32239	32775	33019	32402	32794	
1406	0	32908	32599	32609	32155	32731	32631	32571	32900	
1407	0	32852	32727	32605	32333	32950	32573	32563	32574	
1408	0	32775	32751	32675	32450	32966	32617	32590	32411	
1409	0	32712	32695	32709	32587	32759	32759	32700	32775	
1410	0	32668	32887	32605	32735	32567	32615	32847	32805	
1411	0	32659	32903	32783	33058	32675	32623	32610	32911	
1412	0	32644	32851	32882	33149	33069	32575	32684	32758	
1413	0	32555	32919	32751	33306	33119	32599	32575	32583	
1414	0	32535	32863	32734	33215	32916	32617	32698	32621	
1415	0	32658	32815	32825	33243	32891	32694	32573	32485	
1416	0	32670	32834	32826	33247	32740	32647	32538	32627	
1417	0	32663	32775	32703	33007	32599	32759	32671	32749	
1418	0	32673	32643	32767	32919	32554	32771	32820	32743	
1419	0	32705	32701	32728	32823	32645	32775	32854	32718	
1420	0	32783	32679	32612	32641	32804	32621	32751	32455	
1421	0	32799	32666	32702	32606	32583	32823	32723	32628	
1422	0	32858	32647	32695	32463	32423	32903	32935	32723	
1423	0	32890	32466	32695	32399	32495	32927	32703	32678	
1424	0	32846	32595	32558	32189	32599	32963	32671	32967	
1425	0	32882	32645	32700	32127	32578	32647	32705	32845	
1426	0	32945	32571	32679	32035	32707	32378	32583	32669	
1427	0	32996	32641	32690	32353	32691	32434	32647	32647	
1428	0	32986	32606	32574	32485	32765	32687	32831	33081	
1429	0	32937	32598	32807	32532	32803	32683	32767	32791	
1430	0	32928	32717	32773	32820	32717	32742	32884	32935	
1431	0	32810	32831	32799	33010	32879	32775	32531	32557	
1432	0	32791	32804	32797	33215	32655	32485	32600	32263	
1433	0	32667	32914	32843	33174	32658	32681	32479	32197	
1434	0	32556	32914	32727	33298	32775	32989	32426	32351	
1435	0	32623	32882	32869	33206	32775	32670	32727	32738	
1436	0	32690	32703	32807	33287	32745	32924	32679	32642	
1437	0	32669	32815	32833	33095	32581	32978	32697	32380	
1438	0	32686	32823	32694	32935	32775	32617	32503	32443	
1439	0	32763	32625	32743	32891	32695	32728	32700	32815	
1440	0	32716	32671	32813	32701	32535	32925	32733	33079	
1441	0	32681	32615	32621	32564	32599	32677	32555	32659	
1442	0	32775	32647	32599	32525	32819	32555	32714	32599	
1443	0	32775	32676	32807	32411	32743	32694	32627	32699	
1444	0	32730	32615	32623	32290	32871	32703	32751	32557	
1445	0	32748	32679	32603	32251	33060	32587	32371	32452	
1446	0	32842	32669	32703	32124	32711	32615	32420	32525	
1447	0	32749	32629	32647	32231	32731	32919	32785	32959	
1448	0	32838	32667	32671	32353	32686	32819	32711	32742	
1449	0	32786	32667	32566	32572	32599	32739	32819	32751	
1450	0	32681	32791	32590	32775	32868	32665	32763	32703	
1451	0	32708	32811	32612	32987	32749	32575	32415	32311	
1452	0	32735	32825	32802	33217	32714	32803	32668	32641	
1453	0	32700	32884	32869	33317	32642	32783	32668	32743	
1454	0	32703	32999	32839	33325	32903	32723	32626	32575	
1455	0	32654	32941	32818	33317	32871	32759	32775	32965	
1456	0	32643	33003	32775	33266	32563	32823	32623	32967	
1457	0	32698	32903	32686	33083	32834	32645	32615	32687	
1458	0	32784	32753	32839	33029	32945	32678	32575	32710	
1459	0	32786	32775	32811	32895	32679	32764	32807	32743	
1460	0	32879	32691	32647	32815	32759	32583	32729	32533	
1461	0	32871	32639	32659	32669	32775	32499	32643	32607	
1462	0	32876	32679	32749	32590	32746	32691	32762	32749	
1463	0	32903	32647	32706	32442	32837	32759	32637	32669	
1464	0	32865	32555	32701	32247	32739	32743	32735	32719	
1465	0	32886	32518	32674	32218	32739	32995	32871	32989	
1466	0	32865	32605	32574	32187	32655	32993	32629	32359	
1467	0	32828	32607	32583	32255	32775	32903	32677	32445	
1468	0	32864	32607	32775	32415	32631	32601	32615	32589	
1469	0	32766	32751	32743	32612	33062	32293	32540	32223	
1470	0	32768	32807	32818	32871	32751	32585	32551	32637	
1471	0	32668	32717	32742	33101	32609	32891	32703	32929	
1472	0	32698	32751	32867	33191	32725	32911	32891	33283	
1473	0	32658	32823	32796	33203	32767	32786	32813	32759	
1474	0	32654	32919	32947	33195	32991	32521	32461	32471	
1475	0	32628	32897	32883	33207	32647	32726	32567	32427	
1476	0	32660	32807	32839	33159	32807	32647	32591	32407	
1477	0	32679	32747	32807	32999	32853	32594	32503	32335	
1478	0	32700	32756	32685	32903	32838	32565	32605	32383	
1479	0	32673	32771	32775	32775	32795	32699	32703	32603	
1480	0	32707	32703	32775	32557	32565	32748	32798	32839	
1481	0	32698	32647	32663	32523	32873	32629	32687	32679	
1482	0	32785	32659	32804	32517	32607	32805	32802	32903	
1483	0	32803	32713	32577	32399	32742	32621	32679	32884	
1484	0	32868	32719	32749	32343	32860	32431	32885	32914	
1485	0	32894	32711	32537	32221	32911	32621	32943	32819	
1486	0	32929	32687	32735	32096	32951	32679	32570	32463	
1487	0	32940	32573	32673	32244	33015	32630	32671	32647	
1488	0	32886	32647	32690	32371	32523	32667	32674	32711	
1489	0	32809	32739	32727	32586	32749	32871	32475	32498	
1490	0	32673	32747	32615	32841	32727	33041	32475	32391	
1491	0	32655	32795	32839	33103	32963	33026	32398	32444	
1492	0	32621	32775	32773	33223	32781	33114	32559	32857	
1493	0	32626	32775	32859	33185	32626	32962	32844	33183	
1494	0	32653	32807	32720	33191	32807	32541	32658	32766	
1495	0	32644	32877	32871	33255	32719	32375	32545	32391	
1496	0	32663	32911	32752	33207	32734	32508	32821	32633	
1497	0	32665	32759	32775	33117	32474	32691	32726	32572	
1498	0	32692	32643	32755	32918	32695	32637	32751	32595	
1499	0	32795	32645	32531	32751	32679	32629	32459	32471	
1500	0	32824	32690	32711	32591	32732	32751	32659	32441	
1501	0	32890	32609	32771	32501	32579	32659	32775	32674	
1502	0	32892	32622	32703	32381	32887	32543	32531	32366	
1503	0	32794	32703	32738	32327	32812	32573	32613	32455	
1504	0	32805	32655	32754	32316	32814	32647	32629	32515	
1505	0	32876	32587	32582	32227	32655	32663	32814	32827	
1506	0	32903	32539	32534	32125	32757	32839	32647	32709	
1507	0	32867	32566	32751	32283	32876	32839	32613	32677	
1508	0	32813	32534	32789	32519	32803	32787	32679	32775	
1509	0	32786	32645	32783	32574	32887	32573	32662	32899	
1510	0	32784	32749	32799	32710	32811	32549	32461	32642	
1511	0	32722	32775	32819	33039	32812	32705	32643	32429	
1512	0	32663	32839	32879	33181	32705	32743	32815	32775	
1513	0	32629	32839	32867	33238	32574	32647	32711	32959	
1514	0	32586	32855	32897	33220	32753	32523	32820	32803	
1515	0	32708	32863	32745	33159	32599	32701	32841	32876	
1516	0	32628	32823	32787	33231	32795	32791	32587	32715	
1517	0	32729	32815	32807	33107	32663	32692	32698	32679	
1518	0	32834	32742	32762	32926	32683	32734	32720	32786	
1519	0	32989	32599	32771	32807	32514	33199	32483	32641	
1520	0	32930	32643	32719	32663	32767	33133	32391	32629	
1521	0	32856	32731	32704	32599	32715	32747	32631	32562	
1522	0	32858	32751	32723	32522	32964	32570	32605	32630	
1523	0	32826	32687	32682	32487	32799	32639	32471	32391	
1524	0	32802	32571	32741	32351	32903	32759	32591	32391	
1525	0	32759	32623	32707	32287	32639	32903	32942	32838	
1526	0	32803	32519	32667	32280	32631	32835	32807	33143	
1527	0	32774	32463	32567	32386	32631	32714	33051	33197	
1528	0	32764	32583	32527	32513	32679	32593	32863	32823	
1529	0	32646	32639	32699	32715	32829	32591	32479	32463	
1530	0	32642	32645	32812	32863	32522	32685	32767	32327	
1531	0	32620	32871	32851	33067	33001	32447	32567	32157	
1532	0	32573	32883	32771	33171	33287	31947	32367	31895	
1533	0	32623	32883	32827	33159	32935	32589	32374	32251	
1534	0	32663	32828	32811	33189	32401	32975	32751	32914	
1535	0	32730	32749	32702	33127	32543	33055	33023	33615	
1536	0	32694	32813	32711	33111	32583	32999	32887	33173	
1537	0	32764	32797	32886	32965	32775	32903	32602	33067	
1538	0	32812	32807	32803	32963	32638	32895	32785	33038	
1539	0	32738	32743	32679	32766	32727	32711	32586	32472	
1540	0	32814	32687	32694	32647	32852	32683	32595	32415	
1541	0	32823	32601	32847	32543	32802	32537	32667	32519	
1542	0	32759	32694	32795	32525	32803	32767	32579	32890	
1543	0	32762	32797	32662	32495	32747	32793	32630	32607	
1544	0	32850	32775	32727	32239	32597	32807	32863	32711	
1545	0	32742	32799	32669	32071	32711	32839	32655	32643	
1546	0	32742	32765	32679	32186	32754	32646	32685	32483	
1547	0	32662	32715	32715	32380	32953	32493	32614	32431	
1548	0	32711	32687	32595	32437	32758	32621	32519	32547	
1549	0	32756	32813	32869	32669	32775	32531	32695	32543	
1550	0	32745	32829	32835	32863	32719	32533	32633	32338	
1551	0	32767	32615	32815	33074	32695	32861	32647	32757	
1552	0	32754	32767	32699	33079	32679	32765	32671	32923	
1553	0	32740	32821	32775	33179	32723	32751	32619	32923	
1554	0	32734	32718	32839	33207	32668	32709	32544	32903	
1555	0	32737	32759	32823	33147	32711	32775	32725	32757	
1556	0	32712	32689	32855	33297	32775	32812	32583	32589	
1557	0	32774	32807	32812	33042	32863	32623	32723	32406	
1558	0	32833	32775	32647	33019	32695	32766	32647	32662	
1559	0	32796	32647	32759	32835	32634	32734	32817	32723	
1560	0	32827	32679	32763	32727	32727	32587	32647	32629	
1561	0	32817	32637	32676	32611	32763	32753	32754	32538	
1562	0	32807	32709	32823	32447	32871	32762	32539	32559	
1563	0	32809	32719	32735	32418	32923	32591	32739	32652	
1564	0	32844	32615	32743	32315	32859	32709	32803	32684	
1565	0	32879	32642	32703	32295	32871	32563	32751	32465	
1566	0	32847	32489	32690	32133	32879	32595	32601	32407	
1567	0	32892	32575	32726	32301	32765	32531	32599	32479	
1568	0	32861	32647	32596	32477	32903	32507	32630	32646	
1569	0	32850	32551	32815	32564	33055	32626	32499	32850	
1570	0	32834	32700	32775	32813	32863	32871	32608	33095	
1571	0	32682	32775	32679	32951	32876	33187	32381	32603	
1572	0	32679	32899	32687	33179	32855	33135	32551	32247	
1573	0	32644	32870	32759	33197	32863	32647	32726	32501	
1574	0	32655	32919	32855	33172	32646	32663	32820	32775	
1575	0	32594	32758	32817	33167	32606	32605	32663	32853	
1576	0	32647	32911	32700	33222	32755	32657	32732	32621	
1577	0	32639	32859	32727	32999	32771	32482	32471	32487	
1578	0	32642	32749	32645	32918	32799	32967	32518	32753	
1579	0	32646	32803	32759	32743	32919	33175	32541	32951	
1580	0	32743	32853	32583	32663	32839	33035	32894	32959	
1581	0	32763	32705	32694	32579	32708	32733	32887	33159	
1582	0	32800	32727	32737	32497	32789	32588	32535	32629	
1583	0	32836	32703	32749	32518	32871	32758	32530	32276	
1584	0	32871	32677	32623	32294	32935	32559	32553	32039	
1585	0	32968	32671	32775	32263	32636	32621	32754	32365	
1586	0	32892	32771	32711	32283	32527	32742	32811	33095	
1587	0	32845	32615	32727	32297	32517	32849	32847	33031	
1588	0	32753	32758	32701	32501	32933	32399	32727	32671	
1589	0	32767	32703	32707	32645	32785	32703	32639	32647	
1590	0	32712	32663	32775	32783	32786	32818	32788	32775	
1591	0	32686	32741	32877	32939	32679	32775	32765	32724	
1592	0	32679	32801	32715	33007	32615	32653	32719	32539	
1593	0	32647	32717	32871	33207	32703	32516	32815	32579	
1594	0	32771	32813	32791	33172	32749	32743	32581	32669	
1595	0	32646	32770	32839	33146	32852	32791	32571	32865	
1596	0	32754	32786	32739	33230	32926	32775	32723	32523	
1597	0	32742	32902	32855	33117	33154	32359	32566	32187	
1598	0	32780	32805	32807	32891	33178	32293	32547	32066	
1599	0	32732	32845	32658	32647	33062	32619	32431	32663	
1600	0	32793	32823	32775	32673	32855	32813	32676	33063	
1601	0	32800	32723	32807	32559	32711	33057	32722	32983	
1602	0	32783	32797	32631	32619	32717	33010	32767	32914	
1603	0	32806	32607	32611	32495	32713	32935	32757	32936	
1604	0	32795	32587	32719	32319	32611	32879	32599	33046	
1605	0	32884	32599	32721	32356	32773	32591	32679	32662	
1606	0	32834	32470	32575	32191	32995	32481	32615	32543	
1607	0	32849	32642	32717	32383	32807	32410	32751	32799	
1608	0	32801	32683	32631	32418	32789	32743	32643	33069	
1609	0	32805	32631	32678	32647	32765	33127	32433	32951	
1610	0	32787	32795	32731	32741	32665	32895	32550	32506	
1611	0	32771	32698	32827	32966	32687	32647	32643	32170	
1612	0	32749	32684	32866	33127	32632	32627	32759	32487	
1613	0	32740	32807	32735	33175	32583	32835	32623	33129	
1614	0	32722	32775	32903	33191	32527	32934	32703	32986	
1615	0	32694	32887	32838	33143	32503	32699	32775	32899	
1616	0	32671	32871	32660	33223	32514	32619	32847	32671	
1617	0	32662	32767	32769	33039	32579	32831	32571	32150	
1618	0	32706	32797	32794	32964	32863	32571	32463	32307	
1619	0	32724	32775	32658	32835	32831	32525	32799	32901	
1620	0	32800	32765	32769	32671	32741	32615	32743	32798	
1621	0	32813	32735	32799	32657	32862	32719	32503	32021	
1622	0	32834	32580	32807	32501	32751	32702	32610	32357	
1623	0	32750	32597	32550	32447	32687	32959	32551	32663	
1624	0	32758	32695	32832	32354	32717	32882	32701	33023	
1625	0	32842	32643	32671	32165	32887	32573	32667	32707	
1626	0	32780	32630	32691	32221	32877	32751	32702	32818	
1627	0	32749	32683	32591	32205	32713	32865	32694	32517	
1628	0	32769	32628	32686	32447	32826	32559	32587	32375	
1629	0	32711	32628	32769	32625	32839	32631	32615	32379	
1630	0	32700	32775	32743	32807	32759	32875	32639	32668	
1631	0	32673	32831	32765	32971	32751	32859	32619	33014	
1632	0	32620	32891	32759	33124	32723	32959	32723	33274	
1633	0	32647	33111	32807	33255	32787	32642	32667	32844	
1634	0	32629	33013	32755	33255	32583	32495	32799	32599	
1635	0	32691	33007	32887	33279	32829	32298	32535	32349	
1636	0	32662	32903	32749	33213	32899	32516	32507	32487	
1637	0	32675	33023	32894	33095	32687	32847	32855	32903	
1638	0	32647	33001	32811	33042	32693	32607	32741	32603	
1639	0	32686	32835	32731	32875	32723	32503	32756	32460	
1640	0	32624	32871	32733	32775	32807	32564	32655	32487	
1641	0	32556	32879	32763	32615	32814	32963	32404	32571	
1642	0	32487	32765	32559	32446	32831	32978	32535	32703	
1643	0	32470	32699	32747	32412	32775	33174	32727	33119	
1644	0	32422	32708	32745	32299	32786	33246	32961	33194	
1645	0	32439	32591	32543	32199	32882	32873	32975	33053	
1646	0	32481	32467	32564	32171	32790	32757	32850	32661	
1647	0	32524	32411	32518	32251	32823	32457	32564	32081	
1648	0	32443	32428	32563	32390	32811	32255	32644	32197	
1649	0	32477	32470	32575	32413	32571	32730	32886	32971	
1650	0	32455	32538	32615	32623	32451	33047	33133	33622	
1651	0	32378	32455	32631	32747	32591	32762	32775	32767	
1652	0	32431	32475	32658	33006	32775	32455	32839	32213	
1653	0	32534	32359	32635	33074	32695	32446	32963	32477	
1654	0	32602	32263	32490	33095	32684	32657	32982	32491	
1655	0	32604	32299	32631	33053	32871	32483	32609	32319	
1656	0	32614	32255	32643	32996	32763	32843	32886	32735	
1657	0	32663	32383	32635	32919	32811	32683	32578	32495	
1658	0	32855	32181	32707	32871	32733	32455	32766	32388	
1659	0	33082	32031	32687	32791	32754	32509	32647	32383	
1660	0	33197	32183	32549	32763	32690	32553	32957	32522	
1661	0	33445	32086	32690	32587	32645	32730	32683	32571	
1662	0	33650	31973	32731	32615	32607	32730	32718	32461	
1663	0	33821	32002	32590	32481	32362	32813	32598	32551	
1664	0	33919	31951	32717	32459	32599	32823	32466	32711	
1665	0	33833	32135	32839	32315	33107	33063	32190	32754	
1666	0	33641	32383	32683	32327	33223	32923	32276	32495	
1667	0	33562	32443	32890	32359	33008	32813	32565	32709	
1668	0	33287	32815	32919	32539	32839	32743	32590	32903	
1669	0	32939	33172	32969	32679	32687	32878	32620	32791	
1670	0	32725	33203	32884	32869	32662	32893	32533	32695	
1671	0	32684	33318	33065	33047	32691	32769	32571	32807	
1672	0	32628	33437	33018	33223	32637	32615	32321	32639	
1673	0	32766	33236	32943	33266	32467	32571	32477	32675	
1674	0	32850	33369	33063	33204	32581	32735	32409	32634	
1675	0	32898	33571	33060	33343	32747	32749	32361	32775	
1676	0	32913	33495	33075	33267	32867	32653	32524	32974	
1677	0	33030	33575	32971	33283	32743	32743	32476	32871	
1678	0	33138	33620	32966	33099	32697	32647	32519	32587	
1679	0	33271	33351	32989	33015	32686	32660	32411	32431	
1680	0	33359	33323	32917	32903	32645	32687	32269	32827	
1681	0	33391	32994	32821	32765	32554	32751	32314	32887	
1682	0	33422	32695	32945	32679	32759	32566	32451	32818	
1683	0	33257	32742	32858	32599	33023	32378	32343	32647	
1684	0	33058	32929	32803	32495	32917	32435	32655	33077	
1685	0	32941	33007	32671	32402	32610	32757	32885	33331	
1686	0	32783	33039	32690	32186	32710	33042	32775	33023	
1687	0	32673	33212	32681	32291	32735	33137	32751	32855	
1688	0	32614	33063	32743	32421	32722	32806	32901	32889	
1689	0	32483	32865	32745	32439	32818	32367	32971	32789	
1690	0	32375	32747	32580	32803	32807	32535	32721	32355	
1691	0	32262	32659	32687	32949	32699	32643	32674	32353	
1692	0	32176	32630	32755	33040	32635	32767	32545	32293	
1693	0	32228	32470	32727	33119	32635	32903	32621	32271	
1694	0	32263	32513	32622	33107	32764	32959	32567	32461	
1695	0	32210	32679	32647	33123	32831	33095	32745	32748	
1696	0	32214	32655	32738	32967	32661	32831	32797	32747	
1697	0	32223	32637	32643	33031	32687	32558	32885	32623	
1698	0	32237	32671	32597	32879	32614	32337	32862	32647	
1699	0	32271	32615	32719	32809	32587	32595	32551	32717	
1700	0	32322	32803	32687	32589	32509	33057	32751	32671	
1701	0	32402	32823	32707	32538	32759	32802	32679	32236	
1702	0	32479	32643	32583	32487	32815	32487	32783	32191	
1703	0	32500	32759	32685	32314	32628	32759	32994	32709	
1704	0	32505	32791	32701	32362	32647	32727	32790	32831	
1705	0	32553	32647	32557	32150	32501	32637	32871	32673	
1706	0	32595	32749	32647	32125	32593	32759	32898	32727	
1707	0	32598	32718	32603	32259	32511	32710	32869	32644	
1708	0	32543	32719	32685	32390	32751	32723	32735	32367	
1709	0	32506	32782	32694	32639	32848	32699	32747	32445	
1710	0	32538	32923	32647	32647	32714	32577	32647	32793	
1711	0	32598	32815	32730	32922	32691	32411	32739	32895	
1712	0	32703	32701	32679	33140	32564	32775	32850	33415	
1713	0	32647	32878	32667	33144	32663	32745	32743	32992	
1714	0	32652	32879	32783	33180	32918	32741	32631	32379	
1715	0	32733	32732	32919	33211	32935	32869	32439	32221	
1716	0	32811	32763	32679	33223	32841	33069	32330	32159	
1717	0	32843	32775	32843	33183	32894	32836	32477	32259	
1718	0	32868	32593	32811	32903	32957	32638	32579	32668	
1719	0	32806	32743	32836	32867	32775	32695	32755	32634	
1720	0	32863	32743	32757	32685	32609	32731	32771	32796	
1721	0	32903	32655	32805	32621	32490	32631	32723	32759	
1722	0	32927	32586	32743	32599	32635	32471	32844	32655	
1723	0	32887	32658	32723	32479	32826	32620	32579	32835	
1724	0	32852	32605	32575	32535	32795	32935	32647	33046	
1725	0	32838	32660	32629	32196	32701	33101	32775	33478	
1726	0	32871	32603	32733	32291	32775	32793	32511	32737	
1727	0	32877	32642	32700	32271	32803	32577	32623	32311	
1728	0	32926	32455	32642	32463	32681	32605	32617	32236	
1729	0	32823	32619	32695	32607	32931	32535	32527	32535	
1730	0	32791	32644	32811	32711	32967	32663	32565	32845	
1731	0	32734	32603	32725	32941	33041	32583	32406	32497	
1732	0	32647	32739	32827	33057	32959	32551	32647	32382	
1733	0	32647	32871	32795	33178	32765	32775	32775	32951	
1734	0	32665	32749	32877	33167	32607	32939	32727	32879	
1735	0	32721	32669	32786	33103	32683	32735	32607	32647	
1736	0	32820	32733	32797	33203	32587	32698	32802	32694	
1737	0	32893	32727	32707	33083	32465	32595	32929	32919	
1738	0	32826	32615	32733	33031	32681	32647	32667	33391	
1739	0	32825	32709	32671	32839	32535	32570	32983	33159	
1740	0	32807	32715	32749	32736	32571	32489	32783	32612	
1741	0	32845	32596	32807	32647	32467	32758	32690	32451	
1742	0	32842	32596	32711	32505	32593	33119	32417	32285	
1743	0	32739	32639	32609	32531	32976	33159	32412	32519	
1744	0	32759	32580	32741	32319	33015	33047	32642	32844	
1745	0	32882	32671	32786	32299	33036	32703	32715	32849	
1746	0	32914	32647	32615	32151	32903	32469	32591	32583	
1747	0	32924	32561	32707	32254	32818	32601	32601	32407	
1748	0	32861	32685	32711	32407	32671	32742	32556	32519	
1749	0	32799	32775	32552	32607	32711	32734	32645	32541	
1750	0	32721	32739	32743	32758	32869	32708	32647	32509	
1751	0	32698	32811	32831	32999	32854	32391	32455	32479	
1752	0	32620	32794	32631	33037	32702	32503	32427	32414	
1753	0	32657	32821	32743	33148	32743	32575	32509	32253	
1754	0	32601	32873	32749	33203	32917	32647	32539	32164	
1755	0	32671	32823	32850	33191	32748	32722	32898	32751	
1756	0	32765	32785	32794	33223	32631	32869	32845	33059	
1757	0	32735	32775	32764	33095	32695	32786	32867	32844	
1758	0	32761	32713	32843	33033	32863	32517	32628	32739	
1759	0	32687	32725	32691	32815	32756	32578	32861	33207	
1760	0	32868	32703	32831	32803	32742	32563	32578	32775	
1761	0	32924	32551	32815	32571	32749	32679	32722	32796	
1762	0	32834	32633	32695	32527	32711	32805	32815	33014	
1763	0	32784	32695	32749	32599	32789	32874	32706	32628	
1764	0	32816	32679	32775	32334	32775	32766	32647	32647	
1765	0	32863	32539	32749	32295	32681	32759	32731	32596	
1766	0	32914	32559	32606	32050	32525	32827	32796	32647	
1767	0	32799	32621	32759	32218	32734	32537	32686	32587	
1768	0	32681	32832	32803	32263	32903	32774	32475	32695	
1769	0	32669	32727	32728	32487	32951	32647	32512	32439	
1770	0	32627	32790	32671	32783	32839	32525	32546	32191	
1771	0	32640	32831	32747	32903	32999	32775	32303	32031	
1772	0	32594	32877	32815	33167	32918	33021	32585	32231	
1773	0	32677	32701	32756	33143	32790	32901	32591	32470	
1774	0	32647	32815	32692	33221	32691	32771	32711	33047	
1775	0	32657	32831	32791	33245	32367	32932	32887	33270	
1776	0	32773	32629	32758	33229	32587	32903	32811	33011	
1777	0	32823	32806	32761	33182	32800	32695	32612	32647	
1778	0	32795	32756	32751	33019	33271	32511	32431	32284	
1779	0	32866	32623	32771	32796	33111	32413	32619	32487	
1780	0	32924	32591	32588	32693	32575	32809	32882	32799	
1781	0	32951	32597	32773	32518	32386	33003	32973	33135	
1782	0	32873	32583	32722	32566	32499	32875	32549	32732	
1783	0	32900	32767	32641	32477	32795	32734	32634	32823	
1784	0	32860	32759	32626	32461	33019	32500	32691	32679	
1785	0	32866	32718	32691	32335	32854	32615	32627	32524	
1786	0	32899	32775	32699	32185	32617	32691	32626	32307	
1787	0	32920	32671	32677	32331	32671	32335	32765	32578	
1788	0	32745	32771	32679	32471	32738	32287	32875	32895	
1789	0	32690	32797	32553	32519	32734	32623	32751	32935	
1790	0	32676	32617	32717	32819	32751	32875	32711	32687	
1791	0	32634	32735	32827	32867	32598	32721	32551	32311	
1792	0	32647	32647	32647	33095	32695	32617	32495	32303	
1793	0	32647	32819	32834	33077	32598	32615	32391	32455	
1794	0	32621	32903	32885	33271	32533	33213	32639	32825	
1795	0	32614	32823	32839	33171	32647	33271	32295	32263	
1796	0	32503	32895	32886	33271	32751	32998	32295	32428	
1797	0	32591	32805	32707	33095	32647	32994	32765	32925	
1798	0	32676	32919	32861	33039	32679	32703	32711	32711	
1799	0	32786	32703	32813	33004	32700	32478	32749	32587	
1800	0	32861	32647	32815	32854	32388	32913	32970	33183	
1801	0	32766	32743	32795	32598	32635	32731	32798	32757	
1802	0	32806	32551	32679	32511	32809	32434	32757	32759	
1803	0	32854	32611	32771	32399	32683	32399	32751	32725	
1804	0	32876	32610	32637	32239	32743	32519	32498	32647	
1805	0	32831	32462	32647	32233	32655	32835	32575	32627	
1806	0	32894	32647	32695	32065	32611	33080	32551	32516	
1807	0	32821	32623	32615	32231	32580	32959	32547	32207	
1808	0	32814	32667	32759	32308	32647	32551	32738	32571	
1809	0	32762	32642	32833	32535	32887	32429	32615	32375	
1810	0	32657	32671	32652	32791	33083	32447	32467	32562	
1811	0	32658	32747	32671	32861	32771	32615	32700	32837	
1812	0	32677	32807	32834	33124	32615	32695	32627	32637	
1813	0	32630	32749	32767	33201	32671	32663	32763	32507	
1814	0	32743	32871	32799	33252	32745	32748	32957	32933	
1815	0	32671	32927	32870	33172	32670	32559	32847	33031	
1816	0	32671	32827	32711	33239	32527	32787	32751	33026	
1817	0	32722	32871	32801	33135	32529	32943	32771	32507	
1818	0	32706	32771	32821	33055	32791	32543	32599	32172	
1819	0	32694	32783	32659	32821	32895	32466	32445	32244	
1820	0	32850	32707	32707	32735	32830	32439	32370	32237	
1821	0	32762	32566	32647	32531	32773	32770	32579	32735	
1822	0	32823	32671	32743	32567	32671	33015	32771	33221	
1823	0	32792	32647	32602	32543	32655	32891	32870	33022	
1824	0	32834	32643	32683	32371	32788	32611	32727	32863	
1825	0	32850	32527	32745	32326	32751	32736	32731	32796	
1826	0	32824	32655	32717	32175	32742	32735	32795	32735	
1827	0	32793	32696	32711	32167	32752	32723	32647	32555	
1828	0	32767	32561	32543	32436	32866	32567	32685	32359	
1829	0	32819	32663	32743	32535	32733	32685	32749	32631	
1830	0	32737	32759	32701	32823	32653	32689	32754	32583	
1831	0	32788	32709	32791	32965	32831	32711	32564	32471	
1832	0	32694	32615	32747	33021	32919	32787	32347	32666	
1833	0	32655	32827	32775	33181	32647	33095	32559	32866	
1834	0	32760	32903	32726	33122	32615	32951	32638	32982	
1835	0	32773	32850	32801	33238	32479	33011	32901	33303	
1836	0	32641	32916	32673	33215	32807	32717	32902	33127	
1837	0	32590	33003	32823	33165	33079	32277	32409	32751	
1838	0	32739	32769	32834	32971	32814	32425	32763	32852	
1839	0	32810	32774	32835	32756	32681	32591	33130	32911	
1840	0	32671	32926	32828	32735	32835	32535	32715	32186	
1841	0	32763	32775	32639	32645	32989	32547	32454	32003	
1842	0	32841	32615	32839	32525	32711	32824	32660	32454	
1843	0	32892	32659	32807	32514	32403	33231	32558	32622	
1844	0	32802	32741	32791	32365	32734	32879	32389	32479	
1845	0	32828	32617	32599	32297	33001	32343	32530	32383	
1846	0	32797	32734	32659	32173	32985	32159	32534	32359	
1847	0	32843	32679	32643	32157	32847	32531	32735	32679	
1848	0	32901	32531	32675	32380	32617	33183	32690	32611	
1849	0	32848	32643	32627	32505	32585	33203	32607	32740	
1850	0	32799	32627	32594	32763	32679	32957	32663	32675	
1851	0	32754	32695	32599	32935	32533	32775	32759	32718	
1852	0	32775	32718	32647	33175	32637	32739	32845	32743	
1853	0	32743	32807	32850	33274	32939	32534	32615	32738	
1854	0	32661	32790	32758	33227	32851	32711	32694	33265	
1855	0	32698	32826	32723	33175	32691	32931	32727	33365	
1856	0	32641	32771	32787	33187	32694	32703	32855	32883	
1857	0	32711	32852	32711	33159	32459	32598	32769	32695	
1858	0	32818	32733	32813	32971	32556	32834	32763	33022	
1859	0	32761	32725	32715	32834	32437	32684	32766	32548	
1860	0	32799	32671	32684	32775	32943	32445	32583	32399	
1861	0	32814	32596	32767	32660	32998	32501	32511	32481	
1862	0	32822	32670	32815	32534	32967	32894	32511	32447	
1863	0	32805	32671	32754	32405	32954	32775	32407	32199	
1864	0	32766	32607	32623	32418	32783	32647	32695	32607	
1865	0	32775	32599	32741	32256	32933	32702	32647	32903	
1866	0	32796	32711	32613	32153	33140	32979	32343	32318	
1867	0	32877	32695	32658	32148	32981	33031	32359	32311	
1868	0	32897	32663	32742	32315	33043	32667	32487	32231	
1869	0	32743	32671	32647	32557	32796	32615	32694	32555	
1870	0	32766	32703	32807	32645	32621	32723	32823	32773	
1871	0	32668	32811	32821	32923	32727	32591	32765	32978	
1872	0	32615	32895	32695	33055	32582	32583	33071	33271	
1873	0	32608	32723	32986	33175	32231	32789	33174	33171	
1874	0	32745	32775	32927	33135	32201	32723	32898	32639	
1875	0	32755	32786	32903	33179	32891	32686	32631	32493	
1876	0	32673	32660	32927	33159	33308	32470	32382	32514	
1877	0	32666	32718	32817	33113	32807	32670	32635	32787	
1878	0	32681	32675	32849	32925	32423	32797	32727	32858	
1879	0	32814	32748	32765	32911	32309	32879	32765	32590	
1880	0	32816	32775	32770	32789	32450	32943	32480	32190	
1881	0	32847	32615	32799	32716	32753	32756	32623	32439	
1882	0	32835	32711	32599	32554	32715	32594	32690	32676	
1883	0	32902	32767	32799	32530	32447	32751	32839	32912	
1884	0	32854	32613	32690	32327	32382	32814	32748	33003	
1885	0	32834	32630	32644	32223	32475	32947	32911	33121	
1886	0	32736	32663	32690	32179	32715	32669	32601	32349	
1887	0	32819	32762	32595	32285	33046	32412	32581	32199	
1888	0	32805	32721	32638	32441	32871	32647	32647	32127	
1889	0	32764	32732	32669	32562	32871	32694	32391	32230	
1890	0	32766	32771	32747	32690	32660	32834	32591	32759	
1891	0	32724	32811	32755	32923	32705	32759	32498	32866	
1892	0	32672	32807	32884	33158	32895	32855	32574	32900	
1893	0	32647	32855	32695	33215	32924	32565	32875	32788	
1894	0	32659	32971	32763	33285	32985	32557	32491	32749	
1895	0	32609	32967	32895	33223	32683	32743	32557	32767	
1896	0	32716	32773	32898	33269	32708	32791	32863	32825	
1897	0	32818	32847	32719	33083	32875	32673	32671	32527	
1898	0	32868	32875	32828	33005	32827	32722	32703	32628	
1899	0	32813	32711	32733	32865	32713	32703	32661	32811	
1900	0	32912	32717	32789	32719	32637	32471	32530	32545	
1901	0	32828	32767	32643	32687	32557	32752	32543	32322	
1902	0	32877	32647	32805	32583	32448	32827	32681	32992	
1903	0	32839	32705	32775	32577	32519	32493	32612	32703	
1904	0	32839	32705	32837	32499	32631	32663	32607	32639	
1905	0	32884	32583	32727	32243	32941	32734	32422	32564	
1906	0	32903	32655	32702	32118	32735	32979	32603	32771	
1907	0	32756	32739	32647	32125	32631	32916	32791	33063	
1908	0	32740	32759	32685	32303	32700	32662	32895	32959	
1909	0	32647	32666	32701	32437	32734	32487	32970	32941	
1910	0	32665	32775	32775	32706	32858	32553	32483	32728	
1911	0	32775	32743	32815	32903	32791	32580	32702	32863	
1912	0	32698	32823	32803	33131	32819	32583	32691	32491	
1913	0	32686	32903	32877	33231	33005	32526	32365	32426	
1914	0	32625	32899	32673	33199	32834	33071	32391	32487	
1915	0	32762	32807	32821	33187	32615	32975	32807	32687	
1916	0	32772	32766	32839	33167	32663	32791	32879	32807	
1917	0	32749	32967	32797	33129	32758	32626	32621	32735	
1918	0	32679	32903	32764	33095	32684	32516	32730	32735	
1919	0	32711	32803	32791	32943	32738	32596	32691	32590	
1920	0	32767	32845	32628	32887	32858	32639	32543	32510	
1921	0	32691	32702	32767	32598	32887	32567	32783	32559	
1922	0	32722	32705	32722	32510	32731	32771	32683	32623	
1923	0	32762	32613	32822	32391	32691	32903	32868	33101	
1924	0	32889	32706	32695	32322	32647	32719	32692	32811	
1925	0	32841	32727	32751	32219	33220	32370	32543	32423	
1926	0	32942	32583	32598	32133	32762	32578	32459	32433	
1927	0	32935	32590	32791	32180	32919	33259	32533	32722	
1928	0	32866	32507	32771	32367	32643	33263	32615	32569	
1929	0	32703	32775	32733	32549	32775	32807	32847	32579	
1930	0	32775	32718	32690	32763	32683	32749	32918	32668	
1931	0	32746	32623	32821	32859	32707	32805	32647	32807	
1932	0	32621	32795	32859	32951	32735	32837	32679	32759	
1933	0	32611	32677	32851	33275	32573	32711	32607	32585	
1934	0	32679	32851	32711	33334	32941	32534	32238	32338	
1935	0	32679	32832	32751	33199	32646	32317	32535	32507	
1936	0	32662	32775	32863	33311	32834	32602	32743	32686	
1937	0	32689	32766	32791	33266	32621	32775	32791	32903	
1938	0	32783	32613	32711	33044	32534	32902	32721	33159	
1939	0	32804	32641	32671	32918	32596	32894	32647	33313	
1940	0	32846	32756	32655	32751	32615	32901	32743	33055	
1941	0	32878	32711	32807	32642	32463	32543	32639	32775	
1942	0	32820	32708	32731	32563	32943	32389	32598	31991	
1943	0	32786	32734	32718	32453	32942	32361	32531	31802	
1944	0	32794	32708	32731	32391	32759	32661	32605	32383	
1945	0	32855	32640	32571	32133	32385	32885	33146	33142	
1946	0	32839	32671	32640	32150	32599	32871	32902	33143	
1947	0	32894	32596	32631	32191	32871	32693	32693	32769	
1948	0	32892	32684	32679	32359	32820	32607	32683	32659	
1949	0	32820	32734	32671	32464	33026	32538	32558	32069	
1950	0	32789	32871	32759	32751	32987	32662	32439	32391	
1951	0	32714	32807	32685	32915	33027	32878	32551	32562	
1952	0	32660	32844	32877	33030	32871	32791	32438	32427	
1953	0	32584	32925	32794	33141	32743	32545	32610	32601	
1954	0	32631	32935	32933	33276	32487	32716	32663	32874	
1955	0	32573	32965	32683	33278	32628	32727	32797	32914	
1956	0	32665	32749	32916	33243	32790	32807	32825	32954	
1957	0	32627	32685	32903	33148	32876	32814	32551	32691	
1958	0	32754	32667	32786	32997	32993	32620	32381	32745	
1959	0	32773	32638	32811	32893	32895	32679	32790	32607	
1960	0	32743	32740	32630	32821	32647	32631	32977	32763	
1961	0	32802	32775	32631	32701	32679	32691	32738	32567	
1962	0	32762	32745	32743	32607	32743	32765	32727	32831	
1963	0	32705	32811	32818	32493	32727	32835	32875	32889	
1964	0	32782	32669	32833	32385	32749	32738	32695	32646	
1965	0	32840	32575	32763	32221	32663	32844	32498	32953	
1966	0	32775	32662	32623	32189	32669	33058	32593	32775	
1967	0	32812	32626	32711	32239	32994	32775	32223	32119	
1968	0	32791	32590	32807	32391	33005	32626	32389	32150	
1969	0	32804	32708	32775	32551	33011	32599	32482	32412	
1970	0	32797	32615	32766	32671	32677	32593	32775	32809	
1971	0	32791	32577	32718	32862	32711	32721	32913	32903	
1972	0	32759	32551	32711	33143	32859	32736	32690	32903	
1973	0	32710	32615	32551	33303	32667	32725	32575	32835	
1974	0	32740	32766	32566	33300	32775	32695	32835	32839	
1975	0	32720	32861	32555	33303	32545	32767	32839	32635	
1976	0	32720	32835	32533	33267	32687	32827	32629	32613	
1977	0	32775	32743	32527	33157	32591	32767	32668	32514	
1978	0	32815	32725	32607	32879	32711	32691	32775	32591	
1979	0	32796	32655	32727	32743	32659	32613	32726	32761	
1980	0	32767	32647	32739	32591	32714	32587	32583	32582	
1981	0	32750	32770	32835	32543	32767	32645	32805	32707	
1982	0	32801	32727	32703	32402	33011	32644	32602	32350	
1983	0	32816	32711	32743	32378	32964	32775	32671	32607	
1984	0	32771	32607	32775	32323	32827	33082	32383	32887	
1985	0	32785	32679	32669	32299	33039	32579	32449	32606	
1986	0	32820	32655	32660	32173	32579	32551	32687	32855	
1987	0	32878	32499	32695	32231	32608	32749	32801	32535	
1988	0	32767	32607	32741	32391	32453	32950	32647	32955	
1989	0	32757	32627	32686	32543	32735	32846	32873	33054	
1990	0	32756	32775	32885	32843	32599	32507	32902	32601	
1991	0	32706	32943	32871	32931	32815	32339	32879	32748	
1992	0	32598	32793	32727	33103	32807	32460	32735	32601	
1993	0	32617	32807	32877	33209	32826	33007	32375	32329	
1994	0	32647	32732	32811	33270	32775	32974	32739	32927	
1995	0	32687	32821	32902	33207	32718	32851	32743	32962	
1996	0	32666	32799	32702	33327	32807	33057	32439	32540	
1997	0	32724	32757	32863	33236	32514	32891	32617	32319	
1998	0	32720	32807	32751	32941	32819	32546	32666	32365	
1999	0	32761	32764	32769	32803	32613	32721	32469	32347	
2000	0	32772	32839	32645	32644	32871	32599	32559	32351	
2001	0	32769	32719	32805	32571	32850	32503	32675	32580	
2002	0	32751	32681	32797	32509	33015	32493	32791	32519	
2003	0	32807	32771	32731	32497	32924	32382	32375	32147	
2004	0	32804	32765	32791	32431	33014	32560	32806	32743	
2005	0	32856	32604	32799	32125	32603	32874	32935	33212	
2006	0	32903	32581	32714	32135	32579	32921	32615	32551	
2007	0	32854	32623	32711	32257	32483	32941	32575	32596	
2008	0	32847	32639	32711	32311	32637	32983	32645	33229	
2009	0	32813	32743	32646	32555	32590	32853	32825	32978	
2010	0	32703	32693	32672	32791	32838	32751	32769	32745	
2011	0	32615	32691	32647	32993	32807	32647	32683	33007	
2012	0	32593	32860	32799	33117	32851	32719	32681	32855	
2013	0	32637	32827	32828	33287	32555	32765	32763	32806	
2014	0	32756	32708	32869	33281	32619	32775	32791	32634	
2015	0	32674	32677	32807	33251	32629	32591	32839	32515	
2016	0	32718	32739	32869	33250	32666	32723	32565	32566	
2017	0	32749	32601	32775	33195	32879	32636	32689	32525	
2018	0	32791	32595	32810	33031	32925	32741	32726	32694	
2019	0	32748	32765	32799	32855	32811	32687	32679	32517	
2020	0	32727	32887	32612	32787	33023	32515	32549	32347	
2021	0	32811	32714	32775	32667	33207	32413	32303	32081	
2022	0	32911	32775	32698	32501	32895	32684	32495	32423	
2023	0	32925	32695	32741	32455	32634	32883	32512	32391	
2024	0	32895	32558	32636	32438	32493	32877	32671	32773	
2025	0	32956	32645	32655	32195	32374	32831	33024	33259	
2026	0	32865	32717	32578	32198	32538	32538	32858	32479	
2027	0	32930	32647	32527	32099	32861	32421	32756	32178	
2028	0	32850	32646	32615	32330	32711	32694	32810	33103	
2029	0	32802	32631	32719	32466	32791	33060	32743	33250	
2030	0	32741	32741	32771	32670	32754	32958	32515	32911	
2031	0	32696	32767	32683	32981	32719	32733	32353	32425	
2032	0	32592	32854	32775	33159	32887	32450	32375	32038	
2033	0	32601	32658	32915	33204	32599	32735	32633	32821	
2034	0	32602	32794	32879	33260	32763	32911	32804	33267	
2035	0	32578	32875	32873	33179	32770	32826	32812	33174	
2036	0	32604	32724	32721	33211	32867	32818	32859	33011	
2037	0	32671	32700	32775	33199	32715	32820	32599	32715	
2038	0	32674	32815	32679	32986	32695	33015	32535	32763	
2039	0	32746	32811	32738	32933	32701	32743	32681	32679	
2040	0	32767	32718	32727	32847	32813	32643	32676	32614	
2041	0	32834	32694	32711	32579	32978	32574	32715	32429	
2042	0	32863	32676	32679	32595	32957	32754	32813	32519	
2043	0	32788	32639	32766	32509	32871	32757	32602	32471	
2044	0	32823	32675	32655	32373	32847	32443	32726	32407	
2045	0	32979	32529	32743	32125	32895	32449	32455	32203	
2046	0	32935	32542	32691	32131	32642	32459	32687	32687	
2047	0	32914	32647	32599	32175	32549	32775	32479	32324	
2048	0	32911	32629	32481	32244	32598	32657	32543	32614	
2049	0	32771	32587	32665	32481	32641	32810	32927	32999	
2050	0	32796	32805	32671	32599	32871	32405	32865	32794	
2051	0	32695	32807	32843	32965	32895	32519	32957	32435	
2052	0	32658	32801	32879	33191	32799	32589	32919	33083	
2053	0	32623	32715	32748	33159	32772	32639	33138	33213	
2054	0	32575	32927	32811	33301	32666	32612	32850	32822	
2055	0	32638	32875	32859	33261	32660	32387	32574	32453	
2056	0	32692	32961	32722	33223	32674	32825	32093	32263	
2057	0	32671	32862	32815	33188	32646	33439	32254	32540	
2058	0	32727	32823	32660	32982	32877	33340	32466	33239	
2059	0	32826	32829	32702	32918	32832	32965	32647	33093	
2060	0	32807	32687	32655	32775	32722	32773	32766	32639	
2061	0	32816	32643	32638	32595	32885	32703	32527	32311	
2062	0	32846	32578	32804	32589	32971	32671	32516	32431	
2063	0	32820	32646	32671	32463	32704	32547	32371	32123	
2064	0	32798	32583	32806	32287	32882	32443	32629	32321	
2065	0	32831	32695	32716	32249	32807	32517	32607	32351	
2066	0	32854	32711	32794	32119	32507	32663	32927	33086	
2067	0	32856	32527	32597	32246	32457	32623	32723	33157	
2068	0	32798	32734	32815	32423	32613	32499	32564	32775	
2069	0	32769	32809	32669	32523	32715	32961	32405	32423	
2070	0	32695	32621	32715	32719	32813	33014	32525	32359	
2071	0	32659	32765	32617	32863	32875	32927	32771	32535	
2072	0	32698	32713	32769	33207	32995	32534	32679	32717	
2073	0	32694	32679	32769	33250	32823	32523	32463	32519	
2074	0	32653	32775	32755	33207	32633	32479	32823	32611	
2075	0	32664	32819	32714	33238	32535	32711	32772	32574	
2076	0	32674	32871	32818	33188	32842	32757	32765	32807	
2077	0	32671	32795	32791	33153	33015	32647	32769	32749	
2078	0	32802	32766	32821	32955	32831	32715	32532	32848	
2079	0	32853	32583	32749	32925	32439	32831	33041	33133	
2080	0	32788	32687	32791	32727	32442	32927	32941	33113	
2081	0	32804	32687	32841	32687	32467	32775	32790	32599	
2082	0	32853	32575	32703	32551	32717	32925	32679	32804	
2083	0	32871	32622	32703	32463	32832	32823	32614	32991	
2084	0	32890	32693	32731	32425	32982	32259	32467	32251	
2085	0	32897	32647	32671	32215	32983	32278	32503	32183	
2086	0	32855	32726	32597	32163	32638	32739	32887	32595	
2087	0	32863	32647	32787	32030	32585	32983	32705	32799	
2088	0	32823	32644	32807	32287	32767	32855	32561	32759	
2089	0	32743	32719	32811	32494	32863	32891	32615	32782	
2090	0	32828	32628	32686	32738	32869	32759	32655	32523	
2091	0	32671	32775	32927	32895	32807	32662	32635	32258	
2092	0	32615	32879	32807	33115	32766	32622	32623	32643	
2093	0	32583	32951	32871	33251	32746	32690	32839	32692	
2094	0	32604	32871	32745	33159	32655	32696	32671	32511	
2095	0	32607	32912	32782	33255	32815	32679	32351	32299	
2096	0	32556	32927	32935	33259	32772	32647	32445	32511	
2097	0	32602	32891	32868	33166	32721	32887	32797	32959	
2098	0	32699	32647	32807	33055	32871	32852	32677	32807	
2099	0	32726	32775	32740	32903	32775	32964	32690	32959	
2100	0	32766	32680	32881	32854	32647	33209	32966	33055	
2101	0	32741	32612	32852	32767	32709	32701	32705	32443	
2102	0	32802	32571	32862	32646	32735	32431	32539	32455	
2103	0	32812	32557	32703	32583	32599	32523	32814	32954	
2104	0	32818	32578	32748	32271	32747	32543	32678	32601	
2105	0	32860	32575	32581	32190	32865	32502	32647	32225	
2106	0	32941	32575	32615	32041	32743	32789	32567	32285	
2107	0	32954	32508	32507	32167	32581	32871	32876	32766	
2108	0	32952	32647	32577	32279	32738	32331	32775	32783	
2109	0	32833	32647	32747	32491	32903	32415	32505	33059	
2110	0	32817	32794	32721	32743	32702	32791	32543	33091	
2111	0	32758	32867	32642	32890	32631	32951	32767	32739	
2112	0	32770	32815	32607	33197	32803	32708	32691	32613	
2113	0	32636	33063	32567	33159	32823	32735	32946	32865	
2114	0	32580	33071	32479	33231	33127	32599	32455	32383	
2115	0	32674	32863	32554	33219	33001	32747	32525	32519	
2116	0	32806	32911	32844	33389	32834	32631	32761	32724	
2117	0	32890	32738	32725	33319	32618	32983	32509	32734	
2118	0	32764	32823	32807	33043	32448	33380	32409	32717	
2119	0	32700	32862	32787	32818	32580	33082	32711	33121	
2120	0	32743	32806	32817	32743	32959	32551	32619	32743	
2121	0	32838	32633	32834	32519	32895	32711	32807	32567	
2122	0	32754	32723	32631	32583	32626	32621	32718	32653	
2123	0	32755	32647	32732	32535	32371	32813	32831	32564	
2124	0	32801	32647	32762	32301	32611	32922	32793	32583	
2125	0	32738	32643	32723	32167	33185	32590	32415	32022	
2126	0	32892	32749	32711	32052	33003	32721	32697	32736	
2127	0	32854	32735	32595	32225	32567	32885	32685	32982	
2128	0	32847	32708	32679	32338	32565	32721	32685	32821	
2129	0	32756	32609	32727	32423	32745	32583	32740	32869	
2130	0	32740	32855	32668	32690	32831	32711	32592	32378	
2131	0	32617	32923	32837	32966	32734	32687	32639	32489	
2132	0	32640	32655	32775	33031	32754	32550	32725	32818	
2133	0	32631	32811	32751	33215	32903	32699	32675	32951	
2134	0	32628	32839	32867	33251	32967	32519	32694	32845	
2135	0	32597	32797	32893	33251	32917	32449	32685	32647	
2136	0	32655	32823	32899	33203	32799	32647	32807	32518	
2137	0	32757	32803	32815	33031	32645	32699	32700	32581	
2138	0	32674	32757	32829	33103	32551	32801	32628	32583	
2139	0	32750	32738	32781	32877	32511	32847	32819	32380	
2140	0	32767	32755	32733	32724	32705	32493	32690	32407	
2141	0	32863	32738	32582	32720	32703	32555	32621	32575	
2142	0	32834	32557	32692	32603	32843	32566	32507	32518	
2143	0	32836	32566	32735	32487	32803	32789	32643	32918	
2144	0	32857	32543	32797	32452	32775	32791	32743	33135	
2145	0	32903	32551	32762	32201	32566	32911	32605	33059	
2146	0	32976	32435	32699	32180	32547	32807	32518	32716	
2147	0	32979	32525	32759	32167	32509	32799	32740	32615	
