# OpenSignals Text File Format
# {"00:07:80:3B:46:38": {"sensor": ["CUSTOM/0.5/1.0/V", "CUSTOM/0.5/1.0/V", "CUSTOM/0.5/1.0/V", "CUSTOM/0.5/1.0/V", "CUSTOM/0.5/1.0/V", "CUSTOM/0.5/1.0/V", "CUSTOM/0.5/1.0/V", "CUSTOM/0.5/1.0/V"], "device name": "EMGs", "column": ["nSeq", "DI", "RA_L", "RA_R", "OE_L", "OE:R", "IL_L", "IL_R", "MF_L", "MF_R"], "sync interval": 2, "time": "16:10:41.872", "comments": "", "device connection": "BTH00:07:80:3B:46:38", "channels": [1, 2, 3, 4, 5, 6, 7, 8], "date": "2017-5-22", "mode": 0, "digital IO": [0, 1], "firmware version": 772, "device": "biosignalsplux", "position": 0, "sampling rate": 1000, "label": ["RA_L", "RA_R", "OE_L", "OE:R", "IL_L", "IL_R", "MF_L", "MF_R"], "resolution": [16, 16, 16, 16, 16, 16, 16, 16], "special": [{}, {}, {}, {}, {}, {}, {}, {}]}}
# EndOfHeader
0	0	32068	32531	32945	32351	32927	32685	33107	32479	
1	0	32311	32323	32823	32325	32815	32676	33013	32479	
2	0	32559	32363	32927	32479	32671	32759	33079	32679	
3	0	32712	32327	32837	32590	32701	32807	32959	32670	
4	0	32924	32417	32963	32591	32655	32743	32893	32676	
5	0	33120	32263	32869	32662	32850	32771	32679	32710	
6	0	33314	32479	32723	32553	32877	32798	32455	32783	
7	0	33456	32231	32691	32545	32895	32858	32543	32775	
8	0	33706	32439	32567	32825	32701	32826	32455	32930	
9	0	33895	32179	32538	32767	32553	32791	32783	32790	
10	0	34052	32263	32547	32755	32493	32807	32991	32791	
11	0	34028	32167	32611	32771	32581	32846	32822	32815	
12	0	34182	32150	32471	32823	32689	32823	32665	32921	
13	0	34210	32217	32543	32799	32739	32647	32541	33003	
14	0	34146	32037	32505	32866	32595	32759	32361	33071	
15	0	34164	32259	32379	32869	32735	32731	32431	32873	
16	0	34077	32339	32443	32807	32645	32746	32407	32872	
17	0	33944	32279	32477	32775	32575	32903	32210	32959	
18	0	33790	32389	32530	32646	32594	32899	32415	33031	
19	0	33700	32237	32591	32719	32647	32791	32351	32887	
20	0	33603	32474	32519	32831	32719	32887	32407	33021	
21	0	33490	32405	32531	32802	32646	32823	32407	33047	
22	0	33338	32557	32702	32722	32551	32827	32293	32811	
23	0	33230	32553	32683	32790	32355	32903	32445	32949	
24	0	33189	32591	32530	32623	32570	32877	32470	32947	
25	0	33141	32699	32621	32662	32687	32827	32500	32858	
26	0	33030	32386	32715	32659	32876	32847	32500	32821	
27	0	33006	32660	32587	32675	32891	32733	32559	32887	
28	0	32932	32623	32628	32751	32759	32843	32474	32877	
29	0	32831	32703	32535	32690	32787	32854	32379	32949	
30	0	32712	32627	32695	32702	32719	32788	32362	32871	
31	0	32654	32731	32550	32626	32911	32759	32588	32798	
32	0	32647	32620	32691	32613	32964	32695	32742	32714	
33	0	32721	32762	32714	32698	32747	32663	32902	32571	
34	0	32655	32623	32691	32602	32823	32573	33020	32758	
35	0	32543	32887	32701	32659	32786	32551	32991	32763	
36	0	32578	32725	32580	32459	32769	32534	32929	32626	
37	0	32544	33010	32580	32687	32645	32724	32518	32719	
38	0	32502	32828	32519	32671	32550	32713	32593	32717	
39	0	32525	32915	32659	32623	32751	32705	32539	32647	
40	0	32528	32647	32699	32687	32797	32663	32719	32630	
41	0	32590	32966	32539	32559	32816	32555	32932	32599	
42	0	32630	32711	32627	32511	32775	32539	33111	32542	
43	0	32529	32927	32636	32609	32764	32623	33026	32590	
44	0	32544	32783	32718	32654	32791	32681	32967	32531	
45	0	32634	32967	32723	32671	32929	32723	32667	32684	
46	0	32539	32847	32505	32577	32663	32775	32725	32625	
47	0	32534	32950	32686	32641	32877	32641	32927	32510	
48	0	32527	32842	32583	32739	33109	32523	33173	32599	
49	0	32567	32950	32674	32685	33063	32606	32967	32647	
50	0	32573	32727	32638	32676	32879	32693	32867	32647	
51	0	32605	32903	32473	32663	32867	32807	32658	32743	
52	0	32643	32706	32541	32647	32713	32827	32475	32701	
53	0	32602	32967	32487	32690	32822	32747	32527	32788	
54	0	32591	33039	32623	32677	32751	32703	32723	32719	
55	0	32532	33111	32683	32639	32807	32711	32685	32565	
56	0	32560	32951	32791	32490	32683	32799	32734	32751	
57	0	32613	33071	32697	32666	32631	32791	32703	32642	
58	0	32622	32903	32567	32694	32614	32719	32775	32671	
59	0	32709	32879	32643	32702	32664	32591	32834	32601	
60	0	32722	32807	32727	32493	32590	32687	32658	32589	
61	0	32663	32707	32655	32668	32695	32765	32707	32669	
62	0	32652	32951	32519	32713	32861	32691	32820	32607	
63	0	32684	32685	32647	32721	32819	32679	32731	32745	
64	0	32700	32839	32515	32525	32775	32708	32829	32707	
65	0	32668	32662	32769	32662	32763	32729	32845	32546	
66	0	32796	32756	32723	32756	32858	32710	32829	32819	
67	0	32795	32699	32563	32685	32883	32789	32743	32790	
68	0	32819	32705	32607	32699	32839	32718	32757	32641	
69	0	32723	32647	32566	32621	32815	32709	32789	32775	
70	0	32785	32694	32748	32611	32734	32773	32741	32731	
71	0	32835	32607	32739	32719	32690	32815	32690	32607	
72	0	32764	32725	32555	32658	32647	32764	32775	32703	
73	0	32795	32587	32647	32615	32739	32727	32775	32738	
74	0	32750	32807	32533	32470	32783	32719	32679	32732	
75	0	32674	32619	32711	32639	32933	32614	32846	32686	
76	0	32716	32885	32619	32647	32885	32764	32747	32695	
77	0	32704	32739	32719	32658	32804	32773	32759	32723	
78	0	32711	32855	32679	32647	32775	32663	32685	32687	
79	0	32634	32661	32487	32535	32822	32735	32751	32587	
80	0	32646	32853	32638	32668	32743	32719	32637	32750	
81	0	32703	32703	32571	32639	32623	32739	32807	32647	
82	0	32664	32871	32674	32663	32563	32647	32635	32535	
83	0	32685	32627	32503	32563	32739	32687	32691	32662	
84	0	32794	32823	32655	32615	32619	32809	32647	32660	
85	0	32772	32679	32703	32639	32791	32699	33106	32613	
86	0	32868	32843	32579	32679	32898	32639	33140	32620	
87	0	32823	32823	32679	32705	32903	32691	32959	32761	
88	0	32775	32831	32468	32766	32818	32749	32711	32742	
89	0	32761	32759	32636	32583	32814	32759	32631	32836	
90	0	32766	32770	32479	32775	32705	32775	32375	32735	
91	0	32756	32834	32578	32707	32719	32754	32575	32710	
92	0	32732	32815	32738	32693	32693	32802	32515	32687	
93	0	32710	32850	32615	32691	32673	32726	32631	32743	
94	0	32698	32551	32603	32690	32608	32759	32586	32695	
95	0	32679	32790	32571	32590	32931	32590	32739	32710	
96	0	32631	32631	32535	32554	32921	32726	32811	32695	
97	0	32647	32791	32659	32594	32893	32639	32847	32603	
98	0	32707	32679	32707	32683	32855	32743	32683	32731	
99	0	32715	32771	32687	32674	32687	32773	32612	32751	
100	0	32797	32711	32647	32655	32706	32638	32932	32557	
101	0	32759	32731	32587	32499	32419	32676	32914	32660	
102	0	32748	32809	32630	32773	32525	32663	32967	32738	
103	0	32738	32735	32512	32746	32697	32623	32885	32731	
104	0	32752	32809	32658	32699	32847	32683	32919	32786	
105	0	32839	32791	32707	32735	32829	32683	32918	32698	
106	0	32858	32837	32589	32687	33047	32663	32911	32711	
107	0	32800	32775	32763	32595	32974	32660	32775	32761	
108	0	32825	32836	32623	32743	32875	32711	32589	32703	
109	0	32838	32751	32730	32691	32871	32786	32674	32803	
110	0	32819	32745	32535	32765	32903	32809	32827	32763	
111	0	32739	32819	32612	32567	32808	32815	32962	32661	
112	0	32743	32647	32508	32681	32719	32638	33039	32635	
113	0	32734	32727	32635	32738	32662	32751	32756	32689	
114	0	32710	32815	32615	32690	32587	32765	32537	32658	
115	0	32605	32608	32563	32639	32755	32644	32611	32718	
116	0	32702	32834	32612	32647	32647	32818	32527	32829	
117	0	32724	32693	32599	32636	32711	32799	32647	32609	
118	0	32787	32837	32647	32613	32711	32727	32743	32724	
119	0	32673	32703	32588	32717	32794	32687	32775	32719	
120	0	32702	32833	32551	32661	32671	32775	32836	32583	
121	0	32738	32789	32747	32738	32807	32739	32709	32747	
122	0	32765	32867	32699	32595	32691	32803	32775	32731	
123	0	32838	32743	32511	32495	32775	32642	32805	32531	
124	0	32827	32771	32685	32615	32745	32658	32803	32669	
125	0	32861	32594	32623	32663	32677	32791	32559	32667	
126	0	32924	32775	32750	32635	32877	32759	32756	32583	
127	0	32884	32639	32747	32690	32703	32722	32692	32647	
128	0	32838	32675	32722	32627	32715	32759	32687	32583	
129	0	32775	32555	32639	32759	32698	32715	32538	32738	
130	0	32738	32758	32567	32750	32635	32815	32623	32775	
131	0	32749	32623	32696	32738	32634	32685	32794	32593	
132	0	32625	32812	32636	32583	33029	32582	33014	32734	
133	0	32663	32601	32690	32579	33085	32539	32863	32851	
134	0	32694	32831	32588	32658	32838	32647	32554	32951	
135	0	32660	32639	32534	32727	32700	32775	32667	32749	
136	0	32674	32831	32578	32581	32799	32683	32706	32535	
137	0	32699	32735	32647	32655	32769	32775	32640	32635	
138	0	32713	32814	32543	32533	32975	32690	32675	32743	
139	0	32743	32813	32762	32589	32847	32823	32763	32690	
140	0	32775	32826	32676	32662	32887	32759	32821	32676	
141	0	32769	32867	32562	32685	32805	32663	32727	32679	
142	0	32858	32614	32699	32679	32722	32628	32755	32691	
143	0	32889	32740	32621	32668	32673	32711	32701	32569	
144	0	32924	32559	32535	32663	32586	32641	32775	32639	
145	0	32885	32694	32697	32725	32775	32679	32943	32646	
146	0	32808	32619	32751	32711	32823	32757	32741	32687	
147	0	32789	32731	32545	32643	32751	32688	32659	32619	
148	0	32767	32675	32673	32691	32817	32727	32760	32701	
149	0	32727	32806	32725	32759	32738	32706	32685	32699	
150	0	32718	32647	32583	32691	32754	32710	32851	32887	
151	0	32710	32835	32567	32690	32760	32795	32753	32831	
152	0	32775	32655	32509	32582	32774	32747	32687	32749	
153	0	32746	32987	32685	32590	32747	32724	32498	32823	
154	0	32671	32674	32647	32676	32775	32773	32475	32879	
155	0	32681	33001	32548	32711	32821	32783	32487	32799	
156	0	32644	32743	32620	32706	32879	32839	32551	32863	
157	0	32696	32797	32549	32775	32687	32839	32667	32812	
158	0	32731	32655	32429	32623	32609	32677	32919	32573	
159	0	32773	32725	32711	32559	32619	32698	33254	32647	
160	0	32732	32730	32662	32667	32743	32647	33095	32695	
161	0	32730	32799	32575	32751	32707	32683	32870	32666	
162	0	32727	32775	32690	32647	32847	32647	32809	32621	
163	0	32743	32811	32668	32722	32887	32620	32692	32660	
164	0	32783	32837	32647	32636	32719	32695	32681	32647	
165	0	32859	32735	32676	32631	32758	32687	32785	32699	
166	0	32845	32786	32735	32511	32815	32703	32711	32703	
167	0	32830	32575	32658	32706	32903	32598	32707	32663	
168	0	32808	32771	32659	32683	32676	32705	32463	32601	
169	0	32807	32655	32637	32671	32543	32737	32466	32719	
170	0	32790	32773	32790	32711	32519	32685	32451	32743	
171	0	32781	32655	32726	32583	32583	32647	32560	32647	
172	0	32743	32791	32559	32502	32949	32514	32947	32642	
173	0	32726	32855	32711	32517	32829	32513	33115	32549	
174	0	32652	32783	32623	32698	32998	32531	32900	32583	
175	0	32679	32883	32507	32734	32925	32563	32966	32687	
176	0	32647	32610	32543	32662	32951	32673	32881	32807	
177	0	32698	32807	32586	32662	32830	32685	32831	32753	
178	0	32684	32546	32660	32542	32809	32593	32819	32681	
179	0	32710	32869	32702	32587	32775	32542	32783	32679	
180	0	32673	32721	32593	32642	32839	32626	33015	32607	
181	0	32678	32871	32567	32647	32790	32574	32965	32554	
182	0	32741	32797	32479	32647	32671	32669	32819	32735	
183	0	32710	32855	32727	32713	32663	32745	32626	32784	
184	0	32686	32863	32557	32791	32578	32870	32349	32743	
185	0	32783	32762	32551	32697	32706	32813	32375	32655	
186	0	32827	32823	32747	32563	32671	32754	32571	32652	
187	0	32831	32573	32626	32626	32815	32702	32799	32571	
188	0	32903	32819	32567	32685	32894	32605	32965	32741	
189	0	32800	32795	32621	32675	32899	32647	32759	32749	
190	0	32774	32866	32599	32749	32767	32637	32714	32716	
191	0	32726	32751	32716	32637	32706	32615	32738	32805	
192	0	32708	32926	32647	32603	32631	32671	32583	32796	
193	0	32763	32769	32583	32737	32855	32615	32737	32655	
194	0	32698	32877	32621	32647	32834	32687	32669	32743	
195	0	32640	32791	32573	32685	32762	32677	32708	32887	
196	0	32677	32951	32732	32445	32671	32690	32739	32767	
197	0	32720	32819	32719	32677	32767	32626	32927	32677	
198	0	32702	32919	32579	32607	32895	32655	32885	32695	
199	0	32722	32601	32611	32637	32807	32659	32722	32663	
200	0	32658	32791	32595	32658	32842	32682	32549	32802	
201	0	32654	32775	32780	32646	32735	32715	32479	32775	
202	0	32655	32790	32571	32599	32804	32626	32567	32687	
203	0	32642	32838	32623	32607	32797	32775	32372	32641	
204	0	32746	32721	32754	32501	32513	32858	32683	32621	
205	0	32846	32788	32722	32727	32583	32799	32675	32639	
206	0	32858	32721	32639	32722	32503	32711	32820	32605	
207	0	32713	32811	32695	32755	32628	32701	32671	32615	
208	0	32724	32791	32550	32647	32711	32605	32801	32577	
209	0	32791	32645	32711	32495	32903	32540	32974	32647	
210	0	32735	32775	32759	32679	32903	32644	33059	32765	
211	0	32692	32851	32562	32774	32879	32639	32730	32647	
212	0	32765	32687	32690	32710	32901	32679	32725	32647	
213	0	32754	32911	32723	32596	32861	32540	32935	32631	
214	0	32811	32647	32545	32687	32766	32710	32919	32662	
215	0	32706	32819	32747	32711	32678	32775	32611	32734	
216	0	32756	32647	32711	32538	32823	32679	32740	32817	
217	0	32816	32806	32647	32597	32947	32610	32839	32703	
218	0	32816	32734	32631	32735	32874	32751	32788	32658	
219	0	32768	32724	32703	32806	32767	32775	32719	32701	
220	0	32756	32823	32500	32766	32725	32791	32719	32773	
221	0	32668	32647	32607	32647	32786	32678	33191	32735	
222	0	32632	32679	32621	32701	32900	32542	33132	32469	
223	0	32647	32643	32731	32713	32671	32597	32903	32647	
224	0	32717	32793	32711	32555	32591	32710	32569	32743	
225	0	32782	32695	32579	32685	32617	32741	32631	32669	
226	0	32789	32742	32707	32711	32783	32655	32796	32638	
227	0	32812	32687	32681	32655	33015	32604	32870	32703	
228	0	32801	32723	32825	32619	32655	32866	32605	32767	
229	0	32774	32571	32683	32511	32662	32875	32583	32859	
230	0	32780	32738	32503	32561	32684	32819	32703	32761	
231	0	32758	32587	32646	32719	32791	32800	32647	32685	
232	0	32726	32799	32619	32687	32748	32775	32718	32719	
233	0	32677	32614	32677	32663	32856	32693	32685	32647	
234	0	32647	32835	32621	32590	32850	32722	32719	32599	
235	0	32652	32711	32607	32574	32815	32735	32539	32859	
236	0	32614	32791	32599	32605	32683	32759	32635	32711	
237	0	32614	32767	32694	32663	32667	32740	32726	32674	
238	0	32643	32759	32671	32615	32866	32807	32803	32734	
239	0	32660	32762	32676	32653	32767	32717	32844	32559	
240	0	32589	32707	32647	32674	32711	32676	32705	32608	
241	0	32637	32844	32525	32738	32743	32604	32847	32557	
242	0	32663	32714	32684	32638	32855	32611	32799	32516	
243	0	32692	32767	32717	32528	32711	32615	32745	32599	
244	0	32720	32815	32539	32607	32774	32669	32711	32695	
245	0	32828	32722	32679	32695	32758	32606	32805	32602	
246	0	32887	32543	32570	32726	32743	32614	32655	32639	
247	0	32903	32710	32795	32567	32685	32677	32636	32691	
248	0	32924	32567	32685	32727	32721	32863	32501	32869	
249	0	32832	32743	32586	32679	32739	32811	32845	32875	
250	0	32850	32638	32759	32663	33047	32537	33189	32663	
251	0	32849	32721	32691	32615	33063	32597	33135	32663	
252	0	32818	32679	32534	32555	32787	32727	32831	32775	
253	0	32742	32801	32719	32742	32669	32845	32692	32647	
254	0	32728	32866	32683	32698	32755	32815	32575	32775	
255	0	32630	32847	32743	32687	32630	32811	32519	32799	
256	0	32660	32942	32605	32570	32634	32831	32457	32719	
257	0	32718	32631	32483	32511	32639	32759	32859	32671	
258	0	32722	32829	32683	32687	32660	32733	33067	32613	
259	0	32743	32745	32527	32717	32899	32631	33151	32530	
260	0	32643	32813	32499	32715	32923	32641	32951	32659	
261	0	32628	32830	32685	32763	32823	32621	32738	32684	
262	0	32637	32831	32623	32527	32871	32749	32829	32603	
263	0	32782	32911	32551	32617	32769	32727	32647	32783	
264	0	32860	32867	32683	32681	32813	32763	32621	32823	
265	0	32887	32799	32701	32707	32849	32763	32613	32621	
266	0	32922	32787	32518	32699	32903	32669	32605	32742	
267	0	32845	32813	32762	32612	32671	32749	32727	32775	
268	0	32775	32783	32676	32607	32655	32732	32695	32699	
269	0	32729	32859	32623	32739	32655	32775	32671	32729	
270	0	32735	32595	32748	32683	32564	32807	32703	32775	
271	0	32734	32759	32679	32686	32775	32754	32801	32739	
272	0	32698	32691	32501	32695	32871	32653	32684	32583	
273	0	32730	32837	32671	32625	32855	32667	32785	32727	
274	0	32708	32721	32647	32534	32767	32669	32683	32785	
275	0	32671	32815	32508	32557	32598	32735	32499	32819	
276	0	32624	32963	32718	32679	32577	32711	32599	32763	
277	0	32758	32695	32566	32775	32551	32731	32596	32705	
278	0	32717	32810	32615	32771	32690	32711	32627	32726	
279	0	32692	32637	32663	32659	32966	32711	32765	32677	
280	0	32756	32775	32634	32743	32967	32637	32919	32645	
281	0	32838	32703	32519	32647	32971	32771	32755	32749	
282	0	32796	32818	32715	32487	32863	32799	32719	32751	
283	0	32791	32789	32687	32531	32701	32807	32505	32699	
284	0	32809	32811	32635	32565	32671	32775	32827	32711	
285	0	32783	32895	32749	32711	32686	32677	32861	32690	
286	0	32850	32623	32679	32730	32751	32847	32687	32627	
287	0	32903	32790	32634	32714	32951	32854	32749	32715	
288	0	32831	32599	32754	32696	32783	32927	32575	32799	
289	0	32861	32743	32694	32701	32827	32686	32639	32806	
290	0	32868	32813	32564	32741	32935	32534	32867	32603	
291	0	32766	32743	32709	32692	32807	32615	32994	32751	
292	0	32759	32813	32718	32727	32731	32596	32863	32590	
293	0	32757	32690	32546	32670	32767	32629	32937	32695	
294	0	32775	32821	32773	32695	32567	32739	32735	32727	
295	0	32732	32767	32662	32679	32676	32734	32571	32815	
296	0	32738	32799	32647	32679	32509	32743	32725	32773	
297	0	32670	32930	32647	32479	32490	32729	32734	32771	
298	0	32729	32590	32601	32595	32692	32743	32773	32759	
299	0	32793	32871	32609	32737	32829	32686	32939	32769	
300	0	32786	32583	32707	32659	32913	32751	32642	32751	
301	0	32748	32825	32615	32623	32919	32647	32863	32586	
302	0	32767	32711	32461	32647	33144	32677	32749	32631	
303	0	32762	32799	32548	32534	32911	32594	32863	32585	
304	0	32799	32531	32627	32675	32947	32687	32711	32538	
305	0	32794	32739	32763	32734	32705	32738	32673	32735	
306	0	32896	32531	32715	32727	32613	32735	32540	32671	
307	0	32879	32783	32565	32755	32612	32775	32643	32550	
308	0	32839	32543	32676	32658	32708	32775	32610	32662	
309	0	32819	32733	32711	32627	32775	32726	32874	32589	
310	0	32820	32770	32539	32559	32677	32699	32749	32694	
311	0	32820	32775	32711	32566	32695	32663	32647	32674	
312	0	32828	32903	32679	32759	32675	32671	32733	32787	
313	0	32706	32885	32731	32603	32647	32671	32527	32811	
314	0	32755	32903	32631	32618	32719	32667	32726	32711	
315	0	32767	32787	32727	32647	32885	32585	32807	32629	
316	0	32703	32815	32582	32655	32871	32690	32647	32788	
317	0	32667	32775	32734	32675	32661	32775	32647	32879	
318	0	32783	32751	32659	32554	32787	32647	32722	32643	
319	0	32725	32839	32575	32545	32829	32679	32515	32598	
320	0	32739	32807	32693	32647	32891	32731	32661	32834	
321	0	32692	32859	32707	32660	32860	32742	32766	32820	
322	0	32696	32630	32555	32647	32891	32735	32918	32594	
323	0	32656	32799	32653	32673	32775	32622	32837	32625	
324	0	32671	32702	32667	32751	32557	32707	32671	32757	
325	0	32672	32805	32731	32619	32473	32770	32821	32722	
326	0	32745	32775	32559	32567	32638	32775	32842	32730	
327	0	32832	32802	32635	32645	32754	32643	32663	32788	
328	0	32793	32895	32582	32783	33007	32543	32877	32809	
329	0	32775	32655	32735	32805	33019	32579	32765	32738	
330	0	32661	32726	32703	32731	32883	32679	32663	32659	
331	0	32593	32706	32571	32639	32525	32811	32657	32803	
332	0	32685	32775	32630	32714	32523	32743	32661	32694	
333	0	32653	32965	32623	32683	32419	32813	32586	32731	
334	0	32692	32583	32453	32638	32639	32763	32675	32787	
335	0	32633	32751	32529	32541	32930	32711	32519	32807	
336	0	32693	32625	32479	32640	33267	32635	32741	32755	
337	0	32686	32757	32671	32701	33238	32711	32687	32598	
338	0	32741	32743	32638	32614	32903	32756	32621	32641	
339	0	32775	32799	32543	32637	32643	32711	33055	32681	
340	0	32811	32869	32647	32690	32450	32638	33167	32491	
341	0	32805	32831	32662	32611	32701	32655	33170	32535	
342	0	32814	32863	32605	32635	32791	32631	33039	32766	
343	0	32769	32671	32759	32529	32653	32759	32751	32807	
344	0	32807	32785	32721	32619	32775	32749	32717	32679	
345	0	32923	32535	32598	32762	32757	32700	32855	32663	
346	0	32912	32694	32802	32801	32722	32647	32715	32635	
347	0	32903	32643	32726	32758	32805	32799	32630	32787	
348	0	32844	32775	32557	32715	32733	32679	32742	32699	
349	0	32802	32711	32711	32695	32767	32703	32646	32786	
350	0	32812	32775	32691	32647	32742	32767	32583	32862	
351	0	32758	32819	32658	32623	32719	32747	32681	32767	
352	0	32811	32769	32647	32685	32741	32679	32543	32784	
353	0	32844	32877	32548	32662	32878	32549	32775	32710	
354	0	32783	32763	32678	32755	32828	32643	32669	32705	
355	0	32775	32895	32695	32623	32698	32749	32581	32823	
356	0	32708	32692	32498	32519	32718	32793	32676	32771	
357	0	32639	32893	32635	32557	32727	32727	32551	32598	
358	0	32672	32627	32511	32671	32757	32767	32767	32690	
359	0	32753	32831	32689	32578	32786	32709	32743	32679	
360	0	32743	32646	32662	32739	32807	32791	32751	32622	
361	0	32646	32830	32727	32563	32743	32667	32687	32683	
362	0	32719	32611	32687	32583	32599	32684	32662	32803	
363	0	32782	32813	32623	32694	32702	32695	32761	32734	
364	0	32811	32725	32612	32699	33119	32501	33006	32613	
365	0	32865	32775	32535	32791	32975	32591	32775	32730	
366	0	32850	32783	32732	32693	32847	32615	32785	32658	
367	0	32750	32731	32590	32623	32863	32677	32839	32826	
368	0	32786	32823	32556	32615	32851	32633	32692	32695	
369	0	32807	32742	32687	32749	32667	32662	32531	32559	
370	0	32694	32811	32567	32723	32578	32723	32454	32753	
371	0	32730	32756	32631	32705	32497	32645	32691	32707	
372	0	32735	32863	32563	32583	32734	32604	32775	32601	
373	0	32667	32623	32695	32751	32698	32599	32878	32677	
374	0	32645	32935	32591	32703	32719	32613	32724	32660	
375	0	32602	32678	32663	32765	32695	32603	32819	32586	
376	0	32594	32870	32601	32631	32751	32629	32672	32727	
377	0	32690	32669	32713	32481	32721	32635	32834	32747	
378	0	32724	32767	32669	32715	32902	32530	32802	32619	
379	0	32799	32735	32508	32679	32735	32690	32803	32803	
380	0	32780	32775	32639	32689	32767	32767	32775	32663	
381	0	32812	32669	32543	32695	32785	32727	32656	32819	
382	0	32726	32759	32647	32647	32775	32755	32503	32867	
383	0	32769	32851	32681	32503	32827	32785	32739	32783	
384	0	32832	32705	32759	32709	32647	32892	32667	32690	
385	0	32850	32838	32647	32631	32786	32815	32884	32786	
386	0	32828	32605	32771	32702	32751	32742	32795	32791	
387	0	32767	32819	32695	32731	32643	32646	32903	32655	
388	0	32834	32791	32679	32617	32647	32592	32894	32602	
389	0	32807	32763	32580	32598	32599	32655	32685	32767	
390	0	32784	32795	32630	32555	32831	32609	32719	32717	
391	0	32807	32631	32604	32742	32727	32751	32357	32743	
392	0	32737	32795	32703	32707	32773	32807	32810	32703	
393	0	32747	32797	32581	32655	32935	32527	33046	32662	
394	0	32771	32799	32534	32647	32929	32643	32893	32671	
395	0	32707	32751	32683	32591	32943	32579	32837	32605	
396	0	32660	32839	32643	32647	32769	32687	32813	32687	
397	0	32635	32790	32656	32723	32732	32767	32587	32715	
398	0	32615	32932	32575	32647	32726	32743	32767	32647	
399	0	32630	32610	32691	32591	32545	32819	32658	32715	
400	0	32739	32731	32679	32615	32751	32738	32639	32675	
401	0	32734	32639	32707	32710	32795	32755	32578	32634	
402	0	32710	32855	32625	32639	32938	32582	32791	32663	
403	0	32699	32695	32477	32712	32781	32603	32658	32727	
404	0	32727	32811	32674	32743	32925	32686	32647	32596	
405	0	32724	32797	32730	32658	32695	32807	32621	32670	
406	0	32716	32791	32609	32565	32703	32827	32423	32839	
407	0	32863	32665	32631	32804	32815	32737	32684	32661	
408	0	32831	32749	32734	32751	32806	32762	32887	32691	
409	0	32816	32771	32551	32679	33007	32611	33094	32684	
410	0	32769	32771	32540	32671	33091	32640	32835	32725	
411	0	32730	32874	32495	32683	32719	32946	32549	32850	
412	0	32804	32763	32692	32681	32468	32974	32475	32831	
413	0	32783	32839	32659	32513	32495	32771	32551	32679	
414	0	32745	32719	32662	32562	32547	32659	33035	32596	
415	0	32782	32895	32647	32718	32823	32495	33297	32641	
416	0	32730	32876	32467	32630	32848	32479	33195	32783	
417	0	32767	32943	32638	32623	32993	32598	32943	32629	
418	0	32698	32839	32627	32751	32914	32739	32985	32699	
419	0	32751	32923	32748	32655	32786	32719	32761	32644	
420	0	32810	32815	32722	32479	32886	32599	32583	32647	
421	0	32758	32833	32571	32659	32798	32819	32493	32687	
422	0	32780	32719	32602	32607	32855	32751	32511	32559	
423	0	32747	32740	32575	32645	32759	32746	32635	32703	
424	0	32742	32719	32627	32711	32621	32855	32553	32731	
425	0	32789	32727	32587	32647	32612	32803	32623	32647	
426	0	32820	32679	32735	32574	32687	32818	32571	32742	
427	0	32734	32759	32687	32606	32655	32839	32599	32785	
428	0	32729	32695	32567	32643	32718	32745	32850	32623	
429	0	32647	32794	32635	32732	32705	32699	32914	32743	
430	0	32738	32775	32615	32707	32815	32690	32795	32795	
431	0	32721	32927	32758	32738	32837	32695	32775	32717	
432	0	32682	32821	32743	32551	32797	32771	32739	32854	
433	0	32711	32914	32787	32647	32786	32702	32756	32823	
434	0	32734	32831	32551	32707	32842	32773	32580	32735	
435	0	32748	32850	32454	32707	32747	32859	32596	32787	
436	0	32699	32771	32670	32723	32727	32810	32637	32705	
437	0	32759	32839	32706	32598	32669	32822	32587	32795	
438	0	32678	32755	32695	32607	32711	32719	32715	32671	
439	0	32754	32807	32699	32671	32767	32603	32749	32743	
440	0	32775	32801	32693	32662	32775	32670	32666	32731	
441	0	32756	32735	32571	32727	32707	32671	32751	32645	
442	0	32726	32847	32459	32573	32713	32615	32737	32705	
443	0	32796	32834	32647	32481	32826	32534	32893	32647	
444	0	32788	32850	32639	32513	32862	32587	32801	32523	
445	0	32802	32839	32755	32734	32756	32647	32823	32599	
446	0	32835	32615	32658	32743	32847	32607	32803	32614	
447	0	32818	32802	32602	32742	32679	32742	32539	32706	
448	0	32845	32583	32731	32711	32523	32815	32483	32555	
449	0	32855	32663	32655	32683	32483	32759	32609	32763	
450	0	32804	32657	32756	32553	32641	32755	32663	32719	
451	0	32859	32739	32670	32631	32795	32599	33011	32567	
452	0	32801	32615	32519	32690	32963	32511	32999	32597	
453	0	32804	32818	32631	32677	33107	32559	32869	32671	
454	0	32750	32727	32542	32705	32887	32725	32754	32859	
455	0	32679	32818	32733	32684	32871	32733	32763	32786	
456	0	32606	32916	32738	32558	32827	32703	32783	32667	
457	0	32661	32807	32775	32587	32917	32732	32749	32797	
458	0	32717	32871	32625	32578	32843	32687	32951	32735	
459	0	32733	32609	32487	32647	32764	32773	32708	32630	
460	0	32730	32870	32599	32633	32591	32762	32619	32775	
461	0	32647	32815	32465	32687	32758	32663	32709	32679	
462	0	32625	32887	32669	32535	32631	32775	32630	32732	
463	0	32621	32695	32551	32706	32769	32758	32775	32775	
464	0	32707	32794	32695	32754	32710	32717	32839	32694	
465	0	32775	32719	32695	32669	32711	32797	32795	32839	
466	0	32808	32831	32529	32758	32695	32619	32713	32830	
467	0	32782	32775	32636	32605	32723	32631	32598	32647	
468	0	32781	32885	32549	32591	32690	32639	32761	32679	
469	0	32775	32891	32758	32731	32789	32687	32803	32663	
470	0	32743	32967	32667	32662	32903	32669	32811	32730	
471	0	32799	32899	32647	32683	32822	32715	32703	32698	
472	0	32816	32855	32647	32709	32808	32567	32839	32421	
473	0	32843	32645	32474	32613	32694	32678	32365	32769	
474	0	32780	32829	32583	32646	32735	32712	32325	32847	
475	0	32727	32559	32500	32667	32755	32706	32527	32767	
476	0	32690	32827	32639	32631	32677	32771	32626	32775	
477	0	32658	32745	32615	32644	32703	32759	32710	32669	
478	0	32683	32811	32557	32645	32785	32647	32775	32685	
479	0	32702	32745	32644	32751	32775	32687	32850	32666	
480	0	32773	32639	32624	32683	32763	32639	32727	32694	
481	0	32750	32749	32527	32572	32843	32643	32940	32831	
482	0	32647	32887	32721	32457	32763	32674	32851	32695	
483	0	32725	32610	32627	32594	32727	32762	32631	32757	
484	0	32783	32799	32565	32759	32723	32711	32407	32829	
485	0	32858	32647	32741	32775	32665	32849	32356	32830	
486	0	32799	32829	32671	32681	32707	32861	32533	32695	
487	0	32864	32803	32601	32805	32831	32587	32879	32669	
488	0	32838	32739	32586	32679	32775	32551	33359	32618	
489	0	32769	32863	32695	32562	32590	32689	33019	32647	
490	0	32797	32851	32717	32581	32660	32751	32551	32883	
491	0	32765	32876	32647	32694	32735	32679	32721	32803	
492	0	32791	32856	32495	32647	32845	32620	32719	32667	
493	0	32639	32995	32709	32635	32671	32762	32663	32775	
494	0	32639	32815	32739	32671	32728	32767	32877	32671	
495	0	32564	32858	32698	32535	32885	32647	32993	32647	
496	0	32647	32767	32679	32550	32789	32739	32775	32838	
497	0	32701	32879	32507	32602	32755	32751	32807	32771	
498	0	32758	32567	32662	32663	32678	32769	32691	32526	
499	0	32707	32818	32647	32631	32743	32731	32959	32673	
500	0	32702	32645	32615	32695	32775	32743	32839	32671	
501	0	32684	32844	32677	32738	32702	32700	32775	32587	
502	0	32761	32633	32573	32698	32789	32612	32963	32555	
503	0	32826	32735	32630	32673	32858	32715	32815	32711	
504	0	32836	32694	32708	32527	33007	32749	32701	32700	
505	0	32914	32754	32599	32647	33009	32694	32757	32541	
506	0	32932	32733	32701	32797	32947	32687	32621	32647	
507	0	32879	32787	32684	32689	32791	32726	32599	32727	
508	0	32758	32751	32571	32703	32775	32663	32295	32626	
509	0	32745	32822	32612	32615	32607	32791	32484	32741	
510	0	32751	32663	32535	32595	32537	32903	32591	32667	
511	0	32736	32746	32646	32617	32623	32713	32797	32566	
512	0	32773	32658	32702	32722	32679	32705	32941	32733	
513	0	32778	32819	32753	32701	32675	32775	32595	32678	
514	0	32785	32799	32626	32630	32711	32763	32678	32727	
515	0	32757	32759	32635	32638	32807	32759	32689	32847	
516	0	32748	32967	32502	32687	32873	32755	32739	32783	
517	0	32710	32691	32700	32695	32749	32634	32775	32663	
518	0	32711	32887	32622	32629	32695	32603	32898	32767	
519	0	32742	32659	32519	32510	32626	32630	32811	32739	
520	0	32696	32885	32677	32515	32694	32637	32811	32711	
521	0	32681	32775	32591	32516	32751	32713	32749	32669	
522	0	32673	32745	32642	32586	32734	32726	32881	32791	
523	0	32687	32647	32741	32739	32673	32708	32743	32759	
524	0	32850	32717	32705	32637	32547	32711	32775	32635	
525	0	32816	32749	32563	32711	32741	32631	32854	32588	
526	0	32858	32769	32735	32703	32823	32711	32626	32775	
527	0	32758	32795	32678	32647	32743	32721	32643	32751	
528	0	32836	32748	32519	32455	32846	32729	32847	32615	
529	0	32751	32804	32678	32514	32973	32615	33059	32678	
530	0	32826	32734	32647	32775	32967	32653	33015	32806	
531	0	32816	32751	32530	32719	32879	32711	32858	32703	
532	0	32772	32663	32594	32735	32807	32754	32694	32673	
533	0	32716	32751	32543	32767	32887	32719	32773	32707	
534	0	32625	32757	32655	32563	32747	32695	32598	32623	
535	0	32612	32675	32599	32638	32852	32583	32726	32500	
536	0	32620	32742	32709	32743	32662	32657	32559	32608	
537	0	32685	32758	32597	32667	32647	32703	32715	32631	
538	0	32671	32725	32489	32685	32550	32839	32623	32678	
539	0	32681	32887	32719	32775	32670	32839	32523	32839	
540	0	32704	32687	32627	32702	32853	32615	32754	32687	
541	0	32727	32839	32503	32677	32823	32731	32853	32765	
542	0	32696	32679	32747	32509	32815	32687	32578	32790	
543	0	32758	32866	32711	32506	32647	32735	32451	32711	
544	0	32807	32859	32565	32591	32615	32647	32735	32663	
545	0	32840	32738	32741	32727	32935	32567	33142	32673	
546	0	32871	32891	32731	32773	32853	32631	32983	32609	
547	0	32861	32775	32575	32733	32899	32675	32898	32711	
548	0	32816	32830	32742	32708	32858	32754	32738	32769	
549	0	32790	32691	32641	32663	32646	32774	32727	32869	
550	0	32739	32711	32668	32671	32757	32762	32628	32751	
551	0	32725	32582	32570	32725	32775	32815	32534	32711	
552	0	32770	32783	32711	32739	32738	32743	32699	32749	
553	0	32782	32694	32519	32519	32791	32783	32589	32830	
554	0	32784	32821	32699	32533	32733	32715	32577	32721	
555	0	32751	32871	32643	32718	32796	32685	32775	32853	
556	0	32694	32847	32507	32699	32737	32809	32490	32773	
557	0	32697	32998	32643	32694	32669	32853	32453	32687	
558	0	32748	32717	32643	32627	32711	32867	32597	32647	
559	0	32726	32819	32806	32707	32572	32839	32623	32660	
560	0	32769	32791	32647	32715	32725	32741	32875	32642	
561	0	32790	32826	32580	32607	32709	32599	33229	32611	
562	0	32819	32903	32719	32495	32803	32663	32883	32703	
563	0	32793	32647	32647	32524	32737	32679	32742	32735	
564	0	32803	32758	32527	32599	32847	32528	32962	32546	
565	0	32825	32606	32748	32783	32879	32611	32903	32655	
566	0	32781	32731	32633	32749	33021	32558	32911	32725	
567	0	32787	32871	32591	32694	32951	32562	32879	32775	
568	0	32822	32575	32775	32687	32839	32772	32639	32737	
569	0	32775	32787	32647	32722	32639	32793	32546	32658	
570	0	32742	32700	32637	32797	32685	32749	32430	32775	
571	0	32802	32821	32811	32642	32799	32709	32591	32711	
572	0	32783	32838	32663	32579	32763	32775	32743	32543	
573	0	32742	32839	32639	32493	32719	32791	32679	32765	
574	0	32710	32865	32583	32515	32594	32903	32831	32799	
575	0	32686	32621	32603	32625	32815	32730	32836	32559	
576	0	32708	32749	32619	32635	33055	32487	32910	32583	
577	0	32679	32748	32500	32679	32995	32553	32787	32745	
578	0	32722	32783	32553	32695	32814	32711	32743	32703	
579	0	32727	32927	32598	32671	32745	32717	32843	32723	
580	0	32703	32743	32495	32663	32701	32775	32815	32737	
581	0	32679	32815	32647	32703	32767	32735	32829	32727	
582	0	32701	32735	32510	32689	32583	32804	32495	32767	
583	0	32661	32829	32476	32725	32447	32796	32303	32647	
584	0	32647	32757	32637	32492	32595	32690	32594	32702	
585	0	32727	32799	32683	32707	32607	32748	32623	32671	
586	0	32726	32679	32703	32791	32829	32691	32797	32578	
587	0	32808	32810	32710	32715	32775	32817	32644	32740	
588	0	32692	32718	32571	32721	32706	32829	32786	32751	
589	0	32713	32775	32686	32621	32758	32683	32916	32690	
590	0	32785	32735	32626	32535	32873	32523	32868	32615	
591	0	32771	32759	32763	32755	32918	32519	32885	32566	
592	0	32758	32601	32722	32715	32782	32725	32826	32673	
593	0	32812	32757	32543	32615	32674	32722	32623	32852	
594	0	32732	32791	32730	32591	32597	32630	32578	32743	
595	0	32727	32842	32611	32625	32775	32601	32671	32691	
596	0	32699	32873	32631	32679	32932	32773	32690	32743	
597	0	32765	32594	32775	32647	32851	32786	32579	32611	
598	0	32723	32767	32661	32750	32807	32690	32601	32671	
599	0	32711	32687	32511	32708	32834	32655	32798	32699	
600	0	32756	32791	32643	32639	32847	32691	32951	32559	
601	0	32679	32831	32647	32557	32567	32790	32887	32583	
602	0	32690	32690	32701	32602	32507	32771	32862	32766	
603	0	32692	32791	32727	32679	32643	32847	32771	32829	
604	0	32756	32667	32602	32647	32803	32736	32647	32679	
605	0	32786	32867	32623	32647	32821	32853	32679	32819	
606	0	32765	32773	32514	32679	32725	32839	32567	32831	
607	0	32788	32771	32638	32599	32887	32615	32889	32567	
608	0	32821	32535	32687	32583	32938	32667	32775	32646	
609	0	32796	32717	32548	32527	32948	32698	32594	32847	
610	0	32715	32695	32695	32491	32838	32622	32581	32839	
611	0	32821	32719	32594	32603	32869	32493	32852	32647	
612	0	32719	32607	32491	32670	32807	32711	32812	32821	
613	0	32734	32790	32639	32658	32742	32713	32878	32773	
614	0	32742	32767	32630	32669	32797	32743	32903	32699	
615	0	32780	32829	32559	32628	32714	32740	32669	32678	
616	0	32699	32786	32647	32615	32807	32718	32839	32670	
617	0	32676	32811	32607	32481	32638	32775	32863	32646	
618	0	32729	32756	32729	32573	32583	32785	33027	32482	
619	0	32729	32814	32635	32684	32717	32785	32863	32627	
620	0	32769	32881	32746	32698	32807	32687	32694	32635	
621	0	32749	32819	32607	32617	32915	32615	32771	32631	
622	0	32799	32839	32663	32627	32797	32642	32626	32695	
623	0	32783	32786	32599	32551	32766	32711	32727	32694	
624	0	32749	32871	32797	32583	32855	32703	32734	32647	
625	0	32839	32799	32711	32635	32727	32711	32731	32549	
626	0	32868	32791	32601	32775	32655	32764	32841	32631	
627	0	32759	32570	32709	32819	32591	32835	32715	32754	
628	0	32731	32807	32719	32735	32647	32883	32659	32693	
629	0	32692	32549	32575	32765	32647	32887	32691	32810	
630	0	32710	32771	32679	32722	32847	32659	32962	32739	
631	0	32733	32598	32711	32543	32935	32571	32775	32587	
632	0	32754	32911	32823	32621	32871	32695	32634	32679	
633	0	32709	32843	32637	32698	32850	32694	32449	32790	
634	0	32725	32951	32707	32698	32724	32675	32423	32891	
635	0	32715	32679	32479	32694	32743	32686	32596	32802	
636	0	32644	32839	32679	32678	32734	32623	33004	32739	
637	0	32751	32699	32694	32639	32630	32575	33035	32749	
638	0	32665	32839	32577	32507	32739	32587	33215	32549	
639	0	32751	32609	32623	32507	32721	32719	32839	32765	
640	0	32872	32804	32581	32535	32789	32647	32859	32769	
641	0	32814	32562	32647	32701	32562	32799	32465	32747	
642	0	32772	32755	32639	32663	32541	32839	32365	32799	
643	0	32742	32775	32547	32661	32595	32794	32447	32783	
644	0	32787	32863	32634	32711	32801	32687	32615	32699	
645	0	32806	32647	32679	32646	32991	32626	32783	32681	
646	0	32823	32775	32621	32582	32943	32660	32495	32647	
647	0	32767	32665	32661	32766	32626	32679	32706	32595	
648	0	32770	32711	32578	32797	32709	32638	33067	32647	
649	0	32850	32767	32775	32711	32903	32574	33231	32681	
650	0	32801	32719	32683	32692	32975	32559	32959	32607	
651	0	32774	32887	32491	32551	32963	32642	32946	32731	
652	0	32749	32982	32715	32525	32775	32645	32926	32753	
653	0	32722	32894	32647	32591	32767	32703	32676	32639	
654	0	32711	32951	32487	32658	32663	32775	32710	32647	
655	0	32706	32671	32619	32675	32727	32679	32595	32775	
656	0	32684	32951	32582	32679	32703	32862	32466	32960	
657	0	32751	32691	32367	32773	32629	32886	32515	32795	
658	0	32806	32935	32639	32659	32742	32775	32539	32711	
659	0	32821	32605	32610	32583	32710	32763	32664	32759	
660	0	32743	32827	32475	32534	32724	32757	32626	32663	
661	0	32683	32669	32476	32705	32736	32695	32585	32731	
662	0	32638	32957	32559	32628	32786	32738	32803	32755	
663	0	32705	32647	32677	32647	32751	32758	32737	32677	
664	0	32754	32775	32607	32690	32762	32743	32647	32683	
665	0	32835	32671	32527	32587	32773	32783	32603	32694	
666	0	32863	32872	32747	32575	32756	32802	32695	32666	
667	0	32855	32751	32615	32751	32877	32747	32631	32797	
668	0	32839	32838	32530	32723	32818	32783	32913	32681	
669	0	32959	32767	32743	32771	32863	32719	32963	32699	
670	0	32794	32850	32629	32683	32809	32731	32755	32590	
671	0	32786	32581	32647	32727	32661	32676	32815	32689	
672	0	32716	32763	32749	32515	32627	32711	32667	32692	
673	0	32660	32663	32701	32597	32587	32689	32806	32594	
674	0	32657	32838	32511	32717	32899	32669	32859	32742	
675	0	32602	32633	32692	32646	32839	32677	32759	32669	
676	0	32576	32886	32663	32662	32911	32647	32879	32595	
677	0	32670	32623	32547	32709	32871	32671	32825	32681	
678	0	32705	32879	32759	32499	32661	32867	32629	32791	
679	0	32686	32687	32567	32594	32775	32791	32523	32683	
680	0	32743	32810	32535	32679	32847	32751	32543	32734	
681	0	32735	32602	32713	32735	32797	32758	32562	32759	
682	0	32767	32871	32679	32671	32734	32711	32662	32617	
683	0	32834	32642	32571	32543	32743	32647	32531	32740	
684	0	32758	32857	32685	32642	32647	32823	32486	32971	
685	0	32790	32811	32773	32741	32749	32795	32661	32868	
686	0	32884	32903	32619	32711	32846	32710	32851	32695	
687	0	32871	32738	32769	32741	32815	32655	32967	32705	
688	0	32832	32887	32791	32653	32747	32642	32839	32505	
689	0	32812	32755	32643	32559	32930	32567	33071	32647	
690	0	32730	32834	32690	32719	32821	32775	32950	32678	
691	0	32761	32612	32727	32715	32711	32799	32595	32711	
692	0	32750	32909	32626	32667	32743	32742	32677	32749	
693	0	32725	32823	32667	32675	32731	32839	32663	32719	
694	0	32718	32863	32503	32623	32791	32725	32688	32711	
695	0	32697	32845	32647	32493	33015	32415	32900	32639	
696	0	32727	32831	32595	32454	32973	32459	33055	32647	
697	0	32757	32623	32549	32527	32811	32546	32987	32643	
698	0	32786	32773	32701	32601	32811	32607	32863	32694	
699	0	32713	32719	32606	32682	32877	32610	32663	32647	
700	0	32774	32751	32621	32718	32727	32647	32642	32826	
701	0	32761	32639	32713	32668	32738	32723	32407	32815	
702	0	32771	32718	32733	32771	32766	32605	32751	32708	
703	0	32805	32602	32527	32635	32763	32789	32742	32763	
704	0	32889	32669	32743	32477	32715	32795	32662	32799	
705	0	32935	32467	32727	32621	32760	32819	32726	32727	
706	0	32963	32483	32647	32795	32647	32771	32757	32679	
707	0	33107	32450	32647	32747	32546	32859	32539	32791	
708	0	33004	32598	32527	32683	32593	32839	32389	32820	
709	0	33041	32633	32693	32717	32807	32732	32695	32666	
710	0	33047	32630	32534	32751	32639	32829	32547	32799	
711	0	33062	32753	32487	32807	32771	32687	32679	32711	
712	0	33085	32525	32670	32724	32903	32692	32871	32620	
713	0	33074	32738	32471	32607	32692	32823	32543	32815	
714	0	33004	32669	32437	32629	32585	32829	32686	32722	
715	0	32929	32855	32543	32759	32726	32733	33199	32623	
716	0	32968	32679	32479	32694	32929	32695	32983	32740	
717	0	33039	32831	32663	32735	32815	32818	32737	32765	
718	0	33091	32543	32594	32705	32669	32825	32531	32559	
719	0	33193	32765	32351	32603	32687	32831	32527	32761	
720	0	33199	32493	32687	32535	32647	32773	32547	32788	
721	0	33324	32615	32666	32527	32751	32706	32499	32685	
722	0	33224	32471	32455	32735	32843	32675	32721	32775	
723	0	33235	32540	32599	32684	32794	32799	32735	32775	
724	0	33430	32406	32677	32683	32805	32740	32611	32765	
725	0	33441	32524	32723	32738	32775	32789	32718	32765	
726	0	33325	32493	32546	32639	32639	32735	32711	32743	
727	0	33139	32775	32492	32644	32639	32827	32690	32707	
728	0	32856	32971	32647	32727	32616	32821	32569	32699	
729	0	32415	33235	32468	32807	32715	32607	32671	32614	
730	0	32007	33591	32505	32711	32683	32645	32546	32601	
731	0	31628	33654	32613	32763	32839	32594	32683	32429	
732	0	31322	33898	32575	32615	33006	32463	32866	32588	
733	0	31148	33927	32474	32543	33007	32599	32811	32623	
734	0	30974	34265	32535	32775	32995	32520	32899	32631	
735	0	30798	34175	32445	32667	32843	32591	32995	32663	
736	0	30833	34106	32567	32738	32885	32543	33003	32532	
737	0	31066	33837	32721	32679	32668	32791	32735	32669	
738	0	31542	33565	32605	32665	32699	32703	33065	32567	
739	0	31866	33439	32663	32515	32817	32647	33066	32515	
740	0	32034	32843	32687	32415	32949	32613	33083	32349	
741	0	32059	32987	32831	32503	32809	32583	33063	32403	
742	0	31803	32711	32852	32535	32914	32655	33143	32515	
743	0	31655	32763	32755	32466	32949	32542	33495	32279	
744	0	31670	32683	32861	32436	33062	32502	33475	32239	
745	0	31703	32763	32745	32285	33046	32495	33604	32331	
746	0	31854	32479	32951	32379	33023	32603	33315	32366	
747	0	32114	32335	33047	32487	32866	32647	33278	32479	
748	0	32294	32067	33095	32423	32891	32578	32938	32540	
749	0	32380	32300	33010	32507	32743	32703	32875	32480	
750	0	32536	32227	32891	32525	32681	32803	32615	32671	
751	0	32719	32469	32925	32399	32510	32919	32485	32693	
752	0	32924	32263	32739	32623	32451	32867	32455	32699	
753	0	33084	32516	32707	32647	32791	32722	32583	32725	
754	0	33232	32325	32575	32679	32989	32663	32884	32711	
755	0	33436	32576	32647	32708	32833	32641	32903	32727	
756	0	33644	32439	32538	32539	32818	32751	32859	32807	
757	0	33786	32427	32567	32815	32769	32765	32865	32795	
758	0	33900	32371	32399	32735	32711	32797	32743	32927	
759	0	34045	32356	32563	32743	32631	32855	32575	33003	
760	0	34096	32143	32525	32863	32655	32873	32485	32924	
761	0	34114	32239	32595	32711	32647	32850	32363	33022	
762	0	34070	32181	32404	32627	32603	32918	32380	32987	
763	0	34096	32254	32359	32639	32631	32961	32519	33008	
764	0	34097	32325	32574	32861	32694	32911	32383	32943	
765	0	33950	32335	32513	32868	32710	32918	32303	33035	
766	0	33902	32375	32391	32773	32602	32903	32220	32997	
767	0	33746	32367	32581	32899	32620	32887	32133	32847	
768	0	33571	32515	32589	32809	32439	32775	32237	32875	
769	0	33386	32575	32455	32615	32691	32748	32363	32917	
770	0	33303	32667	32515	32647	32647	32775	32391	32863	
771	0	33167	32615	32471	32747	32851	32775	32198	32948	
772	0	33175	32525	32619	32749	32735	32775	32623	32873	
773	0	33023	32645	32383	32775	32631	32769	33119	32695	
774	0	32942	32583	32669	32615	32575	32742	33023	32839	
775	0	32887	32658	32527	32628	32759	32692	32763	32831	
776	0	32734	32620	32745	32659	32719	32771	32575	32806	
777	0	32740	32735	32614	32629	32786	32775	32559	32855	
778	0	32781	32791	32599	32647	32793	32847	32540	32815	
779	0	32799	32722	32785	32695	32610	32783	32597	32807	
780	0	32765	32858	32713	32733	32735	32675	32763	32679	
781	0	32658	32679	32497	32694	32869	32607	32791	32699	
782	0	32594	32935	32666	32658	32797	32716	32675	32783	
783	0	32528	32861	32683	32516	32775	32775	32642	32791	
784	0	32660	32947	32799	32647	32719	32711	32667	32839	
785	0	32703	32718	32757	32702	32839	32647	32732	32755	
786	0	32789	32893	32827	32559	32887	32645	32723	32635	
787	0	32695	32833	32748	32745	32990	32681	32743	32760	
788	0	32623	32767	32773	32711	32852	32731	32716	32660	
789	0	32583	32923	32630	32603	32845	32684	32575	32802	
790	0	32534	32728	32506	32515	32823	32575	32801	32679	
791	0	32479	32999	32743	32756	32826	32679	32790	32627	
792	0	32474	32787	32676	32713	32546	32775	32591	32669	
793	0	32431	32935	32493	32708	32519	32775	32577	32589	
794	0	32425	32811	32739	32637	32615	32746	32703	32551	
795	0	32479	33039	32591	32509	32725	32634	32933	32630	
796	0	32467	32898	32483	32643	32927	32563	32931	32579	
797	0	32552	32987	32557	32683	32806	32748	32919	32579	
798	0	32557	32893	32581	32730	32767	32658	32791	32661	
799	0	32551	32923	32687	32527	32959	32579	33035	32613	
800	0	32575	32861	32549	32547	32919	32591	32887	32682	
801	0	32566	32927	32554	32691	32642	32839	32638	32670	
802	0	32605	32851	32706	32695	32799	32775	32687	32747	
803	0	32612	32900	32631	32754	32711	32699	32732	32681	
804	0	32663	32799	32533	32655	32807	32789	32615	32671	
805	0	32647	32825	32717	32641	32863	32711	32717	32743	
806	0	32700	32815	32740	32831	32930	32549	32854	32719	
807	0	32743	32923	32615	32717	32838	32557	32773	32605	
808	0	32734	32839	32627	32707	32763	32767	32751	32750	
809	0	32684	32951	32610	32579	32451	32902	32783	32733	
810	0	32739	32803	32770	32587	32683	32681	33081	32549	
811	0	32755	32695	32573	32681	33053	32467	33259	32645	
812	0	32711	32806	32703	32621	32966	32663	32902	32639	
813	0	32767	32671	32631	32615	32899	32743	32511	32687	
814	0	32681	32878	32758	32641	32817	32732	32703	32733	
815	0	32669	32659	32586	32663	32855	32674	32683	32611	
816	0	32631	32829	32487	32583	32799	32854	32711	32705	
817	0	32706	32643	32671	32455	32870	32822	32588	32791	
818	0	32705	32757	32597	32694	32689	32754	32797	32611	
819	0	32764	32610	32647	32647	32735	32639	32989	32507	
820	0	32700	32878	32563	32605	32727	32743	32789	32548	
821	0	32619	32790	32699	32539	32805	32663	32803	32843	
822	0	32621	32863	32607	32719	32495	32773	32699	32759	
823	0	32710	32599	32517	32643	32559	32679	32619	32610	
824	0	32749	32847	32691	32765	32591	32695	32759	32673	
825	0	32732	32751	32679	32578	32850	32647	32677	32711	
826	0	32799	32795	32751	32719	32935	32665	33055	32634	
827	0	32666	32795	32679	32742	32903	32759	32735	32839	
828	0	32643	32868	32647	32703	32679	32797	32455	32854	
829	0	32704	32759	32679	32647	32751	32730	32557	32665	
830	0	32789	32922	32558	32495	32751	32698	32754	32679	
831	0	32789	32835	32621	32697	32867	32699	32821	32735	
832	0	32832	32815	32621	32670	32915	32626	32775	32583	
833	0	32775	32759	32677	32695	32801	32815	32471	32826	
834	0	32756	32851	32573	32511	32694	32711	32615	32837	
835	0	32734	32807	32647	32703	32727	32727	32629	32599	
836	0	32721	32868	32687	32607	32662	32775	32743	32615	
837	0	32789	32819	32497	32575	32881	32699	32815	32682	
838	0	32743	32882	32647	32719	32612	32891	32799	32706	
839	0	32721	32775	32679	32629	32743	32758	32756	32853	
840	0	32770	32871	32526	32542	32898	32639	32877	32737	
841	0	32729	32637	32575	32749	32791	32661	32685	32574	
842	0	32661	32756	32463	32743	32758	32749	32759	32739	
843	0	32707	32623	32674	32665	32821	32710	32851	32679	
844	0	32739	32754	32647	32647	32831	32647	32839	32647	
845	0	32782	32814	32495	32743	32818	32691	32675	32591	
846	0	32827	32773	32638	32704	32690	32731	32683	32647	
847	0	32850	32887	32632	32591	32742	32683	32623	32717	
848	0	32827	32596	32519	32655	32771	32739	32527	32615	
849	0	32839	32747	32723	32753	32647	32757	32612	32699	
850	0	32813	32583	32687	32734	32736	32647	32739	32727	
851	0	32782	32802	32574	32685	32574	32727	32749	32713	
852	0	32756	32621	32557	32743	32647	32751	32839	32623	
853	0	32751	32803	32625	32539	32787	32715	32935	32647	
854	0	32725	32815	32677	32574	32935	32679	33050	32695	
855	0	32729	32845	32623	32718	33035	32653	32967	32716	
856	0	32644	32883	32527	32606	32749	32751	32612	32768	
857	0	32623	32859	32700	32695	32761	32763	32418	32767	
858	0	32685	32845	32719	32543	32809	32739	32722	32790	
859	0	32758	32865	32563	32677	32860	32737	32756	32751	
860	0	32676	32886	32668	32706	32833	32707	32870	32613	
861	0	32660	32767	32516	32621	32710	32879	32539	32863	
862	0	32647	32873	32742	32662	32713	32815	32591	32800	
863	0	32695	32835	32692	32711	32669	32791	32647	32740	
864	0	32795	32887	32599	32523	32571	32755	32743	32715	
865	0	32817	32775	32703	32724	32663	32695	32603	32763	
866	0	32803	32919	32668	32703	32610	32703	32487	32567	
867	0	32829	32605	32743	32799	32733	32773	32705	32557	
868	0	32791	32771	32615	32775	32946	32721	32863	32661	
869	0	32894	32855	32655	32751	32817	32687	32911	32599	
870	0	32855	32607	32773	32606	32663	32830	32647	32679	
871	0	32829	32774	32631	32566	32631	32763	32566	32707	
872	0	32807	32775	32623	32604	32791	32631	32711	32803	
873	0	32789	32751	32671	32721	32839	32669	32899	32795	
874	0	32775	32831	32647	32623	32804	32562	32930	32583	
875	0	32769	32681	32480	32693	32725	32695	32973	32791	
876	0	32743	32902	32679	32619	32742	32696	32671	32775	
877	0	32774	32793	32599	32500	32655	32699	32775	32711	
878	0	32734	32871	32694	32673	32802	32607	32891	32724	
879	0	32791	32658	32641	32647	32829	32663	32823	32767	
880	0	32772	32849	32626	32715	32809	32662	32562	32723	
881	0	32733	32629	32571	32535	32775	32643	32773	32743	
882	0	32732	32855	32759	32679	32759	32631	32647	32563	
883	0	32751	32574	32667	32631	32811	32663	32635	32683	
884	0	32732	32763	32743	32662	32741	32719	32378	32791	
885	0	32775	32525	32691	32640	32711	32647	32553	32628	
886	0	32761	32775	32642	32647	32719	32668	32615	32645	
887	0	32797	32599	32666	32731	32669	32631	32659	32671	
888	0	32808	32755	32588	32685	32689	32634	32700	32638	
889	0	32775	32799	32675	32637	32727	32621	32607	32791	
890	0	32726	32762	32551	32690	32983	32641	32759	32791	
891	0	32700	32899	32501	32556	32827	32749	32706	32679	
892	0	32708	32669	32763	32514	32759	32750	32769	32642	
893	0	32720	32809	32634	32635	32703	32807	32847	32849	
894	0	32690	32754	32451	32677	32775	32703	32895	32797	
895	0	32642	32791	32611	32625	32911	32653	33055	32647	
896	0	32662	32797	32491	32647	32826	32735	32807	32719	
897	0	32668	32783	32686	32512	32775	32726	32677	32786	
898	0	32746	32799	32690	32591	32775	32735	32666	32655	
899	0	32786	32633	32617	32725	32659	32685	32771	32687	
900	0	32743	32804	32607	32620	32809	32623	33013	32623	
901	0	32710	32764	32535	32587	32711	32734	32871	32607	
902	0	32745	32862	32683	32623	32924	32685	32791	32679	
903	0	32806	32711	32681	32694	32828	32694	32823	32663	
904	0	32886	32762	32620	32727	32935	32607	32971	32668	
905	0	32950	32619	32711	32583	32939	32655	32873	32769	
906	0	32914	32683	32690	32709	32949	32623	32556	32679	
907	0	32839	32706	32647	32758	32767	32775	32543	32831	
908	0	32799	32703	32602	32767	32853	32719	32519	32695	
909	0	32787	32753	32694	32647	32663	32691	32812	32575	
910	0	32745	32835	32659	32647	32578	32676	32925	32643	
911	0	32751	32891	32695	32759	32594	32607	33103	32663	
912	0	32706	32751	32647	32743	32751	32671	32815	32773	
913	0	32738	32837	32713	32719	32663	32699	32658	32739	
914	0	32740	32839	32639	32551	32773	32743	32406	32715	
915	0	32705	32845	32679	32615	32795	32767	32666	32711	
916	0	32704	32830	32655	32595	32903	32767	32564	32821	
917	0	32686	32934	32659	32391	32727	32810	32535	32727	
918	0	32658	32839	32687	32647	32612	32719	32709	32733	
919	0	32616	32863	32726	32599	32739	32703	32820	32691	
920	0	32647	32847	32607	32595	32749	32667	32817	32709	
921	0	32587	32807	32679	32502	32733	32701	32663	32691	
922	0	32698	32839	32701	32698	32761	32799	32685	32679	
923	0	32743	32921	32627	32683	32767	32830	32561	32691	
924	0	32772	32836	32659	32567	32675	32723	32519	32727	
925	0	32832	32882	32543	32759	32765	32723	32593	32661	
926	0	32802	32767	32666	32677	32655	32759	32653	32723	
927	0	32735	32775	32583	32701	32727	32735	32775	32751	
928	0	32725	32518	32515	32745	32791	32687	32881	32594	
929	0	32709	32735	32671	32555	32755	32809	32615	32745	
930	0	32754	32595	32647	32763	32684	32708	32775	32767	
931	0	32775	32759	32687	32717	32775	32727	32839	32573	
932	0	32775	32603	32671	32765	32647	32771	32966	32746	
933	0	32807	32835	32749	32556	32879	32555	32939	32555	
934	0	32790	32841	32699	32783	32783	32655	32827	32739	
935	0	32703	32979	32569	32631	32925	32640	32711	32866	
936	0	32702	32844	32637	32687	32903	32614	32667	32667	
937	0	32775	32862	32495	32551	32966	32727	32671	32775	
938	0	32807	32762	32671	32679	32623	32759	32681	32706	
939	0	32809	32791	32711	32647	32711	32735	32806	32581	
940	0	32766	32763	32711	32699	32631	32807	32688	32647	
941	0	32763	32814	32631	32551	32767	32755	32836	32614	
942	0	32663	32770	32519	32653	32623	32982	32877	32827	
943	0	32694	32757	32677	32631	32723	32832	32727	32705	
944	0	32730	32725	32631	32662	32900	32703	32962	32545	
945	0	32778	32811	32767	32619	32887	32791	32644	32775	
946	0	32729	32775	32731	32475	32900	32767	32647	32741	
947	0	32745	32831	32631	32754	32974	32694	32643	32639	
948	0	32756	32787	32807	32724	32807	32557	32839	32759	
949	0	32743	32865	32745	32699	32820	32590	32821	32791	
950	0	32765	32612	32620	32722	32678	32635	32855	32727	
951	0	32767	32725	32807	32631	32646	32679	32879	32693	
952	0	32717	32631	32694	32655	32679	32647	32751	32687	
953	0	32738	32871	32507	32726	32736	32687	32837	32629	
954	0	32683	32626	32571	32715	32709	32709	32787	32731	
955	0	32715	32973	32581	32547	32607	32764	32534	32727	
956	0	32658	32855	32678	32639	32615	32763	32687	32706	
957	0	32627	32918	32611	32662	32703	32795	32677	32740	
958	0	32629	32807	32462	32623	32773	32742	32918	32599	
959	0	32732	32894	32583	32615	33133	32614	32961	32635	
960	0	32658	32791	32495	32542	32913	32719	32903	32711	
961	0	32735	32845	32635	32626	32917	32711	32831	32695	
962	0	32746	32585	32559	32647	32735	32739	32647	32775	
963	0	32806	32775	32683	32681	32755	32748	32597	32731	
964	0	32802	32749	32586	32631	32575	32807	32512	32699	
965	0	32797	32761	32605	32595	32515	32823	32555	32647	
966	0	32813	32731	32639	32743	32607	32791	32743	32637	
967	0	32798	32684	32742	32686	32526	32759	32719	32631	
968	0	32734	32775	32775	32733	32851	32638	32563	32623	
969	0	32752	32741	32746	32566	32734	32758	32674	32714	
970	0	32804	32743	32603	32630	32722	32815	32574	32721	
971	0	32818	32775	32510	32706	32932	32771	32881	32727	
972	0	32783	32721	32770	32647	33101	32686	32927	32707	
973	0	32704	32854	32694	32617	32743	32815	32758	32775	
974	0	32658	32615	32807	32535	32765	32743	32703	32780	
975	0	32687	32759	32599	32731	32641	32663	32835	32617	
976	0	32671	32621	32527	32635	32663	32655	32903	32605	
977	0	32684	32791	32719	32662	32523	32727	32798	32719	
978	0	32745	32817	32669	32694	32631	32699	32751	32787	
979	0	32775	32751	32799	32558	32797	32667	32883	32647	
980	0	32782	32819	32731	32702	33077	32762	32775	32851	
981	0	32715	32763	32567	32675	33047	32634	32799	32807	
982	0	32692	32853	32622	32614	33003	32679	32707	32658	
983	0	32729	32579	32663	32435	32933	32583	32916	32575	
984	0	32775	32807	32796	32683	33060	32563	32933	32525	
985	0	32770	32599	32645	32683	32658	32775	32903	32554	
986	0	32827	32775	32629	32731	32647	32791	32700	32741	
987	0	32802	32681	32713	32569	32508	32819	32560	32786	
988	0	32786	32807	32708	32670	32793	32708	32827	32726	
989	0	32782	32867	32521	32735	32979	32663	32895	32642	
990	0	32775	32789	32567	32743	32900	32843	32751	32794	
991	0	32768	32866	32567	32626	32609	32875	32551	32751	
992	0	32738	32807	32687	32543	32775	32755	32685	32753	
993	0	32683	32892	32703	32711	32775	32687	32681	32711	
994	0	32676	32629	32487	32678	32769	32733	32487	32631	
995	0	32689	32847	32622	32635	32694	32759	32463	32809	
996	0	32657	32756	32499	32646	32723	32730	32655	32663	
997	0	32708	32834	32717	32627	32738	32731	32727	32727	
998	0	32714	32839	32610	32711	32738	32748	32723	32615	
999	0	32676	32638	32622	32731	32739	32625	32735	32663	
1000	0	32679	32802	32481	32584	32821	32685	32850	32703	
1001	0	32677	32802	32727	32515	32762	32687	32807	32795	
1002	0	32713	32797	32627	32607	32771	32703	32647	32671	
1003	0	32733	32831	32677	32793	32671	32763	32731	32818	
1004	0	32767	32666	32493	32768	32763	32773	32831	32791	
1005	0	32828	32805	32718	32731	32803	32658	32837	32759	
1006	0	32860	32687	32647	32711	32729	32755	32791	32621	
1007	0	32836	32735	32594	32653	32807	32727	32959	32727	
1008	0	32788	32814	32726	32722	32713	32710	32831	32709	
1009	0	32755	32639	32607	32606	32699	32718	32715	32639	
1010	0	32843	32771	32666	32535	32800	32572	32767	32631	
1011	0	32850	32572	32503	32561	32555	32679	32693	32727	
1012	0	32818	32741	32665	32646	32677	32646	32743	32687	
1013	0	32771	32838	32731	32751	32993	32572	32747	32743	
1014	0	32756	32623	32475	32643	32914	32609	32854	32535	
1015	0	32668	32877	32658	32703	32874	32676	32539	32663	
1016	0	32647	32667	32493	32539	32763	32709	32611	32847	
1017	0	32763	32855	32710	32567	32863	32766	32734	32806	
1018	0	32759	32715	32659	32678	32831	32723	32901	32763	
1019	0	32758	32887	32621	32583	32791	32711	32943	32693	
1020	0	32765	32903	32663	32635	32647	32583	32867	32532	
1021	0	32647	32818	32561	32662	32703	32623	32681	32692	
1022	0	32702	32897	32719	32674	32607	32723	32567	32759	
1023	0	32759	32749	32567	32497	32607	32735	32590	32677	
1024	0	32805	32804	32541	32515	32699	32674	32606	32711	
1025	0	32815	32903	32762	32671	32671	32574	32895	32590	
1026	0	32841	32541	32671	32710	32803	32621	32978	32767	
1027	0	32820	32740	32508	32720	32775	32771	32559	32727	
1028	0	32829	32795	32679	32735	32671	32787	32708	32615	
1029	0	32740	32573	32694	32771	32934	32719	32854	32759	
1030	0	32801	32871	32551	32599	32887	32733	32574	32724	
1031	0	32783	32591	32599	32610	33003	32679	32575	32676	
1032	0	32775	32719	32521	32723	32927	32677	32658	32775	
1033	0	32765	32725	32662	32708	32811	32718	32462	32735	
1034	0	32718	32765	32631	32765	32583	32711	32975	32599	
1035	0	32695	32917	32492	32751	32603	32575	33178	32711	
1036	0	32719	32621	32691	32726	32763	32626	32967	32732	
1037	0	32678	32715	32677	32599	32719	32601	33007	32630	
1038	0	32720	32847	32573	32487	32891	32531	32860	32579	
1039	0	32729	32803	32635	32814	32759	32774	32599	32763	
1040	0	32766	32950	32589	32734	32727	32759	32621	32775	
1041	0	32806	32655	32730	32718	32703	32801	32654	32659	
1042	0	32802	32813	32647	32755	32631	32803	32639	32773	
1043	0	32801	32850	32583	32663	32743	32775	32583	32725	
1044	0	32775	32748	32785	32571	32717	32743	32681	32734	
1045	0	32848	32850	32647	32594	32819	32775	32831	32706	
1046	0	32833	32727	32647	32663	32775	32759	32647	32773	
1047	0	32811	32835	32799	32711	32823	32725	32647	32751	
1048	0	32778	32695	32706	32705	32798	32753	32534	32675	
1049	0	32786	32858	32503	32766	32743	32759	32839	32767	
1050	0	32728	32703	32671	32546	32645	32743	32964	32695	
1051	0	32775	32799	32755	32727	32845	32790	32647	32775	
1052	0	32775	32808	32727	32685	32735	32799	32583	32787	
1053	0	32839	32849	32801	32711	32695	32751	32527	32743	
1054	0	32775	32839	32667	32575	32801	32582	32519	32727	
1055	0	32695	32757	32684	32695	32931	32683	32827	32551	
1056	0	32710	32815	32765	32628	32856	32642	32775	32733	
1057	0	32713	32849	32742	32735	32707	32635	32647	32696	
1058	0	32717	32796	32707	32599	32959	32599	32843	32548	
1059	0	32750	32747	32759	32579	32735	32647	32993	32575	
1060	0	32795	32772	32571	32693	32663	32671	32917	32643	
1061	0	32818	32823	32436	32645	32727	32718	32663	32699	
1062	0	32808	32759	32535	32658	32655	32727	32675	32698	
1063	0	32806	32750	32507	32567	32647	32629	32639	32658	
1064	0	32821	32772	32644	32551	32642	32717	32539	32763	
1065	0	32821	32815	32655	32789	32711	32775	32479	32727	
1066	0	32798	32759	32710	32673	32756	32644	32877	32603	
1067	0	32785	32727	32630	32695	32999	32532	32967	32699	
1068	0	32771	32689	32495	32662	32895	32663	32885	32773	
1069	0	32718	32827	32685	32617	32879	32687	32617	32719	
1070	0	32692	32743	32658	32719	32725	32743	32898	32766	
1071	0	32790	32827	32551	32647	32858	32578	32871	32699	
1072	0	32766	32669	32655	32758	32769	32589	32703	32690	
1073	0	32744	32729	32690	32743	32583	32754	32629	32711	
1074	0	32657	32854	32742	32638	32591	32855	32516	32866	
1075	0	32707	32807	32695	32532	32683	32668	32786	32742	
1076	0	32690	32860	32655	32691	32855	32723	32829	32647	
1077	0	32672	32838	32583	32660	32771	32795	32863	32799	
1078	0	32683	32821	32615	32683	32863	32717	32703	32773	
1079	0	32716	32647	32613	32699	32861	32638	32678	32599	
1080	0	32714	32763	32551	32634	32818	32685	32885	32733	
1081	0	32773	32883	32647	32475	32851	32666	32759	32673	
1082	0	32756	32831	32671	32563	32695	32803	32539	32724	
1083	0	32711	32943	32523	32687	32647	32795	32567	32665	
1084	0	32782	32831	32684	32749	32671	32703	32527	32621	
1085	0	32840	32863	32610	32734	32749	32677	32670	32711	
1086	0	32813	32770	32669	32503	32633	32703	32596	32647	
1087	0	32841	32887	32549	32735	32699	32775	32571	32701	
1088	0	32832	32775	32647	32709	32765	32765	32734	32588	
1089	0	32775	32859	32571	32557	32951	32722	32827	32817	
1090	0	32769	32637	32727	32527	32898	32767	32755	32722	
1091	0	32807	32847	32709	32743	32940	32681	32951	32601	
1092	0	32758	32576	32697	32647	32775	32643	33023	32634	
1093	0	32767	32855	32723	32591	32699	32631	32814	32593	
1094	0	32702	32615	32755	32481	32647	32642	32797	32683	
1095	0	32703	32759	32606	32657	32875	32582	32740	32815	
1096	0	32706	32670	32546	32669	32759	32647	32775	32760	
1097	0	32702	32775	32671	32691	32714	32748	32627	32655	
1098	0	32714	32707	32619	32647	32659	32719	32663	32687	
1099	0	32729	32757	32706	32506	32702	32685	32491	32615	
1100	0	32739	32701	32618	32671	32589	32791	32647	32711	
1101	0	32761	32815	32471	32647	32601	32827	32655	32763	
1102	0	32647	32749	32643	32646	32911	32662	32902	32607	
1103	0	32716	32823	32501	32534	32929	32589	32882	32635	
1104	0	32763	32589	32647	32715	32807	32755	32675	32531	
1105	0	32808	32762	32669	32675	32647	32735	32647	32691	
1106	0	32845	32605	32663	32607	32755	32786	32611	32679	
1107	0	32802	32847	32582	32679	32811	32719	32773	32754	
1108	0	32798	32775	32699	32815	33027	32713	32921	32775	
1109	0	32804	32935	32582	32791	32850	32743	32610	32751	
1110	0	32853	32745	32691	32635	32631	32742	32597	32755	
1111	0	32822	32775	32463	32771	32554	32804	32719	32683	
1112	0	32791	32731	32593	32731	32711	32609	33068	32759	
1113	0	32751	32647	32485	32743	32930	32601	32775	32711	
1114	0	32763	32803	32681	32598	32767	32624	32833	32671	
1115	0	32711	32795	32627	32471	32914	32621	32679	32693	
1116	0	32736	32791	32451	32551	32845	32685	32647	32667	
1117	0	32684	32867	32583	32679	32753	32791	32663	32663	
1118	0	32663	32759	32477	32687	32711	32687	32775	32653	
1119	0	32725	32859	32573	32690	32709	32739	32796	32655	
1120	0	32775	32798	32469	32557	32623	32641	32903	32671	
1121	0	32683	32903	32629	32742	32609	32742	33037	32831	
1122	0	32707	32775	32637	32669	32647	32751	32869	32730	
1123	0	32740	32834	32507	32687	32751	32775	32935	32653	
1124	0	32770	32619	32605	32748	32911	32679	32887	32711	
1125	0	32775	32759	32527	32566	32679	32721	32655	32759	
1126	0	32826	32628	32725	32759	32687	32722	32551	32703	
1127	0	32804	32719	32663	32716	32647	32725	32588	32711	
1128	0	32789	32647	32623	32739	32877	32677	32847	32703	
1129	0	32801	32711	32661	32655	32963	32563	32919	32726	
1130	0	32738	32681	32575	32551	32985	32527	32919	32707	
1131	0	32732	32802	32703	32717	32837	32642	32687	32623	
1132	0	32760	32687	32607	32628	32709	32702	32725	32743	
1133	0	32742	32823	32681	32647	32679	32783	32603	32685	
1134	0	32714	32658	32515	32471	32625	32679	32483	32839	
1135	0	32682	32885	32602	32666	32709	32702	32797	32699	
1136	0	32723	32609	32598	32613	32676	32763	32903	32551	
1137	0	32719	32801	32587	32623	32903	32805	32666	32966	
1138	0	32763	32730	32615	32703	32796	32815	32356	32925	
1139	0	32757	32854	32555	32576	32681	32954	32327	32687	
1140	0	32732	32881	32647	32471	32647	32747	32355	32683	
1141	0	32708	32805	32634	32615	32431	32711	32647	32694	
1142	0	32694	32903	32431	32663	32797	32525	32947	32578	
1143	0	32714	32821	32508	32711	32858	32681	33202	32715	
1144	0	32754	32823	32503	32546	33013	32603	33117	32699	
1145	0	32769	32743	32679	32623	32935	32695	32887	32635	
1146	0	32809	32820	32669	32795	32775	32818	32533	32795	
1147	0	32854	32775	32735	32711	32727	32679	32692	32743	
1148	0	32818	32835	32676	32759	32775	32685	32717	32585	
1149	0	32822	32759	32533	32635	32701	32731	32643	32756	
1150	0	32791	32842	32681	32658	32671	32737	32621	32703	
1151	0	32800	32753	32583	32819	32720	32731	32617	32602	
1152	0	32753	32854	32690	32663	32789	32687	32555	32790	
1153	0	32800	32791	32647	32703	32695	32769	32759	32679	
1154	0	32686	32850	32703	32551	32707	32742	32879	32707	
1155	0	32729	32823	32647	32739	32845	32687	33029	32719	
1156	0	32679	32914	32767	32573	32954	32623	33159	32551	
1157	0	32703	32815	32701	32662	32911	32685	32791	32709	
1158	0	32726	32813	32773	32499	32746	32791	32700	32747	
1159	0	32762	32775	32732	32679	32699	32706	32762	32655	
1160	0	32733	32671	32819	32671	32603	32662	32587	32695	
1161	0	32742	32735	32749	32527	32719	32639	32874	32583	
1162	0	32721	32607	32758	32711	32831	32756	32871	32702	
1163	0	32742	32819	32715	32629	32773	32720	32621	32615	
1164	0	32730	32647	32775	32626	32807	32752	32851	32678	
1165	0	32793	32883	32687	32559	32890	32727	32855	32743	
1166	0	32804	32573	32523	32783	32999	32783	32671	32639	
1167	0	32775	32791	32719	32742	32901	32767	32571	32677	
1168	0	32801	32775	32804	32699	32815	32803	32567	32741	
1169	0	32736	32924	32697	32583	32739	32757	32575	32787	
1170	0	32755	32596	32559	32543	32502	32710	32839	32699	
1171	0	32847	32891	32639	32738	32543	32741	33005	32637	
1172	0	32782	32794	32687	32775	32655	32645	32982	32698	
1173	0	32768	32839	32562	32555	32895	32589	32791	32685	
1174	0	32722	32851	32711	32607	32735	32706	32733	32839	
1175	0	32749	32757	32729	32691	32775	32675	32434	32759	
1176	0	32678	32819	32667	32627	32679	32681	32581	32699	
1177	0	32703	32839	32743	32660	32711	32743	32591	32741	
1178	0	32647	32767	32690	32458	32751	32679	32647	32663	
1179	0	32679	32735	32701	32506	32871	32663	32678	32725	
1180	0	32668	32791	32531	32604	32863	32670	32679	32706	
1181	0	32668	32867	32647	32695	32670	32711	32540	32587	
1182	0	32721	32794	32591	32684	32941	32495	33003	32639	
1183	0	32734	32791	32532	32703	33083	32525	33117	32617	
1184	0	32720	32750	32581	32547	32818	32598	32937	32555	
1185	0	32834	32692	32583	32751	32695	32751	33007	32635	
1186	0	32822	32771	32602	32703	32631	32775	32876	32628	
1187	0	32843	32708	32450	32803	32660	32773	32615	32831	
1188	0	32796	32775	32646	32519	32873	32647	32836	32775	
1189	0	32740	32629	32489	32739	32735	32775	32647	32793	
1190	0	32793	32790	32647	32695	32771	32763	32543	32769	
1191	0	32772	32613	32655	32733	32735	32751	32689	32647	
1192	0	32785	32804	32791	32535	32903	32699	32771	32775	
1193	0	32740	32563	32735	32617	32755	32769	32679	32783	
1194	0	32695	32911	32759	32647	32773	32723	32514	32738	
1195	0	32694	32862	32647	32676	32749	32695	32681	32723	
1196	0	32652	32965	32735	32630	32807	32687	32839	32566	
1197	0	32724	32815	32719	32540	32755	32670	32789	32663	
1198	0	32705	32957	32761	32679	32837	32667	32555	32775	
1199	0	32656	32826	32703	32671	32758	32594	32771	32667	
1200	0	32752	32742	32645	32564	32747	32735	32775	32759	
1201	0	32694	32903	32670	32637	32831	32695	32639	32751	
1202	0	32713	32743	32733	32691	32710	32863	32738	32715	
1203	0	32793	32793	32642	32763	32798	32822	32742	32762	
1204	0	32854	32759	32571	32543	32719	32802	32745	32687	
1205	0	32878	32863	32645	32669	32700	32775	32766	32767	
1206	0	32916	32719	32525	32646	32615	32767	32694	32716	
1207	0	32863	32841	32687	32647	32722	32740	32677	32639	
1208	0	32853	32727	32583	32623	32647	32789	32534	32775	
1209	0	32734	32749	32657	32639	32711	32786	32623	32815	
1210	0	32696	32578	32505	32663	32845	32749	32722	32711	
1211	0	32685	32831	32591	32658	32959	32599	32749	32695	
1212	0	32751	32711	32445	32560	32997	32422	32887	32582	
1213	0	32708	32607	32527	32694	32823	32559	32811	32735	
1214	0	32660	32577	32639	32590	32743	32647	32604	32695	
1215	0	32625	32803	32586	32666	32741	32591	32801	32711	
1216	0	32612	32758	32611	32455	32763	32615	32815	32815	
1217	0	32748	32813	32530	32590	32989	32641	33015	32695	
1218	0	32722	32806	32590	32581	32923	32638	32711	32707	
1219	0	32788	32738	32509	32683	32783	32671	32722	32687	
1220	0	32684	32793	32621	32451	32749	32679	32731	32735	
1221	0	32724	32655	32487	32719	32719	32775	32855	32747	
1222	0	32697	32863	32679	32687	32467	32799	32599	32687	
1223	0	32738	32773	32487	32701	32507	32743	32570	32698	
1224	0	32785	32899	32676	32623	32564	32843	32398	32695	
1225	0	32786	32733	32686	32707	32735	32790	32767	32729	
1226	0	32878	32801	32791	32751	32894	32667	32739	32655	
1227	0	32799	32695	32742	32775	32775	32583	32837	32647	
1228	0	32729	32795	32774	32604	32868	32614	32986	32719	
1229	0	32774	32809	32687	32647	32788	32604	32967	32591	
1230	0	32825	32947	32556	32723	32903	32584	33063	32734	
1231	0	32767	32687	32592	32707	32894	32594	32865	32699	
1232	0	32773	32807	32583	32764	32895	32679	32719	32609	
1233	0	32751	32578	32599	32519	32679	32707	32769	32655	
1234	0	32781	32903	32574	32775	32667	32743	32699	32723	
1235	0	32681	32844	32695	32694	32539	32771	32447	32851	
1236	0	32683	32819	32731	32666	32523	32847	32365	32843	
1237	0	32715	32835	32695	32573	32703	32849	32475	32775	
1238	0	32710	32759	32663	32731	32919	32807	32623	32742	
1239	0	32735	32799	32545	32671	33069	32639	33061	32575	
1240	0	32706	32719	32607	32663	32960	32549	33077	32671	
1241	0	32714	32751	32466	32548	32759	32634	32991	32722	
1242	0	32706	32687	32623	32679	32615	32751	32669	32694	
1243	0	32813	32767	32535	32678	32699	32686	32887	32635	
1244	0	32837	32635	32717	32643	32679	32748	32823	32519	
1245	0	32816	32791	32773	32567	32703	32749	32665	32687	
1246	0	32927	32623	32859	32775	32822	32743	32756	32729	
1247	0	32824	32821	32795	32665	32775	32595	33077	32734	
1248	0	32840	32735	32669	32622	32749	32631	32839	32759	
1249	0	32839	32846	32674	32642	32747	32734	32820	32847	
1250	0	32807	32727	32607	32706	32695	32727	32711	32791	
1251	0	32820	32639	32677	32717	32773	32775	32765	32609	
1252	0	32769	32703	32713	32455	32825	32647	32829	32647	
1253	0	32766	32624	32631	32734	32903	32703	32694	32579	
1254	0	32666	32823	32583	32679	32802	32743	32691	32735	
1255	0	32692	32705	32659	32724	32643	32775	32401	32751	
1256	0	32662	32903	32685	32553	32860	32723	32719	32719	
1257	0	32748	32845	32645	32699	32814	32659	32858	32671	
1258	0	32647	32999	32690	32738	32695	32669	32599	32678	
1259	0	32742	32647	32615	32573	32635	32640	32863	32669	
1260	0	32781	32887	32535	32589	32711	32577	32679	32505	
1261	0	32731	32813	32668	32717	32759	32626	32564	32663	
1262	0	32732	32839	32542	32733	32711	32639	32685	32612	
1263	0	32762	32742	32631	32535	32957	32631	32989	32644	
1264	0	32783	32593	32759	32660	32931	32691	32951	32611	
1265	0	32775	32802	32637	32703	32772	32783	32678	32813	
1266	0	32720	32767	32705	32647	32735	32702	32591	32671	
1267	0	32796	32671	32645	32767	32809	32643	32638	32759	
1268	0	32800	32731	32703	32732	32793	32647	32545	32692	
1269	0	32837	32683	32735	32583	32764	32738	32518	32717	
1270	0	32832	32747	32728	32647	32871	32759	32647	32759	
1271	0	32775	32578	32675	32692	32803	32723	32790	32775	
1272	0	32709	32941	32588	32705	32847	32626	32982	32701	
1273	0	32722	32875	32734	32519	32663	32700	32950	32671	
1274	0	32647	32876	32847	32739	32599	32790	32847	32853	
1275	0	32695	32823	32738	32598	32823	32711	32775	32717	
1276	0	32676	32883	32647	32634	32754	32802	32693	32795	
1277	0	32682	32791	32710	32500	32813	32827	32597	32759	
1278	0	32697	32815	32761	32643	32739	32739	32666	32643	
1279	0	32686	32750	32645	32711	32711	32614	32615	32711	
1280	0	32698	32659	32619	32674	32711	32595	32535	32567	
1281	0	32746	32775	32551	32503	32695	32647	32740	32642	
1282	0	32716	32642	32483	32759	32708	32815	32623	32687	
1283	0	32756	32798	32553	32723	32615	32811	32802	32722	
1284	0	32839	32739	32471	32655	32667	32815	33139	32720	
1285	0	32828	32887	32595	32541	32579	32715	32903	32637	
1286	0	32827	32759	32541	32754	32775	32711	32789	32717	
1287	0	32837	32711	32711	32740	32869	32711	32754	32654	
1288	0	32875	32687	32754	32665	32851	32793	32679	32773	
1289	0	32798	32634	32732	32643	32903	32775	32511	32745	
1290	0	32791	32775	32687	32693	32806	32799	32694	32775	
1291	0	32820	32626	32565	32676	32757	32591	32827	32585	
1292	0	32809	32885	32675	32542	32758	32551	32746	32743	
1293	0	32760	32770	32483	32735	32708	32655	32773	32723	
1294	0	32708	32823	32583	32677	32899	32647	32679	32705	
1295	0	32668	32771	32501	32567	32783	32763	32491	32765	
1296	0	32683	32677	32602	32647	32662	32859	32692	32805	
1297	0	32679	32820	32563	32620	32875	32706	32775	32855	
1298	0	32738	32679	32630	32574	32891	32503	33195	32623	
1299	0	32716	32931	32518	32568	32831	32567	32977	32681	
1300	0	32729	32775	32599	32676	32743	32666	32763	32503	
1301	0	32687	32891	32502	32715	32721	32785	32628	32687	
1302	0	32726	32847	32711	32743	32787	32859	32451	32799	
1303	0	32673	32807	32587	32673	32693	32870	32358	32942	
1304	0	32763	32748	32583	32719	32677	32827	32609	32707	
1305	0	32855	32563	32549	32621	32839	32636	33095	32584	
1306	0	32855	32839	32695	32691	32700	32577	33262	32439	
1307	0	32844	32745	32743	32677	32547	32658	33051	32619	
1308	0	32828	32799	32761	32647	32727	32775	32806	32679	
1309	0	32826	32679	32687	32487	32850	32734	32791	32782	
1310	0	32850	32742	32556	32727	32762	32735	32754	32617	
1311	0	32829	32739	32675	32690	32821	32760	32787	32731	
1312	0	32797	32647	32589	32531	32679	32733	32578	32738	
1313	0	32797	32794	32759	32511	32703	32751	32443	32703	
1314	0	32687	32775	32705	32679	32762	32725	32709	32733	
1315	0	32690	32882	32578	32647	32751	32736	32663	32715	
1316	0	32644	32846	32655	32551	32596	32839	32647	32788	
1317	0	32627	32867	32686	32535	32607	32867	32557	32738	
1318	0	32684	32765	32743	32645	32859	32695	32953	32699	
1319	0	32679	32807	32678	32687	33150	32587	33130	32702	
1320	0	32745	32748	32463	32550	32962	32570	32871	32702	
1321	0	32725	32787	32635	32597	32771	32557	32989	32731	
1322	0	32694	32692	32543	32671	32690	32647	32741	32719	
1323	0	32727	32795	32598	32658	32619	32687	32503	32615	
1324	0	32788	32568	32526	32551	32605	32805	32590	32718	
1325	0	32831	32773	32606	32733	32677	32739	32662	32615	
1326	0	32910	32747	32661	32700	32739	32773	32635	32731	
1327	0	32850	32775	32742	32741	32747	32817	32603	32763	
1328	0	32868	32745	32701	32590	32799	32691	32685	32617	
1329	0	32790	32877	32805	32655	32757	32735	32702	32735	
1330	0	32716	32589	32656	32694	32775	32775	32767	32831	
1331	0	32746	32775	32507	32723	32715	32759	32659	32639	
1332	0	32756	32647	32667	32697	32855	32716	32814	32795	
1333	0	32647	32998	32608	32567	32821	32723	32855	32749	
1334	0	32668	32690	32707	32671	32775	32731	32657	32695	
1335	0	32595	32931	32598	32699	32705	32789	32775	32707	
1336	0	32676	32695	32573	32691	32807	32731	32995	32691	
1337	0	32714	32895	32719	32727	32686	32791	32767	32655	
1338	0	32685	32693	32629	32515	32727	32807	32601	32722	
1339	0	32669	32927	32713	32735	32775	32641	32791	32497	
1340	0	32694	32635	32609	32722	32966	32609	32665	32605	
1341	0	32672	32870	32725	32762	32693	32647	32399	32711	
1342	0	32689	32631	32617	32562	32775	32695	32786	32539	
1343	0	32647	32791	32562	32535	32814	32687	32871	32743	
1344	0	32775	32727	32762	32586	32883	32705	32678	32742	
1345	0	32814	32711	32699	32771	32871	32791	32691	32767	
1346	0	32879	32817	32647	32698	32674	32839	32419	32808	
1347	0	32902	32719	32642	32679	32797	32797	32642	32752	
1348	0	32796	32799	32753	32758	32658	32686	32615	32675	
1349	0	32729	32591	32734	32516	32647	32754	32675	32710	
1350	0	32730	32822	32647	32707	32660	32727	32767	32639	
1351	0	32749	32657	32711	32687	32695	32759	32947	32639	
1352	0	32787	32727	32727	32771	32797	32647	32883	32839	
1353	0	32799	32679	32621	32657	32670	32755	32821	32839	
1354	0	32721	32811	32653	32479	32731	32751	32699	32723	
1355	0	32711	32735	32476	32631	32892	32681	32841	32730	
1356	0	32692	32807	32567	32679	33063	32551	33199	32631	
1357	0	32724	32655	32671	32473	33184	32535	33149	32685	
1358	0	32739	32775	32522	32535	32996	32727	32941	32739	
1359	0	32696	32811	32450	32717	32679	32765	32759	32727	
1360	0	32696	32790	32647	32689	32685	32775	32507	32703	
1361	0	32723	32937	32570	32725	32627	32855	32367	32789	
1362	0	32703	32783	32671	32563	32730	32827	32621	32693	
1363	0	32758	32877	32612	32671	32854	32592	32822	32636	
1364	0	32850	32787	32763	32671	32870	32561	32983	32631	
1365	0	32884	32831	32637	32623	32754	32694	32717	32615	
1366	0	32861	32655	32467	32662	32797	32555	32731	32627	
1367	0	32816	32703	32655	32601	32671	32573	32610	32647	
1368	0	32794	32599	32615	32679	32726	32702	32631	32871	
1369	0	32797	32647	32811	32763	32663	32722	32516	32711	
1370	0	32775	32657	32741	32670	32739	32724	32647	32827	
1371	0	32720	32769	32594	32751	32807	32647	32805	32666	
1372	0	32743	32819	32695	32640	32646	32567	32885	32631	
1373	0	32756	32646	32647	32567	32743	32576	33099	32613	
1374	0	32677	32807	32731	32519	32893	32702	32987	32771	
1375	0	32703	32751	32711	32749	32935	32687	32717	32727	
1376	0	32645	32851	32549	32631	32757	32773	32663	32863	
1377	0	32709	32867	32663	32743	32723	32849	32523	32851	
1378	0	32773	32759	32620	32647	32647	32819	32631	32740	
1379	0	32762	32859	32547	32564	32727	32759	32560	32621	
1380	0	32764	32685	32635	32486	32627	32791	32687	32765	
1381	0	32686	32831	32619	32689	32711	32751	32727	32598	
1382	0	32711	32775	32576	32647	32811	32655	32751	32719	
1383	0	32783	32775	32647	32655	32861	32621	32783	32507	
1384	0	32804	32871	32718	32666	32967	32687	32615	32677	
1385	0	32761	32681	32497	32695	32669	32849	32311	32813	
1386	0	32831	32763	32788	32743	32726	32726	32491	32765	
1387	0	32798	32772	32743	32751	32690	32647	32871	32574	
1388	0	32846	32583	32536	32687	32583	32576	33087	32542	
1389	0	32815	32726	32730	32647	32567	32620	32865	32631	
1390	0	32734	32719	32647	32582	32682	32751	32831	32667	
1391	0	32775	32739	32434	32537	32663	32729	32802	32775	
1392	0	32688	32835	32626	32625	32751	32751	32635	32755	
1393	0	32672	32551	32594	32711	32771	32783	32623	32761	
1394	0	32722	32749	32493	32626	33018	32581	33038	32551	
1395	0	32696	32682	32519	32679	33055	32571	33111	32751	
1396	0	32771	32809	32615	32685	32927	32615	32805	32791	
1397	0	32735	32911	32573	32551	32903	32743	32565	32829	
1398	0	32695	32863	32647	32715	32775	32741	32615	32834	
1399	0	32743	32871	32477	32685	32687	32821	32870	32719	
1400	0	32762	32610	32619	32627	32605	32743	32864	32759	
1401	0	32799	32791	32713	32606	32775	32751	32702	32703	
1402	0	32760	32709	32512	32662	32750	32721	32743	32711	
1403	0	32808	32791	32694	32557	32631	32719	32647	32711	
1404	0	32871	32807	32694	32507	32655	32646	32455	32755	
1405	0	32861	32535	32595	32525	32698	32665	32663	32745	
1406	0	32855	32735	32659	32631	32790	32717	32599	32669	
1407	0	32839	32793	32681	32771	32615	32841	32367	32763	
1408	0	32783	32769	32755	32731	32853	32757	32623	32559	
1409	0	32807	32871	32665	32781	32903	32751	32673	32699	
1410	0	32702	32629	32556	32685	32831	32711	32756	32789	
1411	0	32743	32847	32628	32511	32722	32743	32615	32662	
1412	0	32714	32699	32677	32551	32759	32677	32937	32775	
1413	0	32704	32822	32566	32742	32799	32647	33031	32690	
1414	0	32637	32756	32615	32679	32795	32678	33007	32711	
1415	0	32669	32837	32495	32701	32883	32756	32765	32627	
1416	0	32698	32941	32642	32684	32674	32749	32787	32738	
1417	0	32697	32693	32666	32630	32727	32756	32743	32709	
1418	0	32662	32823	32660	32471	32719	32799	32674	32583	
1419	0	32749	32623	32647	32573	32719	32775	32621	32607	
1420	0	32714	32743	32503	32679	32783	32797	32642	32732	
1421	0	32729	32703	32663	32675	32821	32700	32807	32679	
1422	0	32704	32835	32527	32726	32755	32751	32693	32739	
1423	0	32743	32743	32623	32525	32647	32763	32555	32647	
1424	0	32808	32759	32637	32641	32765	32735	32655	32635	
1425	0	32843	32873	32791	32715	32723	32701	32799	32783	
1426	0	32848	32739	32765	32658	32775	32697	32671	32847	
1427	0	32813	32877	32518	32695	32751	32775	32738	32647	
1428	0	32804	32801	32710	32765	32791	32717	32735	32805	
1429	0	32762	32847	32527	32539	32879	32643	32929	32691	
1430	0	32771	32773	32669	32641	32903	32762	32767	32812	
1431	0	32736	32895	32647	32762	32839	32751	32772	32735	
1432	0	32729	32635	32583	32687	32589	32725	32445	32719	
1433	0	32741	32759	32614	32611	32679	32643	32551	32615	
1434	0	32746	32689	32429	32692	32756	32579	32679	32643	
1435	0	32713	32790	32591	32551	32759	32641	32475	32794	
1436	0	32775	32875	32671	32583	32450	32842	32551	32754	
1437	0	32671	32797	32623	32751	32487	32822	32721	32743	
1438	0	32708	32898	32687	32670	32759	32647	33099	32699	
1439	0	32711	32797	32639	32646	32935	32605	32958	32789	
1440	0	32712	32881	32719	32640	32819	32546	32802	32547	
1441	0	32751	32663	32707	32498	32775	32535	32706	32675	
1442	0	32738	32879	32582	32519	32823	32579	32860	32634	
1443	0	32759	32615	32716	32703	32867	32574	32883	32643	
1444	0	32829	32756	32583	32672	32927	32585	32887	32585	
1445	0	32827	32647	32732	32678	32821	32567	32903	32703	
1446	0	32828	32769	32663	32746	32935	32615	33005	32738	
1447	0	32808	32614	32770	32631	32769	32612	32892	32742	
1448	0	32878	32695	32635	32632	32787	32647	32757	32661	
1449	0	32822	32790	32551	32626	32738	32763	32759	32815	
1450	0	32809	32775	32647	32639	32739	32771	32636	32747	
1451	0	32809	32785	32711	32835	32915	32711	32707	32751	
1452	0	32759	32671	32711	32727	32802	32727	32738	32863	
1453	0	32755	32775	32647	32690	32799	32720	32687	32791	
1454	0	32769	32454	32679	32647	32747	32702	32729	32775	
1455	0	32818	32645	32634	32479	32743	32739	32611	32681	
1456	0	32843	32423	32541	32723	32775	32775	32549	32803	
1457	0	32903	32661	32621	32617	32705	32679	32525	32659	
1458	0	33009	32583	32519	32639	32764	32647	32519	32583	
1459	0	33020	32711	32594	32463	32594	32775	32543	32887	
1460	0	33001	32694	32620	32660	32543	32845	32466	32815	
1461	0	32987	32711	32722	32621	32679	32854	32775	32708	
1462	0	33038	32734	32610	32751	32883	32751	32463	32775	
1463	0	33034	32742	32519	32671	32847	32823	32567	32903	
1464	0	33104	32747	32676	32583	32775	32850	32591	32765	
1465	0	33082	32775	32687	32755	32739	32791	32767	32742	
1466	0	33179	32767	32491	32743	32789	32823	32795	32747	
1467	0	33148	32735	32695	32797	32679	32731	32485	32807	
1468	0	33260	32471	32628	32730	32415	32770	32439	32679	
1469	0	33256	32566	32503	32619	32455	32701	32608	32655	
1470	0	33415	32501	32647	32711	32735	32687	32772	32643	
1471	0	33488	32439	32627	32758	32831	32566	32919	32729	
1472	0	33436	32485	32687	32594	32946	32493	32948	32599	
1473	0	33534	32477	32541	32631	32871	32567	32839	32696	
1474	0	33351	32635	32535	32775	32795	32755	32805	32631	
1475	0	33156	32507	32635	32717	32731	32663	32767	32673	
1476	0	33000	32798	32573	32708	32926	32687	32679	32613	
1477	0	32734	32836	32507	32767	32691	32811	32615	32683	
1478	0	32340	33223	32489	32737	32735	32751	32517	32711	
1479	0	31834	33467	32412	32621	32807	32695	32756	32729	
1480	0	31525	33732	32535	32587	32932	32647	32871	32806	
1481	0	31254	33714	32518	32757	32863	32595	32884	32525	
1482	0	31034	33839	32551	32735	32861	32604	32735	32659	
1483	0	30821	33982	32583	32741	32685	32687	32565	32583	
1484	0	30779	34019	32661	32667	32831	32571	32844	32741	
1485	0	30991	33979	32567	32594	32895	32579	32721	32622	
1486	0	31190	33843	32515	32671	32903	32579	32687	32643	
1487	0	31537	33567	32595	32709	32773	32487	33031	32373	
1488	0	31802	33405	32511	32755	32855	32509	33127	32437	
1489	0	31939	33199	32723	32582	32751	32619	32903	32567	
1490	0	31961	33083	32751	32619	32711	32679	32714	32567	
1491	0	31878	32869	32785	32369	32665	32623	33015	32451	
1492	0	31699	33114	32900	32491	32818	32535	33251	32173	
1493	0	31618	32758	32807	32399	32991	32431	33479	32307	
1494	0	31639	32803	32964	32338	33076	32391	33381	32274	
1495	0	31731	32591	32959	32361	32925	32611	33383	32365	
1496	0	32001	32375	32782	32455	32982	32510	33399	32215	
1497	0	32276	32439	33083	32423	33006	32550	33364	32385	
1498	0	32450	32293	33043	32295	32855	32647	33327	32391	
1499	0	32605	32355	33141	32301	32927	32647	33295	32637	
1500	0	32750	32277	32938	32466	32871	32655	33074	32719	
1501	0	32921	32485	32671	32550	32759	32699	32805	32714	
1502	0	32978	32227	32759	32617	32815	32719	32623	32671	
1503	0	33106	32391	32815	32669	32691	32812	32675	32747	
1504	0	33398	32343	32628	32687	32673	32902	32626	32785	
1505	0	33711	32331	32675	32702	32673	32863	32511	32913	
1506	0	33901	32299	32596	32855	32735	32863	32369	32915	
1507	0	34056	32123	32563	32703	32743	32839	32347	32988	
1508	0	34308	32189	32487	32657	32713	32855	32486	32807	
1509	0	34353	31923	32467	32827	32685	32972	32364	32963	
1510	0	34369	32114	32561	32826	32639	32903	32475	32903	
1511	0	34334	31971	32546	32789	32598	32893	32375	33019	
1512	0	34329	32151	32367	32913	32479	32807	32417	32928	
1513	0	34170	32151	32478	32831	32615	32843	32389	33000	
1514	0	34007	32327	32391	32655	32719	32771	32448	32833	
1515	0	33830	32327	32538	32822	32775	32799	32391	32987	
1516	0	33690	32371	32511	32755	32511	33055	32247	33037	
1517	0	33477	32559	32342	32755	32580	32919	32389	33042	
1518	0	33423	32492	32571	32749	32599	32846	32687	32887	
1519	0	33360	32573	32401	32655	32699	32783	32615	32903	
1520	0	33153	32647	32631	32771	32662	32790	32431	32962	
1521	0	33065	32667	32556	32719	32631	32925	32543	32902	
1522	0	32924	32493	32471	32695	32667	32887	32370	33005	
1523	0	32833	32685	32631	32771	32739	32831	32572	32809	
1524	0	32867	32707	32707	32726	32775	32798	32627	32937	
1525	0	32864	32703	32587	32595	32617	32757	32425	32816	
1526	0	32876	32719	32722	32573	32673	32705	32423	32917	
1527	0	32826	32686	32715	32583	32759	32679	32635	32839	
1528	0	32799	32787	32579	32801	32738	32702	32627	32829	
1529	0	32671	32951	32771	32751	32931	32675	32734	32821	
1530	0	32612	32771	32775	32735	32895	32635	32709	32749	
1531	0	32582	32967	32766	32687	32851	32727	32615	32617	
1532	0	32536	32733	32670	32704	32743	32711	32731	32647	
1533	0	32566	32938	32587	32647	32795	32721	32725	32541	
1534	0	32521	32743	32575	32527	32711	32693	32924	32647	
1535	0	32543	32971	32479	32689	32847	32551	32973	32491	
1536	0	32531	32783	32687	32663	32717	32567	32903	32647	
1537	0	32495	32949	32532	32685	32668	32691	32754	32647	
1538	0	32553	33001	32759	32679	32817	32623	32775	32625	
1539	0	32479	32962	32691	32703	32824	32687	32635	32568	
1540	0	32488	33095	32627	32710	32823	32647	32677	32679	
1541	0	32484	32815	32671	32593	32754	32663	32703	32610	
1542	0	32518	32980	32547	32571	32643	32679	32647	32639	
1543	0	32512	32747	32637	32709	32583	32735	32507	32723	
1544	0	32574	32855	32711	32647	32638	32727	32655	32599	
1545	0	32639	32791	32757	32703	32723	32609	32775	32634	
1546	0	32585	32863	32647	32539	32878	32611	32943	32605	
1547	0	32647	32826	32487	32466	32943	32489	32965	32641	
1548	0	32729	32841	32679	32666	32887	32469	33110	32603	
1549	0	32726	32733	32621	32667	32839	32565	33225	32623	
1550	0	32596	32823	32567	32647	32734	32639	32876	32734	
1551	0	32605	32919	32610	32745	32635	32646	32903	32812	
1552	0	32647	32883	32593	32623	32787	32613	32609	32798	
1553	0	32644	32997	32591	32583	32809	32609	32775	32639	
1554	0	32621	32887	32364	32693	32896	32583	32783	32652	
1555	0	32594	32855	32559	32637	32836	32495	32847	32596	
1556	0	32587	32797	32611	32674	32899	32670	32919	32748	
1557	0	32647	32834	32511	32582	32775	32685	32674	32694	
1558	0	32620	32759	32647	32575	32841	32708	32867	32674	
1559	0	32666	32863	32751	32630	32687	32795	32575	32711	
1560	0	32617	32933	32514	32663	32703	32727	32557	32749	
1561	0	32713	32695	32655	32629	32813	32711	32505	32679	
1562	0	32653	32839	32562	32637	32863	32655	32606	32767	
1563	0	32671	32775	32607	32681	32831	32709	32937	32754	
1564	0	32816	32727	32711	32638	32898	32647	33199	32639	
1565	0	32753	32719	32577	32551	32897	32718	33039	32615	
1566	0	32807	32702	32429	32738	32751	32646	32958	32603	
1567	0	32888	32785	32799	32734	32587	32845	32373	32684	
1568	0	32886	32601	32639	32729	32717	32855	32482	32738	
1569	0	32837	32797	32540	32723	32585	32863	32614	32647	
1570	0	32735	32620	32739	32691	32506	32699	32916	32535	
1571	0	32736	32791	32647	32565	32450	32721	33091	32829	
1572	0	32655	32938	32611	32564	32547	32575	32991	32694	
1573	0	32751	32813	32668	32773	32775	32533	32927	32799	
1574	0	32721	32845	32685	32583	32978	32485	33143	32703	
1575	0	32725	32715	32515	32594	33223	32479	32937	32773	
1576	0	32734	32925	32681	32679	33031	32549	32767	32711	
1577	0	32692	32687	32694	32667	32831	32797	32574	32821	
1578	0	32695	32813	32559	32511	32701	32887	32407	32722	
1579	0	32626	32733	32724	32575	32582	32807	32530	32695	
1580	0	32647	32789	32717	32689	32695	32703	32603	32606	
1581	0	32655	32871	32513	32703	32854	32629	32723	32734	
1582	0	32738	32627	32679	32679	32954	32673	32719	32670	
1583	0	32745	32743	32591	32699	32967	32695	32479	32693	
1584	0	32806	32607	32477	32647	32714	32751	32342	32771	
1585	0	32804	32750	32701	32615	32567	32823	32293	32690	
1586	0	32863	32775	32679	32602	32557	32815	32661	32583	
1587	0	32805	32699	32599	32721	32807	32635	32954	32695	
1588	0	32823	32869	32668	32787	32887	32548	33058	32642	
1589	0	32725	32553	32607	32725	32854	32763	32891	32793	
1590	0	32711	32819	32467	32743	32843	32836	32767	32724	
1591	0	32742	32687	32615	32719	32579	32839	32743	32788	
1592	0	32740	32799	32451	32595	32751	32775	32783	32683	
1593	0	32684	32661	32626	32627	32831	32660	33009	32761	
1594	0	32708	32759	32617	32621	32903	32722	32631	32879	
1595	0	32724	32703	32646	32717	32771	32815	32551	32827	
1596	0	32732	32837	32706	32639	32811	32819	32671	32759	
1597	0	32756	32711	32509	32533	32775	32735	32948	32613	
1598	0	32700	32823	32715	32583	32674	32822	33019	32717	
1599	0	32745	32775	32637	32695	32737	32751	32815	32733	
1600	0	32646	32775	32577	32655	32747	32605	32727	32698	
1601	0	32701	32922	32673	32571	32769	32576	32911	32627	
1602	0	32749	32839	32642	32699	32716	32614	32759	32671	
1603	0	32804	32839	32783	32641	32818	32623	32682	32754	
1604	0	32802	32724	32751	32509	32727	32751	32725	32694	
1605	0	32822	32827	32604	32583	32819	32711	32771	32703	
1606	0	32814	32663	32804	32635	32833	32627	32707	32773	
1607	0	32807	32797	32739	32667	32775	32797	32665	32811	
1608	0	32849	32851	32767	32760	32610	32748	32709	32583	
1609	0	32748	32550	32562	32735	32631	32771	32852	32751	
1610	0	32703	32731	32708	32699	32639	32807	32780	32578	
1611	0	32695	32749	32605	32703	32837	32703	32703	32699	
1612	0	32759	32761	32515	32623	32839	32749	32598	32695	
1613	0	32698	32852	32727	32707	32877	32791	32621	32875	
1614	0	32743	32637	32509	32690	32900	32655	32639	32775	
1615	0	32724	32821	32583	32732	32775	32617	32610	32659	
1616	0	32710	32819	32407	32614	32771	32663	32663	32741	
1617	0	32724	32831	32587	32513	32711	32707	32751	32771	
1618	0	32721	32827	32638	32735	32631	32767	32751	32692	
1619	0	32714	32658	32495	32743	32684	32759	32637	32606	
1620	0	32757	32846	32715	32739	32794	32715	32605	32788	
1621	0	32671	32858	32591	32692	32867	32735	32663	32669	
1622	0	32700	32815	32518	32647	32879	32742	32551	32819	
1623	0	32730	32831	32698	32631	32759	32829	32635	32759	
1624	0	32742	32658	32679	32631	32663	32756	32893	32711	
1625	0	32870	32691	32513	32533	32747	32638	32971	32602	
1626	0	32845	32845	32783	32563	32631	32655	32711	32635	
1627	0	32835	32607	32659	32577	32671	32802	32598	32755	
1628	0	32869	32737	32739	32599	32687	32738	32822	32629	
1629	0	32831	32668	32775	32763	32643	32783	32919	32726	
1630	0	32807	32795	32563	32718	32686	32830	32930	32708	
1631	0	32783	32775	32607	32701	32628	32763	32963	32695	
1632	0	32774	32775	32763	32655	32945	32635	33055	32623	
1633	0	32774	32838	32619	32578	32974	32655	32862	32691	
1634	0	32742	32647	32491	32516	32903	32702	32643	32724	
1635	0	32738	32755	32723	32581	32797	32775	32806	32715	
1636	0	32677	32743	32687	32682	32719	32807	32790	32642	
1637	0	32748	32759	32583	32657	32764	32717	32555	32684	
1638	0	32711	32767	32647	32692	32873	32711	32599	32607	
1639	0	32742	32789	32639	32566	32807	32687	32406	32764	
1640	0	32745	32671	32751	32599	32831	32709	32615	32647	
1641	0	32726	32748	32659	32694	32805	32687	32595	32783	
1642	0	32692	32687	32507	32715	32817	32746	32698	32785	
1643	0	32782	32826	32615	32586	32817	32730	32847	32598	
1644	0	32701	32673	32507	32590	32703	32739	32900	32699	
1645	0	32879	32735	32669	32678	32719	32722	32831	32644	
1646	0	32842	32603	32614	32639	32834	32719	32739	32679	
1647	0	32865	32769	32503	32707	32693	32709	32711	32647	
1648	0	32775	32694	32700	32723	32789	32763	32775	32663	
1649	0	32798	32725	32722	32615	32815	32719	32827	32545	
1650	0	32828	32807	32554	32530	32771	32795	32843	32635	
1651	0	32775	32797	32642	32567	32823	32679	32735	32639	
1652	0	32780	32837	32743	32644	32711	32683	32607	32775	
1653	0	32775	32631	32679	32730	32690	32671	32748	32741	
1654	0	32698	32807	32644	32695	32723	32673	32723	32791	
1655	0	32705	32783	32639	32685	32659	32707	32703	32715	
1656	0	32656	32839	32521	32735	32753	32759	32733	32807	
1657	0	32707	32895	32647	32743	32750	32795	32647	32835	
1658	0	32761	32658	32639	32658	32783	32823	32569	32770	
1659	0	32799	32837	32692	32548	32774	32764	32642	32855	
1660	0	32702	32663	32775	32718	32730	32717	32662	32639	
1661	0	32654	32919	32726	32599	32807	32623	32751	32687	
1662	0	32740	32723	32489	32647	32827	32628	32695	32667	
1663	0	32747	32761	32695	32731	32808	32742	32783	32747	
1664	0	32775	32679	32722	32721	32583	32743	32711	32626	
1665	0	32770	32743	32623	32631	32722	32677	32877	32647	
1666	0	32807	32823	32743	32647	32775	32679	32639	32635	
1667	0	32845	32759	32693	32754	32806	32695	32787	32701	
1668	0	32820	32759	32518	32647	32827	32628	32775	32627	
1669	0	32783	32747	32673	32647	32865	32629	32925	32743	
1670	0	32673	32835	32717	32759	32764	32735	32807	32927	
1671	0	32743	32613	32567	32621	32502	32710	32789	32756	
1672	0	32735	32902	32611	32699	32668	32732	32899	32820	
1673	0	32716	32735	32501	32663	32903	32622	33043	32599	
1674	0	32669	32791	32548	32674	32891	32674	32628	32692	
1675	0	32685	32843	32519	32610	32713	32711	32813	32635	
1676	0	32647	32859	32621	32506	32871	32806	32668	32719	
1677	0	32643	32807	32694	32695	32760	32743	32715	32691	
1678	0	32703	32647	32607	32663	32795	32675	32587	32631	
1679	0	32670	32759	32598	32647	32733	32622	32655	32711	
1680	0	32647	32749	32495	32679	32733	32751	32522	32677	
1681	0	32662	32790	32647	32594	32738	32736	32582	32784	
1682	0	32700	32743	32588	32637	32863	32689	32655	32637	
1683	0	32747	32799	32742	32731	32799	32655	32647	32834	
1684	0	32769	32751	32735	32743	32813	32615	32937	32717	
1685	0	32818	32707	32748	32630	32636	32687	32589	32663	
1686	0	32819	32742	32683	32783	32754	32751	32702	32666	
1687	0	32819	32743	32570	32695	32679	32747	32915	32637	
1688	0	32747	32599	32639	32642	32755	32784	32691	32815	
1689	0	32738	32800	32589	32527	32679	32775	32674	32695	
1690	0	32784	32698	32679	32695	32781	32751	32743	32575	
1691	0	32813	32799	32637	32743	32711	32811	32775	32807	
1692	0	32742	32667	32503	32647	32826	32704	32547	32842	
1693	0	32688	32799	32799	32731	32647	32847	32683	32743	
1694	0	32625	32875	32639	32735	32605	32807	32870	32845	
1695	0	32703	32637	32751	32542	32881	32637	33244	32615	
1696	0	32736	32799	32582	32511	32967	32574	33199	32710	
1697	0	32663	32749	32685	32679	32943	32645	32839	32639	
1698	0	32701	32823	32681	32679	32749	32749	32767	32807	
1699	0	32731	32890	32519	32635	32663	32887	32553	32770	
1700	0	32695	32749	32735	32674	32605	32839	32555	32711	
1701	0	32695	32799	32717	32514	32775	32823	32497	32743	
1702	0	32763	32775	32647	32695	32803	32799	32551	32621	
1703	0	32763	32802	32726	32730	32711	32815	32530	32687	
1704	0	32786	32647	32555	32635	32669	32745	32775	32690	
1705	0	32829	32723	32658	32706	32927	32747	32923	32692	
1706	0	32789	32671	32631	32641	32892	32886	32902	32703	
1707	0	32736	32647	32617	32559	32903	32823	32849	32791	
1708	0	32788	32791	32659	32503	32957	32669	32757	32742	
1709	0	32769	32591	32703	32643	32775	32701	32731	32638	
1710	0	32767	32773	32540	32703	32647	32710	32732	32723	
1711	0	32731	32720	32723	32666	32667	32727	32663	32655	
1712	0	32722	32855	32756	32761	32655	32738	32823	32763	
1713	0	32627	32927	32789	32594	32791	32567	32743	32727	
1714	0	32701	32703	32614	32511	32831	32589	32623	32743	
1715	0	32647	32845	32647	32562	32850	32699	32679	32607	
1716	0	32702	32795	32711	32706	32831	32690	32563	32621	
1717	0	32737	32784	32607	32685	32736	32681	32853	32663	
1718	0	32719	32879	32525	32647	32531	32666	33019	32662	
1719	0	32702	32551	32610	32713	32593	32675	32927	32563	
1720	0	32740	32807	32623	32702	32668	32807	32734	32790	
1721	0	32768	32799	32711	32583	32825	32690	32883	32694	
1722	0	32807	32847	32655	32630	32977	32669	33151	32735	
1723	0	32734	32747	32617	32720	32738	32698	32887	32610	
1724	0	32807	32727	32519	32621	32770	32691	32715	32739	
1725	0	32720	32759	32581	32535	32565	32925	32532	32791	
1726	0	32750	32735	32495	32631	32647	32813	32542	32647	
1727	0	32713	32749	32690	32738	32807	32663	32527	32681	
1728	0	32806	32707	32713	32762	32775	32787	32603	32709	
1729	0	32770	32820	32534	32663	32815	32647	32583	32671	
1730	0	32726	32574	32597	32647	32871	32559	32991	32558	
1731	0	32679	32901	32506	32599	32859	32615	32815	32695	
1732	0	32717	32590	32597	32695	32676	32677	32654	32594	
1733	0	32727	32866	32551	32707	32647	32647	32615	32747	
1734	0	32682	32583	32646	32710	32931	32559	32775	32707	
1735	0	32635	32903	32516	32535	33113	32481	33063	32541	
1736	0	32698	32821	32659	32694	32933	32647	32766	32623	
1737	0	32632	32890	32674	32594	32762	32727	32805	32586	
1738	0	32647	32833	32735	32607	32591	32759	32893	32677	
1739	0	32682	32925	32594	32561	32607	32759	32820	32684	
1740	0	32668	32681	32544	32550	32640	32743	32711	32805	
1741	0	32642	32789	32703	32623	32751	32662	32807	32687	
1742	0	32664	32911	32598	32657	32756	32666	32749	32743	
1743	0	32741	32571	32566	32707	32703	32670	32887	32607	
1744	0	32766	32727	32715	32621	32743	32619	32804	32743	
1745	0	32765	32709	32687	32687	32759	32753	32687	32743	
1746	0	32831	32791	32578	32694	32725	32719	32533	32801	
1747	0	32788	32679	32677	32571	32755	32679	32735	32617	
1748	0	32767	32788	32743	32591	32790	32690	32767	32725	
1749	0	32793	32695	32587	32743	32709	32719	32751	32635	
1750	0	32828	32815	32647	32723	32674	32647	32639	32759	
1751	0	32744	32660	32509	32562	32759	32607	32863	32747	
1752	0	32743	32751	32659	32628	32759	32671	32804	32681	
1753	0	32775	32705	32525	32726	32819	32647	32806	32742	
1754	0	32786	32775	32699	32708	32855	32617	32607	32687	
1755	0	32752	32847	32735	32681	32855	32687	32791	32771	
1756	0	32759	32833	32758	32543	32943	32705	32669	32682	
1757	0	32775	32815	32676	32692	32966	32663	32722	32668	
1758	0	32759	32791	32771	32695	32855	32689	32853	32757	
1759	0	32751	32695	32726	32671	32775	32719	32759	32647	
1760	0	32747	32793	32594	32599	32627	32802	32647	32775	
1761	0	32743	32903	32571	32759	32671	32751	32579	32823	
1762	0	32735	32799	32647	32721	32757	32731	32655	32770	
1763	0	32768	32903	32699	32715	32815	32727	32617	32813	
1764	0	32776	32611	32636	32711	32820	32735	32663	32605	
1765	0	32801	32729	32505	32554	32690	32711	32719	32603	
1766	0	32815	32675	32687	32775	32711	32743	32618	32561	
1767	0	32833	32763	32679	32639	32447	32822	32643	32726	
1768	0	32814	32655	32747	32711	32673	32775	32773	32661	
1769	0	32750	32709	32626	32491	32694	32717	32954	32724	
1770	0	32770	32742	32587	32599	32815	32749	32749	32775	
1771	0	32738	32775	32678	32726	32807	32695	32807	32775	
1772	0	32759	32771	32521	32660	32863	32582	32821	32643	
1773	0	32742	32851	32660	32719	32756	32607	32723	32627	
1774	0	32747	32877	32695	32548	32647	32707	32527	32787	
1775	0	32745	32823	32759	32603	32838	32660	32550	32561	
1776	0	32690	32815	32690	32739	32836	32711	32671	32743	
1777	0	32734	32685	32695	32674	32931	32735	32959	32595	
1778	0	32773	32812	32770	32669	32743	32702	32958	32702	
1779	0	32756	32903	32608	32751	32663	32767	32881	32679	
1780	0	32743	32773	32485	32615	32742	32690	32757	32757	
1781	0	32724	32831	32671	32575	32803	32698	32667	32631	
1782	0	32789	32687	32563	32539	32967	32683	32725	32693	
1783	0	32809	32767	32659	32543	32866	32743	32807	32711	
1784	0	32868	32805	32487	32675	32631	32871	32607	32759	
1785	0	32871	32671	32589	32743	32547	32879	32626	32751	
1786	0	32866	32702	32639	32690	32791	32617	32669	32678	
1787	0	32754	32831	32735	32655	32822	32628	32694	32822	
1788	0	32831	32578	32642	32751	32835	32695	32439	32775	
1789	0	32854	32822	32543	32535	32820	32716	32454	32762	
1790	0	32799	32577	32708	32547	32677	32711	32690	32714	
1791	0	32727	32711	32623	32669	32727	32646	32795	32775	
1792	0	32695	32775	32575	32709	32858	32658	32749	32790	
1793	0	32696	32815	32727	32675	32735	32601	32831	32742	
1794	0	32654	32847	32623	32703	32699	32645	32748	32661	
1795	0	32612	32795	32491	32567	32632	32638	32679	32479	
1796	0	32700	32883	32688	32499	32647	32669	32758	32623	
1797	0	32743	32647	32707	32620	32719	32694	32679	32789	
1798	0	32705	32879	32751	32759	32825	32632	32965	32747	
1799	0	32669	32691	32663	32731	32839	32595	32811	32638	
1800	0	32692	32947	32607	32543	32798	32767	32759	32722	
1801	0	32797	32775	32647	32684	32598	32831	32709	32796	
1802	0	32800	32879	32774	32623	32764	32751	32979	32674	
1803	0	32732	32805	32727	32717	32788	32711	32958	32721	
1804	0	32775	32861	32545	32646	32955	32622	32870	32751	
1805	0	32811	32639	32775	32590	32873	32690	32773	32710	
1806	0	32881	32759	32663	32615	32854	32773	32799	32793	
1807	0	32977	32645	32501	32727	32741	32839	32531	32813	
1808	0	32920	32759	32719	32711	32713	32830	32668	32735	
1809	0	32842	32775	32679	32681	32775	32759	32699	32711	
1810	0	32812	32751	32533	32671	32723	32807	32759	32698	
1811	0	32812	32762	32583	32519	32773	32795	32710	32783	
1812	0	32796	32587	32573	32546	32727	32658	32583	32715	
1813	0	32734	32871	32539	32749	32647	32609	32695	32807	
1814	0	32745	32596	32518	32647	32799	32583	32690	32679	
1815	0	32647	32855	32477	32742	32887	32614	32631	32758	
1816	0	32680	32825	32604	32591	32946	32647	32683	32641	
1817	0	32714	32903	32613	32571	32827	32627	32771	32674	
1818	0	32719	32607	32583	32803	32790	32619	32836	32579	
1819	0	32730	32823	32726	32715	32775	32654	32783	32747	
1820	0	32678	32676	32793	32719	32679	32732	32713	32675	
1821	0	32731	32771	32601	32758	32755	32691	32647	32718	
1822	0	32690	32635	32623	32571	32714	32659	32823	32647	
1823	0	32786	32775	32505	32453	32793	32641	32953	32735	
1824	0	32781	32659	32701	32647	32867	32687	33047	32671	
1825	0	32806	32802	32621	32743	32875	32723	32826	32763	
1826	0	32765	32582	32719	32514	32823	32743	32747	32859	
1827	0	32865	32879	32537	32719	32775	32740	32541	32805	
1828	0	32838	32548	32687	32701	32771	32727	32747	32727	
1829	0	32753	32714	32663	32591	32685	32745	32675	32719	
1830	0	32802	32642	32749	32658	32754	32685	32701	32575	
1831	0	32773	32787	32639	32567	32609	32763	32671	32751	
1832	0	32740	32775	32574	32503	32643	32761	32659	32667	
1833	0	32735	32821	32647	32535	32794	32769	32598	32759	
1834	0	32690	32987	32547	32607	32702	32701	32769	32703	
1835	0	32647	32739	32587	32681	32771	32771	32607	32831	
1836	0	32677	32799	32621	32674	32727	32701	32803	32615	
1837	0	32654	32715	32566	32719	32716	32735	32684	32667	
1838	0	32713	32835	32747	32679	32715	32807	32762	32647	
1839	0	32711	32775	32663	32567	32819	32758	32679	32683	
1840	0	32695	32823	32729	32747	32863	32669	32935	32661	
1841	0	32695	32661	32603	32661	32863	32711	32837	32679	
1842	0	32695	32719	32762	32762	32764	32743	32668	32771	
1843	0	32759	32693	32678	32727	32789	32765	32647	32647	
1844	0	32815	32775	32486	32583	32775	32751	32801	32679	
1845	0	32836	32678	32655	32655	32755	32711	32727	32598	
1846	0	32848	32765	32637	32724	32687	32703	32722	32703	
1847	0	32838	32751	32861	32749	32623	32775	32506	32683	
1848	0	32823	32699	32694	32711	32763	32687	32625	32725	
1849	0	32818	32810	32565	32751	32811	32743	32602	32703	
1850	0	32856	32738	32703	32705	32959	32695	32711	32767	
1851	0	32824	32807	32582	32594	32843	32590	32914	32767	
1852	0	32804	32755	32647	32662	32947	32559	33071	32537	
1853	0	32810	32835	32627	32670	32767	32599	32775	32718	
1854	0	32743	32643	32507	32623	32775	32631	32749	32683	
1855	0	32743	32757	32475	32647	32621	32743	32835	32658	
1856	0	32751	32699	32460	32482	32736	32647	32871	32571	
1857	0	32711	32820	32663	32563	32699	32599	32855	32655	
1858	0	32686	32890	32697	32727	32658	32706	32671	32627	
1859	0	32721	32639	32724	32663	32671	32751	32767	32739	
1860	0	32748	32823	32655	32635	32671	32715	32621	32764	
1861	0	32657	32711	32534	32673	32809	32715	32723	32751	
1862	0	32716	32775	32607	32499	32757	32621	32579	32749	
1863	0	32788	32671	32534	32635	32933	32695	32773	32627	
1864	0	32743	32814	32689	32791	32866	32719	32686	32703	
1865	0	32730	32735	32675	32695	32863	32791	32615	32751	
1866	0	32796	32759	32771	32727	32764	32722	32693	32695	
1867	0	32834	32647	32660	32555	32775	32754	32583	32838	
1868	0	32807	32797	32617	32755	32903	32663	32722	32679	
1869	0	32794	32661	32575	32667	32911	32631	32695	32663	
1870	0	32773	32835	32519	32659	32694	32663	32831	32639	
1871	0	32758	32863	32677	32609	32686	32839	32877	32677	
1872	0	32761	32807	32635	32647	32986	32676	33014	32574	
1873	0	32794	32867	32632	32710	32972	32621	32902	32647	
1874	0	32719	32671	32673	32541	32949	32699	32978	32668	
1875	0	32730	32890	32621	32546	32956	32729	32864	32749	
1876	0	32703	32786	32681	32683	32807	32775	32548	32679	
1877	0	32680	32847	32549	32621	32817	32763	32762	32805	
1878	0	32712	32623	32685	32738	32750	32819	32775	32691	
1879	0	32755	32885	32742	32691	32748	32847	32500	32775	
1880	0	32750	32639	32599	32556	32895	32789	32343	32711	
1881	0	32743	32764	32671	32621	32916	32830	32417	32765	
1882	0	32818	32602	32599	32743	32871	32803	32372	32753	
1883	0	32766	32823	32691	32711	32502	32710	32748	32557	
1884	0	32800	32621	32711	32679	32603	32619	33020	32663	
1885	0	32802	32855	32759	32645	32647	32663	32723	32743	
1886	0	32814	32698	32725	32579	32734	32775	32455	32839	
1887	0	32793	32838	32819	32755	32655	32703	32454	32745	
1888	0	32724	32801	32787	32669	32634	32735	32823	32610	
1889	0	32802	32791	32785	32740	32957	32533	33167	32612	
1890	0	32734	32775	32725	32565	32760	32619	32787	32602	
1891	0	32743	32727	32770	32827	32751	32647	32873	32723	
1892	0	32740	32789	32669	32743	32583	32748	32679	32895	
1893	0	32705	32837	32514	32657	32574	32815	32675	32798	
1894	0	32662	32807	32653	32723	32698	32749	32982	32734	
1895	0	32676	32899	32590	32631	32939	32637	33047	32615	
1896	0	32721	32793	32690	32500	32955	32655	32948	32758	
1897	0	32702	32853	32639	32647	32868	32699	32727	32615	
1898	0	32713	32868	32493	32731	32791	32803	32747	32731	
1899	0	32808	32855	32607	32685	32363	32867	32583	32647	
1900	0	32716	32615	32583	32558	32539	32727	32543	32759	
1901	0	32751	32883	32647	32490	32805	32575	32903	32655	
1902	0	32791	32739	32647	32655	32935	32607	32873	32743	
1903	0	32788	32875	32719	32639	32932	32677	32655	32814	
1904	0	32716	32634	32607	32719	32770	32747	32719	32695	
1905	0	32795	32790	32563	32743	32735	32635	32720	32727	
1906	0	32874	32684	32695	32647	32719	32702	32735	32685	
1907	0	32829	32754	32675	32775	32731	32843	32557	32804	
1908	0	32842	32687	32607	32743	32626	32871	32579	32855	
1909	0	32788	32820	32692	32759	32635	32830	32367	32775	
1910	0	32794	32567	32538	32534	32738	32805	32743	32723	
1911	0	32749	32863	32647	32711	32911	32635	32816	32670	
1912	0	32722	32775	32633	32669	32743	32743	32787	32640	
1913	0	32713	32894	32711	32682	32845	32694	32919	32719	
1914	0	32690	32751	32620	32621	32775	32565	32899	32629	
1915	0	32688	32756	32514	32538	32734	32583	32823	32718	
1916	0	32666	32743	32582	32667	32727	32823	32819	32799	
1917	0	32705	32647	32487	32703	32634	32751	32790	32715	
1918	0	32688	32911	32615	32541	32773	32759	32775	32637	
1919	0	32728	32845	32471	32553	32734	32707	32799	32773	
1920	0	32718	32827	32663	32634	32799	32759	32775	32643	
1921	0	32742	32788	32679	32685	32815	32683	32635	32658	
1922	0	32762	32807	32543	32599	32815	32735	32806	32645	
1923	0	32824	32839	32708	32567	32735	32772	32679	32703	
1924	0	32802	32630	32659	32671	32725	32690	32659	32679	
1925	0	32836	32743	32775	32703	32775	32703	32775	32567	
1926	0	32870	32586	32683	32615	32738	32667	32726	32747	
1927	0	32810	32775	32513	32609	32796	32671	32577	32739	
1928	0	32812	32604	32631	32718	32679	32690	32674	32742	
1929	0	32807	32829	32567	32707	32719	32722	32708	32741	
1930	0	32786	32735	32633	32559	32613	32607	32953	32615	
1931	0	32756	32699	32473	32756	32758	32617	32913	32765	
1932	0	32728	32825	32663	32668	32815	32647	32749	32836	
1933	0	32692	32759	32681	32679	32903	32589	32659	32711	
1934	0	32679	32850	32559	32621	32796	32695	32759	32774	
1935	0	32655	32740	32618	32615	32879	32687	32766	32711	
1936	0	32643	32831	32691	32679	32718	32703	32602	32699	
1937	0	32647	32731	32742	32682	32691	32679	32647	32694	
1938	0	32761	32813	32647	32586	32647	32673	32641	32591	
1939	0	32818	32757	32503	32543	32643	32759	32500	32647	
1940	0	32729	32791	32667	32619	32619	32742	32795	32517	
1941	0	32663	32759	32695	32685	32846	32645	32817	32647	
1942	0	32788	32743	32530	32647	32732	32642	32803	32647	
1943	0	32695	32690	32718	32800	32823	32722	32559	32858	
1944	0	32760	32831	32671	32647	32755	32706	32701	32814	
1945	0	32796	32625	32796	32631	32804	32703	32791	32683	
1946	0	32839	32743	32707	32711	32822	32619	32868	32723	
1947	0	32788	32621	32534	32725	32824	32723	32881	32589	
1948	0	32797	32789	32735	32575	32735	32720	32687	32743	
1949	0	32782	32629	32691	32581	32747	32704	32782	32845	
1950	0	32743	32796	32661	32739	32642	32863	32598	32738	
1951	0	32741	32640	32663	32759	32711	32775	32886	32701	
1952	0	32742	32767	32611	32659	32794	32703	32891	32583	
1953	0	32784	32670	32743	32471	32991	32619	32967	32733	
1954	0	32677	32799	32647	32671	32893	32647	32903	32673	
1955	0	32716	32663	32499	32667	32948	32677	32891	32700	
1956	0	32746	32785	32587	32583	32834	32691	32839	32765	
1957	0	32702	32679	32657	32647	32775	32703	32583	32695	
1958	0	32737	32875	32727	32483	32658	32708	32811	32771	
1959	0	32807	32673	32645	32669	32711	32783	32647	32677	
1960	0	32758	32850	32569	32689	32687	32767	32634	32671	
1961	0	32704	32775	32586	32574	32842	32631	32759	32647	
1962	0	32717	32871	32615	32539	32717	32709	32644	32628	
1963	0	32762	32609	32783	32601	32723	32695	32702	32663	
1964	0	32826	32850	32639	32683	32852	32647	32591	32553	
1965	0	32851	32743	32621	32723	32932	32639	32775	32747	
1966	0	32791	32796	32690	32615	32787	32725	32762	32571	
1967	0	32794	32719	32511	32813	32718	32743	32727	32573	
1968	0	32790	32847	32674	32723	32743	32851	32610	32901	
1969	0	32745	32814	32637	32716	32743	32829	32495	32804	
1970	0	32732	32831	32502	32573	32727	32719	32770	32783	
1971	0	32761	32751	32725	32645	32789	32710	32775	32743	
1972	0	32774	32702	32681	32674	32847	32740	32723	32599	
1973	0	32725	32743	32598	32735	32850	32702	32870	32669	
1974	0	32692	32662	32617	32643	32815	32756	32567	32775	
1975	0	32708	32769	32687	32579	32767	32793	32519	32839	
1976	0	32736	32875	32597	32461	32667	32703	32471	32703	
1977	0	32666	32829	32762	32655	32772	32741	32537	32767	
1978	0	32715	32900	32655	32636	32663	32679	32707	32495	
1979	0	32738	32751	32492	32659	32631	32662	32997	32647	
1980	0	32756	32924	32663	32538	32585	32845	32831	32798	
1981	0	32670	32591	32730	32484	32644	32828	32812	32701	
1982	0	32675	32807	32668	32711	32623	32703	32999	32747	
1983	0	32759	32615	32665	32623	32766	32669	32767	32601	
1984	0	32794	32771	32742	32613	32826	32775	32671	32711	
1985	0	32822	32867	32551	32699	32839	32666	32819	32589	
1986	0	32835	32726	32759	32775	32835	32685	32847	32705	
1987	0	32798	32891	32658	32654	32903	32623	32871	32543	
1988	0	32844	32615	32699	32613	32917	32604	32774	32646	
1989	0	32807	32786	32485	32639	32823	32623	32739	32587	
1990	0	32751	32605	32579	32721	32748	32679	32589	32710	
1991	0	32752	32719	32691	32759	32837	32791	32666	32642	
1992	0	32749	32786	32495	32750	32755	32762	32733	32699	
1993	0	32705	32789	32670	32623	32799	32711	32683	32695	
1994	0	32668	32812	32655	32519	32709	32711	32647	32833	
1995	0	32647	32796	32493	32687	32807	32703	32626	32861	
1996	0	32655	32868	32623	32618	32749	32663	32562	32823	
1997	0	32742	32809	32545	32673	32869	32683	32659	32731	
1998	0	32740	32719	32671	32481	32753	32738	32655	32574	
1999	0	32731	32759	32619	32719	32751	32775	32767	32791	
2000	0	32775	32666	32612	32661	32737	32642	32628	32739	
2001	0	32709	32791	32603	32679	32639	32599	32867	32594	
2002	0	32797	32671	32591	32525	32680	32641	32887	32690	
2003	0	32813	32812	32762	32621	32659	32715	32855	32695	
2004	0	32805	32643	32717	32694	32799	32663	32743	32759	
2005	0	32832	32747	32495	32743	32706	32731	32837	32743	
2006	0	32839	32701	32691	32491	32751	32766	32647	32671	
2007	0	32810	32761	32663	32775	32775	32636	32711	32702	
2008	0	32786	32629	32775	32694	32691	32765	32666	32789	
2009	0	32838	32735	32708	32743	32615	32835	32687	32767	
2010	0	32789	32660	32559	32525	32726	32843	32805	32759	
2011	0	32775	32914	32681	32755	32727	32678	32643	32727	
2012	0	32804	32833	32595	32742	32662	32706	32635	32746	
2013	0	32735	32699	32643	32579	32663	32850	32775	32702	
2014	0	32673	32734	32709	32557	32687	32819	32701	32662	
2015	0	32647	32642	32599	32700	32901	32823	32867	32798	
2016	0	32699	32854	32606	32639	33023	32729	32879	32594	
2017	0	32712	32775	32469	32549	32999	32498	32937	32475	
2018	0	32686	32871	32722	32550	32775	32575	32882	32676	
2019	0	32735	32822	32683	32746	32572	32804	32628	32695	
2020	0	32751	32811	32722	32756	32510	32783	32581	32773	
2021	0	32749	32693	32494	32706	32959	32551	32969	32583	
2022	0	32714	32735	32675	32691	32967	32611	32914	32723	
2023	0	32762	32753	32663	32683	32943	32706	32927	32525	
2024	0	32852	32757	32626	32742	32978	32682	32875	32831	
2025	0	32834	32775	32455	32709	33063	32671	32714	32803	
2026	0	32762	32639	32658	32623	32975	32700	32623	32833	
2027	0	32799	32753	32591	32597	32757	32827	32663	32706	
2028	0	32751	32577	32671	32679	32695	32743	32738	32747	
2029	0	32705	32759	32549	32711	32517	32766	32827	32642	
2030	0	32694	32640	32523	32647	32623	32834	32757	32676	
2031	0	32769	32771	32734	32541	32674	32853	32791	32583	
2032	0	32732	32719	32691	32499	32770	32765	32765	32730	
2033	0	32714	32767	32550	32629	32795	32734	32767	32655	
2034	0	32696	32883	32631	32661	32731	32669	32900	32735	
2035	0	32702	32755	32596	32679	32755	32726	32531	32643	
2036	0	32698	32887	32583	32695	32575	32766	32535	32761	
2037	0	32733	32647	32711	32631	32631	32695	32695	32647	
2038	0	32715	32867	32597	32439	32814	32628	32796	32615	
2039	0	32701	32575	32463	32535	32762	32694	32941	32435	
2040	0	32714	32819	32679	32737	32789	32804	32679	32655	
2041	0	32746	32699	32571	32695	32722	32719	32402	32663	
2042	0	32647	32815	32491	32743	32895	32673	32419	32847	
2043	0	32749	32614	32647	32625	32879	32683	32371	32707	
2044	0	32799	32775	32647	32557	32621	32798	32543	32831	
2045	0	32817	32710	32575	32634	32429	32706	33030	32646	
2046	0	32846	32795	32707	32757	32562	32532	33355	32628	
2047	0	32847	32721	32668	32723	32958	32495	33470	32669	
2048	0	32802	32763	32738	32743	32971	32551	33063	32641	
2049	0	32802	32735	32579	32599	32801	32663	32711	32711	
2050	0	32798	32785	32602	32631	32690	32685	32791	32597	
2051	0	32743	32726	32639	32681	32719	32802	32647	32815	
2052	0	32810	32775	32646	32687	32647	32836	32661	32703	
2053	0	32706	32743	32727	32738	32783	32707	32457	32771	
2054	0	32690	32820	32742	32615	32741	32694	32595	32775	
2055	0	32705	32703	32773	32710	32835	32677	32769	32647	
2056	0	32707	32785	32757	32623	32815	32638	32725	32719	
2057	0	32723	32682	32557	32683	32805	32755	32711	32681	
2058	0	32658	32788	32723	32629	32679	32703	32782	32756	
2059	0	32723	32685	32703	32508	32726	32746	32775	32671	
2060	0	32704	32775	32707	32701	32753	32716	32782	32830	
2061	0	32737	32735	32661	32647	32893	32699	32859	32803	
2062	0	32764	32791	32553	32742	32731	32751	32671	32694	
2063	0	32815	32647	32635	32550	32973	32662	32903	32701	
2064	0	32862	32736	32631	32706	32882	32669	32855	32646	
2065	0	32823	32571	32503	32629	32664	32807	32620	32695	
2066	0	32770	32823	32637	32773	32702	32647	32471	32834	
2067	0	32844	32623	32549	32773	32799	32722	32559	32730	
2068	0	32896	32741	32454	32554	32662	32799	32656	32789	
2069	0	32759	32698	32742	32487	32687	32877	32679	32813	
2070	0	32818	32786	32578	32637	32854	32762	32903	32775	
2071	0	32803	32854	32647	32682	32823	32727	32749	32677	
2072	0	32740	32806	32471	32711	32771	32738	32675	32759	
2073	0	32722	32875	32739	32587	32751	32741	32639	32759	
2074	0	32757	32705	32621	32598	32684	32788	32578	32695	
2075	0	32736	32757	32711	32727	32727	32751	32801	32751	
2076	0	32716	32769	32621	32553	32806	32716	33043	32635	
2077	0	32724	32818	32685	32541	32932	32591	32903	32647	
2078	0	32711	32955	32719	32615	32822	32487	32703	32567	
2079	0	32761	32870	32535	32715	32719	32637	32647	32707	
2080	0	32767	32891	32703	32734	32807	32675	32583	32591	
2081	0	32686	32727	32637	32754	32799	32691	32667	32669	
2082	0	32659	32793	32647	32743	32831	32751	32751	32659	
2083	0	32711	32789	32605	32655	32851	32727	32725	32659	
2084	0	32799	32797	32679	32627	32757	32771	32677	32620	
2085	0	32866	32885	32681	32545	32726	32847	32766	32775	
2086	0	32886	32575	32485	32531	32837	32697	32827	32725	
2087	0	32766	32725	32743	32695	32859	32735	32715	32873	
2088	0	32727	32640	32721	32773	32838	32775	32646	32835	
2089	0	32772	32722	32530	32717	32763	32735	32618	32763	
2090	0	32797	32803	32703	32738	32860	32669	32751	32641	
2091	0	32812	32727	32647	32731	32742	32710	32803	32667	
2092	0	32762	32866	32511	32583	32581	32757	32941	32637	
2093	0	32740	32657	32647	32626	32612	32762	32685	32639	
2094	0	32783	32847	32642	32617	32639	32685	32771	32543	
2095	0	32706	32679	32470	32655	32575	32703	32855	32723	
2096	0	32696	32861	32722	32685	32614	32722	32887	32619	
2097	0	32667	32955	32638	32627	32891	32637	32759	32711	
2098	0	32673	32639	32663	32566	32831	32687	32806	32639	
2099	0	32691	32850	32569	32749	32851	32767	32695	32757	
2100	0	32740	32639	32669	32711	32835	32683	32843	32707	
2101	0	32647	32819	32647	32711	32839	32676	32731	32711	
2102	0	32677	32742	32541	32659	32735	32623	32839	32731	
2103	0	32694	32819	32636	32485	32767	32757	32837	32677	
2104	0	32702	32887	32743	32583	32739	32731	32751	32706	
2105	0	32775	32831	32551	32749	32715	32726	32629	32724	
2106	0	32767	32879	32763	32667	32719	32743	32775	32679	
2107	0	32782	32611	32647	32743	32703	32721	32870	32578	
2108	0	32748	32759	32591	32587	32671	32727	32614	32702	
2109	0	32814	32611	32763	32588	32511	32759	32597	32529	
2110	0	32739	32755	32642	32715	32647	32771	32667	32717	
2111	0	32740	32813	32711	32663	32647	32769	32595	32743	
2112	0	32767	32811	32569	32631	32749	32716	32658	32715	
2113	0	32681	32667	32563	32519	32859	32715	32767	32637	
2114	0	32676	32807	32564	32707	32953	32645	32844	32667	
2115	0	32738	32865	32471	32605	32797	32738	32808	32727	
2116	0	32684	32802	32567	32687	32751	32731	32647	32647	
2117	0	32717	32919	32679	32700	32700	32795	32607	32683	
2118	0	32735	32647	32492	32647	32630	32843	32703	32647	
2119	0	32783	32834	32711	32617	32762	32715	32775	32679	
2120	0	32773	32695	32607	32516	32663	32695	32783	32659	
2121	0	32767	32783	32578	32615	32941	32743	32823	32807	
2122	0	32798	32775	32590	32715	32943	32751	32719	32611	
2123	0	32769	32722	32576	32647	32869	32662	32615	32695	
2124	0	32780	32807	32743	32635	32839	32607	32679	32655	
2125	0	32843	32766	32647	32739	32767	32690	32787	32773	
2126	0	32784	32839	32731	32719	32832	32643	32703	32787	
2127	0	32844	32759	32781	32523	32799	32685	32703	32759	
2128	0	32797	32759	32719	32594	32809	32623	32823	32713	
2129	0	32775	32493	32703	32755	32874	32620	33085	32670	
2130	0	32789	32758	32551	32694	32795	32557	33042	32587	
2131	0	32713	32541	32689	32655	32841	32642	32753	32799	
2132	0	32767	32811	32613	32727	32819	32708	32805	32743	
2133	0	32711	32679	32627	32678	32834	32735	32629	32753	
2134	0	32669	32757	32527	32583	32831	32714	32850	32743	
2135	0	32747	32701	32617	32607	32775	32731	32735	32838	
2136	0	32724	32811	32694	32775	32822	32775	32754	32775	
2137	0	32718	32802	32521	32679	32631	32734	32535	32813	
2138	0	32759	32757	32734	32679	32663	32685	32647	32699	
2139	0	32779	32869	32653	32743	32683	32729	32575	32659	
2140	0	32729	32759	32545	32527	32703	32743	32644	32679	
2141	0	32725	32918	32569	32532	32823	32671	32567	32743	
2142	0	32634	32658	32595	32715	32703	32741	32735	32632	
2143	0	32780	32930	32516	32683	32832	32797	32769	32727	
2144	0	32718	32725	32671	32703	32762	32647	32646	32643	
2145	0	32745	32713	32687	32527	32769	32691	32767	32631	
2146	0	32730	32798	32658	32775	32738	32758	32743	32669	
2147	0	32775	32749	32703	32694	32598	32711	32552	32647	
