# OpenSignals Text File Format
# {"00:07:80:3B:46:38": {"sensor": ["CUSTOM/0.5/1.0/V", "CUSTOM/0.5/1.0/V", "CUSTOM/0.5/1.0/V", "CUSTOM/0.5/1.0/V", "CUSTOM/0.5/1.0/V", "CUSTOM/0.5/1.0/V", "CUSTOM/0.5/1.0/V", "CUSTOM/0.5/1.0/V"], "device name": "EMGs", "column": ["nSeq", "DI", "RA_L", "RA_R", "OE_L", "OE:R", "IL_L", "IL_R", "MF_L", "MF_R"], "sync interval": 2, "time": "16:49:41.149", "comments": "", "device connection": "BTH00:07:80:3B:46:38", "channels": [1, 2, 3, 4, 5, 6, 7, 8], "date": "2017-5-22", "mode": 0, "digital IO": [0, 1], "firmware version": 772, "device": "biosignalsplux", "position": 0, "sampling rate": 1000, "label": ["RA_L", "RA_R", "OE_L", "OE:R", "IL_L", "IL_R", "MF_L", "MF_R"], "resolution": [16, 16, 16, 16, 16, 16, 16, 16], "special": [{}, {}, {}, {}, {}, {}, {}, {}]}}
# EndOfHeader
0	0	32683	32283	32606	32791	32807	32639	32671	32559	
1	0	32753	32233	32542	32819	32878	32713	32573	32391	
2	0	32838	32358	32638	32890	32759	32644	32789	32583	
3	0	32988	32279	32724	32843	32875	32671	32703	32659	
4	0	33047	32301	32549	32837	32803	32677	32775	32739	
5	0	33306	32199	32719	32738	32839	32615	32729	32577	
6	0	33510	31956	32639	32669	32655	32722	32502	32381	
7	0	33563	31941	32799	32747	32775	32759	32653	32647	
8	0	33632	31943	32611	32764	32655	32623	32545	32663	
9	0	33592	31991	32748	32711	32807	32755	32772	32626	
10	0	33636	31993	32775	32630	32546	32695	32605	32673	
11	0	33661	32275	32739	32527	32822	32711	32631	32613	
12	0	33335	32543	32677	32451	32671	32712	32596	32501	
13	0	33127	32647	32738	32447	32871	32647	32647	32701	
14	0	32887	32695	32775	32599	32871	32743	32391	32659	
15	0	32735	32933	32895	32735	32847	32698	32543	32804	
16	0	32647	33243	32862	32855	32791	32686	32519	32711	
17	0	32607	33309	32775	32971	32647	32690	32429	32607	
18	0	32592	33324	32775	33003	32811	32638	32399	32743	
19	0	32729	33275	32931	33047	32723	32623	32388	32807	
20	0	32817	33309	33143	33095	32815	32679	32315	32663	
21	0	32943	33393	33068	33154	32775	32622	32391	32731	
22	0	32971	33479	32909	33159	32863	32677	32354	32791	
23	0	32987	33367	33028	33067	32707	32682	32479	32715	
24	0	33035	33309	33051	33031	32807	32775	32299	32775	
25	0	33127	33193	32950	32961	32693	32733	32443	32589	
26	0	33089	33159	33039	32786	32852	32633	32263	32695	
27	0	33086	33074	32903	32719	32699	32718	32391	32602	
28	0	33082	33285	32734	32530	32806	32631	32367	32497	
29	0	33040	33367	32706	32491	32595	32775	32660	32799	
30	0	32963	33541	32796	32503	32783	32765	32639	32835	
31	0	32888	33453	32767	32538	32599	32757	32767	32687	
32	0	32684	33303	32742	32534	32825	32787	32687	32720	
33	0	32647	33031	32690	32555	32535	32673	32768	32726	
34	0	32486	32711	32647	32595	32903	32711	32798	32757	
35	0	32391	32571	32532	32659	32775	32687	32775	32636	
36	0	32358	32575	32623	32692	32731	32743	32624	32710	
37	0	32173	32495	32675	32775	32745	32737	32695	32695	
38	0	32106	32638	32767	32855	32647	32758	32566	32707	
39	0	32236	32668	32706	32815	32739	32644	32769	32602	
40	0	32253	32583	32692	32829	32623	32743	32702	32541	
41	0	32240	32647	32705	32839	32731	32695	32847	32820	
42	0	32213	32570	32614	32799	32733	32771	32845	32751	
43	0	32207	32791	32801	32751	32711	32797	32775	32566	
44	0	32271	32811	32671	32727	32839	32687	32791	32671	
45	0	32335	32813	32759	32711	32743	32712	32655	32628	
46	0	32335	32795	32683	32663	32855	32665	32759	32471	
47	0	32415	32769	32727	32682	32783	32687	32743	32640	
48	0	32388	32789	32695	32581	32775	32674	32807	32619	
49	0	32383	32695	32645	32534	32537	32647	32865	32467	
50	0	32436	32702	32479	32455	32711	32775	32706	32814	
51	0	32528	32661	32426	32471	32587	32827	32867	32857	
52	0	32556	32724	32525	32451	32751	32805	32694	32587	
53	0	32697	32702	32586	32587	32620	32789	32834	32849	
54	0	32880	32487	32637	32687	32743	32653	32773	32757	
55	0	32857	32549	32590	32691	32775	32783	32799	32594	
56	0	32802	32567	32571	32789	32745	32710	32727	32692	
57	0	32754	32719	32607	32879	32588	32683	32699	32535	
58	0	32703	32607	32839	32889	32763	32642	32591	32679	
59	0	32686	32685	32759	32947	32590	32771	32651	32609	
60	0	32614	32935	32703	32947	32730	32709	32686	32679	
61	0	32750	32901	32527	32982	32743	32669	32555	32595	
62	0	32775	32671	32799	32914	32797	32743	32706	32759	
63	0	32744	32647	32943	32791	32870	32787	32636	32647	
64	0	32933	32567	32991	32671	32793	32647	32679	32591	
65	0	32951	32538	32751	32686	32851	32655	32619	32575	
66	0	32959	32669	32855	32666	32613	32627	32546	32611	
67	0	32831	32563	32775	32602	32861	32707	32710	32658	
68	0	32775	32551	32602	32502	32738	32719	32623	32725	
69	0	32851	32669	32647	32553	32767	32671	32669	32615	
70	0	32858	32629	32717	32622	32827	32666	32647	32661	
71	0	32870	32519	32634	32551	32602	32679	32642	32690	
72	0	32967	32525	32703	32566	32834	32671	32763	32615	
73	0	32891	32647	32701	32655	32807	32759	32462	32607	
74	0	32842	32575	32647	32695	32769	32657	32686	32582	
75	0	32807	32567	32715	32743	32797	32698	32487	32642	
76	0	32893	32540	32727	32803	32685	32629	32612	32733	
77	0	32887	32554	32751	32881	32775	32723	32465	32710	
78	0	32681	32775	32807	33051	32647	32711	32635	32725	
79	0	32653	32823	32960	33031	32907	32727	32493	32615	
80	0	32743	32810	32931	33021	32771	32695	32676	32766	
81	0	32734	32806	32894	32949	32726	32741	32732	32551	
82	0	32704	32694	32698	32773	32751	32655	32727	32685	
83	0	32786	32708	32704	32755	32727	32679	32708	32607	
84	0	32782	32786	32613	32749	32740	32722	32637	32729	
85	0	32750	32614	32534	32729	32587	32743	32771	32769	
86	0	32775	32834	32519	32718	32851	32766	32535	32599	
87	0	32815	32773	32623	32631	32839	32738	32597	32603	
88	0	32854	32783	32676	32621	32861	32685	32519	32476	
89	0	32843	32599	32703	32599	32800	32679	32669	32597	
90	0	32854	32578	32735	32587	32823	32681	32775	32681	
91	0	32846	32673	32735	32511	32748	32739	32821	32642	
92	0	32813	32703	32727	32479	32903	32639	32582	32695	
93	0	32822	32735	32735	32599	32587	32731	32703	32662	
94	0	32791	32717	32609	32669	32871	32746	32701	32621	
95	0	32847	32791	32743	32679	32679	32679	32663	32509	
96	0	32767	32818	32725	32799	32759	32675	32687	32626	
97	0	32775	32669	32759	32871	32809	32635	32492	32677	
98	0	32710	32659	32844	32911	32823	32695	32647	32514	
99	0	32738	32850	32735	32918	32847	32719	32455	32647	
100	0	32655	32859	32823	32889	32743	32839	32695	32758	
101	0	32729	32679	32734	32959	32875	32826	32573	32827	
102	0	32612	32723	32671	33007	32793	32711	32555	32728	
103	0	32715	32611	32839	32847	32903	32725	32414	32703	
104	0	32754	32644	32815	32763	32606	32643	32665	32567	
105	0	32710	32837	32751	32706	32843	32701	32543	32690	
106	0	32760	32727	32687	32592	32596	32635	32739	32669	
107	0	32766	32697	32789	32547	32717	32767	32639	32565	
108	0	32696	32749	32698	32599	32739	32679	32745	32647	
109	0	32768	32757	32775	32731	32775	32629	32647	32615	
110	0	32738	32623	32786	32671	32815	32663	32733	32735	
111	0	32811	32588	32623	32530	32805	32694	32767	32631	
112	0	32834	32734	32643	32510	32807	32718	32759	32527	
113	0	32774	32679	32754	32559	32761	32661	32693	32670	
114	0	32718	32746	32717	32663	32863	32767	32767	32707	
115	0	32672	32786	32826	32727	32605	32737	32771	32587	
116	0	32723	32642	32623	32771	32903	32662	32711	32633	
117	0	32718	32610	32647	32882	32727	32774	32621	32686	
118	0	32726	32775	32687	32903	32854	32765	32607	32751	
119	0	32721	32822	32796	32962	32743	32760	32532	32693	
120	0	32711	32771	32863	32941	32775	32751	32689	32786	
121	0	32713	32725	32869	32943	32740	32701	32505	32719	
122	0	32683	32815	32759	32938	32684	32759	32711	32775	
123	0	32765	32742	32807	32931	32771	32717	32605	32685	
124	0	32724	32606	32804	32931	32686	32665	32659	32591	
125	0	32727	32669	32563	32869	32775	32787	32663	32742	
126	0	32749	32663	32559	32783	32661	32661	32707	32583	
127	0	32766	32623	32699	32692	32764	32709	32571	32689	
128	0	32858	32814	32663	32626	32640	32617	32757	32669	
129	0	32738	32799	32749	32566	32751	32703	32743	32550	
130	0	32785	32673	32823	32562	32573	32595	32737	32656	
131	0	32821	32551	32772	32454	32757	32711	32818	32663	
132	0	32871	32643	32663	32483	32679	32685	32787	32653	
133	0	32822	32655	32701	32575	32839	32733	32670	32674	
134	0	32730	32647	32663	32613	32679	32714	32723	32610	
135	0	32767	32731	32567	32710	32775	32745	32685	32726	
136	0	32770	32647	32623	32737	32647	32703	32615	32647	
137	0	32666	32711	32707	32836	32798	32727	32662	32466	
138	0	32675	32691	32783	32868	32615	32726	32583	32647	
139	0	32665	32755	32834	32918	32788	32671	32646	32663	
140	0	32750	32807	32711	32915	32671	32748	32685	32525	
141	0	32771	32677	32687	32955	32833	32679	32671	32647	
142	0	32792	32710	32707	32993	32644	32671	32620	32643	
143	0	32903	32659	32843	33003	32743	32631	32662	32750	
144	0	32748	32605	32747	32879	32694	32727	32739	32645	
145	0	32756	32694	32690	32865	32755	32726	32754	32647	
146	0	32659	32815	32783	32815	32623	32710	32725	32727	
147	0	32599	32619	32814	32735	32735	32663	32804	32710	
148	0	32662	32683	32803	32625	32634	32727	32637	32471	
149	0	32790	32727	32705	32655	32775	32722	32647	32541	
150	0	32838	32591	32687	32627	32673	32730	32666	32451	
151	0	32858	32515	32615	32574	32807	32687	32783	32603	
152	0	32809	32795	32701	32535	32751	32754	32675	32701	
153	0	32763	32867	32690	32615	32858	32774	32861	32939	
154	0	32729	32738	32727	32658	32674	32855	32691	32868	
155	0	32847	32676	32830	32709	32855	32775	32749	32711	
156	0	32834	32845	32611	32847	32827	32707	32756	32739	
157	0	32614	32941	32629	32854	32719	32671	32619	32506	
158	0	32652	32723	32766	32828	32786	32721	32621	32579	
159	0	32686	32763	32695	32858	32723	32669	32511	32487	
160	0	32612	32955	32628	32868	32815	32686	32637	32626	
161	0	32452	32807	32639	32879	32583	32659	32493	32715	
162	0	32516	32771	32711	32957	32783	32703	32689	32765	
163	0	32694	32605	32783	32799	32789	32707	32519	32599	
164	0	32726	32639	32614	32749	32818	32759	32623	32573	
165	0	32775	32710	32775	32742	32711	32766	32591	32775	
166	0	32764	32767	32754	32739	32863	32647	32771	32692	
167	0	32799	32663	32719	32620	32775	32647	32727	32615	
168	0	32828	32636	32701	32571	32614	32743	32579	32487	
169	0	32814	32813	32803	32553	32875	32647	32695	32655	
170	0	32809	32902	32809	32485	32757	32701	32575	32605	
171	0	32851	32803	32730	32554	32877	32719	32656	32663	
172	0	32883	32587	32820	32461	32807	32735	32562	32535	
173	0	32854	32643	32774	32450	32679	32655	32775	32695	
174	0	32804	32634	32733	32575	32799	32727	32702	32692	
175	0	32687	32682	32671	32602	32599	32619	32605	32594	
176	0	32742	32584	32647	32687	32827	32726	32644	32617	
177	0	32820	32645	32727	32791	32775	32755	32485	32541	
178	0	32740	32671	32823	32849	32773	32749	32631	32627	
179	0	32724	32559	32646	32903	32797	32683	32503	32662	
180	0	32724	32617	32674	32927	32807	32766	32683	32815	
181	0	32710	32631	32715	33003	32747	32709	32557	32770	
182	0	32762	32583	32735	33067	32663	32731	32711	32639	
183	0	32838	32556	32798	32931	32805	32611	32611	32623	
184	0	32747	32616	32775	32871	32839	32734	32583	32495	
185	0	32693	32647	32775	32813	32786	32719	32658	32647	
186	0	32698	32758	32590	32736	32839	32629	32644	32691	
187	0	32745	32757	32703	32647	32751	32727	32815	32891	
188	0	32849	32786	32855	32551	32866	32754	32787	32719	
189	0	32858	32727	32901	32590	32727	32619	32605	32507	
190	0	32908	32695	32949	32415	32879	32647	32623	32598	
191	0	32826	32757	32687	32429	32613	32551	32471	32548	
192	0	32709	32690	32659	32505	32855	32717	32725	32575	
193	0	32557	32629	32836	32591	32727	32766	32658	32754	
194	0	32566	32638	32919	32672	32835	32845	32847	32703	
195	0	32564	32701	32799	32743	32791	32765	32686	32787	
196	0	32632	32876	32794	32831	32834	32655	32711	32575	
197	0	32810	32700	32652	32893	32587	32703	32630	32441	
198	0	32716	32848	32539	32873	32863	32679	32655	32694	
199	0	32722	32775	32669	32839	32595	32706	32643	32606	
200	0	32594	32723	32571	32822	32799	32747	32549	32723	
201	0	32639	32734	32615	32849	32615	32717	32637	32690	
202	0	32698	32959	32478	32900	32775	32739	32476	32560	
203	0	32839	32767	32589	32895	32723	32683	32705	32635	
204	0	32939	32610	32747	32796	32783	32775	32617	32698	
205	0	32801	32583	32733	32803	32852	32730	32516	32607	
206	0	32775	32720	32804	32775	32765	32663	32687	32677	
207	0	32775	32787	32803	32843	32863	32717	32727	32570	
208	0	32817	32686	32861	32738	32798	32627	32733	32607	
209	0	32850	32647	32732	32668	32705	32747	32621	32516	
210	0	32780	32809	32677	32595	32767	32658	32714	32658	
211	0	32760	32690	32791	32493	32825	32683	32535	32621	
212	0	32798	32599	32773	32519	32811	32631	32743	32774	
213	0	32820	32695	32799	32575	32839	32743	32756	32661	
214	0	32876	32783	32679	32671	32583	32717	32727	32551	
215	0	32822	32690	32582	32707	32903	32703	32623	32612	
216	0	32786	32627	32703	32751	32615	32686	32647	32583	
217	0	32766	32718	32775	32871	32839	32659	32630	32662	
218	0	32655	32809	32823	32975	32615	32751	32595	32703	
219	0	32658	32729	32833	33010	32764	32643	32659	32583	
220	0	32710	32742	32927	32914	32602	32751	32534	32691	
221	0	32780	32669	32823	33027	32797	32719	32727	32530	
222	0	32711	32727	32743	32959	32629	32735	32703	32629	
223	0	32645	32799	32725	32925	32848	32671	32583	32562	
224	0	32660	32871	32886	32839	32597	32783	32692	32642	
225	0	32775	32813	32807	32751	32783	32723	32754	32631	
226	0	32881	32604	32839	32679	32662	32743	32743	32519	
227	0	32921	32518	32711	32491	32895	32659	32647	32583	
228	0	32747	32819	32631	32509	32807	32685	32706	32671	
229	0	32708	32831	32533	32527	32759	32729	32711	32731	
230	0	32775	32734	32566	32573	32571	32703	32807	32621	
231	0	32830	32868	32583	32545	32821	32801	32865	32751	
232	0	32769	32767	32684	32583	32829	32775	32812	32727	
233	0	32771	32684	32797	32615	32940	32757	32706	32726	
234	0	32804	32755	32725	32695	32557	32578	32593	32502	
235	0	32742	32659	32580	32759	32775	32733	32795	32711	
236	0	32743	32665	32735	32791	32783	32689	32658	32631	
237	0	32662	32879	32751	32839	32871	32727	32739	32744	
238	0	32617	32866	32817	32912	32739	32675	32519	32670	
239	0	32678	32677	32827	32916	32891	32723	32576	32671	
240	0	32838	32718	32812	32991	32798	32655	32403	32705	
241	0	32808	32611	32839	32946	32820	32723	32680	32822	
242	0	32782	32685	32935	32887	32740	32759	32582	32742	
243	0	32756	32839	32742	32868	32727	32819	32669	32642	
244	0	32727	32733	32795	32839	32791	32747	32631	32683	
245	0	32707	32807	32770	32807	32690	32683	32754	32564	
246	0	32724	32855	32887	32663	32723	32715	32727	32615	
247	0	32853	32743	32875	32581	32631	32740	32545	32451	
248	0	32791	32605	32591	32655	32903	32655	32547	32563	
249	0	32808	32647	32514	32658	32835	32710	32495	32455	
250	0	32740	32583	32571	32557	32743	32711	32641	32511	
251	0	32768	32725	32566	32591	32717	32703	32695	32571	
252	0	32786	32751	32646	32495	32775	32759	32743	32677	
253	0	32796	32589	32706	32638	32775	32772	32751	32593	
254	0	32717	32603	32759	32615	32887	32762	32695	32525	
255	0	32766	32743	32684	32745	32775	32755	32647	32591	
256	0	32727	32775	32737	32719	32807	32683	32686	32551	
257	0	32830	32685	32839	32815	32786	32723	32647	32515	
258	0	32843	32745	32637	32789	32797	32722	32589	32531	
259	0	32756	32855	32773	32869	32775	32667	32615	32647	
260	0	32677	32531	32591	32871	32688	32621	32647	32695	
261	0	32633	32732	32801	33013	32642	32669	32709	32747	
262	0	32683	32659	32828	32973	32655	32635	32613	32660	
263	0	32666	32706	32735	32989	32607	32647	32647	32663	
264	0	32749	32813	32739	32943	32585	32639	32609	32609	
265	0	32719	32789	32863	32885	32741	32791	32735	32647	
266	0	32767	32759	32739	32793	32679	32716	32710	32748	
267	0	32799	32626	32647	32627	32799	32667	32623	32683	
268	0	32865	32647	32667	32487	32634	32695	32647	32603	
269	0	32831	32799	32726	32359	32742	32715	32543	32679	
270	0	32911	32771	32731	32319	32553	32740	32775	32823	
271	0	32862	32886	32727	32405	32817	32791	32629	32788	
272	0	32827	32759	32727	32564	32811	32645	32661	32647	
273	0	32772	32813	32583	32588	32879	32716	32514	32571	
274	0	32769	32887	32587	32684	32801	32642	32683	32727	
275	0	32769	32863	32640	32716	32791	32727	32526	32751	
276	0	32727	32765	32671	32857	32775	32645	32666	32711	
277	0	32775	32718	32703	32823	32676	32687	32571	32647	
278	0	32720	32874	32769	32866	32734	32615	32647	32636	
279	0	32679	32811	32815	32807	32591	32749	32757	32771	
280	0	32721	32791	32786	32847	32763	32699	32838	32702	
281	0	32647	32791	32636	32919	32587	32767	32791	32803	
282	0	32586	32732	32564	32903	32839	32671	32679	32715	
283	0	32641	32719	32717	32863	32639	32741	32759	32734	
284	0	32706	32850	32838	32815	32790	32775	32835	32790	
285	0	32703	32815	32871	32751	32756	32751	32695	32634	
286	0	32746	32802	32891	32639	32791	32704	32635	32659	
287	0	32822	32739	32775	32571	32830	32637	32506	32574	
288	0	32834	32599	32633	32551	32783	32647	32614	32574	
289	0	32941	32459	32710	32503	32863	32639	32631	32575	
290	0	32790	32581	32694	32491	32583	32716	32765	32771	
291	0	32814	32639	32698	32487	32823	32742	32699	32727	
292	0	32767	32630	32655	32479	32623	32637	32719	32757	
293	0	32734	32690	32644	32506	32806	32749	32509	32639	
294	0	32775	32547	32786	32673	32563	32647	32603	32669	
295	0	32758	32435	32755	32687	32847	32735	32630	32717	
296	0	32861	32510	32743	32759	32789	32612	32684	32662	
297	0	32786	32647	32615	32823	32892	32753	32583	32694	
298	0	32814	32743	32630	32981	32767	32679	32679	32743	
299	0	32855	32587	32663	32955	32827	32679	32638	32662	
300	0	32758	32647	32711	32967	32819	32685	32658	32647	
301	0	32618	32953	32695	32954	32875	32692	32573	32667	
302	0	32599	32858	32692	32903	32797	32658	32659	32551	
303	0	32539	32839	32751	32922	32854	32748	32641	32627	
304	0	32662	32727	32642	32917	32607	32758	32703	32639	
305	0	32751	32663	32858	32763	32799	32667	32523	32734	
306	0	32775	32643	32669	32577	32735	32705	32635	32681	
307	0	32710	32679	32773	32580	32805	32658	32551	32663	
308	0	32759	32746	32807	32487	32613	32687	32701	32642	
309	0	32775	32731	32735	32577	32710	32647	32622	32455	
310	0	32738	32851	32733	32578	32679	32785	32769	32647	
311	0	32851	32758	32903	32555	32731	32747	32562	32590	
312	0	32903	32670	32819	32594	32647	32749	32770	32767	
313	0	32861	32751	32799	32598	32767	32743	32578	32615	
314	0	32839	32681	32807	32722	32759	32627	32735	32681	
315	0	32895	32655	32639	32641	32743	32679	32669	32621	
316	0	32752	32631	32671	32685	32869	32697	32711	32599	
317	0	32620	32871	32742	32695	32773	32687	32647	32621	
318	0	32613	32759	32767	32775	32845	32663	32583	32530	
319	0	32719	32602	32749	32811	32790	32749	32557	32603	
320	0	32711	32573	32881	32823	32863	32769	32687	32527	
321	0	32775	32708	32773	32775	32563	32638	32682	32738	
322	0	32728	32647	32796	32903	32867	32711	32733	32544	
323	0	32697	32679	32939	32873	32826	32686	32671	32703	
324	0	32666	32755	32877	32887	32790	32756	32756	32567	
325	0	32690	32670	32831	32797	32727	32659	32698	32666	
326	0	32806	32583	32877	32686	32959	32731	32661	32454	
327	0	32799	32662	32667	32668	32596	32739	32726	32682	
328	0	32720	32834	32612	32535	32831	32643	32719	32742	
329	0	32687	32773	32619	32695	32573	32679	32705	32741	
330	0	32662	32694	32411	32581	32751	32740	32518	32633	
331	0	32743	32609	32457	32479	32639	32759	32701	32455	
332	0	32730	32647	32431	32379	32711	32713	32647	32655	
333	0	32694	32722	32411	32450	32611	32711	32775	32647	
334	0	32836	32759	32551	32617	32770	32789	32762	32702	
335	0	32876	32647	32585	32837	32710	32689	32631	32765	
336	0	32854	32681	32919	32863	32767	32773	32655	32747	
337	0	32831	32775	33018	32965	32655	32653	32447	32711	
338	0	32662	32833	32893	32839	32807	32730	32594	32751	
339	0	32601	32909	32891	32811	32595	32725	32835	32749	
340	0	32565	32887	32695	32807	32850	32695	32803	32711	
341	0	32662	32879	32829	32831	32615	32695	32763	32738	
342	0	32716	32807	32890	32855	32850	32663	32727	32567	
343	0	32698	32659	32789	32827	32615	32675	32645	32663	
344	0	32767	32791	32623	32727	32915	32647	32703	32839	
345	0	32807	32647	32635	32711	32769	32737	32631	32691	
346	0	32908	32508	32715	32714	32675	32647	32589	32714	
347	0	32827	32599	32705	32647	32819	32647	32627	32423	
348	0	32644	32743	32771	32562	32609	32667	32711	32557	
349	0	32688	32647	32787	32559	32895	32677	32575	32547	
350	0	32732	32663	32831	32563	32751	32681	32707	32642	
351	0	32742	32766	32773	32501	32769	32623	32647	32613	
352	0	32772	32816	32761	32447	32806	32759	32735	32675	
353	0	32739	32803	32631	32623	32723	32668	32671	32599	
354	0	32668	32691	32527	32687	32749	32659	32674	32615	
355	0	32806	32499	32633	32691	32723	32671	32619	32765	
356	0	32863	32653	32932	32823	32775	32731	32647	32677	
357	0	32771	32759	32831	32855	32731	32647	32717	32756	
358	0	32687	32871	32751	32890	32717	32757	32751	32796	
359	0	32642	32715	32663	32894	32553	32663	32895	32991	
360	0	32775	32687	32686	32863	32663	32799	32720	32813	
361	0	32763	32717	32607	32939	32718	32807	32709	32564	
362	0	32764	32807	32463	32943	32731	32775	32767	32746	
363	0	32740	32707	32677	32815	32727	32835	32647	32710	
364	0	32903	32815	32735	32751	32775	32671	32578	32715	
365	0	32814	32823	32740	32679	32886	32711	32493	32701	
366	0	32687	32743	32761	32640	32813	32662	32682	32703	
367	0	32719	32671	32729	32541	32773	32679	32534	32487	
368	0	32702	32599	32831	32473	32791	32587	32658	32617	
369	0	32736	32733	32891	32578	32587	32671	32479	32591	
370	0	32868	32679	32725	32551	32742	32685	32601	32615	
371	0	32835	32509	32820	32563	32647	32743	32558	32615	
372	0	32662	32626	32591	32586	32790	32747	32764	32526	
373	0	32651	32799	32706	32671	32668	32669	32662	32621	
374	0	32658	32831	32734	32683	32711	32719	32639	32642	
375	0	32684	32743	32647	32583	32631	32677	32765	32763	
376	0	32804	32647	32755	32596	32774	32679	32615	32583	
377	0	32850	32615	32743	32703	32570	32611	32703	32611	
378	0	32875	32619	32877	32723	32839	32694	32515	32437	
379	0	32796	32735	32749	32766	32611	32639	32591	32620	
380	0	32754	32643	32846	32823	32871	32743	32511	32647	
381	0	32683	32823	32818	32903	32799	32684	32661	32717	
382	0	32681	32759	32741	32977	32855	32679	32607	32647	
383	0	32687	32820	32775	32925	32759	32647	32773	32695	
384	0	32703	32839	32647	32852	32647	32715	32758	32619	
385	0	32708	32903	32670	32839	32804	32706	32691	32732	
386	0	32797	32767	32735	32692	32791	32771	32674	32483	
387	0	32794	32783	32677	32623	32853	32754	32555	32583	
388	0	32908	32647	32725	32623	32715	32647	32715	32487	
389	0	32918	32671	32790	32487	32805	32626	32631	32695	
390	0	32807	32743	32671	32553	32799	32711	32690	32548	
391	0	32680	32692	32598	32557	32849	32687	32699	32713	
392	0	32605	32659	32587	32613	32775	32767	32759	32663	
393	0	32693	32612	32557	32663	32847	32743	32715	32588	
394	0	32808	32647	32771	32686	32798	32655	32527	32647	
395	0	32839	32737	32841	32702	32820	32674	32677	32518	
396	0	32791	32679	32756	32821	32828	32662	32434	32614	
397	0	32732	32701	32722	32845	32811	32723	32603	32535	
398	0	32670	32802	32831	32912	32775	32666	32623	32748	
399	0	32680	32723	32757	32894	32839	32743	32745	32681	
400	0	32758	32705	32679	32947	32767	32596	32658	32710	
401	0	32677	32727	32831	32901	32834	32750	32607	32717	
402	0	32623	32709	32815	32903	32611	32775	32631	32533	
403	0	32639	32787	32855	32858	32833	32698	32493	32614	
404	0	32710	32723	32877	32775	32589	32720	32607	32532	
405	0	32711	32721	32751	32711	32775	32647	32623	32735	
406	0	32702	32747	32783	32653	32579	32743	32845	32763	
407	0	32679	32579	32706	32669	32871	32658	32678	32847	
408	0	32807	32534	32706	32646	32786	32655	32679	32739	
409	0	32839	32745	32698	32497	32797	32619	32452	32641	
410	0	32871	32607	32791	32475	32775	32657	32647	32566	
411	0	32883	32694	32775	32491	32708	32607	32499	32695	
412	0	32766	32795	32797	32499	32769	32715	32686	32694	
413	0	32790	32690	32631	32540	32677	32671	32497	32587	
414	0	32739	32710	32547	32655	32743	32726	32727	32694	
415	0	32655	32851	32759	32643	32583	32726	32660	32562	
416	0	32599	32881	32773	32647	32766	32765	32791	32738	
417	0	32654	32711	32775	32735	32587	32719	32677	32558	
418	0	32735	32767	32800	32875	32807	32631	32605	32647	
419	0	32758	32751	32775	32903	32676	32705	32594	32679	
420	0	32755	32791	32799	32931	32759	32655	32457	32551	
421	0	32741	32683	32687	32962	32626	32799	32707	32647	
422	0	32742	32647	32799	32939	32839	32698	32505	32662	
423	0	32788	32791	32735	32877	32628	32751	32662	32684	
424	0	32756	32839	32775	32843	32843	32790	32572	32543	
425	0	32829	32743	32809	32815	32799	32723	32723	32679	
426	0	32800	32660	32647	32759	32863	32722	32470	32479	
427	0	32775	32559	32647	32679	32767	32647	32647	32667	
428	0	32794	32573	32742	32695	32882	32681	32459	32647	
429	0	32813	32806	32691	32571	32756	32635	32683	32636	
430	0	32815	32799	32717	32639	32915	32718	32551	32686	
431	0	32820	32691	32751	32527	32775	32671	32739	32797	
432	0	32818	32657	32714	32570	32732	32669	32579	32655	
433	0	32800	32635	32726	32586	32722	32623	32670	32647	
434	0	32724	32798	32642	32655	32647	32759	32623	32671	
435	0	32674	32855	32626	32674	32711	32643	32717	32767	
436	0	32701	32735	32694	32751	32587	32690	32751	32555	
437	0	32753	32486	32673	32893	32847	32642	32575	32590	
438	0	32739	32687	32826	32922	32743	32687	32647	32565	
439	0	32732	32749	32681	32911	32794	32631	32585	32670	
440	0	32818	32698	32715	32885	32743	32727	32729	32759	
441	0	32707	32669	32775	32880	32843	32759	32723	32767	
442	0	32732	32755	32658	32919	32785	32807	32834	32807	
443	0	32732	32676	32595	32841	32914	32786	32763	32623	
444	0	32784	32637	32791	32839	32621	32639	32449	32615	
445	0	32819	32671	32755	32803	32903	32677	32639	32559	
446	0	32797	32775	32647	32765	32821	32634	32570	32655	
447	0	32751	32858	32710	32699	32839	32718	32756	32543	
448	0	32742	32850	32751	32677	32573	32646	32532	32660	
449	0	32802	32708	32658	32551	32839	32678	32592	32727	
450	0	32879	32501	32724	32531	32623	32645	32575	32635	
451	0	32751	32633	32759	32519	32875	32723	32647	32647	
452	0	32735	32690	32773	32532	32611	32794	32539	32655	
453	0	32781	32647	32718	32647	32733	32687	32749	32543	
454	0	32612	32723	32763	32660	32683	32738	32569	32686	
455	0	32696	32811	32825	32721	32807	32647	32666	32614	
456	0	32783	32819	32647	32799	32733	32751	32566	32733	
457	0	32700	32863	32589	32903	32765	32795	32745	32738	
458	0	32686	32753	32886	32903	32827	32663	32703	32871	
459	0	32801	32775	32689	32950	32627	32743	32662	32667	
460	0	32724	32863	32803	32943	32843	32695	32607	32550	
461	0	32631	32887	32814	32969	32609	32761	32775	32743	
462	0	32588	32851	32671	32861	32799	32754	32749	32586	
463	0	32662	32815	32839	32787	32775	32663	32647	32673	
464	0	32716	32702	32845	32797	32775	32731	32725	32727	
465	0	32791	32723	32818	32707	32819	32773	32698	32757	
466	0	32860	32629	32615	32621	32818	32589	32551	32591	
467	0	32850	32621	32662	32562	32859	32767	32711	32655	
468	0	32839	32647	32765	32607	32775	32607	32759	32671	
469	0	32730	32749	32805	32563	32863	32748	32735	32791	
470	0	32749	32686	32687	32595	32559	32647	32759	32688	
471	0	32850	32617	32658	32555	32875	32733	32646	32525	
472	0	32879	32583	32795	32519	32631	32655	32587	32611	
473	0	32801	32511	32583	32579	32735	32711	32735	32609	
474	0	32758	32669	32592	32615	32613	32667	32567	32680	
475	0	32841	32655	32698	32764	32799	32709	32691	32508	
476	0	32750	32797	32827	32815	32754	32655	32591	32708	
477	0	32730	32691	32758	32831	32727	32699	32797	32647	
478	0	32670	32729	32743	32771	32732	32711	32775	32714	
479	0	32666	32719	32794	32791	32813	32751	32753	32573	
480	0	32715	32702	32699	32871	32821	32684	32733	32751	
481	0	32775	32759	32647	32879	32763	32773	32669	32711	
482	0	32834	32619	32640	32929	32821	32686	32661	32718	
483	0	32775	32647	32784	32863	32802	32679	32749	32698	
484	0	32775	32685	32706	32750	32871	32671	32606	32759	
485	0	32695	32753	32719	32722	32771	32665	32710	32698	
486	0	32784	32771	32710	32647	32834	32730	32492	32623	
487	0	32883	32643	32601	32621	32787	32659	32655	32663	
488	0	32787	32703	32757	32617	32829	32619	32623	32555	
489	0	32769	32738	32749	32565	32631	32705	32677	32538	
490	0	32775	32677	32775	32551	32793	32662	32623	32510	
491	0	32790	32679	32699	32583	32583	32737	32740	32671	
492	0	32740	32647	32578	32529	32847	32615	32751	32551	
493	0	32716	32661	32745	32655	32639	32771	32603	32609	
494	0	32647	32746	32749	32709	32863	32713	32711	32574	
495	0	32810	32711	32679	32711	32603	32743	32715	32674	
496	0	32782	32791	32827	32759	32875	32723	32694	32571	
497	0	32753	32791	32831	32890	32638	32655	32558	32661	
498	0	32658	32687	32807	32811	32823	32755	32639	32659	
499	0	32621	32887	32621	32854	32566	32712	32643	32767	
500	0	32670	32839	32687	32823	32903	32695	32685	32750	
501	0	32708	32831	32787	32855	32798	32711	32762	32821	
502	0	32798	32679	32791	32899	32879	32775	32647	32711	
503	0	32797	32627	32806	32774	32766	32775	32715	32789	
504	0	32717	32703	32802	32710	32761	32767	32791	32771	
505	0	32756	32821	32831	32754	32711	32691	32845	32654	
506	0	32701	32810	32743	32615	32783	32743	32797	32685	
507	0	32698	32756	32639	32564	32775	32725	32703	32610	
508	0	32748	32751	32684	32595	32885	32633	32647	32687	
509	0	32865	32767	32711	32581	32583	32699	32439	32645	
510	0	32829	32675	32709	32577	32791	32621	32677	32546	
511	0	32910	32575	32734	32518	32598	32695	32631	32631	
512	0	32775	32590	32667	32534	32754	32689	32810	32527	
513	0	32654	32539	32523	32541	32670	32758	32729	32655	
514	0	32767	32582	32694	32693	32786	32668	32530	32551	
515	0	32765	32671	32775	32655	32847	32619	32681	32589	
516	0	32728	32767	32727	32743	32812	32699	32539	32626	
517	0	32655	32767	32775	32775	32895	32767	32676	32683	
518	0	32683	32775	32687	32791	32621	32729	32703	32692	
519	0	32817	32658	32879	32855	32821	32751	32699	32690	
520	0	32810	32537	32775	32889	32705	32662	32674	32551	
521	0	32804	32545	32783	33012	32791	32720	32553	32658	
522	0	32770	32582	32747	32970	32730	32730	32623	32579	
523	0	32750	32562	32621	32932	32828	32717	32567	32735	
524	0	32658	32615	32847	32863	32839	32734	32703	32635	
525	0	32828	32711	32798	32837	32643	32659	32612	32519	
526	0	32804	32791	32797	32638	32815	32775	32548	32715	
527	0	32713	32855	32598	32594	32683	32699	32767	32725	
528	0	32726	32803	32691	32535	32764	32612	32545	32694	
529	0	32759	32727	32803	32511	32743	32694	32684	32615	
530	0	32723	32767	32713	32551	32751	32749	32732	32479	
531	0	32858	32775	32727	32557	32819	32671	32678	32655	
532	0	32823	32685	32578	32583	32687	32667	32669	32586	
533	0	32842	32711	32775	32609	32775	32599	32507	32538	
534	0	32836	32699	32717	32727	32647	32670	32647	32662	
535	0	32831	32745	32821	32711	32771	32743	32621	32581	
536	0	32617	32946	32734	32757	32789	32775	32806	32811	
537	0	32639	32891	32579	32825	32731	32767	32803	32861	
538	0	32734	32702	32829	32850	32731	32726	32578	32763	
539	0	32610	32671	32724	32823	32573	32647	32695	32666	
540	0	32558	32887	32755	32835	32711	32731	32526	32691	
541	0	32581	32834	32754	32911	32731	32734	32715	32551	
542	0	32735	32731	32731	32831	32771	32758	32695	32725	
543	0	32806	32623	32667	32815	32869	32647	32703	32599	
544	0	32762	32613	32749	32820	32755	32711	32619	32621	
545	0	32727	32655	32789	32797	32847	32711	32743	32548	
546	0	32708	32613	32674	32742	32791	32754	32647	32631	
547	0	32688	32759	32763	32671	32938	32628	32660	32607	
548	0	32775	32738	32759	32707	32647	32662	32647	32678	
549	0	32751	32749	32595	32623	32817	32655	32487	32647	
550	0	32806	32645	32771	32593	32591	32727	32641	32492	
551	0	32749	32631	32781	32583	32863	32735	32613	32591	
552	0	32761	32621	32699	32559	32642	32647	32731	32527	
553	0	32775	32767	32791	32623	32739	32694	32771	32731	
554	0	32785	32685	32743	32678	32598	32687	32749	32647	
555	0	32846	32634	32647	32691	32842	32738	32603	32707	
556	0	32899	32655	32623	32811	32619	32679	32679	32620	
557	0	32863	32747	32695	32799	32903	32647	32525	32639	
558	0	32731	32795	32734	32847	32758	32610	32543	32466	
559	0	32608	32879	32813	32890	32839	32757	32594	32694	
560	0	32677	32815	32748	32955	32787	32641	32711	32715	
561	0	32611	32787	32740	33061	32809	32740	32669	32684	
562	0	32647	32775	32827	32983	32747	32639	32769	32759	
563	0	32676	32903	32766	32891	32773	32775	32749	32587	
564	0	32749	32775	32637	32845	32775	32690	32634	32670	
565	0	32783	32739	32655	32819	32914	32743	32774	32623	
566	0	32762	32755	32647	32692	32699	32647	32831	32811	
567	0	32830	32634	32743	32682	32887	32659	32681	32574	
568	0	32828	32526	32711	32631	32771	32641	32535	32699	
569	0	32808	32638	32634	32687	32901	32687	32610	32643	
570	0	32848	32727	32701	32487	32842	32703	32494	32647	
571	0	32970	32687	32659	32463	32836	32583	32677	32571	
572	0	32918	32687	32615	32386	32633	32759	32485	32519	
573	0	32854	32689	32679	32495	32787	32679	32626	32679	
574	0	32695	32749	32806	32647	32551	32741	32599	32679	
575	0	32679	32647	32759	32727	32786	32583	32635	32524	
576	0	32645	32668	32765	32865	32647	32743	32701	32670	
577	0	32638	32835	32773	32939	32739	32663	32775	32543	
578	0	32647	32867	32769	32949	32583	32773	32807	32723	
579	0	32626	32671	32643	32879	32694	32711	32699	32711	
580	0	32747	32724	32830	32890	32666	32701	32647	32668	
581	0	32812	32690	32758	32955	32826	32751	32454	32557	
582	0	32730	32605	32839	32903	32685	32702	32606	32621	
583	0	32676	32743	32775	32861	32763	32775	32591	32711	
584	0	32722	32885	32750	32860	32601	32677	32742	32679	
585	0	32749	32759	32757	32791	32802	32738	32602	32757	
586	0	32847	32694	32663	32627	32815	32694	32647	32583	
587	0	32788	32647	32698	32550	32783	32687	32655	32463	
588	0	32795	32679	32698	32595	32785	32706	32703	32643	
589	0	32709	32628	32674	32586	32775	32647	32679	32663	
590	0	32800	32603	32666	32527	32863	32717	32743	32705	
591	0	32823	32822	32711	32482	32743	32703	32694	32671	
592	0	32788	32799	32684	32449	32883	32709	32839	32640	
593	0	32802	32703	32563	32659	32579	32685	32727	32703	
594	0	32823	32743	32542	32621	32855	32733	32555	32605	
595	0	32796	32682	32630	32586	32681	32736	32647	32635	
596	0	32669	32726	32735	32699	32822	32786	32647	32669	
597	0	32645	32775	32783	32771	32766	32647	32647	32647	
598	0	32631	32732	32751	32813	32839	32737	32495	32679	
599	0	32607	32775	32762	32767	32559	32718	32642	32775	
600	0	32684	32791	32807	32802	32870	32785	32559	32732	
601	0	32730	32677	32813	32879	32763	32718	32717	32822	
602	0	32711	32711	32833	32939	32830	32725	32749	32670	
603	0	32727	32834	32801	32890	32775	32727	32695	32723	
604	0	32748	32715	32690	32817	32851	32715	32489	32626	
605	0	32764	32775	32626	32791	32807	32707	32696	32715	
606	0	32773	32611	32615	32719	32699	32711	32679	32611	
607	0	32759	32626	32724	32655	32742	32675	32749	32719	
608	0	32745	32738	32772	32647	32663	32758	32787	32687	
609	0	32780	32758	32769	32587	32723	32605	32633	32759	
610	0	32743	32759	32733	32592	32623	32711	32813	32731	
611	0	32765	32739	32727	32589	32786	32647	32685	32609	
612	0	32774	32534	32739	32562	32797	32751	32555	32639	
613	0	32822	32685	32767	32634	32803	32734	32561	32647	
614	0	32826	32617	32771	32662	32775	32687	32679	32699	
615	0	32775	32687	32787	32667	32609	32583	32491	32521	
616	0	32758	32748	32797	32771	32723	32663	32639	32679	
617	0	32732	32735	32661	32817	32677	32631	32534	32556	
618	0	32737	32807	32621	32750	32794	32711	32615	32730	
619	0	32678	32871	32657	32788	32591	32643	32574	32679	
620	0	32721	32834	32718	32804	32875	32787	32791	32783	
621	0	32682	32687	32871	32939	32793	32743	32659	32717	
622	0	32740	32674	32855	32903	32902	32730	32623	32658	
623	0	32677	32775	32791	32854	32799	32684	32487	32663	
624	0	32679	32753	32775	32759	32674	32711	32695	32759	
625	0	32720	32846	32803	32775	32786	32647	32551	32632	
626	0	32787	32787	32771	32743	32685	32740	32677	32518	
627	0	32834	32641	32647	32716	32767	32666	32491	32621	
628	0	32797	32562	32633	32635	32663	32687	32676	32698	
629	0	32815	32599	32706	32578	32726	32707	32603	32647	
630	0	32816	32605	32765	32626	32647	32711	32695	32685	
631	0	32836	32691	32671	32596	32799	32727	32615	32483	
632	0	32760	32739	32795	32571	32763	32687	32691	32677	
633	0	32713	32787	32775	32631	32791	32647	32679	32663	
634	0	32737	32710	32631	32640	32826	32628	32607	32477	
635	0	32756	32765	32659	32657	32805	32679	32615	32717	
636	0	32690	32767	32743	32694	32883	32725	32591	32715	
637	0	32711	32644	32695	32761	32571	32647	32723	32541	
638	0	32703	32791	32711	32859	32802	32757	32679	32615	
639	0	32708	32743	32607	32815	32722	32711	32503	32703	
640	0	32708	32877	32797	32927	32789	32659	32707	32573	
641	0	32655	32759	32811	32955	32935	32739	32565	32636	
642	0	32763	32759	32807	32983	32662	32706	32671	32687	
643	0	32753	32843	32804	32927	32715	32717	32739	32623	
644	0	32716	32832	32743	32866	32668	32758	32810	32727	
645	0	32717	32759	32635	32775	32745	32814	32797	32679	
646	0	32671	32935	32583	32695	32629	32687	32731	32775	
647	0	32694	32989	32751	32645	32743	32775	32635	32581	
648	0	32733	32965	32711	32677	32755	32732	32747	32617	
649	0	32708	32879	32740	32642	32765	32723	32679	32578	
650	0	32775	32839	32802	32615	32797	32775	32751	32704	
651	0	32827	32659	32796	32595	32786	32663	32691	32666	
652	0	32711	32647	32643	32553	32903	32751	32762	32745	
653	0	32582	32775	32695	32619	32579	32725	32604	32644	
654	0	32495	33003	32794	32613	32727	32623	32553	32631	
655	0	32425	32914	32709	32727	32748	32743	32775	32791	
656	0	32418	32877	32823	32751	32663	32647	32695	32730	
657	0	32373	32835	32671	32789	32870	32711	32759	32611	
658	0	32421	32823	32655	32911	32743	32671	32767	32709	
659	0	32409	32812	32541	32858	32807	32715	32771	32571	
660	0	32380	32739	32637	32887	32711	32674	32670	32662	
661	0	32352	32618	32715	32933	32766	32711	32783	32577	
662	0	32494	32483	32724	32927	32751	32647	32775	32614	
663	0	32575	32461	32647	32885	32693	32709	32839	32647	
664	0	32617	32309	32594	32791	32745	32679	32799	32742	
665	0	32725	32207	32698	32705	32695	32734	32871	32612	
666	0	32775	32247	32646	32687	32721	32693	32815	32519	
667	0	32743	32193	32462	32557	32718	32695	32843	32483	
668	0	32685	32219	32550	32487	32786	32700	32754	32479	
669	0	32689	32175	32567	32421	32597	32683	32775	32591	
670	0	32775	32087	32550	32546	32807	32692	32638	32498	
671	0	33004	32247	32607	32527	32615	32771	32727	32551	
672	0	33206	32164	32615	32486	32835	32775	32735	32443	
673	0	33377	32083	32595	32569	32721	32665	32694	32660	
674	0	33474	32079	32523	32619	32767	32723	32813	32647	
675	0	33639	32039	32583	32732	32726	32662	32710	32732	
676	0	33631	32007	32799	32791	32759	32711	32758	32647	
677	0	33623	32047	32723	32839	32671	32685	32519	32487	
678	0	33570	32071	32685	32935	32797	32575	32482	32534	
679	0	33474	32370	32763	32943	32590	32679	32439	32532	
680	0	33200	32585	32879	32975	32832	32727	32615	32682	
681	0	32919	32924	32918	32947	32615	32759	32477	32725	
682	0	32717	33067	32971	33047	32755	32670	32524	32807	
683	0	32692	32899	32835	32978	32675	32678	32375	32789	
684	0	32647	33062	32914	32863	32817	32587	32439	32743	
685	0	32631	33319	33047	32851	32759	32711	32300	32802	
686	0	32740	33261	32998	32854	32759	32640	32519	32894	
687	0	32857	33375	32994	32775	32847	32615	32454	32823	
688	0	32900	33362	32862	32799	32655	32678	32495	32690	
689	0	33017	33363	32927	32790	32863	32647	32444	32553	
690	0	33065	33335	32943	32694	32655	32667	32439	32623	
691	0	33037	33366	32994	32647	32903	32623	32471	32635	
692	0	33060	33223	32854	32623	32713	32679	32441	32748	
693	0	33105	33095	32993	32598	32775	32623	32479	32519	
694	0	33156	32931	32810	32708	32838	32712	32517	32758	
695	0	33101	32999	32922	32830	32796	32687	32644	32775	
696	0	33060	33031	32830	32893	32796	32711	32557	32615	
697	0	32937	33113	32965	32929	32605	32717	32455	32849	
698	0	32830	33195	32786	32942	32766	32687	32571	32670	
699	0	32679	33372	32763	32974	32790	32759	32638	32525	
700	0	32588	33199	32871	32899	32775	32716	32519	32795	
701	0	32450	32979	32731	32884	32895	32763	32556	32743	
702	0	32359	32926	32690	32922	32799	32735	32613	32739	
703	0	32328	32587	32723	32871	32757	32743	32703	32715	
704	0	32425	32463	32647	32805	32748	32739	32595	32762	
705	0	32447	32444	32545	32694	32895	32679	32753	32566	
706	0	32455	32543	32690	32607	32619	32681	32754	32487	
707	0	32373	32566	32629	32549	32763	32647	32826	32581	
708	0	32363	32659	32643	32503	32699	32685	32785	32701	
709	0	32300	32739	32639	32583	32746	32723	32675	32466	
710	0	32199	32855	32567	32524	32775	32700	32887	32743	
711	0	32143	32839	32659	32454	32582	32823	32923	32834	
712	0	32199	32791	32559	32439	32726	32738	32985	32827	
713	0	32314	32683	32692	32547	32659	32711	32871	32767	
714	0	32342	32743	32671	32630	32721	32722	32851	32771	
715	0	32387	32743	32604	32647	32756	32647	32790	32695	
716	0	32461	32735	32626	32751	32751	32759	32571	32617	
717	0	32464	32739	32711	32775	32842	32725	32743	32711	
718	0	32457	32871	32791	32775	32787	32677	32592	32486	
719	0	32507	32739	32802	32851	32843	32765	32715	32559	
720	0	32511	32831	32727	32882	32611	32687	32711	32667	
721	0	32503	32895	32609	32939	32669	32713	32791	32775	
722	0	32647	32791	32647	32879	32607	32647	32735	32659	
723	0	32715	32699	32715	32833	32795	32727	32738	32693	
724	0	32716	32771	32742	32767	32695	32717	32749	32609	
725	0	32831	32717	32711	32718	32811	32715	32743	32683	
726	0	32807	32659	32743	32646	32775	32783	32711	32558	
727	0	32769	32679	32727	32639	32770	32667	32747	32637	
728	0	32859	32583	32603	32558	32858	32663	32739	32605	
729	0	32916	32559	32713	32535	32647	32647	32495	32523	
730	0	32934	32419	32783	32472	32775	32729	32647	32610	
731	0	32855	32519	32674	32495	32572	32764	32530	32523	
732	0	32900	32582	32640	32551	32775	32699	32799	32683	
733	0	32899	32679	32702	32671	32834	32687	32699	32684	
734	0	32778	32703	32522	32685	32823	32620	32679	32673	
735	0	32772	32639	32605	32684	32810	32711	32690	32527	
736	0	32775	32575	32667	32747	32815	32662	32687	32647	
737	0	32847	32587	32788	32775	32679	32681	32589	32510	
738	0	32842	32662	32747	32811	32775	32605	32677	32587	
739	0	32797	32589	32813	32813	32668	32673	32636	32611	
740	0	32757	32647	32841	32871	32775	32699	32617	32785	
741	0	32668	32727	32671	32911	32815	32715	32638	32743	
742	0	32751	32770	32751	32923	32759	32722	32542	32562	
743	0	32819	32729	32839	32951	32885	32663	32685	32662	
744	0	32850	32638	32743	32817	32809	32731	32599	32655	
745	0	32816	32674	32703	32803	32897	32662	32759	32645	
746	0	32849	32761	32775	32694	32730	32663	32690	32587	
747	0	32817	32663	32759	32613	32875	32641	32671	32685	
748	0	32812	32711	32647	32647	32768	32619	32590	32641	
749	0	32766	32683	32671	32661	32915	32630	32729	32698	
750	0	32823	32527	32738	32565	32594	32719	32717	32665	
751	0	32840	32595	32615	32587	32889	32677	32731	32631	
752	0	32861	32691	32755	32573	32591	32731	32709	32671	
753	0	32797	32767	32749	32626	32876	32695	32736	32703	
754	0	32782	32695	32807	32669	32663	32746	32635	32658	
755	0	32823	32630	32681	32729	32887	32643	32698	32700	
756	0	32732	32703	32613	32847	32623	32743	32679	32631	
757	0	32715	32723	32703	32797	32891	32675	32671	32700	
758	0	32794	32707	32799	32788	32790	32741	32662	32596	
759	0	32858	32709	32718	32783	32859	32731	32679	32679	
760	0	32762	32659	32679	32867	32829	32775	32647	32698	
761	0	32662	32805	32715	32994	32687	32765	32667	32690	
762	0	32676	32631	32791	32965	32726	32786	32631	32731	
763	0	32686	32732	32847	32887	32732	32717	32719	32747	
764	0	32730	32591	32747	32807	32759	32718	32523	32677	
765	0	32782	32711	32597	32790	32730	32775	32667	32707	
766	0	32763	32732	32550	32709	32804	32703	32545	32603	
767	0	32727	32775	32607	32679	32604	32615	32647	32644	
768	0	32838	32607	32615	32633	32854	32698	32626	32511	
769	0	32885	32519	32775	32639	32615	32643	32655	32619	
770	0	32881	32671	32747	32565	32871	32662	32647	32419	
771	0	32891	32701	32725	32605	32805	32615	32743	32635	
772	0	32804	32787	32735	32608	32859	32773	32775	32614	
773	0	32796	32722	32825	32601	32577	32724	32709	32695	
774	0	32758	32659	32647	32738	32803	32773	32524	32691	
775	0	32803	32690	32735	32719	32623	32719	32643	32539	
776	0	32692	32847	32835	32818	32831	32662	32607	32706	
777	0	32677	32827	32775	32878	32587	32765	32721	32695	
778	0	32704	32847	32836	32895	32783	32605	32535	32697	
779	0	32676	32675	32855	32855	32781	32706	32595	32663	
780	0	32683	32765	32835	32879	32834	32626	32514	32666	
781	0	32690	32737	32699	32967	32753	32753	32683	32578	
782	0	32745	32764	32667	32890	32709	32639	32598	32623	
783	0	32745	32583	32609	32805	32839	32793	32717	32557	
784	0	32753	32638	32647	32867	32647	32658	32735	32634	
785	0	32761	32655	32619	32807	32933	32754	32587	32607	
786	0	32718	32754	32727	32797	32773	32663	32658	32673	
787	0	32747	32687	32763	32689	32850	32685	32570	32491	
788	0	32824	32595	32694	32631	32740	32601	32660	32563	
789	0	32818	32647	32729	32627	32823	32685	32570	32509	
790	0	32858	32708	32775	32583	32775	32639	32655	32535	
791	0	32833	32719	32766	32525	32795	32694	32717	32500	
792	0	32781	32809	32673	32543	32719	32683	32791	32733	
793	0	32635	32627	32733	32613	32692	32775	32855	32739	
794	0	32692	32694	32749	32647	32719	32678	32791	32749	
795	0	32762	32743	32694	32694	32679	32742	32738	32767	
796	0	32778	32722	32797	32793	32750	32723	32695	32775	
797	0	32808	32703	32823	32867	32871	32622	32743	32635	
798	0	32734	32764	32699	32914	32807	32718	32623	32639	
799	0	32612	32799	32775	32919	32903	32621	32695	32575	
800	0	32673	32679	32827	32867	32785	32743	32525	32637	
801	0	32679	32755	32702	32823	32895	32679	32669	32675	
802	0	32701	32715	32799	32855	32810	32727	32508	32636	
803	0	32763	32743	32775	32839	32869	32727	32667	32721	
804	0	32812	32738	32665	32795	32621	32699	32593	32501	
805	0	32896	32731	32794	32813	32837	32703	32655	32655	
806	0	32764	32658	32755	32723	32613	32634	32743	32659	
807	0	32784	32628	32692	32635	32759	32671	32775	32726	
808	0	32834	32647	32749	32599	32658	32564	32694	32655	
809	0	32829	32634	32772	32611	32850	32647	32717	32703	
810	0	32784	32775	32572	32581	32791	32717	32695	32578	
811	0	32765	32639	32567	32547	32839	32745	32719	32599	
812	0	32784	32647	32559	32570	32775	32631	32602	32681	
813	0	32732	32637	32621	32647	32631	32722	32658	32647	
814	0	32811	32570	32663	32639	32813	32687	32539	32719	
815	0	32749	32807	32703	32685	32770	32775	32723	32735	
816	0	32687	32802	32843	32823	32870	32690	32850	32692	
817	0	32683	32862	32749	32863	32588	32719	32807	32647	
818	0	32742	32685	32797	32811	32895	32607	32679	32613	
819	0	32613	32719	32822	32819	32788	32685	32630	32733	
820	0	32666	32903	32719	32959	32839	32687	32581	32671	
821	0	32743	32791	32641	32919	32787	32762	32683	32654	
822	0	32732	32823	32647	32875	32847	32763	32619	32706	
823	0	32725	32775	32795	32859	32827	32743	32735	32513	
824	0	32694	32681	32749	32818	32751	32759	32571	32557	
825	0	32720	32731	32667	32827	32830	32703	32711	32551	
826	0	32710	32690	32642	32673	32579	32749	32738	32630	
827	0	32762	32631	32679	32603	32796	32676	32503	32590	
828	0	32794	32645	32743	32639	32750	32629	32655	32691	
829	0	32839	32797	32743	32592	32677	32738	32587	32771	
830	0	32782	32833	32739	32607	32711	32644	32750	32775	
831	0	32843	32806	32628	32549	32583	32775	32748	32887	
832	0	32882	32567	32567	32555	32847	32703	32799	32807	
833	0	32828	32523	32669	32531	32645	32759	32733	32701	
834	0	32718	32722	32762	32543	32863	32741	32711	32639	
835	0	32804	32751	32758	32653	32798	32702	32693	32639	
836	0	32767	32607	32799	32833	32803	32647	32479	32466	
837	0	32712	32621	32775	32787	32783	32690	32645	32685	
838	0	32676	32787	32695	32901	32798	32717	32603	32683	
839	0	32706	32676	32775	32943	32791	32801	32675	32686	
840	0	32794	32717	32763	32903	32679	32647	32543	32628	
841	0	32697	32739	32759	32935	32753	32730	32673	32697	
842	0	32698	32911	32825	32995	32646	32694	32604	32611	
843	0	32719	32847	32827	32871	32751	32719	32679	32667	
844	0	32698	32823	32775	32821	32559	32658	32713	32495	
845	0	32647	32751	32799	32727	32895	32695	32647	32638	
846	0	32745	32719	32722	32671	32755	32681	32642	32549	
847	0	32740	32668	32797	32575	32837	32740	32591	32639	
848	0	32757	32754	32669	32546	32756	32611	32683	32481	
849	0	32738	32594	32615	32532	32841	32647	32489	32673	
850	0	32788	32615	32659	32597	32785	32605	32643	32551	
851	0	32854	32835	32771	32479	32711	32709	32587	32659	
852	0	32761	32766	32711	32470	32831	32629	32655	32587	
853	0	32637	32759	32789	32545	32887	32773	32563	32711	
854	0	32748	32623	32754	32635	32807	32728	32655	32741	
855	0	32710	32679	32729	32678	32863	32685	32557	32669	
856	0	32690	32692	32667	32775	32738	32763	32749	32709	
857	0	32683	32734	32711	32743	32689	32815	32574	32659	
858	0	32768	32682	32647	32799	32749	32743	32626	32646	
859	0	32753	32759	32759	32887	32727	32647	32559	32575	
860	0	32724	32797	32807	32935	32775	32723	32655	32730	
861	0	32775	32647	32775	32897	32718	32722	32503	32687	
862	0	32788	32623	32735	32875	32743	32719	32658	32711	
863	0	32767	32743	32662	32743	32595	32685	32570	32621	
864	0	32660	32677	32705	32707	32743	32731	32659	32715	
865	0	32750	32823	32755	32670	32647	32746	32511	32699	
866	0	32796	32790	32559	32554	32769	32635	32673	32535	
867	0	32805	32749	32799	32612	32751	32705	32711	32663	
868	0	32732	32599	32668	32543	32739	32647	32759	32575	
869	0	32791	32601	32679	32494	32635	32702	32637	32685	
870	0	32853	32679	32674	32503	32803	32623	32709	32763	
871	0	32795	32715	32748	32535	32796	32739	32519	32623	
872	0	32873	32591	32803	32584	32889	32627	32605	32669	
873	0	32816	32583	32754	32562	32805	32738	32549	32593	
874	0	32775	32710	32772	32618	32735	32623	32695	32683	
875	0	32812	32639	32645	32701	32814	32647	32531	32566	
876	0	32815	32681	32647	32790	32671	32638	32694	32567	
877	0	32698	32657	32671	32854	32743	32726	32735	32519	
878	0	32652	32631	32772	32935	32589	32644	32759	32679	
879	0	32660	32713	32711	32903	32707	32766	32671	32647	
880	0	32719	32759	32829	32949	32706	32758	32739	32834	
881	0	32712	32862	32805	32962	32743	32762	32613	32786	
882	0	32740	32827	32692	32894	32820	32737	32703	32775	
883	0	32775	32791	32723	32877	32822	32669	32531	32801	
884	0	32835	32791	32813	32823	32862	32742	32612	32763	
885	0	32893	32673	32771	32717	32607	32625	32567	32685	
886	0	32886	32647	32749	32632	32813	32694	32668	32493	
887	0	32763	32639	32773	32614	32751	32689	32681	32662	
888	0	32742	32583	32662	32707	32708	32645	32530	32639	
889	0	32743	32631	32715	32626	32769	32703	32719	32425	
890	0	32764	32775	32787	32572	32660	32607	32621	32623	
891	0	32761	32751	32769	32599	32809	32741	32670	32599	
892	0	32804	32775	32687	32535	32708	32739	32762	32740	
893	0	32803	32802	32611	32629	32819	32721	32743	32642	
894	0	32791	32687	32831	32686	32759	32775	32715	32559	
895	0	32823	32741	32751	32738	32710	32655	32685	32758	
896	0	32762	32643	32834	32797	32841	32695	32686	32675	
897	0	32726	32666	32815	32886	32573	32693	32519	32718	
898	0	32647	32771	32839	32850	32891	32739	32623	32626	
899	0	32637	32743	32619	32858	32839	32647	32543	32679	
900	0	32692	32645	32672	32903	32879	32714	32596	32547	
901	0	32706	32582	32773	32987	32774	32739	32543	32660	
902	0	32699	32655	32727	32967	32897	32711	32631	32673	
903	0	32724	32839	32708	32919	32583	32757	32476	32674	
904	0	32617	32883	32733	32883	32891	32582	32617	32598	
905	0	32691	32821	32702	32771	32599	32719	32574	32562	
906	0	32800	32683	32604	32775	32810	32687	32819	32775	
907	0	32795	32647	32743	32671	32599	32711	32726	32615	
908	0	32790	32617	32783	32621	32879	32628	32707	32679	
909	0	32802	32613	32827	32627	32757	32703	32607	32551	
910	0	32801	32775	32647	32615	32795	32679	32727	32667	
911	0	32813	32771	32702	32582	32767	32762	32549	32638	
912	0	32841	32762	32738	32575	32735	32751	32671	32687	
913	0	32770	32672	32715	32663	32775	32719	32491	32762	
914	0	32744	32756	32743	32610	32584	32617	32695	32639	
915	0	32732	32822	32749	32693	32903	32743	32722	32674	
916	0	32646	32875	32755	32700	32729	32635	32615	32577	
917	0	32660	32735	32775	32903	32702	32750	32615	32655	
918	0	32666	32759	32787	32852	32775	32603	32554	32550	
919	0	32847	32669	32709	32894	32628	32711	32561	32655	
920	0	32775	32769	32833	32903	32754	32712	32451	32607	
921	0	32794	32727	32899	32965	32659	32725	32637	32647	
922	0	32713	32759	32837	32935	32767	32663	32495	32587	
923	0	32720	32903	32727	32866	32595	32791	32681	32719	
924	0	32736	32879	32761	32883	32787	32677	32554	32628	
925	0	32735	32866	32827	32755	32621	32738	32699	32681	
926	0	32731	32739	32767	32714	32854	32677	32655	32583	
927	0	32722	32646	32705	32653	32806	32719	32669	32621	
928	0	32704	32699	32631	32619	32920	32741	32641	32551	
929	0	32742	32767	32654	32567	32786	32728	32675	32663	
930	0	32787	32705	32758	32525	32804	32711	32759	32579	
931	0	32771	32736	32755	32493	32827	32679	32662	32599	
932	0	32736	32598	32755	32543	32788	32751	32735	32447	
933	0	32713	32645	32765	32596	32767	32642	32583	32641	
934	0	32711	32647	32797	32647	32716	32723	32735	32695	
935	0	32723	32846	32815	32738	32743	32655	32715	32775	
936	0	32746	32749	32806	32759	32679	32705	32738	32647	
937	0	32730	32775	32675	32809	32775	32623	32683	32723	
938	0	32839	32765	32775	32834	32743	32715	32702	32707	
939	0	32844	32655	32855	32814	32718	32659	32615	32687	
940	0	32824	32663	32815	32895	32634	32735	32642	32582	
941	0	32786	32823	32756	32862	32775	32670	32673	32740	
942	0	32811	32844	32647	32882	32637	32775	32731	32615	
943	0	32796	32786	32719	32829	32819	32684	32607	32738	
944	0	32838	32694	32723	32775	32759	32725	32742	32559	
945	0	32804	32701	32766	32749	32692	32647	32531	32702	
946	0	32834	32711	32751	32615	32791	32747	32607	32543	
947	0	32788	32615	32603	32638	32658	32647	32511	32703	
948	0	32819	32594	32677	32522	32795	32698	32551	32481	
949	0	32780	32655	32796	32514	32671	32729	32519	32493	
950	0	32739	32724	32759	32523	32767	32647	32766	32630	
951	0	32769	32717	32839	32543	32727	32788	32741	32807	
952	0	32704	32705	32804	32566	32745	32694	32831	32817	
953	0	32745	32702	32739	32562	32741	32751	32742	32805	
954	0	32831	32767	32543	32626	32750	32726	32663	32702	
955	0	32798	32695	32743	32749	32911	32591	32644	32515	
956	0	32823	32663	32709	32783	32823	32707	32525	32625	
957	0	32762	32795	32715	32845	32855	32636	32662	32623	
958	0	32724	32754	32717	32811	32719	32676	32599	32708	
959	0	32708	32659	32773	32943	32765	32837	32716	32826	
960	0	32639	32655	32665	32918	32583	32695	32695	32683	
961	0	32711	32643	32775	32903	32766	32723	32693	32643	
962	0	32735	32647	32742	32887	32677	32679	32678	32566	
963	0	32748	32597	32751	32923	32822	32643	32532	32743	
964	0	32770	32706	32646	32783	32817	32745	32550	32591	
965	0	32718	32727	32722	32711	32767	32643	32509	32491	
966	0	32765	32757	32773	32662	32747	32703	32678	32591	
967	0	32739	32819	32671	32671	32773	32732	32679	32511	
968	0	32692	32799	32743	32579	32759	32674	32685	32604	
969	0	32734	32690	32765	32611	32759	32699	32647	32502	
970	0	32793	32566	32687	32503	32671	32659	32796	32656	
971	0	32834	32701	32639	32496	32775	32727	32803	32679	
972	0	32815	32773	32566	32567	32613	32703	32767	32676	
973	0	32825	32712	32679	32647	32738	32743	32707	32591	
974	0	32848	32691	32679	32671	32748	32591	32791	32667	
975	0	32775	32731	32631	32709	32793	32727	32839	32731	
976	0	32692	32639	32758	32796	32597	32654	32791	32659	
977	0	32642	32654	32757	32803	32789	32731	32734	32681	
978	0	32655	32838	32775	32902	32628	32647	32685	32599	
979	0	32635	32822	32653	32933	32788	32767	32655	32599	
980	0	32704	32719	32858	32823	32626	32719	32509	32621	
981	0	32668	32647	32831	32839	32731	32617	32683	32663	
982	0	32669	32713	32725	32815	32767	32775	32589	32757	
983	0	32706	32707	32794	32807	32826	32679	32647	32687	
984	0	32799	32574	32815	32773	32771	32735	32581	32621	
985	0	32811	32553	32823	32725	32799	32645	32663	32603	
986	0	32805	32630	32795	32715	32687	32693	32540	32694	
987	0	32743	32685	32619	32639	32775	32630	32729	32595	
988	0	32711	32615	32687	32595	32666	32727	32558	32675	
989	0	32739	32641	32743	32627	32791	32687	32701	32702	
990	0	32679	32675	32826	32589	32659	32815	32724	32719	
991	0	32775	32643	32676	32617	32745	32769	32831	32829	
992	0	32809	32691	32683	32599	32835	32677	32757	32739	
993	0	32814	32679	32693	32613	32762	32724	32811	32703	
994	0	32766	32684	32685	32607	32753	32771	32775	32812	
995	0	32831	32687	32709	32607	32767	32749	32743	32823	
996	0	32838	32591	32679	32685	32735	32735	32559	32794	
997	0	32799	32660	32607	32758	32775	32703	32743	32661	
998	0	32775	32719	32687	32869	32942	32667	32586	32486	
999	0	32758	32858	32797	32879	32623	32682	32626	32615	
1000	0	32775	32813	32620	32943	32702	32631	32678	32571	
1001	0	32687	32791	32743	32983	32691	32743	32571	32717	
1002	0	32688	32891	32809	32973	32786	32669	32679	32685	
1003	0	32694	32893	32775	32891	32843	32733	32553	32687	
1004	0	32749	32751	32631	32827	32793	32703	32637	32582	
1005	0	32734	32671	32631	32668	32855	32761	32535	32484	
1006	0	32791	32726	32775	32719	32639	32773	32687	32530	
1007	0	32712	32733	32695	32639	32765	32643	32797	32562	
1008	0	32706	32763	32759	32583	32705	32743	32631	32788	
1009	0	32642	32804	32739	32587	32750	32639	32695	32701	
1010	0	32780	32729	32766	32519	32852	32747	32543	32532	
1011	0	32807	32698	32641	32466	32591	32669	32711	32710	
1012	0	32810	32674	32785	32567	32775	32628	32695	32538	
1013	0	32726	32743	32723	32647	32887	32755	32604	32738	
1014	0	32719	32679	32775	32690	32775	32679	32647	32741	
1015	0	32759	32769	32789	32718	32894	32765	32511	32759	
1016	0	32732	32771	32687	32759	32599	32711	32759	32662	
1017	0	32741	32766	32766	32839	32747	32647	32711	32643	
1018	0	32703	32727	32799	32899	32628	32702	32706	32786	
1019	0	32636	32701	32745	32873	32803	32659	32742	32819	
1020	0	32692	32820	32815	32923	32644	32775	32775	32667	
1021	0	32732	32707	32775	32957	32790	32726	32675	32695	
1022	0	32836	32798	32823	32865	32620	32766	32695	32655	
1023	0	32871	32647	32847	32879	32863	32643	32735	32729	
1024	0	32722	32687	32663	32859	32577	32711	32715	32695	
1025	0	32825	32722	32717	32818	32775	32661	32711	32711	
1026	0	32787	32773	32823	32687	32647	32771	32567	32662	
1027	0	32751	32755	32727	32677	32707	32739	32663	32567	
1028	0	32678	32695	32717	32640	32647	32694	32508	32679	
1029	0	32782	32643	32687	32603	32795	32647	32619	32559	
1030	0	32855	32607	32839	32541	32817	32623	32639	32601	
1031	0	32851	32555	32774	32549	32775	32733	32733	32507	
1032	0	32826	32731	32607	32574	32962	32626	32715	32691	
1033	0	32775	32603	32642	32618	32738	32719	32739	32527	
1034	0	32804	32695	32658	32679	32923	32690	32742	32631	
1035	0	32775	32727	32694	32775	32739	32719	32687	32701	
1036	0	32722	32637	32711	32810	32835	32671	32707	32754	
1037	0	32734	32657	32863	32838	32595	32727	32514	32679	
1038	0	32711	32709	32838	32943	32775	32692	32623	32499	
1039	0	32692	32647	32695	32879	32749	32669	32579	32551	
1040	0	32729	32828	32802	32898	32790	32703	32662	32415	
1041	0	32765	32789	32659	32935	32839	32671	32678	32655	
1042	0	32757	32775	32767	33007	32612	32810	32525	32767	
1043	0	32705	32806	32727	32988	32743	32793	32739	32675	
1044	0	32696	32847	32647	32871	32694	32715	32679	32711	
1045	0	32737	32883	32797	32766	32767	32711	32775	32666	
1046	0	32800	32663	32718	32742	32609	32685	32644	32723	
1047	0	32867	32583	32767	32647	32739	32663	32805	32703	
1048	0	32807	32535	32763	32642	32747	32655	32707	32714	
1049	0	32765	32655	32607	32628	32784	32735	32607	32719	
1050	0	32773	32583	32687	32562	32795	32775	32621	32491	
1051	0	32807	32643	32735	32523	32879	32633	32775	32678	
1052	0	32752	32773	32591	32567	32823	32685	32655	32647	
1053	0	32710	32753	32699	32615	32783	32719	32691	32583	
1054	0	32703	32723	32763	32711	32666	32743	32508	32727	
1055	0	32715	32717	32729	32725	32862	32723	32663	32751	
1056	0	32742	32681	32774	32835	32595	32755	32525	32662	
1057	0	32696	32576	32889	32879	32925	32725	32663	32715	
1058	0	32637	32863	32839	32863	32555	32783	32530	32662	
1059	0	32708	32759	32699	32875	32850	32685	32621	32559	
1060	0	32687	32789	32797	32927	32711	32691	32673	32679	
1061	0	32727	32799	32754	32933	32734	32711	32583	32699	
1062	0	32842	32681	32795	32871	32887	32623	32661	32711	
1063	0	32775	32751	32751	32871	32611	32711	32470	32665	
1064	0	32791	32814	32631	32871	32758	32741	32631	32605	
1065	0	32782	32833	32748	32743	32903	32599	32633	32706	
1066	0	32717	32847	32689	32695	32770	32687	32559	32647	
1067	0	32731	32828	32820	32639	32789	32735	32727	32602	
1068	0	32695	32807	32668	32639	32706	32665	32775	32647	
1069	0	32769	32830	32759	32610	32767	32775	32540	32726	
1070	0	32850	32723	32631	32550	32877	32751	32735	32743	
1071	0	32898	32559	32679	32605	32642	32711	32571	32641	
1072	0	32817	32582	32702	32587	32867	32685	32687	32619	
1073	0	32765	32687	32519	32548	32637	32591	32643	32607	
1074	0	32671	32715	32635	32627	32743	32731	32767	32673	
1075	0	32647	32643	32751	32743	32683	32676	32786	32749	
1076	0	32694	32708	32719	32798	32775	32742	32519	32754	
1077	0	32747	32703	32797	32846	32887	32775	32589	32671	
1078	0	32729	32807	32711	32899	32678	32636	32647	32497	
1079	0	32710	32723	32763	32844	32773	32703	32699	32679	
1080	0	32767	32731	32852	32856	32839	32690	32742	32695	
1081	0	32798	32647	32743	32827	32795	32747	32615	32603	
1082	0	32710	32677	32787	32861	32871	32753	32657	32687	
1083	0	32742	32619	32819	32903	32677	32699	32615	32599	
1084	0	32745	32583	32668	32883	32759	32732	32726	32678	
1085	0	32782	32711	32767	32804	32903	32763	32675	32594	
1086	0	32807	32647	32829	32733	32791	32674	32506	32642	
1087	0	32787	32692	32831	32683	32843	32738	32683	32727	
1088	0	32751	32706	32711	32639	32591	32620	32503	32707	
1089	0	32769	32695	32735	32623	32829	32663	32698	32629	
1090	0	32719	32647	32699	32575	32622	32660	32591	32583	
1091	0	32741	32615	32534	32519	32775	32679	32716	32663	
1092	0	32710	32551	32659	32551	32743	32731	32718	32609	
1093	0	32663	32599	32733	32615	32798	32727	32631	32660	
1094	0	32759	32819	32633	32663	32854	32790	32654	32509	
1095	0	32827	32697	32742	32743	32743	32635	32470	32559	
1096	0	32756	32755	32759	32775	32887	32683	32667	32491	
1097	0	32730	32867	32678	32863	32599	32775	32578	32703	
1098	0	32742	32673	32612	32903	32823	32735	32703	32575	
1099	0	32773	32710	32711	32911	32601	32771	32663	32691	
1100	0	32764	32699	32758	32927	32775	32757	32736	32585	
1101	0	32711	32887	32751	33002	32775	32749	32718	32839	
1102	0	32732	32855	32754	32903	32699	32711	32601	32858	
1103	0	32765	32839	32670	32815	32883	32807	32726	32642	
1104	0	32806	32839	32663	32755	32580	32647	32747	32775	
1105	0	32796	32754	32694	32756	32775	32671	32601	32660	
1106	0	32829	32623	32738	32679	32796	32634	32631	32483	
1107	0	32801	32644	32743	32681	32775	32721	32498	32605	
1108	0	32724	32775	32567	32583	32695	32665	32674	32558	
1109	0	32720	32687	32714	32583	32770	32692	32685	32581	
1110	0	32781	32667	32638	32515	32899	32645	32623	32621	
1111	0	32802	32655	32663	32524	32775	32679	32631	32647	
1112	0	32805	32645	32727	32551	32839	32754	32556	32759	
1113	0	32679	32806	32775	32598	32743	32711	32741	32631	
1114	0	32695	32747	32571	32695	32795	32724	32557	32695	
1115	0	32723	32691	32723	32717	32761	32647	32627	32737	
1116	0	32837	32703	32775	32758	32875	32758	32603	32643	
1117	0	32709	32827	32815	32791	32630	32764	32699	32608	
1118	0	32699	32784	32839	32870	32775	32698	32679	32575	
1119	0	32718	32690	32698	32834	32726	32738	32479	32615	
1120	0	32739	32741	32715	32795	32756	32647	32623	32646	
1121	0	32647	32843	32855	32885	32658	32675	32503	32655	
1122	0	32686	32758	32804	32961	32806	32626	32639	32685	
1123	0	32757	32809	32791	32955	32898	32734	32647	32559	
1124	0	32846	32701	32813	32903	32591	32786	32719	32711	
1125	0	32809	32737	32635	32810	32863	32655	32762	32739	
1126	0	32743	32735	32709	32738	32757	32717	32738	32727	
1127	0	32784	32623	32737	32594	32766	32609	32655	32671	
1128	0	32756	32639	32741	32583	32587	32703	32583	32626	
1129	0	32726	32623	32809	32609	32773	32647	32715	32591	
1130	0	32824	32546	32729	32583	32711	32694	32638	32511	
1131	0	32772	32631	32831	32541	32885	32643	32683	32715	
1132	0	32775	32758	32611	32535	32594	32724	32527	32630	
1133	0	32726	32642	32645	32631	32837	32605	32662	32633	
1134	0	32738	32687	32695	32743	32626	32734	32529	32503	
1135	0	32745	32535	32749	32749	32743	32679	32759	32669	
1136	0	32757	32742	32759	32811	32646	32699	32663	32582	
1137	0	32743	32739	32751	32863	32738	32733	32719	32547	
1138	0	32647	32743	32763	32863	32599	32639	32722	32698	
1139	0	32647	32799	32644	32888	32735	32791	32607	32673	
1140	0	32750	32823	32773	32869	32725	32727	32691	32847	
1141	0	32751	32915	32735	32879	32793	32773	32638	32797	
1142	0	32758	32819	32844	32895	32870	32727	32726	32613	
1143	0	32727	32747	32745	32847	32791	32687	32725	32775	
1144	0	32735	32703	32603	32741	32855	32685	32762	32647	
1145	0	32745	32724	32807	32735	32575	32767	32662	32585	
1146	0	32830	32694	32671	32751	32771	32582	32598	32611	
1147	0	32863	32615	32755	32692	32818	32711	32471	32580	
1148	0	32813	32630	32770	32671	32815	32735	32647	32573	
1149	0	32802	32742	32659	32597	32722	32645	32591	32623	
1150	0	32718	32753	32783	32525	32763	32685	32715	32695	
1151	0	32772	32825	32668	32502	32842	32647	32775	32818	
1152	0	32772	32835	32751	32485	32711	32790	32879	32820	
1153	0	32799	32743	32715	32529	32843	32751	32791	32571	
1154	0	32689	32669	32686	32647	32595	32695	32555	32685	
1155	0	32727	32742	32690	32623	32812	32748	32730	32719	
1156	0	32762	32615	32695	32691	32610	32647	32523	32730	
1157	0	32759	32679	32684	32802	32773	32679	32595	32670	
1158	0	32694	32775	32784	32903	32635	32683	32461	32739	
1159	0	32715	32835	32809	32921	32743	32751	32611	32679	
1160	0	32615	32833	32863	32959	32607	32703	32522	32601	
1161	0	32677	32859	32739	32924	32775	32757	32663	32647	
1162	0	32737	32703	32708	32951	32663	32725	32579	32498	
1163	0	32775	32727	32775	32890	32823	32739	32711	32638	
1164	0	32794	32755	32795	32755	32775	32684	32662	32691	
1165	0	32786	32734	32823	32710	32775	32765	32562	32754	
1166	0	32690	32845	32775	32674	32855	32788	32819	32723	
1167	0	32771	32748	32613	32597	32558	32751	32770	32583	
1168	0	32803	32647	32599	32549	32850	32727	32681	32634	
1169	0	32824	32686	32754	32543	32614	32724	32757	32631	
1170	0	32827	32654	32679	32510	32774	32699	32595	32647	
1171	0	32765	32604	32709	32476	32691	32583	32715	32671	
1172	0	32684	32669	32626	32549	32711	32674	32615	32599	
1173	0	32695	32689	32609	32660	32815	32617	32703	32595	
1174	0	32783	32707	32755	32675	32823	32719	32543	32471	
1175	0	32727	32675	32715	32751	32884	32716	32676	32683	
1176	0	32751	32707	32759	32711	32575	32590	32685	32635	
1177	0	32713	32759	32703	32813	32749	32719	32525	32477	
1178	0	32725	32783	32791	32895	32665	32644	32617	32658	
1179	0	32711	32679	32731	32935	32787	32759	32487	32743	
1180	0	32815	32507	32786	32867	32615	32755	32630	32885	
1181	0	32854	32595	32799	32943	32695	32709	32492	32647	
1182	0	32789	32647	32665	32935	32660	32775	32647	32551	
1183	0	32734	32727	32847	32814	32791	32647	32647	32701	
1184	0	32774	32799	32743	32823	32647	32759	32677	32596	
1185	0	32813	32647	32695	32775	32806	32684	32605	32672	
1186	0	32775	32615	32799	32717	32773	32689	32790	32766	
1187	0	32775	32775	32645	32655	32738	32637	32711	32614	
1188	0	32857	32681	32690	32673	32754	32670	32614	32597	
1189	0	32819	32617	32743	32670	32711	32755	32677	32459	
1190	0	32818	32631	32723	32591	32893	32733	32511	32611	
1191	0	32782	32615	32765	32490	32587	32703	32703	32627	
1192	0	32830	32615	32621	32455	32769	32658	32605	32527	
1193	0	32784	32765	32738	32541	32559	32758	32743	32629	
1194	0	32755	32765	32699	32633	32775	32731	32707	32639	
1195	0	32766	32701	32719	32775	32743	32619	32510	32749	
1196	0	32760	32659	32592	32791	32762	32724	32641	32687	
1197	0	32775	32775	32775	32863	32844	32717	32687	32519	
1198	0	32697	32685	32723	32832	32615	32743	32659	32751	
1199	0	32722	32767	32793	32903	32799	32713	32683	32685	
1200	0	32769	32795	32660	32903	32647	32663	32711	32655	
1201	0	32661	32690	32639	32927	32823	32749	32711	32659	
1202	0	32684	32694	32815	32902	32615	32623	32591	32499	
1203	0	32683	32871	32863	32849	32755	32759	32749	32775	
1204	0	32655	32836	32815	32857	32605	32647	32647	32526	
1205	0	32680	32763	32762	32827	32855	32677	32742	32647	
1206	0	32731	32647	32754	32775	32786	32623	32615	32559	
1207	0	32782	32599	32817	32611	32903	32711	32706	32663	
1208	0	32690	32627	32789	32591	32817	32657	32743	32671	
1209	0	32750	32711	32647	32493	32918	32741	32749	32647	
1210	0	32742	32663	32647	32457	32603	32603	32607	32643	
1211	0	32742	32595	32775	32420	32874	32695	32758	32588	
1212	0	32702	32775	32726	32487	32795	32655	32795	32699	
1213	0	32689	32715	32711	32607	32839	32727	32708	32602	
1214	0	32745	32711	32611	32658	32755	32679	32694	32659	
1215	0	32790	32627	32660	32735	32727	32714	32455	32692	
1216	0	32791	32745	32775	32809	32751	32719	32647	32663	
1217	0	32722	32662	32763	32882	32735	32679	32605	32621	
1218	0	32676	32692	32789	32971	32853	32783	32647	32577	
1219	0	32613	32759	32670	32918	32687	32823	32623	32707	
1220	0	32626	32689	32698	32871	32767	32717	32739	32841	
1221	0	32678	32691	32755	32947	32783	32800	32643	32751	
1222	0	32714	32754	32807	32987	32706	32727	32790	32791	
1223	0	32717	32733	32791	32903	32819	32668	32733	32711	
1224	0	32684	32734	32677	32841	32735	32799	32749	32595	
1225	0	32784	32747	32615	32774	32773	32662	32671	32675	
1226	0	32808	32631	32567	32759	32775	32725	32674	32487	
1227	0	32839	32621	32801	32659	32749	32647	32638	32603	
1228	0	32818	32755	32760	32621	32820	32702	32602	32487	
1229	0	32870	32862	32722	32591	32647	32591	32731	32640	
1230	0	32836	32701	32798	32539	32743	32686	32807	32715	
1231	0	32846	32791	32731	32501	32627	32639	32791	32597	
1232	0	32771	32764	32615	32530	32831	32731	32576	32695	
1233	0	32818	32687	32703	32631	32687	32767	32676	32535	
1234	0	32814	32543	32612	32647	32746	32647	32515	32623	
1235	0	32858	32647	32737	32747	32772	32690	32615	32467	
1236	0	32824	32765	32763	32839	32819	32614	32391	32551	
1237	0	32807	32823	32771	32871	32748	32647	32607	32511	
1238	0	32814	32775	32639	32943	32762	32645	32461	32679	
1239	0	32700	32819	32716	32928	32579	32803	32735	32794	
1240	0	32719	32791	32783	32935	32789	32739	32711	32711	
1241	0	32676	32738	32827	32919	32795	32691	32773	32719	
1242	0	32690	32751	32822	32925	32731	32711	32747	32647	
1243	0	32662	32814	32710	32896	32932	32633	32571	32795	
1244	0	32694	32879	32807	32791	32619	32667	32635	32670	
1245	0	32798	32694	32738	32807	32807	32719	32530	32707	
1246	0	32816	32735	32732	32615	32614	32679	32647	32597	
1247	0	32775	32743	32775	32627	32755	32691	32723	32766	
1248	0	32812	32823	32636	32585	32667	32633	32711	32637	
1249	0	32787	32742	32647	32551	32803	32733	32640	32603	
1250	0	32770	32646	32801	32457	32619	32741	32647	32619	
1251	0	32866	32599	32685	32411	32783	32671	32615	32551	
1252	0	32802	32611	32763	32495	32679	32647	32475	32626	
1253	0	32715	32691	32719	32549	32831	32621	32687	32695	
1254	0	32751	32762	32655	32647	32658	32751	32647	32613	
1255	0	32823	32717	32760	32725	32727	32684	32755	32822	
1256	0	32674	32683	32767	32775	32686	32775	32629	32698	
1257	0	32589	32767	32831	32865	32770	32761	32711	32609	
1258	0	32647	32655	32787	32871	32631	32745	32579	32717	
1259	0	32634	32647	32811	32883	32849	32701	32647	32799	
1260	0	32698	32775	32815	32851	32703	32706	32567	32690	
1261	0	32660	32727	32619	32925	32869	32691	32695	32588	
1262	0	32695	32775	32687	32877	32815	32747	32547	32647	
1263	0	32774	32662	32772	32839	32689	32679	32708	32567	
1264	0	32781	32639	32686	32775	32743	32799	32591	32638	
1265	0	32895	32795	32767	32687	32874	32755	32686	32514	
1266	0	32827	32759	32767	32644	32833	32711	32541	32645	
1267	0	32772	32751	32583	32607	32791	32731	32641	32703	
1268	0	32754	32759	32761	32559	32751	32660	32605	32551	
1269	0	32767	32795	32687	32571	32802	32661	32727	32737	
1270	0	32745	32751	32759	32554	32702	32742	32667	32735	
1271	0	32817	32630	32725	32471	32826	32731	32726	32731	
1272	0	32837	32573	32647	32427	32749	32669	32431	32673	
1273	0	32749	32619	32645	32514	32736	32683	32667	32671	
1274	0	32772	32635	32775	32573	32775	32743	32494	32603	
1275	0	32813	32683	32739	32665	32786	32647	32719	32494	
1276	0	32738	32756	32755	32763	32802	32663	32554	32601	
1277	0	32703	32733	32727	32775	32871	32641	32719	32615	
1278	0	32659	32716	32679	32847	32751	32670	32587	32677	
1279	0	32690	32765	32839	32843	32903	32647	32683	32669	
1280	0	32711	32809	32839	32847	32830	32735	32575	32578	
1281	0	32676	32803	32811	32933	32831	32707	32723	32635	
1282	0	32706	32877	32737	32869	32631	32791	32715	32647	
1283	0	32727	32853	32638	32879	32695	32775	32839	32775	
1284	0	32804	32738	32679	32823	32636	32763	32763	32743	
1285	0	32863	32786	32783	32791	32845	32694	32687	32714	
1286	0	32927	32739	32715	32759	32746	32670	32683	32574	
1287	0	32836	32763	32754	32663	32798	32742	32727	32534	
1288	0	32745	32758	32711	32655	32753	32677	32673	32647	
1289	0	32775	32631	32617	32623	32706	32747	32559	32623	
1290	0	32791	32599	32738	32603	32717	32679	32687	32775	
1291	0	32834	32546	32767	32563	32774	32717	32575	32727	
1292	0	32809	32663	32694	32571	32802	32647	32785	32621	
1293	0	32738	32667	32663	32605	32795	32727	32679	32715	
1294	0	32740	32588	32621	32679	32811	32705	32692	32660	
1295	0	32735	32723	32773	32686	32751	32694	32679	32551	
1296	0	32676	32775	32751	32703	32855	32683	32575	32644	
1297	0	32670	32804	32831	32759	32606	32686	32587	32703	
1298	0	32668	32722	32667	32787	32727	32719	32505	32734	
1299	0	32733	32570	32823	32910	32743	32742	32669	32610	
1300	0	32690	32637	32727	32933	32716	32709	32687	32545	
1301	0	32706	32620	32804	32991	32716	32733	32685	32719	
1302	0	32753	32719	32807	32944	32756	32647	32635	32493	
1303	0	32873	32727	32626	32890	32704	32703	32707	32679	
1304	0	32802	32698	32811	32814	32797	32722	32671	32679	
1305	0	32743	32751	32781	32695	32754	32733	32596	32635	
1306	0	32796	32743	32817	32733	32811	32699	32742	32607	
1307	0	32697	32694	32615	32647	32826	32687	32540	32483	
1308	0	32742	32658	32639	32647	32767	32743	32749	32663	
1309	0	32772	32659	32786	32641	32733	32627	32603	32541	
1310	0	32767	32709	32749	32613	32787	32743	32671	32635	
1311	0	32796	32775	32725	32563	32739	32644	32581	32610	
1312	0	32652	32819	32751	32603	32699	32751	32806	32611	
1313	0	32530	32887	32573	32638	32830	32765	32772	32733	
1314	0	32647	32837	32754	32738	32535	32694	32679	32852	
1315	0	32703	32863	32799	32791	32711	32718	32829	32914	
1316	0	32751	32931	32762	32877	32718	32611	32721	32747	
1317	0	32767	32819	32703	32877	32755	32691	32697	32747	
1318	0	32743	32859	32775	32943	32623	32565	32663	32700	
1319	0	32713	32934	32767	32932	32798	32748	32727	32607	
1320	0	32713	32947	32685	32941	32695	32789	32642	32717	
1321	0	32732	32941	32854	32966	32751	32733	32543	32667	
1322	0	32603	32989	32845	32969	32636	32804	32727	32699	
1323	0	32582	32939	32823	32839	32857	32788	32742	32497	
1324	0	32595	33045	32767	32820	32756	32775	32691	32743	
1325	0	32522	32967	32647	32775	32866	32799	32738	32655	
1326	0	32475	32830	32647	32755	32735	32726	32681	32633	
1327	0	32508	32791	32669	32596	32871	32643	32531	32506	
1328	0	32461	32678	32813	32571	32749	32666	32644	32628	
1329	0	32533	32655	32636	32555	32793	32635	32501	32612	
1330	0	32510	32783	32615	32543	32723	32743	32751	32615	
1331	0	32526	32579	32675	32447	32635	32701	32668	32531	
1332	0	32453	32495	32635	32495	32775	32686	32795	32641	
1333	0	32406	32594	32447	32551	32775	32687	32897	32691	
1334	0	32317	32551	32605	32647	32695	32788	32919	32747	
1335	0	32327	32428	32535	32688	32727	32775	32911	32759	
1336	0	32438	32259	32621	32631	32559	32698	32724	32701	
1337	0	32607	32143	32647	32685	32845	32711	32827	32535	
1338	0	32550	32103	32607	32769	32659	32710	32805	32553	
1339	0	32447	32194	32613	32823	32795	32707	32679	32621	
1340	0	32541	32195	32688	32799	32914	32739	32871	32575	
1341	0	32603	32243	32542	32847	32594	32670	32775	32663	
1342	0	32856	32263	32623	32870	32789	32717	32474	32511	
1343	0	33052	32135	32659	32787	32856	32691	32626	32483	
1344	0	33287	32179	32642	32759	32607	32607	32783	32599	
1345	0	33449	32119	32743	32638	32754	32706	32658	32557	
1346	0	33671	32006	32617	32647	32663	32694	32612	32635	
1347	0	33852	31935	32738	32637	32759	32602	32571	32550	
1348	0	34009	32063	32763	32636	32854	32679	32685	32518	
1349	0	33887	32143	32735	32646	32827	32671	32691	32672	
1350	0	33589	32306	32811	32638	32838	32671	32469	32603	
1351	0	33455	32487	32775	32623	32717	32647	32582	32477	
1352	0	33190	32655	32895	32627	32850	32609	32538	32671	
1353	0	32942	33031	32903	32703	32679	32686	32483	32534	
1354	0	32642	33382	32962	32775	32823	32647	32529	32723	
1355	0	32521	33415	32922	32757	32630	32788	32599	32759	
1356	0	32586	33383	33037	32857	32757	32641	32491	32751	
1357	0	32767	33031	33039	32976	32706	32667	32357	32615	
1358	0	32963	32943	32839	33030	32791	32647	32404	32757	
1359	0	32984	33221	33053	33159	32830	32775	32239	32647	
1360	0	33000	33500	33033	33127	32807	32727	32423	32767	
1361	0	33074	33511	33050	33071	32863	32679	32380	32751	
1362	0	33134	33519	33031	33132	32707	32727	32423	32797	
1363	0	33190	33489	32961	33011	32854	32629	32435	32807	
1364	0	33192	33323	32990	32922	32775	32663	32471	32838	
1365	0	33306	33093	32867	32891	32799	32647	32475	32632	
1366	0	33352	32887	32937	32755	32879	32587	32349	32495	
1367	0	33243	32775	32735	32734	32635	32715	32549	32646	
1368	0	33027	33020	32735	32695	32786	32621	32402	32567	
1369	0	32867	33245	32867	32675	32644	32766	32671	32735	
1370	0	32742	33277	32810	32620	32722	32694	32543	32647	
1371	0	32616	33287	32775	32570	32635	32695	32659	32801	
1372	0	32589	33191	32783	32519	32735	32666	32641	32735	
1373	0	32555	32891	32763	32534	32708	32767	32730	32757	
1374	0	32558	32611	32573	32605	32775	32748	32725	32591	
1375	0	32440	32465	32679	32638	32868	32631	32646	32519	
1376	0	32304	32343	32586	32684	32507	32711	32845	32703	
1377	0	32322	32389	32590	32719	32791	32671	32823	32631	
1378	0	32219	32309	32630	32732	32775	32682	32769	32647	
1379	0	32277	32435	32471	32751	32837	32685	32561	32485	
1380	0	32134	32628	32479	32813	32748	32799	32758	32693	
1381	0	32167	32612	32547	32839	32854	32724	32622	32655	
1382	0	32101	32743	32685	32891	32786	32754	32859	32643	
1383	0	32116	32707	32719	32791	32887	32665	32701	32593	
1384	0	32129	32826	32643	32747	32735	32714	32769	32661	
1385	0	32172	32803	32658	32659	32767	32663	32663	32682	
1386	0	32324	32690	32660	32655	32719	32707	32787	32751	
1387	0	32382	32687	32677	32548	32724	32682	32614	32553	
1388	0	32494	32826	32561	32583	32738	32631	32789	32654	
1389	0	32575	32723	32655	32591	32703	32620	32668	32580	
1390	0	32586	32807	32727	32521	32695	32707	32739	32695	
1391	0	32616	32775	32663	32494	32579	32647	32603	32647	
1392	0	32694	32675	32694	32491	32847	32735	32719	32647	
1393	0	32694	32815	32715	32595	32767	32704	32669	32623	
1394	0	32621	32871	32619	32646	32866	32762	32763	32647	
1395	0	32701	32815	32679	32684	32762	32766	32690	32620	
1396	0	32669	32685	32815	32757	32830	32684	32727	32667	
1397	0	32726	32705	32759	32866	32791	32775	32623	32575	
1398	0	32690	32882	32647	32922	32615	32685	32759	32621	
1399	0	32701	32786	32747	32923	32791	32765	32799	32621	
1400	0	32718	32797	32686	32951	32599	32735	32759	32775	
1401	0	32834	32710	32527	32963	32804	32775	32766	32763	
1402	0	32829	32501	32799	32999	32615	32636	32589	32775	
1403	0	32899	32583	32825	32903	32839	32711	32602	32742	
1404	0	32807	32559	32759	32829	32627	32761	32587	32583	
1405	0	32758	32699	32813	32799	32695	32663	32839	32710	
1406	0	32801	32663	32642	32631	32666	32701	32755	32498	
1407	0	32838	32759	32809	32634	32775	32627	32639	32687	
1408	0	32876	32719	32825	32655	32729	32698	32754	32530	
1409	0	32864	32612	32775	32598	32748	32615	32671	32611	
1410	0	32843	32547	32747	32598	32647	32749	32711	32541	
1411	0	32892	32658	32826	32554	32756	32729	32559	32723	
1412	0	32868	32679	32679	32534	32701	32707	32639	32699	
1413	0	32835	32677	32699	32659	32773	32757	32484	32699	
1414	0	32749	32682	32739	32759	32659	32723	32669	32581	
1415	0	32787	32674	32727	32759	32827	32681	32665	32487	
1416	0	32816	32611	32805	32855	32805	32627	32663	32597	
1417	0	32760	32613	32769	32865	32799	32669	32647	32487	
1418	0	32742	32629	32611	32914	32801	32763	32527	32694	
1419	0	32747	32809	32707	32943	32773	32811	32703	32759	
1420	0	32751	32771	32799	32927	32625	32767	32551	32790	
1421	0	32775	32783	32775	32925	32743	32803	32677	32638	
1422	0	32769	32647	32711	32951	32603	32789	32518	32661	
1423	0	32727	32615	32738	32843	32794	32762	32683	32691	
1424	0	32745	32796	32749	32786	32724	32783	32583	32764	
1425	0	32800	32695	32707	32775	32903	32644	32647	32610	
1426	0	32782	32722	32607	32761	32804	32674	32615	32658	
1427	0	32711	32827	32719	32683	32862	32621	32706	32645	
1428	0	32694	32799	32701	32655	32595	32699	32637	32565	
1429	0	32773	32734	32759	32596	32810	32665	32530	32631	
1430	0	32775	32679	32673	32562	32631	32530	32691	32629	
1431	0	32834	32639	32646	32563	32758	32690	32623	32690	
1432	0	32850	32723	32724	32591	32662	32628	32718	32612	
1433	0	32818	32699	32739	32627	32847	32711	32669	32503	
1434	0	32831	32601	32719	32738	32711	32694	32642	32609	
1435	0	32838	32647	32787	32718	32748	32698	32644	32543	
1436	0	32726	32725	32639	32847	32635	32755	32738	32773	
1437	0	32750	32574	32691	32851	32759	32767	32687	32731	
1438	0	32743	32527	32815	32962	32643	32774	32740	32783	
1439	0	32724	32718	32839	32894	32804	32775	32675	32756	
1440	0	32710	32783	32775	32885	32639	32743	32679	32591	
1441	0	32797	32855	32805	32903	32741	32719	32706	32690	
1442	0	32712	32819	32604	32887	32764	32739	32551	32677	
1443	0	32751	32785	32743	32817	32759	32687	32691	32659	
1444	0	32791	32667	32707	32765	32807	32687	32671	32685	
1445	0	32743	32543	32743	32732	32597	32775	32754	32577	
1446	0	32819	32570	32668	32710	32850	32591	32699	32675	
1447	0	32772	32621	32574	32591	32676	32663	32523	32645	
1448	0	32809	32605	32747	32638	32754	32663	32647	32473	
1449	0	32775	32685	32693	32551	32902	32583	32675	32615	
1450	0	32701	32751	32767	32535	32775	32711	32767	32775	
1451	0	32710	32707	32716	32511	32798	32671	32743	32910	
1452	0	32743	32668	32743	32534	32631	32775	32724	32717	
1453	0	32749	32771	32633	32613	32877	32707	32715	32489	
1454	0	32734	32639	32686	32623	32619	32771	32611	32613	
1455	0	32691	32686	32775	32721	32761	32786	32683	32698	
1456	0	32706	32703	32727	32805	32633	32722	32567	32642	
1457	0	32786	32791	32791	32829	32795	32732	32647	32647	
1458	0	32771	32799	32801	32867	32698	32621	32566	32527	
1459	0	32743	32839	32659	32823	32773	32711	32743	32733	
1460	0	32754	32775	32708	32831	32742	32647	32647	32646	
1461	0	32690	32767	32759	32851	32807	32727	32709	32692	
1462	0	32740	32691	32747	32847	32695	32605	32519	32639	
1463	0	32743	32775	32753	32834	32701	32718	32685	32759	
1464	0	32707	32747	32761	32751	32629	32722	32683	32815	
1465	0	32687	32827	32674	32647	32749	32775	32799	32790	
1466	0	32734	32737	32642	32625	32638	32698	32747	32725	
1467	0	32736	32675	32548	32623	32839	32718	32695	32685	
1468	0	32729	32685	32686	32631	32707	32726	32658	32599	
1469	0	32780	32655	32733	32567	32738	32663	32547	32511	
1470	0	32788	32687	32725	32455	32644	32667	32693	32701	
1471	0	32788	32725	32747	32623	32941	32823	32803	32773	
1472	0	32797	32665	32770	32586	32801	32728	32803	32703	
1473	0	32811	32663	32771	32576	32903	32703	32735	32708	
1474	0	32825	32591	32679	32647	32775	32693	32647	32647	
1475	0	32807	32727	32711	32710	32877	32679	32579	32721	
1476	0	32722	32726	32775	32758	32741	32711	32717	32751	
1477	0	32692	32742	32722	32767	32834	32631	32563	32577	
1478	0	32653	32599	32763	32828	32763	32675	32695	32647	
1479	0	32718	32629	32797	32819	32711	32617	32599	32731	
1480	0	32762	32634	32749	32962	32756	32775	32699	32738	
1481	0	32712	32775	32791	32903	32571	32713	32747	32687	
1482	0	32711	32672	32855	32909	32911	32755	32692	32646	
1483	0	32708	32804	32798	32870	32743	32751	32690	32754	
1484	0	32775	32791	32694	32821	32807	32739	32519	32669	
1485	0	32818	32743	32695	32715	32826	32775	32639	32667	
1486	0	32712	32615	32839	32674	32674	32725	32583	32654	
1487	0	32738	32667	32725	32659	32775	32631	32719	32583	
1488	0	32751	32691	32687	32631	32655	32759	32551	32647	
1489	0	32795	32715	32769	32654	32765	32610	32747	32515	
1490	0	32804	32727	32799	32595	32567	32775	32526	32727	
1491	0	32811	32655	32790	32452	32799	32773	32711	32647	
1492	0	32738	32759	32703	32546	32791	32687	32717	32703	
1493	0	32717	32736	32607	32617	32695	32731	32797	32635	
1494	0	32677	32754	32595	32711	32738	32663	32773	32679	
1495	0	32799	32705	32738	32722	32647	32718	32639	32535	
1496	0	32771	32719	32679	32770	32807	32669	32705	32645	
1497	0	32767	32711	32799	32855	32627	32669	32544	32493	
1498	0	32695	32695	32846	32859	32801	32641	32597	32612	
1499	0	32681	32747	32679	32911	32635	32741	32542	32686	
1500	0	32740	32743	32620	32847	32839	32751	32647	32758	
1501	0	32719	32775	32669	32845	32775	32751	32587	32615	
1502	0	32672	32839	32855	32811	32855	32687	32683	32792	
1503	0	32707	32837	32839	32849	32791	32738	32815	32765	
1504	0	32746	32582	32805	32839	32551	32690	32686	32691	
1505	0	32820	32647	32742	32807	32839	32743	32701	32470	
1506	0	32820	32759	32801	32711	32559	32603	32574	32639	
1507	0	32799	32703	32765	32647	32775	32719	32731	32535	
1508	0	32812	32711	32626	32662	32575	32679	32659	32687	
1509	0	32831	32635	32677	32581	32787	32699	32639	32551	
1510	0	32815	32575	32775	32540	32582	32694	32559	32603	
1511	0	32761	32687	32771	32548	32839	32773	32719	32637	
1512	0	32782	32655	32791	32543	32747	32706	32666	32877	
1513	0	32747	32743	32682	32718	32831	32797	32802	32684	
1514	0	32718	32647	32721	32687	32799	32757	32595	32646	
1515	0	32754	32647	32747	32786	32846	32743	32666	32630	
1516	0	32679	32855	32827	32787	32745	32707	32503	32643	
1517	0	32690	32767	32669	32831	32789	32684	32690	32632	
1518	0	32807	32743	32711	32931	32771	32706	32459	32711	
1519	0	32701	32689	32827	32931	32743	32698	32635	32703	
1520	0	32738	32556	32787	32875	32786	32749	32495	32715	
1521	0	32696	32757	32762	32933	32609	32717	32645	32511	
1522	0	32717	32785	32683	32852	32876	32638	32647	32701	
1523	0	32749	32735	32743	32794	32674	32775	32707	32566	
1524	0	32708	32739	32773	32707	32903	32723	32643	32687	
1525	0	32759	32631	32685	32715	32818	32711	32715	32599	
1526	0	32816	32725	32615	32685	32847	32621	32736	32541	
1527	0	32784	32711	32765	32605	32747	32701	32711	32423	
1528	0	32756	32727	32731	32566	32707	32666	32754	32557	
1529	0	32722	32623	32623	32614	32751	32676	32670	32513	
1530	0	32756	32619	32692	32540	32647	32623	32711	32631	
1531	0	32754	32810	32694	32547	32764	32719	32815	32670	
1532	0	32694	32759	32605	32487	32594	32687	32739	32775	
1533	0	32628	32815	32647	32606	32839	32751	32775	32587	
1534	0	32700	32604	32548	32636	32775	32709	32759	32691	
1535	0	32775	32671	32585	32731	32751	32731	32547	32759	
1536	0	32818	32775	32749	32743	32775	32703	32661	32715	
1537	0	32765	32765	32663	32797	32834	32752	32482	32541	
1538	0	32687	32819	32739	32870	32764	32647	32635	32658	
1539	0	32715	32654	32739	32843	32895	32699	32539	32583	
1540	0	32716	32711	32613	32909	32759	32665	32677	32701	
1541	0	32762	32807	32631	32903	32885	32730	32557	32647	
1542	0	32813	32733	32668	32935	32791	32663	32647	32647	
1543	0	32740	32679	32751	32798	32835	32722	32491	32531	
1544	0	32702	32641	32757	32847	32756	32663	32727	32685	
1545	0	32766	32742	32814	32789	32791	32647	32671	32511	
1546	0	32823	32775	32750	32694	32789	32658	32759	32628	
1547	0	32742	32743	32759	32690	32727	32692	32727	32599	
1548	0	32789	32746	32803	32597	32703	32674	32667	32631	
1549	0	32759	32807	32839	32621	32691	32751	32727	32579	
1550	0	32846	32769	32816	32591	32759	32647	32767	32684	
1551	0	32828	32663	32694	32553	32887	32772	32663	32499	
1552	0	32769	32659	32743	32519	32769	32749	32767	32628	
1553	0	32728	32703	32795	32551	32879	32629	32567	32605	
1554	0	32762	32679	32743	32631	32766	32701	32637	32669	
1555	0	32735	32695	32799	32687	32814	32627	32574	32590	
1556	0	32679	32794	32786	32826	32743	32647	32703	32671	
1557	0	32639	32802	32794	32863	32647	32687	32599	32578	
1558	0	32647	32722	32755	32935	32802	32742	32621	32583	
1559	0	32698	32799	32799	32947	32751	32789	32703	32605	
1560	0	32763	32854	32758	32870	32895	32725	32559	32663	
1561	0	32788	32773	32793	32877	32743	32773	32754	32612	
1562	0	32728	32701	32749	32902	32647	32643	32559	32754	
1563	0	32772	32831	32759	32821	32879	32743	32717	32817	
1564	0	32812	32742	32732	32831	32809	32671	32659	32621	
1565	0	32822	32677	32749	32772	32802	32743	32532	32642	
1566	0	32850	32695	32571	32741	32814	32729	32647	32485	
1567	0	32795	32743	32579	32727	32703	32765	32524	32591	
1568	0	32757	32662	32605	32694	32738	32694	32671	32567	
1569	0	32698	32723	32647	32591	32607	32689	32647	32669	
1570	0	32745	32575	32767	32540	32802	32711	32703	32699	
1571	0	32794	32604	32731	32493	32638	32767	32599	32754	
1572	0	32668	32647	32713	32551	32822	32775	32685	32667	
1573	0	32762	32690	32783	32612	32762	32655	32731	32711	
1574	0	32770	32700	32830	32679	32710	32725	32543	32638	
1575	0	32733	32887	32805	32730	32758	32677	32677	32690	
1576	0	32772	32775	32738	32815	32646	32743	32575	32611	
1577	0	32740	32799	32743	32871	32738	32663	32642	32703	
1578	0	32719	32783	32810	32911	32639	32698	32492	32746	
1579	0	32766	32743	32767	32915	32759	32663	32687	32679	
1580	0	32751	32647	32627	32975	32639	32727	32607	32763	
1581	0	32679	32751	32695	32987	32751	32663	32771	32715	
1582	0	32728	32702	32807	32911	32602	32807	32565	32631	
1583	0	32827	32726	32803	32895	32930	32711	32631	32471	
1584	0	32828	32711	32852	32807	32799	32642	32426	32551	
1585	0	32866	32683	32863	32723	32791	32705	32615	32551	
1586	0	32717	32729	32734	32685	32783	32727	32510	32694	
1587	0	32688	32803	32827	32719	32718	32813	32766	32674	
1588	0	32698	32795	32773	32659	32726	32758	32698	32743	
1589	0	32774	32633	32631	32634	32831	32621	32775	32711	
1590	0	32837	32639	32606	32547	32773	32749	32843	32739	
1591	0	32854	32741	32639	32543	32823	32783	32788	32698	
1592	0	32783	32675	32757	32607	32756	32767	32715	32743	
1593	0	32811	32763	32807	32669	32658	32771	32751	32679	
1594	0	32814	32663	32631	32719	32797	32736	32673	32719	
1595	0	32784	32714	32751	32723	32642	32714	32679	32709	
1596	0	32816	32882	32746	32775	32821	32711	32660	32749	
1597	0	32685	32855	32797	32811	32639	32723	32550	32682	
1598	0	32679	32818	32835	32811	32850	32708	32663	32743	
1599	0	32717	32733	32735	32863	32803	32773	32621	32677	
1600	0	32689	32758	32743	32871	32925	32769	32660	32589	
1601	0	32730	32826	32705	32935	32747	32751	32594	32671	
1602	0	32767	32771	32726	32959	32853	32775	32647	32482	
1603	0	32707	32775	32723	32837	32807	32743	32639	32590	
1604	0	32738	32628	32675	32871	32607	32719	32759	32555	
1605	0	32780	32796	32799	32762	32774	32733	32647	32640	
1606	0	32694	32767	32723	32595	32607	32692	32566	32690	
1607	0	32699	32805	32679	32587	32887	32670	32719	32474	
1608	0	32727	32660	32771	32644	32769	32671	32577	32683	
1609	0	32740	32831	32851	32607	32742	32763	32683	32643	
1610	0	32751	32751	32829	32596	32753	32667	32590	32633	
1611	0	32753	32706	32710	32535	32727	32719	32687	32543	
1612	0	32771	32692	32759	32527	32749	32646	32591	32655	
1613	0	32749	32655	32642	32599	32659	32715	32639	32582	
1614	0	32731	32647	32591	32601	32775	32655	32583	32677	
1615	0	32797	32795	32723	32718	32661	32644	32679	32559	
1616	0	32730	32719	32851	32739	32794	32572	32519	32639	
1617	0	32702	32775	32829	32775	32773	32733	32663	32611	
1618	0	32692	32759	32850	32787	32671	32739	32615	32713	
1619	0	32713	32791	32839	32839	32769	32684	32739	32655	
1620	0	32698	32855	32775	32879	32623	32719	32765	32683	
1621	0	32718	32621	32819	32955	32903	32795	32549	32579	
1622	0	32734	32799	32819	32987	32773	32739	32614	32628	
1623	0	32745	32775	32790	32951	32723	32759	32746	32603	
1624	0	32677	32711	32807	32834	32591	32754	32787	32748	
1625	0	32782	32733	32795	32691	32775	32711	32708	32729	
1626	0	32742	32667	32769	32775	32725	32727	32671	32690	
1627	0	32782	32715	32773	32655	32734	32643	32703	32663	
1628	0	32732	32695	32748	32541	32851	32739	32715	32659	
1629	0	32780	32629	32775	32561	32871	32743	32756	32683	
1630	0	32884	32703	32806	32534	32887	32767	32636	32671	
1631	0	32853	32719	32765	32607	32735	32679	32615	32691	
1632	0	32772	32748	32775	32593	32603	32679	32631	32687	
1633	0	32850	32647	32739	32647	32761	32635	32647	32699	
1634	0	32835	32675	32765	32691	32769	32655	32775	32675	
1635	0	32832	32751	32623	32787	32813	32677	32631	32591	
1636	0	32796	32711	32767	32838	32827	32718	32586	32534	
1637	0	32722	32734	32807	32879	32747	32634	32629	32570	
1638	0	32678	32710	32741	32951	32812	32681	32615	32667	
1639	0	32738	32681	32751	32925	32875	32783	32617	32559	
1640	0	32756	32704	32721	32971	32592	32787	32514	32700	
1641	0	32711	32756	32765	32990	32763	32690	32695	32715	
1642	0	32651	32791	32759	32946	32642	32739	32627	32693	
1643	0	32697	32675	32755	32887	32797	32637	32684	32719	
1644	0	32765	32627	32775	32847	32642	32695	32527	32663	
1645	0	32775	32679	32671	32765	32822	32615	32607	32681	
1646	0	32759	32627	32583	32671	32713	32711	32455	32655	
1647	0	32839	32730	32603	32678	32742	32635	32667	32594	
1648	0	32724	32718	32637	32703	32679	32699	32518	32602	
1649	0	32780	32643	32575	32633	32748	32559	32633	32583	
1650	0	32670	32807	32562	32578	32591	32688	32619	32718	
1651	0	32725	32743	32735	32575	32756	32755	32765	32739	
1652	0	32771	32683	32759	32587	32671	32839	32715	32615	
1653	0	32729	32771	32763	32574	32723	32775	32764	32797	
1654	0	32773	32578	32747	32586	32555	32806	32627	32903	
1655	0	32793	32579	32677	32677	32755	32788	32762	32796	
1656	0	32860	32647	32773	32757	32647	32743	32609	32534	
1657	0	32912	32606	32775	32788	32825	32658	32537	32455	
1658	0	32730	32751	32775	32916	32644	32695	32525	32595	
1659	0	32640	32679	32735	32871	32831	32695	32737	32583	
1660	0	32594	32710	32758	32855	32593	32715	32725	32693	
1661	0	32615	32887	32775	32965	32791	32815	32843	32925	
1662	0	32599	32894	32695	32895	32583	32653	32765	32686	
1663	0	32605	32842	32701	32820	32791	32747	32789	32684	
1664	0	32782	32706	32847	32759	32637	32706	32811	32620	
1665	0	32814	32692	32731	32694	32759	32823	32637	32727	
1666	0	32742	32687	32839	32583	32699	32747	32709	32717	
1667	0	32774	32559	32799	32545	32763	32631	32471	32647	
1668	0	32841	32535	32815	32543	32751	32677	32666	32551	
1669	0	32826	32607	32645	32489	32793	32621	32609	32479	
1670	0	32808	32699	32578	32428	32871	32671	32707	32583	
1671	0	32844	32697	32743	32422	32807	32658	32671	32595	
1672	0	32780	32687	32743	32516	32935	32647	32570	32523	
1673	0	32768	32773	32701	32571	32667	32719	32667	32684	
1674	0	32763	32799	32807	32623	32853	32647	32609	32692	
1675	0	32763	32775	32825	32710	32767	32767	32749	32839	
1676	0	32775	32703	32827	32748	32867	32715	32647	32771	
1677	0	32717	32631	32687	32846	32599	32787	32745	32639	
1678	0	32747	32665	32621	32899	32861	32727	32711	32647	
1679	0	32686	32591	32788	32935	32623	32721	32639	32671	
1680	0	32671	32743	32767	32868	32738	32699	32679	32739	
1681	0	32710	32742	32759	32961	32660	32666	32467	32710	
1682	0	32731	32773	32834	33003	32835	32763	32647	32582	
1683	0	32791	32728	32727	32929	32903	32720	32667	32639	
1684	0	32706	32740	32679	32863	32555	32660	32602	32607	
1685	0	32712	32739	32727	32786	32839	32733	32659	32655	
1686	0	32724	32615	32663	32749	32587	32611	32487	32541	
1687	0	32749	32557	32674	32623	32803	32655	32641	32647	
1688	0	32793	32599	32740	32603	32706	32694	32455	32564	
1689	0	32738	32710	32743	32587	32818	32735	32630	32505	
1690	0	32787	32759	32740	32587	32749	32715	32543	32571	
1691	0	32751	32658	32747	32543	32775	32771	32647	32511	
1692	0	32782	32690	32723	32549	32807	32775	32586	32657	
1693	0	32743	32647	32727	32671	32790	32666	32687	32589	
1694	0	32749	32709	32575	32711	32863	32711	32594	32797	
1695	0	32771	32636	32783	32716	32575	32684	32722	32698	
1696	0	32823	32662	32789	32799	32723	32733	32583	32547	
1697	0	32769	32751	32767	32868	32642	32697	32602	32543	
1698	0	32767	32684	32669	32871	32833	32738	32599	32535	
1699	0	32743	32762	32622	32902	32553	32775	32733	32679	
1700	0	32596	32727	32773	32917	32735	32826	32743	32719	
1701	0	32629	32735	32751	32935	32617	32731	32787	32791	
1702	0	32741	32805	32679	32973	32745	32709	32771	32615	
1703	0	32764	32762	32669	32925	32829	32763	32687	32801	
1704	0	32708	32767	32775	32813	32748	32663	32679	32615	
1705	0	32703	32751	32669	32788	32882	32679	32539	32647	
1706	0	32749	32735	32695	32690	32609	32679	32647	32555	
1707	0	32742	32698	32743	32613	32751	32595	32715	32525	
1708	0	32742	32785	32503	32595	32717	32739	32705	32612	
1709	0	32835	32607	32567	32603	32772	32647	32701	32690	
1710	0	32764	32775	32567	32567	32661	32687	32714	32723	
1711	0	32750	32685	32585	32535	32811	32720	32671	32743	
1712	0	32735	32725	32679	32549	32605	32750	32767	32727	
1713	0	32807	32675	32733	32580	32823	32708	32599	32679	
1714	0	32831	32613	32701	32699	32767	32662	32670	32646	
1715	0	32801	32859	32795	32759	32887	32711	32625	32735	
1716	0	32753	32758	32791	32791	32811	32661	32770	32771	
1717	0	32678	32799	32763	32832	32927	32791	32706	32582	
1718	0	32679	32775	32719	32922	32575	32739	32527	32695	
1719	0	32604	32887	32838	32923	32746	32647	32647	32694	
1720	0	32647	32719	32839	32967	32612	32743	32511	32748	
1721	0	32695	32747	32839	32983	32926	32687	32692	32717	
1722	0	32739	32822	32805	32943	32786	32771	32548	32815	
1723	0	32706	32811	32685	32790	32681	32831	32703	32757	
1724	0	32714	32775	32735	32791	32703	32754	32539	32721	
1725	0	32786	32647	32747	32727	32621	32601	32727	32727	
1726	0	32723	32631	32773	32663	32731	32731	32775	32771	
1727	0	32751	32667	32745	32637	32605	32647	32719	32685	
1728	0	32768	32663	32787	32524	32754	32683	32717	32519	
1729	0	32783	32684	32819	32487	32758	32581	32579	32526	
1730	0	32848	32718	32767	32443	32811	32711	32660	32615	
1731	0	32831	32775	32812	32479	32647	32621	32621	32589	
1732	0	32780	32727	32679	32485	32750	32757	32737	32619	
1733	0	32738	32635	32667	32601	32619	32654	32709	32851	
1734	0	32707	32641	32679	32605	32781	32711	32787	32829	
1735	0	32788	32683	32754	32705	32638	32655	32646	32751	
1736	0	32716	32717	32743	32835	32925	32703	32674	32655	
1737	0	32700	32817	32695	32897	32787	32626	32614	32607	
1738	0	32723	32727	32822	32937	32911	32711	32658	32503	
1739	0	32690	32723	32753	32918	32811	32599	32687	32607	
1740	0	32782	32711	32715	32879	32927	32726	32559	32663	
1741	0	32687	32823	32788	32839	32725	32797	32577	32619	
1742	0	32627	32871	32822	32929	32843	32707	32751	32831	
1743	0	32586	32765	32827	32955	32717	32751	32730	32865	
1744	0	32822	32541	32827	32785	32587	32795	32858	32855	
1745	0	32864	32575	32827	32749	32775	32850	32721	32815	
1746	0	32809	32677	32687	32751	32591	32679	32711	32739	
1747	0	32869	32559	32759	32743	32761	32671	32551	32663	
1748	0	32862	32735	32797	32578	32621	32615	32676	32706	
1749	0	32806	32686	32807	32596	32932	32655	32485	32686	
1750	0	32798	32717	32854	32554	32737	32612	32671	32623	
1751	0	32871	32711	32751	32487	32902	32687	32493	32699	
1752	0	32839	32647	32647	32511	32810	32631	32604	32647	
1753	0	32769	32755	32647	32646	32682	32725	32615	32675	
1754	0	32747	32783	32691	32721	32698	32749	32602	32613	
1755	0	32807	32733	32789	32795	32594	32759	32497	32630	
1756	0	32775	32775	32725	32823	32795	32695	32711	32501	
1757	0	32655	32683	32739	32775	32757	32741	32751	32623	
1758	0	32613	32871	32715	32867	32809	32638	32591	32605	
1759	0	32575	32862	32609	32959	32835	32695	32703	32677	
1760	0	32671	32798	32627	32971	32663	32695	32527	32583	
1761	0	32739	32775	32669	32930	32839	32688	32655	32619	
1762	0	32741	32639	32755	33010	32614	32629	32491	32499	
1763	0	32762	32615	32813	32885	32927	32721	32619	32635	
1764	0	32775	32670	32785	32841	32807	32658	32583	32519	
1765	0	32740	32727	32647	32847	32847	32791	32708	32711	
1766	0	32695	32703	32815	32767	32759	32719	32518	32726	
1767	0	32766	32679	32827	32657	32799	32741	32684	32710	
1768	0	32817	32655	32775	32577	32807	32644	32576	32581	
1769	0	32781	32735	32783	32532	32745	32708	32735	32623	
1770	0	32809	32692	32754	32511	32810	32615	32797	32563	
1771	0	32807	32761	32723	32525	32603	32723	32749	32743	
1772	0	32771	32639	32674	32506	32860	32685	32799	32615	
1773	0	32783	32647	32609	32532	32863	32742	32578	32676	
1774	0	32742	32734	32613	32614	32727	32587	32685	32513	
1775	0	32711	32679	32647	32710	32743	32679	32507	32591	
1776	0	32805	32725	32711	32759	32683	32747	32604	32631	
1777	0	32813	32802	32797	32788	32709	32745	32470	32607	
1778	0	32691	32765	32715	32866	32663	32628	32675	32624	
1779	0	32695	32679	32767	32903	32751	32695	32643	32575	
1780	0	32747	32733	32823	32910	32603	32689	32775	32672	
1781	0	32699	32799	32832	32931	32799	32735	32668	32715	
1782	0	32742	32743	32767	32975	32559	32683	32735	32738	
1783	0	32733	32795	32667	32887	32839	32772	32610	32713	
1784	0	32720	32673	32623	32775	32736	32739	32697	32796	
1785	0	32815	32547	32749	32770	32967	32621	32555	32663	
1786	0	32870	32527	32815	32694	32789	32679	32640	32494	
1787	0	32746	32749	32758	32724	32855	32716	32678	32659	
1788	0	32748	32788	32765	32615	32775	32577	32727	32559	
1789	0	32748	32647	32761	32594	32773	32707	32719	32751	
1790	0	32827	32745	32639	32567	32759	32706	32783	32708	
1791	0	32764	32775	32566	32467	32705	32810	32774	32743	
1792	0	32783	32674	32694	32565	32786	32765	32598	32695	
1793	0	32825	32643	32719	32607	32719	32661	32679	32679	
1794	0	32807	32767	32723	32623	32795	32721	32706	32687	
1795	0	32759	32775	32723	32743	32588	32772	32681	32717	
1796	0	32592	32788	32745	32839	32929	32751	32587	32535	
1797	0	32679	32743	32775	32895	32819	32754	32511	32575	
1798	0	32691	32723	32751	32895	32903	32722	32500	32551	
1799	0	32642	32783	32647	32935	32609	32667	32699	32743	
1800	0	32694	32804	32783	32895	32751	32691	32551	32723	
1801	0	32731	32705	32706	32839	32695	32631	32694	32596	
1802	0	32798	32692	32790	32831	32775	32775	32676	32677	
1803	0	32758	32691	32795	32887	32863	32755	32647	32622	
1804	0	32682	32739	32672	32828	32722	32751	32709	32843	
1805	0	32663	32899	32643	32791	32847	32756	32691	32775	
1806	0	32671	32807	32796	32660	32519	32662	32815	32589	
1807	0	32775	32679	32703	32647	32724	32715	32673	32671	
1808	0	32822	32540	32803	32605	32703	32631	32471	32526	
1809	0	32729	32647	32796	32562	32759	32663	32647	32431	
1810	0	32775	32611	32611	32516	32775	32681	32696	32591	
1811	0	32738	32639	32679	32517	32739	32711	32903	32689	
1812	0	32738	32659	32706	32470	32727	32745	32794	32789	
1813	0	32837	32767	32695	32586	32795	32631	32559	32761	
1814	0	32910	32723	32738	32741	32846	32716	32719	32617	
1815	0	32838	32759	32710	32743	32677	32743	32663	32698	
1816	0	32709	32853	32555	32789	32799	32599	32463	32690	
1817	0	32662	32839	32758	32858	32738	32726	32639	32507	
1818	0	32642	32787	32711	32847	32763	32738	32687	32719	
1819	0	32666	32727	32828	32843	32863	32757	32534	32771	
1820	0	32684	32646	32799	32887	32767	32708	32689	32767	
1821	0	32736	32731	32662	32861	32879	32673	32506	32703	
1822	0	32746	32839	32724	32931	32635	32759	32719	32487	
1823	0	32843	32727	32691	32876	32791	32623	32707	32629	
1824	0	32827	32693	32707	32811	32867	32742	32573	32660	
1825	0	32699	32743	32591	32775	32790	32807	32731	32588	
1826	0	32715	32749	32775	32619	32815	32637	32670	32810	
1827	0	32753	32831	32718	32691	32690	32737	32554	32643	
1828	0	32765	32743	32705	32684	32821	32726	32751	32495	
1829	0	32806	32642	32786	32646	32834	32615	32769	32701	
1830	0	32760	32694	32615	32534	32614	32722	32580	32751	
1831	0	32811	32734	32789	32605	32720	32701	32725	32557	
1832	0	32807	32647	32647	32524	32855	32719	32711	32703	
1833	0	32816	32631	32686	32527	32747	32767	32679	32647	
1834	0	32820	32671	32675	32613	32877	32605	32735	32707	
1835	0	32743	32695	32667	32773	32647	32722	32482	32595	
1836	0	32724	32694	32775	32831	32804	32703	32608	32485	
1837	0	32729	32667	32837	32869	32669	32695	32470	32540	
1838	0	32621	32751	32802	32887	32783	32717	32671	32468	
1839	0	32599	32759	32855	32903	32658	32708	32679	32743	
1840	0	32663	32711	32895	32951	32802	32707	32727	32726	
1841	0	32788	32615	32831	32923	32759	32716	32677	32551	
1842	0	32858	32643	32556	32879	32734	32703	32563	32691	
1843	0	32822	32799	32766	32869	32863	32699	32759	32687	
1844	0	32806	32763	32710	32757	32623	32815	32748	32736	
1845	0	32697	32818	32791	32767	32731	32701	32551	32742	
1846	0	32790	32662	32679	32711	32903	32673	32709	32485	
1847	0	32775	32635	32807	32579	32607	32663	32646	32663	
1848	0	32804	32822	32751	32599	32739	32698	32455	32515	
1849	0	32827	32710	32806	32604	32839	32663	32647	32391	
1850	0	32767	32647	32595	32583	32599	32607	32741	32731	
1851	0	32698	32711	32717	32543	32755	32791	32608	32775	
1852	0	32860	32615	32758	32575	32827	32751	32718	32503	
1853	0	32828	32709	32757	32539	32795	32655	32639	32627	
1854	0	32734	32798	32690	32611	32773	32681	32552	32711	
1855	0	32671	32735	32631	32743	32677	32711	32767	32563	
1856	0	32647	32755	32817	32850	32807	32773	32813	32829	
1857	0	32679	32743	32742	32869	32820	32758	32626	32887	
1858	0	32662	32877	32929	32903	32567	32687	32627	32685	
1859	0	32667	32797	32830	32933	32764	32775	32511	32636	
1860	0	32745	32743	32663	32961	32841	32714	32641	32509	
1861	0	32763	32862	32821	32889	32607	32635	32681	32687	
1862	0	32751	32687	32717	32854	32806	32746	32455	32711	
1863	0	32749	32808	32786	32834	32734	32775	32659	32621	
1864	0	32766	32647	32806	32803	32775	32673	32662	32667	
1865	0	32733	32645	32611	32775	32833	32759	32806	32601	
1866	0	32780	32671	32587	32711	32830	32627	32563	32535	
1867	0	32831	32759	32711	32639	32871	32714	32615	32505	
1868	0	32726	32679	32703	32606	32595	32631	32631	32602	
1869	0	32666	32807	32698	32589	32738	32719	32571	32615	
1870	0	32695	32718	32721	32621	32666	32739	32775	32549	
1871	0	32703	32823	32623	32535	32765	32662	32799	32703	
1872	0	32714	32679	32709	32506	32875	32751	32739	32596	
1873	0	32775	32635	32719	32537	32602	32719	32767	32749	
1874	0	32773	32683	32738	32721	32762	32755	32711	32659	
1875	0	32793	32554	32725	32811	32799	32743	32621	32455	
1876	0	32786	32631	32814	32868	32791	32611	32607	32583	
1877	0	32586	32646	32589	32885	32815	32722	32559	32681	
1878	0	32647	32791	32789	32871	32663	32629	32630	32612	
1879	0	32763	32810	32727	32921	32829	32726	32611	32667	
1880	0	32747	32823	32852	32916	32868	32763	32721	32683	
1881	0	32667	32675	32791	32914	32619	32677	32727	32615	
1882	0	32618	32667	32647	32910	32763	32787	32623	32743	
1883	0	32767	32661	32647	32839	32662	32721	32614	32590	
1884	0	32783	32510	32671	32807	32835	32715	32519	32591	
1885	0	32828	32543	32805	32751	32723	32690	32505	32531	
1886	0	32828	32663	32772	32747	32787	32634	32551	32475	
1887	0	32823	32751	32801	32647	32797	32729	32806	32775	
1888	0	32834	32730	32863	32575	32575	32717	32759	32742	
1889	0	32771	32679	32663	32595	32719	32639	32577	32615	
1890	0	32820	32803	32772	32495	32869	32710	32788	32739	
1891	0	32826	32851	32791	32489	32803	32679	32709	32687	
1892	0	32714	32767	32619	32493	32795	32763	32791	32719	
1893	0	32713	32771	32775	32573	32647	32715	32663	32675	
1894	0	32698	32806	32740	32724	32745	32646	32525	32491	
1895	0	32799	32681	32834	32791	32671	32763	32657	32721	
1896	0	32751	32730	32638	32844	32775	32686	32519	32724	
1897	0	32704	32823	32789	32866	32846	32719	32679	32564	
1898	0	32735	32799	32647	32941	32615	32698	32639	32548	
1899	0	32769	32786	32734	32935	32759	32694	32619	32670	
1900	0	32767	32815	32767	32914	32807	32743	32813	32939	
1901	0	32713	32766	32679	32887	32773	32719	32527	32731	
1902	0	32710	32647	32769	32879	32875	32786	32663	32659	
1903	0	32770	32767	32797	32773	32756	32821	32669	32786	
1904	0	32818	32783	32703	32769	32839	32751	32742	32723	
1905	0	32927	32701	32832	32823	32583	32683	32705	32771	
1906	0	32901	32723	32789	32799	32848	32647	32538	32673	
1907	0	32879	32759	32677	32759	32567	32723	32663	32759	
1908	0	32817	32711	32598	32677	32790	32671	32538	32599	
1909	0	32787	32663	32637	32674	32631	32647	32699	32662	
1910	0	32770	32635	32742	32571	32823	32709	32647	32573	
1911	0	32834	32760	32751	32566	32627	32634	32807	32567	
1912	0	32799	32756	32665	32559	32756	32787	32823	32727	
1913	0	32735	32745	32658	32639	32563	32737	32859	32676	
1914	0	32718	32790	32738	32687	32762	32806	32761	32723	
1915	0	32743	32675	32719	32767	32623	32646	32695	32556	
1916	0	32780	32775	32717	32851	32775	32735	32631	32640	
1917	0	32834	32727	32713	32875	32687	32619	32676	32547	
1918	0	32790	32699	32686	32886	32775	32727	32647	32503	
1919	0	32738	32756	32669	32891	32615	32735	32661	32457	
1920	0	32772	32626	32725	32807	32819	32759	32543	32596	
1921	0	32806	32647	32743	32845	32627	32647	32514	32431	
1922	0	32740	32585	32767	32855	32803	32748	32582	32647	
1923	0	32669	32591	32822	32852	32759	32734	32531	32663	
1924	0	32694	32734	32831	32790	32726	32803	32785	32740	
1925	0	32686	32700	32678	32823	32807	32750	32767	32710	
1926	0	32728	32694	32679	32762	32765	32621	32789	32586	
1927	0	32852	32662	32655	32662	32775	32699	32663	32743	
1928	0	32801	32666	32805	32679	32766	32669	32751	32615	
1929	0	32804	32643	32679	32633	32819	32684	32759	32663	
1930	0	32771	32711	32766	32555	32617	32727	32591	32583	
1931	0	32746	32623	32775	32485	32791	32647	32747	32647	
1932	0	32730	32595	32607	32539	32757	32685	32702	32517	
1933	0	32773	32719	32647	32563	32759	32647	32704	32644	
1934	0	32756	32743	32604	32645	32749	32695	32739	32640	
1935	0	32751	32743	32621	32733	32815	32679	32711	32664	
1936	0	32727	32899	32757	32775	32737	32727	32690	32631	
1937	0	32683	32844	32751	32795	32756	32804	32518	32707	
1938	0	32683	32687	32763	32863	32843	32647	32519	32535	
1939	0	32742	32719	32838	32919	32860	32679	32377	32460	
1940	0	32627	32784	32805	32887	32803	32636	32591	32679	
1941	0	32583	32859	32783	32943	32743	32749	32601	32583	
1942	0	32661	32695	32815	32990	32823	32743	32799	32695	
1943	0	32728	32594	32639	32935	32719	32719	32623	32566	
1944	0	32748	32630	32647	32886	32844	32673	32820	32751	
1945	0	32699	32659	32788	32793	32571	32759	32647	32771	
1946	0	32724	32679	32743	32698	32798	32663	32727	32783	
1947	0	32775	32679	32743	32647	32783	32647	32537	32677	
1948	0	32752	32687	32670	32647	32871	32615	32647	32557	
1949	0	32775	32719	32717	32583	32599	32727	32679	32507	
1950	0	32796	32726	32749	32551	32859	32700	32775	32679	
1951	0	32839	32638	32719	32542	32647	32807	32647	32565	
1952	0	32845	32663	32639	32551	32719	32708	32725	32635	
1953	0	32852	32615	32749	32583	32771	32647	32691	32601	
1954	0	32775	32559	32695	32644	32795	32746	32502	32459	
1955	0	32766	32727	32763	32711	32903	32671	32710	32722	
1956	0	32635	32851	32758	32751	32806	32642	32711	32635	
1957	0	32714	32775	32815	32839	32903	32745	32621	32532	
1958	0	32730	32815	32839	32962	32734	32743	32468	32698	
1959	0	32655	32795	32756	32953	32890	32783	32647	32634	
1960	0	32672	32759	32589	32935	32626	32695	32751	32739	
1961	0	32688	32683	32667	32918	32813	32768	32823	32639	
1962	0	32658	32775	32807	32903	32567	32715	32769	32811	
1963	0	32616	32755	32739	32826	32731	32714	32619	32637	
1964	0	32690	32655	32799	32807	32775	32751	32676	32453	
1965	0	32804	32695	32771	32767	32847	32711	32569	32589	
1966	0	32810	32669	32667	32727	32902	32727	32710	32643	
1967	0	32848	32711	32775	32692	32628	32607	32706	32509	
1968	0	32889	32727	32775	32620	32775	32715	32599	32675	
1969	0	32853	32677	32701	32590	32686	32745	32599	32685	
1970	0	32839	32626	32687	32582	32765	32715	32470	32797	
1971	0	32764	32695	32703	32538	32707	32773	32743	32735	
1972	0	32780	32698	32551	32546	32734	32684	32527	32667	
1973	0	32696	32847	32671	32655	32751	32695	32699	32766	
1974	0	32658	32871	32786	32677	32751	32678	32628	32813	
1975	0	32621	32874	32868	32775	32699	32735	32631	32678	
1976	0	32677	32799	32695	32773	32775	32629	32455	32567	
1977	0	32591	32815	32835	32863	32757	32735	32614	32558	
1978	0	32692	32830	32811	32894	32789	32647	32500	32487	
1979	0	32621	32799	32871	32953	32725	32775	32655	32795	
1980	0	32623	32895	32674	32974	32786	32633	32428	32715	
1981	0	32583	32850	32677	33005	32863	32673	32706	32743	
1982	0	32615	32963	32754	32989	32724	32623	32559	32706	
1983	0	32660	32925	32859	32868	32883	32767	32735	32663	
1984	0	32672	32807	32860	32867	32765	32654	32679	32619	
1985	0	32595	32884	32858	32751	32877	32722	32754	32533	
1986	0	32504	32863	32783	32655	32731	32733	32791	32775	
1987	0	32508	32854	32769	32581	32751	32750	32775	32583	
1988	0	32524	32878	32668	32547	32720	32695	32747	32588	
1989	0	32454	32903	32549	32495	32722	32783	32775	32513	
1990	0	32466	32621	32487	32507	32775	32695	32791	32727	
1991	0	32535	32559	32590	32443	32674	32743	32845	32756	
1992	0	32516	32571	32605	32466	32786	32655	32827	32765	
1993	0	32480	32511	32627	32575	32575	32765	32911	32815	
1994	0	32391	32466	32484	32579	32773	32730	32895	32670	
1995	0	32530	32435	32654	32703	32604	32797	32761	32601	
1996	0	32615	32339	32641	32761	32759	32743	32773	32615	
1997	0	32624	32197	32375	32811	32663	32630	32620	32647	
1998	0	32666	32191	32580	32829	32797	32647	32679	32527	
1999	0	32673	32291	32602	32735	32732	32621	32563	32455	
2000	0	32644	32391	32619	32807	32762	32711	32722	32420	
2001	0	32658	32363	32620	32839	32903	32615	32775	32351	
2002	0	32799	32186	32662	32797	32819	32711	32671	32529	
2003	0	32979	32157	32519	32733	32921	32615	32567	32453	
2004	0	33049	32263	32647	32707	32663	32703	32452	32343	
2005	0	33280	32233	32694	32725	32819	32707	32663	32690	
2006	0	33479	32101	32639	32583	32519	32829	32829	32797	
2007	0	33700	31978	32663	32617	32775	32735	32939	32861	
2008	0	33790	31927	32750	32535	32551	32734	32706	32679	
2009	0	33796	31919	32693	32502	32883	32703	32750	32678	
2010	0	33728	32029	32583	32550	32586	32694	32706	32679	
2011	0	33569	32295	32811	32559	32859	32663	32679	32555	
2012	0	33287	32507	32775	32581	32707	32623	32599	32643	
2013	0	33007	32639	32887	32670	32822	32645	32423	32711	
2014	0	32782	32894	32870	32782	32859	32728	32591	32577	
2015	0	32723	33110	32931	32807	32646	32670	32556	32627	
2016	0	32642	33281	32991	32847	32823	32691	32347	32667	
2017	0	32670	33255	33027	32933	32679	32627	32420	32769	
2018	0	32783	33199	33074	32982	32844	32718	32215	32615	
2019	0	32897	33227	32903	33083	32672	32743	32381	32459	
2020	0	32930	33391	33067	33127	32839	32607	32401	32754	
2021	0	32944	33467	32954	33090	32814	32677	32349	32727	
2022	0	32957	33391	33079	33131	32837	32659	32461	32647	
2023	0	32996	33463	32943	32999	32966	32690	32338	32733	
2024	0	33099	33349	32806	32942	32817	32726	32483	32832	
2025	0	33227	33251	32927	32879	32935	32681	32484	32645	
2026	0	33296	32999	32964	32813	32734	32676	32391	32738	
2027	0	33262	33039	32859	32785	32815	32677	32562	32589	
2028	0	33099	33167	32811	32679	32755	32587	32542	32519	
2029	0	32849	33266	32900	32630	32771	32687	32363	32663	
2030	0	32683	33389	32821	32645	32791	32691	32671	32827	
2031	0	32622	33341	32898	32633	32700	32842	32702	32884	
2032	0	32560	33095	32827	32606	32847	32699	32711	32766	
2033	0	32596	32903	32694	32591	32635	32691	32660	32565	
2034	0	32463	32799	32747	32611	32711	32726	32655	32855	
2035	0	32404	32551	32692	32643	32629	32717	32839	32764	
2036	0	32287	32615	32670	32813	32704	32759	32811	32802	
2037	0	32227	32679	32735	32873	32773	32743	32727	32811	
2038	0	32265	32672	32623	32877	32742	32682	32775	32525	
2039	0	32263	32756	32727	32811	32835	32703	32659	32645	
2040	0	32221	32743	32711	32859	32579	32667	32807	32679	
2041	0	32218	32756	32659	32846	32775	32725	32835	32791	
2042	0	32124	32843	32735	32857	32619	32685	32743	32659	
2043	0	32113	32895	32567	32795	32775	32799	32879	32567	
2044	0	32126	32859	32613	32695	32574	32787	32708	32627	
2045	0	32247	32791	32763	32562	32685	32695	32861	32643	
2046	0	32333	32666	32679	32551	32753	32711	32838	32690	
2047	0	32391	32717	32699	32463	32691	32647	32749	32615	
2048	0	32463	32839	32547	32526	32775	32711	32741	32647	
2049	0	32556	32700	32571	32574	32759	32738	32629	32593	
2050	0	32620	32719	32703	32463	32884	32647	32743	32457	
2051	0	32637	32739	32679	32479	32535	32765	32720	32647	
2052	0	32592	32759	32685	32514	32759	32751	32627	32679	
2053	0	32630	32770	32581	32523	32607	32767	32734	32678	
2054	0	32612	32773	32719	32607	32747	32762	32663	32679	
2055	0	32567	32717	32609	32703	32647	32671	32747	32655	
2056	0	32671	32631	32749	32767	32775	32679	32683	32666	
2057	0	32794	32527	32791	32847	32585	32629	32551	32513	
2058	0	32785	32583	32647	32958	32787	32775	32643	32670	
2059	0	32737	32743	32615	32960	32615	32677	32534	32579	
2060	0	32749	32679	32847	32991	32731	32807	32748	32818	
2061	0	32858	32647	32775	32995	32694	32759	32716	32783	
2062	0	32855	32623	32812	32980	32813	32743	32733	32661	
2063	0	32845	32634	32811	32903	32663	32759	32711	32551	
2064	0	32882	32628	32711	32831	32775	32628	32591	32549	
2065	0	32871	32608	32775	32787	32791	32711	32763	32734	
2066	0	32859	32631	32695	32701	32769	32639	32713	32559	
2067	0	32846	32655	32767	32660	32683	32630	32734	32647	
2068	0	32870	32599	32719	32583	32743	32647	32695	32646	
2069	0	32911	32621	32594	32599	32681	32703	32741	32727	
2070	0	32903	32647	32677	32501	32838	32617	32679	32625	
2071	0	32821	32555	32719	32434	32740	32727	32635	32721	
2072	0	32796	32563	32675	32487	32738	32743	32686	32727	
2073	0	32815	32583	32695	32500	32739	32773	32503	32671	
2074	0	32862	32584	32763	32599	32822	32695	32563	32475	
2075	0	32892	32629	32639	32707	32743	32719	32575	32647	
2076	0	32811	32775	32691	32799	32815	32748	32717	32711	
2077	0	32763	32690	32787	32850	32671	32700	32809	32671	
2078	0	32743	32662	32695	32933	32715	32721	32663	32723	
2079	0	32760	32541	32766	32935	32687	32647	32685	32603	
2080	0	32748	32599	32851	32967	32717	32707	32535	32705	
2081	0	32689	32719	32655	32917	32903	32692	32775	32724	
2082	0	32692	32725	32686	32914	32647	32743	32711	32551	
2083	0	32866	32738	32767	32879	32790	32790	32607	32801	
2084	0	32820	32799	32743	32743	32718	32615	32721	32831	
2085	0	32768	32831	32749	32713	32791	32775	32747	32607	
2086	0	32822	32694	32582	32643	32885	32709	32579	32671	
2087	0	32862	32750	32791	32679	32662	32638	32663	32642	
2088	0	32815	32743	32659	32695	32727	32641	32527	32565	
2089	0	32767	32695	32715	32593	32775	32566	32631	32583	
2090	0	32736	32689	32799	32581	32735	32717	32662	32599	
2091	0	32772	32723	32623	32583	32887	32735	32603	32663	
2092	0	32974	32436	32591	32615	32617	32745	32663	32549	
2093	0	32940	32571	32615	32671	32900	32687	32615	32595	
2094	0	32840	32607	32694	32623	32631	32641	32547	32407	
2095	0	32742	32729	32646	32674	32732	32711	32476	32567	
2096	0	32715	32827	32759	32731	32815	32621	32621	32611	
2097	0	32640	32863	32839	32839	32759	32705	32671	32525	
2098	0	32663	32743	32636	32874	32885	32806	32623	32635	
2099	0	32614	32868	32775	32903	32539	32679	32826	32682	
2100	0	32738	32807	32759	32933	32751	32841	32834	33031	
2101	0	32723	32786	32767	32967	32487	32812	32943	33003	
2102	0	32792	32741	32814	32926	32847	32831	32754	32881	
2103	0	32838	32621	32815	32876	32702	32719	32487	32619	
2104	0	32819	32535	32669	32743	32818	32647	32674	32486	
2105	0	32730	32633	32847	32747	32870	32771	32706	32743	
2106	0	32734	32790	32820	32599	32759	32727	32732	32839	
2107	0	32783	32798	32718	32557	32803	32701	32635	32823	
2108	0	32810	32711	32819	32620	32615	32683	32493	32598	
2109	0	32756	32707	32747	32583	32782	32611	32711	32511	
2110	0	32775	32759	32631	32606	32671	32751	32681	32695	
2111	0	32804	32759	32691	32531	32799	32770	32579	32691	
2112	0	32791	32711	32747	32475	32695	32675	32703	32764	
2113	0	32745	32595	32690	32603	32747	32769	32533	32662	
2114	0	32717	32773	32773	32700	32747	32666	32764	32623	
2115	0	32757	32594	32691	32698	32775	32741	32663	32597	
2116	0	32705	32647	32767	32789	32676	32669	32703	32421	
2117	0	32704	32751	32635	32821	32815	32775	32487	32593	
2118	0	32675	32734	32725	32875	32647	32612	32675	32740	
2119	0	32675	32788	32815	32886	32775	32711	32663	32647	
2120	0	32688	32647	32710	32910	32659	32671	32695	32538	
2121	0	32769	32691	32791	32966	32726	32723	32669	32670	
2122	0	32796	32775	32775	32967	32662	32621	32639	32562	
2123	0	32751	32789	32687	32847	32807	32743	32668	32670	
2124	0	32778	32823	32570	32805	32734	32726	32495	32615	
2125	0	32718	32919	32731	32756	32711	32759	32679	32759	
2126	0	32741	32791	32834	32674	32691	32785	32675	32718	
2127	0	32745	32629	32751	32617	32767	32601	32626	32631	
2128	0	32755	32615	32793	32609	32673	32655	32647	32579	
2129	0	32755	32667	32839	32587	32773	32669	32709	32563	
2130	0	32791	32748	32754	32544	32615	32685	32687	32735	
2131	0	32787	32705	32691	32526	32775	32687	32727	32598	
2132	0	32828	32630	32627	32525	32599	32727	32708	32647	
2133	0	32775	32739	32799	32634	32754	32758	32621	32511	
2134	0	32775	32669	32647	32722	32644	32795	32767	32697	
2135	0	32807	32559	32689	32756	32819	32756	32615	32484	
2136	0	32762	32586	32791	32815	32626	32734	32685	32598	
2137	0	32686	32714	32765	32850	32859	32711	32687	32565	
2138	0	32621	32803	32690	32927	32611	32615	32483	32647	
2139	0	32660	32711	32663	32938	32799	32679	32531	32553	
2140	0	32673	32843	32731	32967	32791	32623	32575	32695	
2141	0	32623	32791	32743	33007	32855	32751	32731	32842	
2142	0	32658	32693	32722	32983	32797	32707	32631	32697	
2143	0	32663	32791	32703	32903	32815	32727	32718	32687	
2144	0	32754	32726	32806	32847	32747	32679	32749	32539	
2145	0	32717	32699	32791	32823	32775	32698	32807	32666	
2146	0	32729	32962	32679	32743	32735	32595	32843	32647	
2147	0	32728	32839	32607	32668	32669	32743	32611	32647	
