# OpenSignals Text File Format
# {"00:07:80:3B:46:38": {"sensor": ["CUSTOM/0.5/1.0/V", "CUSTOM/0.5/1.0/V", "CUSTOM/0.5/1.0/V", "CUSTOM/0.5/1.0/V", "CUSTOM/0.5/1.0/V", "CUSTOM/0.5/1.0/V", "CUSTOM/0.5/1.0/V", "CUSTOM/0.5/1.0/V"], "device name": "EMGs", "column": ["nSeq", "DI", "RA_L", "RA_R", "OE_L", "OE:R", "IL_L", "IL_R", "MF_L", "MF_R"], "sync interval": 2, "time": "17:56:9.483", "comments": "", "device connection": "BTH00:07:80:3B:46:38", "channels": [1, 2, 3, 4, 5, 6, 7, 8], "date": "2017-5-22", "mode": 0, "digital IO": [0, 1], "firmware version": 772, "device": "biosignalsplux", "position": 0, "sampling rate": 1000, "label": ["RA_L", "RA_R", "OE_L", "OE:R", "IL_L", "IL_R", "MF_L", "MF_R"], "resolution": [16, 16, 16, 16, 16, 16, 16, 16], "special": [{}, {}, {}, {}, {}, {}, {}, {}]}}
# EndOfHeader
0	0	32827	32754	32708	32722	32677	32830	32775	32671	
1	0	32781	32653	32773	32720	32558	32788	32887	32614	
2	0	32742	32644	32703	32709	32583	32703	32723	32627	
3	0	32676	32850	32679	32727	32647	32806	32647	32722	
4	0	32706	32685	32819	32685	32818	32903	32551	32871	
5	0	32807	32679	32783	32691	32948	32759	32557	32767	
6	0	32750	32508	32802	32731	32981	32879	32526	32787	
7	0	32839	32695	32751	32773	32725	32823	32483	32694	
8	0	32813	32687	32717	32654	32807	32819	32514	32727	
9	0	32732	32799	32613	32700	32751	32758	32636	32775	
10	0	32834	32690	32550	32903	32829	32911	32647	32734	
11	0	32830	32559	32450	32802	32863	32799	32695	32721	
12	0	32840	32767	32530	32772	32847	32775	32711	32775	
13	0	32827	32863	32551	32849	32815	32688	32799	32791	
14	0	32866	32694	32599	32804	32687	32854	32783	32791	
15	0	32841	32787	32700	32815	32747	32810	32887	32681	
16	0	32842	32758	32761	32751	32647	32653	32935	32627	
17	0	32893	32599	32730	32635	32647	32834	33063	32643	
18	0	32839	32811	32799	32739	32668	32871	32807	32739	
19	0	32792	32690	32855	32783	32690	32703	32738	32799	
20	0	32822	32661	32852	32741	32615	32662	32885	32732	
21	0	32807	32835	32834	32775	32523	32755	32935	32731	
22	0	32852	32723	32855	32799	32687	32803	32893	32691	
23	0	32805	32654	32839	32775	32629	32677	32847	32702	
24	0	32784	32503	32726	32742	32759	32797	32727	32683	
25	0	32692	32789	32710	32678	32524	32797	32655	32711	
26	0	32719	32694	32721	32668	32628	32867	32725	32742	
27	0	32758	32434	32693	32747	32474	32787	32819	32739	
28	0	32792	32751	32717	32847	32615	32647	32534	32793	
29	0	32615	32615	32735	32787	32483	32822	32515	32707	
30	0	32654	32667	32759	32807	32639	32727	32533	32703	
31	0	32677	32493	32745	32663	32551	32799	32671	32809	
32	0	32786	32711	32863	32748	32775	32789	32791	32733	
33	0	32866	32574	32805	32815	32886	32755	32890	32711	
34	0	32852	32615	32727	32698	33001	32819	32897	32795	
35	0	32756	32551	32694	32615	32869	32751	32871	32658	
36	0	32760	32603	32751	32695	32759	32807	32887	32683	
37	0	32805	32698	32879	32795	32695	32679	32750	32771	
38	0	32784	32767	32879	32722	32519	32725	32676	32740	
39	0	32823	32633	32951	32767	32477	32666	32557	32791	
40	0	32854	32503	32922	32793	32609	32799	32559	32711	
41	0	32804	32711	32903	32799	32578	32761	32500	32660	
42	0	32822	32673	32999	32727	32771	32663	32631	32765	
43	0	32769	32534	32943	32713	32621	32806	32647	32742	
44	0	32747	32788	32892	32655	32831	32788	32711	32775	
45	0	32671	32689	32861	32647	32799	32671	32708	32807	
46	0	32724	32767	32886	32706	32858	32791	32861	32764	
47	0	32710	32607	32735	32889	32741	32850	32710	32698	
48	0	32773	32847	32823	32923	32503	32781	32765	32743	
49	0	32833	32738	32831	32786	32643	32743	32834	32695	
50	0	32794	32721	32827	32731	32541	32858	32811	32786	
51	0	32751	32605	32839	32813	32647	32749	32701	32837	
52	0	32771	32684	32829	32775	32531	32658	32727	32760	
53	0	32748	32613	32867	32715	32615	32719	32791	32731	
54	0	32767	32647	32850	32806	32587	32637	32671	32759	
55	0	32749	32702	32813	32871	32775	32614	32599	32643	
56	0	32708	32595	32807	32825	32745	32758	32667	32677	
57	0	32647	32655	32733	32765	32753	32663	32745	32791	
58	0	32734	32451	32742	32881	32927	32743	32711	32773	
59	0	32745	32742	32805	32827	32819	32751	32727	32794	
60	0	32767	32591	32759	32732	32821	32587	32783	32775	
61	0	32781	32627	32775	32717	32743	32781	32811	32626	
62	0	32820	32679	32811	32755	32809	32647	32795	32679	
63	0	32806	32647	32791	32839	32743	32791	32735	32749	
64	0	32837	32645	32863	32775	32736	32715	32749	32703	
65	0	32847	32487	32861	32773	32559	32823	32831	32703	
66	0	32861	32733	32871	32721	32630	32857	32868	32631	
67	0	32903	32641	32803	32758	32566	32742	32883	32597	
68	0	32817	32634	32903	32747	32727	32863	32795	32723	
69	0	32773	32763	32885	32658	32590	32795	32725	32698	
70	0	32775	32869	32898	32679	32735	32719	32786	32692	
71	0	32690	32669	32843	32635	32607	32849	32814	32775	
72	0	32691	32866	32837	32723	32639	32826	32894	32740	
73	0	32729	32775	32859	32713	32429	32732	32820	32722	
74	0	32751	32751	32717	32551	32641	32845	32862	32605	
75	0	32692	32540	32782	32700	32471	32853	32783	32559	
76	0	32672	32850	32783	32703	32678	32827	32807	32659	
77	0	32652	32791	32713	32679	32693	32797	32661	32623	
78	0	32703	32691	32694	32754	32757	32625	32623	32758	
79	0	32727	32527	32774	32699	32620	32807	32702	32735	
80	0	32779	32771	32839	32749	32727	32796	32647	32709	
81	0	32758	32595	32737	32727	32727	32583	32559	32659	
82	0	32728	32484	32724	32804	32733	32742	32707	32701	
83	0	32810	32455	32817	32827	32685	32811	32768	32671	
84	0	32825	32535	32743	32666	32558	32789	32747	32647	
85	0	32856	32386	32807	32711	32599	32791	32850	32663	
86	0	32743	32493	32796	32783	32511	32684	32775	32725	
87	0	32703	32555	32773	32775	32743	32749	32783	32677	
88	0	32754	32655	32836	32759	32517	32810	32821	32707	
89	0	32822	32669	32919	32803	32663	32796	32679	32679	
90	0	32793	32527	32893	32933	32556	32753	32601	32735	
91	0	32724	32661	32811	32903	32706	32735	32627	32692	
92	0	32679	32767	32655	32835	32617	32811	32695	32623	
93	0	32723	32681	32577	32837	32879	32807	32743	32660	
94	0	32759	32618	32647	32747	32895	32679	32775	32703	
95	0	32695	32787	32723	32702	32719	32683	32738	32725	
96	0	32708	32681	32679	32703	32775	32687	32647	32751	
97	0	32748	32759	32558	32807	32583	32823	32636	32702	
98	0	32780	32679	32684	32807	32687	32787	32733	32679	
99	0	32793	32799	32751	32727	32671	32642	32787	32677	
100	0	32814	32679	32759	32731	32679	32677	32927	32669	
101	0	32802	32566	32795	32669	32655	32783	32858	32703	
102	0	32764	32765	32870	32604	32506	32722	32734	32683	
103	0	32748	32722	32756	32635	32605	32729	32692	32741	
104	0	32712	32799	32757	32700	32514	32647	32647	32754	
105	0	32636	32615	32786	32719	32639	32807	32660	32702	
106	0	32724	32807	32673	32691	32654	32855	32737	32647	
107	0	32807	32689	32613	32839	32707	32671	32571	32723	
108	0	32758	32711	32615	32771	32677	32675	32611	32625	
109	0	32798	32659	32671	32687	32635	32775	32751	32687	
110	0	32806	32519	32582	32743	32647	32687	32923	32706	
111	0	32782	32647	32607	32701	32422	32743	32955	32707	
112	0	32687	32571	32643	32787	32558	32869	32983	32695	
113	0	32692	32711	32717	32773	32423	32711	32983	32611	
114	0	32763	32566	32903	32775	32571	32897	32948	32703	
115	0	32816	32621	32820	32941	32615	32743	32895	32743	
116	0	32825	32603	32732	32871	32601	32786	32903	32647	
117	0	32706	32519	32603	32807	32687	32655	32751	32683	
118	0	32713	32775	32679	32833	32683	32759	32591	32662	
119	0	32748	32615	32766	32692	32615	32823	32535	32647	
120	0	32694	32615	32684	32751	32756	32611	32487	32762	
121	0	32623	32702	32743	32740	32708	32799	32372	32679	
122	0	32626	32646	32623	32805	32875	32832	32410	32819	
123	0	32700	32527	32639	32829	32700	32733	32711	32745	
124	0	32726	32802	32658	32743	32607	32659	32739	32743	
125	0	32750	32710	32731	32612	32775	32815	32639	32775	
126	0	32788	32608	32775	32603	32613	32791	32683	32767	
127	0	32738	32719	32833	32767	32783	32769	32647	32759	
128	0	32736	32741	32703	32758	32715	32702	32575	32699	
129	0	32821	32717	32621	32724	33029	32829	32459	32791	
130	0	32933	32563	32695	32838	32751	32726	32541	32694	
131	0	32889	32405	32805	32719	32836	32642	32583	32615	
132	0	32816	32677	32838	32783	32943	32855	32435	32735	
133	0	32713	32615	32738	32810	33087	32772	32519	32667	
134	0	32794	32589	32708	32809	32825	32859	32630	32615	
135	0	32826	32759	32775	32757	32714	32658	32859	32639	
136	0	32857	32647	32769	32735	32753	32775	32805	32647	
137	0	32929	32557	32719	32699	32710	32729	32799	32790	
138	0	32890	32719	32690	32671	32775	32727	32795	32687	
139	0	32820	32711	32731	32695	32521	32631	32743	32701	
140	0	32746	32767	32674	32818	32605	32775	32754	32740	
141	0	32737	32591	32663	32839	32531	32775	32733	32691	
142	0	32815	32690	32647	32727	32521	32607	32767	32727	
143	0	32787	32739	32698	32671	32471	32727	32839	32730	
144	0	32782	32738	32729	32723	32503	32749	32877	32615	
145	0	32805	32749	32795	32727	32543	32711	32837	32721	
146	0	32733	32727	32837	32707	32453	32835	32763	32709	
147	0	32775	32775	32787	32789	32574	32711	32765	32743	
148	0	32725	32677	32795	32801	32543	32803	32789	32659	
149	0	32747	32717	32790	32700	32615	32683	32687	32685	
150	0	32732	32737	32782	32692	32551	32871	32698	32771	
151	0	32831	32756	32742	32759	32676	32606	32667	32759	
152	0	32694	32587	32737	32754	32485	32721	32671	32667	
153	0	32658	32551	32654	32736	32675	32807	32740	32671	
154	0	32655	32671	32566	32726	32721	32719	32759	32843	
155	0	32686	32647	32677	32703	32655	32748	32767	32721	
156	0	32773	32399	32711	32805	32695	32626	32739	32831	
157	0	32850	32647	32739	32711	32772	32749	32807	32729	
158	0	32807	32535	32743	32775	32594	32733	32918	32635	
159	0	32831	32681	32759	32759	32693	32647	32847	32675	
160	0	32750	32586	32745	32767	32567	32775	32754	32645	
161	0	32711	32692	32687	32730	32711	32751	32731	32743	
162	0	32621	32703	32703	32813	32765	32847	32727	32699	
163	0	32585	32605	32767	32813	32742	32742	32755	32647	
164	0	32562	32897	32844	32858	32706	32871	32561	32670	
165	0	32621	32786	32740	32647	32750	32847	32542	32789	
166	0	32597	32815	32804	32735	32553	32658	32589	32727	
167	0	32585	32627	32851	32775	32699	32775	32613	32775	
168	0	32632	32745	32855	32727	32583	32827	32671	32719	
169	0	32622	32598	32751	32803	32751	32754	32621	32694	
170	0	32661	32539	32775	32845	32551	32827	32583	32703	
171	0	32559	32698	32801	32799	32711	32747	32567	32702	
172	0	32548	32551	32678	32659	32663	32625	32646	32623	
173	0	32537	32590	32578	32763	32839	32765	32775	32743	
174	0	32455	32463	32589	32775	32699	32867	32677	32775	
175	0	32477	32535	32687	32807	32733	32666	32673	32635	
176	0	32533	32524	32749	32859	32638	32809	32711	32663	
177	0	32551	32287	32679	32711	32765	32795	32632	32725	
178	0	32555	32439	32738	32804	32732	32676	32617	32591	
179	0	32567	32423	32759	32847	32673	32758	32655	32691	
180	0	32615	32259	32775	32879	32711	32691	32627	32703	
181	0	32623	32317	32730	32919	32720	32737	32543	32736	
182	0	32772	32222	32771	32799	32679	32674	32597	32727	
183	0	32769	32247	32719	32773	32843	32791	32679	32647	
184	0	32789	32301	32743	32845	32783	32773	32711	32612	
185	0	32845	32211	32623	32692	32647	32726	32629	32679	
186	0	32815	32045	32561	32642	32799	32751	32559	32666	
187	0	32818	32066	32589	32764	32739	32687	32609	32759	
188	0	32942	32239	32641	32773	32745	32757	32719	32687	
189	0	33124	32046	32543	32726	32599	32775	32662	32647	
190	0	33197	32095	32562	32767	32582	32619	32665	32679	
191	0	33177	32387	32583	32806	32732	32761	32665	32677	
192	0	33177	32293	32763	32861	32751	32785	32798	32571	
193	0	33252	32276	32751	32834	32705	32549	32749	32547	
194	0	33313	32177	32735	32834	32631	32705	32737	32679	
195	0	33349	32387	32805	32631	32623	32727	32670	32749	
196	0	33271	32303	32943	32845	32541	32583	32803	32703	
197	0	33276	32299	32919	32830	32608	32567	32769	32687	
198	0	33158	32579	32903	32749	32645	32722	32831	32590	
199	0	33157	32723	32921	32773	32663	32763	32895	32635	
200	0	33164	32675	32917	32641	32639	32595	32893	32655	
201	0	33165	32978	32975	32647	32639	32711	32830	32711	
202	0	33124	32927	32971	32642	32668	32813	32851	32653	
203	0	33086	33183	32903	32623	32637	32757	32679	32690	
204	0	32939	33124	32898	32547	32481	32732	32751	32771	
205	0	32911	33399	32930	32519	32604	32763	32783	32754	
206	0	32782	33549	32935	32595	32487	32786	32918	32707	
207	0	32802	33437	32874	32659	32609	32687	32922	32626	
208	0	32870	33666	32854	32515	32473	32646	32991	32629	
209	0	32868	33533	32919	32589	32613	32743	32895	32677	
210	0	32847	33595	32951	32631	32731	32775	32790	32726	
211	0	32736	33453	32870	32567	32498	32729	32829	32759	
212	0	32671	33303	32884	32719	32674	32717	32791	32731	
213	0	32668	33347	32804	32695	32463	32743	32765	32787	
214	0	32729	33415	32767	32727	32701	32671	32795	32727	
215	0	32799	33197	32975	32742	32719	32830	32791	32711	
216	0	32794	33214	32839	32671	32717	32823	32636	32705	
217	0	32719	32965	32863	32635	32725	32706	32647	32820	
218	0	32625	32971	32769	32738	32756	32799	32647	32735	
219	0	32448	32879	32766	32783	32707	32851	32551	32751	
220	0	32311	32611	32655	32866	32707	32679	32463	32791	
221	0	32199	32819	32620	32679	32590	32763	32559	32791	
222	0	32169	32671	32655	32797	32741	32831	32702	32679	
223	0	32077	32627	32631	32831	32594	32667	32677	32643	
224	0	32116	32489	32605	32791	32719	32819	32663	32706	
225	0	32213	32722	32663	32743	32751	32782	32687	32743	
226	0	32353	32551	32663	32711	32685	32669	32623	32726	
227	0	32391	32469	32679	32834	32791	32815	32610	32721	
228	0	32431	32594	32758	32837	32795	32809	32631	32679	
229	0	32415	32583	32703	32877	32737	32911	32612	32603	
230	0	32391	32727	32727	32847	32909	32721	32631	32775	
231	0	32443	32615	32637	32811	32679	32883	32643	32753	
232	0	32495	32635	32669	32735	32703	32887	32695	32801	
233	0	32551	32623	32743	32712	32585	32991	32729	32679	
234	0	32701	32487	32839	32771	32621	32709	32703	32727	
235	0	32695	32527	32775	32919	32477	32839	32667	32665	
236	0	32722	32511	32743	32845	32615	32823	32754	32660	
237	0	32773	32522	32732	32815	32510	32773	32763	32695	
238	0	32800	32514	32807	32759	32647	32687	32677	32631	
239	0	32781	32671	32807	32691	32598	32775	32655	32563	
240	0	32762	32559	32863	32727	32607	32727	32674	32756	
241	0	32786	32463	32815	32885	32743	32683	32653	32701	
242	0	32869	32549	32786	32775	32619	32611	32679	32717	
243	0	32780	32461	32723	32799	32743	32837	32612	32665	
244	0	32767	32598	32711	32786	32727	32685	32639	32748	
245	0	32846	32564	32647	32742	32775	32739	32735	32730	
246	0	32875	32391	32693	32647	32555	32634	32827	32687	
247	0	32775	32543	32739	32622	32711	32845	32735	32637	
248	0	32839	32562	32698	32671	32588	32819	32663	32630	
249	0	32898	32562	32663	32694	32767	32799	32713	32685	
250	0	32866	32519	32601	32812	32665	32677	32643	32626	
251	0	32977	32411	32532	32806	32603	32809	32734	32711	
252	0	32916	32679	32541	32759	32511	32775	32663	32674	
253	0	32855	32564	32575	32713	32623	32647	32663	32683	
254	0	32900	32447	32668	32775	32401	32811	32583	32662	
255	0	32886	32662	32700	32890	32658	32775	32522	32647	
256	0	32819	32679	32765	32877	32539	32819	32565	32716	
257	0	32868	32470	32701	32767	32749	32743	32485	32743	
258	0	32858	32629	32775	32739	32623	32773	32811	32798	
259	0	32802	32679	32814	32638	32737	32783	32965	32731	
260	0	32745	32803	32860	32647	32553	32647	32827	32666	
261	0	32793	32717	32735	32841	32677	32671	32775	32791	
262	0	32736	32508	32685	32903	32577	32683	32711	32813	
263	0	32756	32671	32803	32790	32683	32821	32643	32767	
264	0	32737	32519	32851	32720	32675	32689	32659	32811	
265	0	32718	32659	32775	32671	32431	32677	32551	32749	
266	0	32782	32835	32793	32647	32699	32774	32454	32763	
267	0	32800	32719	32750	32706	32853	32668	32334	32823	
268	0	32771	32511	32765	32763	32962	32797	32307	32775	
269	0	32775	32719	32769	32719	32735	32795	32442	32743	
270	0	32745	32591	32767	32743	32711	32675	32611	32759	
271	0	32748	32566	32775	32695	32605	32799	32775	32647	
272	0	32719	32655	32741	32763	32671	32679	32823	32655	
273	0	32775	32535	32775	32853	32581	32833	32967	32734	
274	0	32751	32505	32809	32763	32679	32735	32999	32723	
275	0	32705	32743	32742	32690	32470	32647	32893	32725	
276	0	32775	32637	32742	32738	32642	32783	32855	32710	
277	0	32775	32735	32729	32717	32703	32643	32731	32797	
278	0	32748	32805	32827	32727	32583	32729	32823	32765	
279	0	32818	32647	32739	32669	32783	32731	32839	32705	
280	0	32735	32555	32710	32679	32515	32627	32855	32679	
281	0	32765	32647	32677	32787	32634	32659	32917	32703	
282	0	32804	32767	32751	32791	32415	32733	32959	32647	
283	0	32769	32506	32855	32807	32397	32719	33129	32647	
284	0	32773	32803	32844	32671	32483	32799	32887	32738	
285	0	32727	32735	32764	32783	32925	32871	32427	32687	
286	0	32741	32701	32739	32753	32981	32895	32217	32695	
287	0	32797	32842	32647	32716	32711	32755	32327	32762	
288	0	32743	32775	32886	32771	32620	32839	32163	32754	
289	0	32844	32587	32882	32711	32732	32831	32175	32749	
290	0	32916	32607	32791	32725	32615	32645	32532	32617	
291	0	32775	32463	32678	32627	33115	32770	32791	32562	
292	0	32822	32647	32646	32647	33195	32739	32731	32647	
293	0	32784	32534	32647	32713	33119	32698	32815	32767	
294	0	32844	32647	32743	32805	32639	32634	32925	32647	
295	0	32858	32559	32770	32795	32647	32487	32917	32639	
296	0	32814	32647	32721	32879	32584	32679	32909	32698	
297	0	32737	32455	32738	32759	32599	32597	32801	32669	
298	0	32721	32444	32735	32775	32667	32755	32871	32724	
299	0	32782	32599	32718	32619	32518	32595	33035	32662	
300	0	32772	32478	32723	32707	32479	32512	33106	32550	
301	0	32711	32525	32775	32802	32358	32647	33234	32679	
302	0	32723	32631	32743	32771	32339	32566	33190	32735	
303	0	32706	32535	32719	32751	32313	32839	32943	32743	
304	0	32743	32594	32687	32827	32311	32799	32903	32852	
305	0	32759	32767	32671	32703	32367	32751	32867	32764	
306	0	32814	32655	32671	32711	32293	32684	32807	32663	
307	0	32946	32467	32685	32743	32343	32743	32684	32767	
308	0	32900	32775	32804	32706	32717	32863	32245	32839	
309	0	32718	32759	32825	32610	33281	32998	31509	32846	
310	0	32678	32859	32775	32598	32801	32861	31695	32673	
311	0	32645	32719	32679	32782	32943	32870	32117	32631	
312	0	32736	32575	32694	32839	32806	32834	32647	32742	
313	0	32884	32634	32839	32775	32667	32879	32903	32827	
314	0	32839	32678	32845	32745	32669	32773	32630	32789	
315	0	32770	32579	32823	32775	33014	32940	32015	32805	
316	0	32764	32630	32799	32763	32450	32843	32047	32717	
317	0	32708	32583	32710	32695	32407	32684	32263	32713	
318	0	32753	32646	32767	32783	32079	32471	32727	32658	
319	0	32710	32701	32743	32784	32590	32609	32807	32636	
320	0	32647	32833	32850	32803	33575	33008	31925	32819	
321	0	32642	32762	32715	32671	33622	32839	32205	32715	
322	0	32600	32674	32694	32688	33203	32666	32855	32605	
323	0	32599	32741	32679	32767	32989	32439	33156	32519	
324	0	32644	32739	32666	32803	33151	32747	33019	32653	
325	0	32722	32821	32759	32759	33135	32919	32791	32726	
326	0	32879	32727	32757	32739	33031	32771	32669	32749	
327	0	32851	32623	32687	32731	32961	32903	32701	32807	
328	0	32753	32734	32698	32734	32775	32895	32762	32694	
329	0	32688	32746	32635	32775	32812	32828	32851	32707	
330	0	32757	32825	32673	32863	32583	32769	32773	32876	
331	0	32706	32647	32799	32854	32668	32781	32791	32791	
332	0	32747	32533	32791	32863	32567	32622	32775	32731	
333	0	32723	32671	32807	32805	32519	32711	32797	32734	
334	0	32746	32647	32813	32786	32447	32634	32873	32749	
335	0	32750	32574	32789	32641	32463	32654	32921	32799	
336	0	32774	32518	32775	32843	32517	32711	32913	32701	
337	0	32772	32447	32771	32913	32415	32603	32923	32725	
338	0	32801	32695	32762	32822	32481	32767	32863	32639	
339	0	32822	32607	32858	32743	32380	32621	32903	32586	
340	0	32791	32412	32860	32709	32543	32692	32850	32647	
341	0	32757	32532	32822	32626	32434	32807	32809	32679	
342	0	32768	32604	32775	32628	32510	32724	32821	32683	
343	0	32790	32703	32711	32685	32487	32849	32685	32715	
344	0	32718	32676	32727	32767	32714	32694	32647	32707	
345	0	32767	32524	32663	32643	32551	32862	32599	32803	
346	0	32773	32743	32711	32582	32727	32796	32647	32767	
347	0	32836	32647	32721	32591	32511	32671	32657	32694	
348	0	32786	32611	32703	32759	32660	32823	32687	32755	
349	0	32807	32690	32743	32827	32495	32775	32789	32634	
350	0	32740	32670	32756	32775	32610	32611	32903	32579	
351	0	32660	32518	32751	32739	32567	32708	32791	32685	
352	0	32694	32727	32813	32721	32685	32729	32775	32723	
353	0	32676	32699	32839	32711	32671	32683	32743	32708	
354	0	32628	32630	32871	32791	32694	32683	32759	32727	
355	0	32613	32852	32867	32821	32519	32775	32564	32762	
356	0	32686	32692	32813	32775	32675	32667	32635	32742	
357	0	32783	32555	32885	32738	32607	32743	32726	32609	
358	0	32827	32663	32786	32711	32894	32775	32745	32655	
359	0	32855	32640	32791	32710	32775	32655	32799	32704	
360	0	32748	32724	32643	32839	32827	32733	32799	32711	
361	0	32721	32631	32660	32783	32837	32739	32687	32797	
362	0	32790	32683	32634	32775	32791	32653	32758	32739	
363	0	32831	32655	32717	32655	32815	32775	32879	32570	
364	0	32758	32581	32788	32713	32806	32784	32851	32623	
365	0	32719	32431	32841	32740	32743	32757	32811	32685	
366	0	32705	32669	32789	32767	32519	32637	32711	32679	
367	0	32765	32663	32735	32836	32747	32818	32751	32655	
368	0	32756	32671	32723	32823	32775	32690	32687	32695	
369	0	32767	32734	32845	32869	32768	32829	32729	32687	
370	0	32730	32875	32887	32711	32724	32719	32671	32739	
371	0	32786	32711	32959	32758	32607	32845	32679	32767	
372	0	32767	32563	32845	32787	32677	32707	32659	32677	
373	0	32724	32687	32687	32763	32540	32783	32662	32759	
374	0	32770	32535	32647	32903	32615	32727	32662	32743	
375	0	32861	32605	32749	32737	32619	32660	32679	32726	
376	0	32832	32647	32626	32696	32751	32814	32660	32679	
377	0	32748	32503	32706	32731	32791	32742	32604	32627	
378	0	32759	32543	32687	32710	32625	32706	32715	32687	
379	0	32804	32515	32711	32815	32597	32697	33020	32633	
380	0	32814	32703	32655	32863	32487	32770	32937	32603	
381	0	32794	32694	32757	32850	32681	32757	32991	32719	
382	0	32711	32679	32711	32757	32669	32655	32803	32756	
383	0	32672	32612	32775	32647	32759	32817	32751	32765	
384	0	32756	32847	32814	32623	32719	32667	32845	32756	
385	0	32781	32727	32729	32690	32525	32807	32885	32687	
386	0	32660	32706	32639	32758	32812	32827	32830	32721	
387	0	32690	32811	32663	32703	32839	32854	32671	32659	
388	0	32758	32743	32711	32705	32807	32742	32610	32647	
389	0	32730	32663	32662	32804	32733	32715	32586	32735	
390	0	32692	32791	32694	32731	32781	32639	32666	32692	
391	0	32767	32582	32749	32647	32644	32789	32775	32607	
392	0	32804	32505	32605	32679	32681	32802	32786	32647	
393	0	32749	32631	32627	32883	32534	32683	32786	32636	
394	0	32854	32566	32670	32756	32615	32731	32885	32601	
395	0	32913	32543	32751	32758	32519	32757	32898	32607	
396	0	32770	32559	32855	32685	32681	32739	32793	32679	
397	0	32787	32687	32790	32798	32725	32767	32663	32767	
398	0	32759	32709	32671	32850	32663	32739	32747	32717	
399	0	32759	32743	32703	32706	32715	32791	32765	32813	
400	0	32667	32822	32805	32787	32634	32771	32613	32766	
401	0	32628	32853	32878	32743	32667	32573	32591	32775	
402	0	32582	32702	32804	32709	32582	32772	32538	32787	
403	0	32581	32951	32803	32583	32751	32801	32455	32831	
404	0	32652	32743	32901	32677	32578	32751	32631	32716	
405	0	32751	32655	33083	32724	32665	32764	32845	32643	
406	0	32680	32807	32932	32743	32379	32715	32723	32791	
407	0	32738	32663	32767	32700	32486	32797	32706	32736	
408	0	32751	32577	32803	32855	32479	32854	32591	32805	
409	0	32759	32499	32919	32983	32647	32759	32511	32773	
410	0	32825	32511	32943	32903	32367	32755	32593	32753	
411	0	32822	32455	32927	32895	32215	32731	32541	32673	
412	0	32852	32663	32599	32823	32351	32827	32453	32727	
413	0	32876	32738	32663	32538	32699	32751	32516	32818	
414	0	32874	32557	32855	32614	32735	32739	32508	32829	
415	0	32903	32545	32723	32627	32647	32899	32795	32715	
416	0	32823	32625	32635	32631	33402	32895	33365	32517	
417	0	32749	32479	32655	32755	33466	32789	33671	32420	
418	0	32759	32573	32638	32730	33247	32637	33363	32479	
419	0	32647	32819	32551	32751	32845	32642	33241	32552	
420	0	32468	32708	32525	32703	32611	32687	33494	32615	
421	0	32518	32730	32599	32823	32859	32679	33230	32603	
422	0	32631	32575	32607	32807	32831	32743	32868	32663	
423	0	32676	32732	32676	32731	32647	32629	32262	32732	
424	0	32653	32679	32717	32803	32694	32855	31570	32839	
425	0	32683	32583	32743	32892	33095	32943	31793	32782	
426	0	32802	32801	32661	32852	33111	32775	32035	32773	
427	0	32825	32819	32647	32794	33133	32603	31514	32823	
428	0	32826	32631	32692	32577	32639	32531	32103	32727	
429	0	32775	32733	32802	32619	32663	32919	32669	32922	
430	0	32670	32739	32831	32829	32483	32727	32687	32683	
431	0	32582	32678	32837	32843	32562	32646	32807	32669	
432	0	32679	32911	32757	32706	32679	32749	32766	32683	
433	0	32690	32687	32775	32703	32751	32725	32829	32722	
434	0	32744	32575	32738	32743	32615	32743	32748	32701	
435	0	32708	32807	32834	32782	32742	32903	32782	32821	
436	0	32727	32723	32803	32758	32603	32710	32838	32614	
437	0	32871	32667	32848	32738	32495	32668	32724	32674	
438	0	32828	32499	32834	32719	32356	32505	32859	32613	
439	0	32908	32714	32765	32839	32357	32976	32898	32751	
440	0	32882	32603	32811	32859	32423	32915	33025	32738	
441	0	32828	32606	32831	32671	32250	32653	32971	32755	
442	0	32855	32471	32815	32751	32455	32775	32895	32794	
443	0	32764	32690	32775	32756	32375	32823	32759	32727	
444	0	32783	32599	32895	32715	32564	32795	32756	32709	
445	0	32749	32739	32786	32787	32635	32799	32862	32743	
446	0	32824	32585	32698	32694	32559	32822	32855	32679	
447	0	32743	32803	32743	32498	32655	32842	32790	32723	
448	0	32866	32631	32799	32639	32548	32628	32743	32743	
449	0	32894	32631	32858	32903	32607	32823	32681	32739	
450	0	32933	32789	32895	32861	32497	32799	32685	32725	
451	0	32966	32609	32834	32802	32711	32727	32599	32745	
452	0	32838	32503	32812	32702	32594	32797	32487	32695	
453	0	32791	32714	32829	32911	32685	32731	32525	32671	
454	0	32767	32667	32775	32877	32555	32657	32615	32551	
455	0	32703	32636	32701	32874	32631	32746	32713	32716	
456	0	32738	32759	32734	32706	32572	32775	32785	32773	
457	0	32765	32687	32607	32735	32741	32745	32868	32671	
458	0	32692	32637	32767	32863	32735	32743	33117	32631	
459	0	32748	32767	32797	32819	32572	32623	33198	32719	
460	0	32826	32711	32839	32731	32620	32811	33053	32775	
461	0	32823	32769	32817	32759	32553	32765	32991	32749	
462	0	32767	32647	32711	32797	32563	32551	32800	32567	
463	0	32725	32661	32677	32711	32629	32775	32447	32695	
464	0	32788	32515	32759	32676	32663	32809	32228	32802	
465	0	32750	32715	32807	32711	32599	32759	32709	32716	
466	0	32686	32679	32775	32723	32903	32813	32791	32679	
467	0	32707	32679	32758	32671	33007	32692	32511	32731	
468	0	32735	32575	32685	32575	33089	32795	32549	32739	
469	0	32794	32638	32679	32745	33053	32827	32420	32710	
470	0	32799	32730	32763	32699	32655	32799	32514	32675	
471	0	32769	32575	32685	32639	32711	32685	32916	32731	
472	0	32734	32843	32686	32829	32727	32612	32935	32727	
473	0	32679	32646	32711	32757	32795	32757	32767	32711	
474	0	32727	32661	32715	32763	32674	32769	32626	32709	
475	0	32723	32709	32519	32765	32731	32718	32687	32690	
476	0	32812	32538	32594	32775	32647	32723	32823	32724	
477	0	32825	32535	32694	32842	32678	32636	32815	32721	
478	0	32742	32740	32751	32799	32623	32836	32797	32775	
479	0	32773	32609	32789	32659	32701	32765	32831	32703	
480	0	32799	32639	32775	32647	32565	32628	32866	32677	
481	0	32781	32804	32749	32767	32660	32845	32677	32679	
482	0	32781	32695	32747	32775	32458	32775	32624	32743	
483	0	32815	32583	32733	32735	32583	32839	32691	32719	
484	0	32831	32823	32738	32819	32567	32831	32540	32669	
485	0	32868	32723	32765	32735	32719	32751	32711	32682	
486	0	32793	32766	32818	32663	32722	32715	32721	32699	
487	0	32755	32582	32799	32757	32594	32772	32711	32734	
488	0	32671	32783	32743	32749	32619	32807	32644	32655	
489	0	32712	32775	32836	32761	32589	32823	32559	32685	
490	0	32711	32569	32859	32775	32677	32798	32646	32647	
491	0	32694	32739	32791	32691	32541	32679	32685	32724	
492	0	32621	32757	32767	32743	32703	32764	32658	32804	
493	0	32607	32633	32775	32733	32761	32766	32615	32823	
494	0	32732	32775	32771	32791	32647	32883	32657	32732	
495	0	32698	32583	32827	32747	32647	32851	32626	32754	
496	0	32766	32559	32775	32677	32527	32646	32711	32677	
497	0	32807	32540	32787	32805	32687	32711	32819	32775	
498	0	32787	32607	32822	32847	32527	32713	32804	32758	
499	0	32728	32705	32735	32802	32647	32711	32635	32658	
500	0	32717	32775	32693	32863	32626	32757	32756	32659	
501	0	32803	32495	32671	32775	32699	32647	32807	32677	
502	0	32736	32455	32713	32725	32562	32726	32738	32683	
503	0	32821	32639	32775	32795	32690	32647	32735	32607	
504	0	32824	32613	32805	32803	32597	32734	32711	32703	
505	0	32846	32507	32738	32775	32759	32711	32679	32693	
506	0	32792	32775	32775	32788	32623	32789	32665	32613	
507	0	32824	32698	32738	32742	32687	32742	32727	32695	
508	0	32808	32699	32741	32723	32529	32809	32679	32709	
509	0	32770	32701	32747	32775	32679	32804	32695	32740	
510	0	32829	32700	32773	32760	32605	32757	32730	32773	
511	0	32873	32724	32812	32724	32647	32797	32773	32708	
512	0	32822	32511	32763	32647	32498	32647	32807	32699	
513	0	32780	32615	32841	32706	32663	32701	32663	32698	
514	0	32812	32611	32851	32775	32668	32775	32575	32742	
515	0	32854	32479	32879	32759	32647	32754	32790	32703	
516	0	32806	32643	32887	32708	32541	32745	32755	32775	
517	0	32796	32643	32855	32623	32615	32773	32726	32807	
518	0	32797	32499	32743	32631	32549	32647	32687	32715	
519	0	32788	32715	32707	32786	32723	32871	32703	32693	
520	0	32797	32659	32671	32857	32628	32806	32693	32655	
521	0	32735	32581	32805	32743	32610	32731	32548	32739	
522	0	32713	32823	32749	32743	32695	32775	32601	32803	
523	0	32617	32726	32693	32775	32723	32783	32559	32791	
524	0	32673	32717	32647	32831	32721	32607	32635	32751	
525	0	32655	32887	32631	32742	32679	32711	32807	32567	
526	0	32669	32691	32670	32700	32643	32788	32863	32637	
527	0	32645	32703	32687	32735	32684	32743	32790	32761	
528	0	32620	32566	32719	32805	32717	32842	32775	32687	
529	0	32709	32756	32659	32804	32843	32766	32735	32703	
530	0	32669	32826	32740	32877	32647	32796	32743	32692	
531	0	32750	32668	32770	32775	32773	32635	32735	32775	
532	0	32814	32749	32749	32701	32599	32835	32743	32697	
533	0	32848	32619	32726	32711	32663	32897	32732	32773	
534	0	32834	32695	32815	32709	32615	32684	32837	32685	
535	0	32866	32439	32875	32706	32810	32647	32762	32669	
536	0	32871	32693	32837	32749	32665	32799	32687	32660	
537	0	32818	32524	32823	32775	32775	32647	32679	32742	
538	0	32758	32619	32783	32775	32551	32812	32647	32741	
539	0	32734	32589	32686	32701	32705	32831	32732	32743	
540	0	32692	32667	32687	32687	32613	32791	32743	32647	
541	0	32720	32699	32790	32767	32687	32647	32787	32699	
542	0	32723	32807	32814	32771	32647	32775	32804	32743	
543	0	32689	32699	32797	32701	32647	32797	32775	32676	
544	0	32721	32606	32742	32757	32556	32663	32734	32710	
545	0	32749	32647	32759	32679	32673	32823	32815	32726	
546	0	32764	32804	32663	32703	32567	32871	32749	32687	
547	0	32786	32631	32695	32747	32647	32831	32743	32799	
548	0	32660	32757	32716	32743	32547	32839	32625	32839	
549	0	32725	32551	32713	32838	32692	32734	32570	32827	
550	0	32763	32671	32745	32805	32523	32797	32517	32807	
551	0	32740	32583	32673	32695	32701	32773	32579	32775	
552	0	32739	32629	32711	32805	32543	32703	32623	32671	
553	0	32775	32590	32767	32711	32594	32831	32767	32743	
554	0	32773	32669	32895	32735	32363	32673	32685	32733	
555	0	32782	32675	32863	32695	32591	32771	32771	32708	
556	0	32744	32543	32787	32719	32500	32710	32695	32718	
557	0	32711	32548	32719	32773	32695	32615	32557	32645	
558	0	32671	32851	32807	32759	32690	32748	32595	32610	
559	0	32694	32743	32711	32667	32481	32647	32791	32607	
560	0	32663	32682	32700	32823	32591	32797	32743	32660	
561	0	32663	32775	32695	32749	32489	32791	32734	32771	
562	0	32647	32671	32785	32711	32695	32647	32614	32767	
563	0	32637	32948	32802	32713	32526	32807	32567	32783	
564	0	32791	32795	32743	32735	32685	32735	32629	32703	
565	0	32814	32621	32743	32719	32559	32839	32765	32627	
566	0	32797	32517	32671	32766	32727	32695	32911	32775	
567	0	32815	32634	32733	32830	32643	32661	32852	32711	
568	0	32740	32573	32775	32719	32748	32782	32791	32732	
569	0	32770	32541	32773	32770	32589	32837	32807	32635	
570	0	32832	32847	32711	32771	32685	32765	32807	32647	
571	0	32863	32692	32748	32841	32519	32762	32865	32703	
572	0	32823	32773	32719	32834	32629	32811	32721	32743	
573	0	32719	32559	32707	32786	32557	32658	32708	32735	
574	0	32734	32759	32647	32788	32641	32767	32619	32690	
575	0	32680	32719	32694	32775	32551	32804	32611	32728	
576	0	32694	32679	32711	32794	32658	32620	32591	32763	
577	0	32791	32509	32811	32749	32499	32799	32669	32822	
578	0	32797	32634	32775	32771	32630	32798	32695	32803	
579	0	32775	32615	32749	32685	32629	32639	32603	32764	
580	0	32781	32633	32759	32789	32835	32806	32635	32751	
581	0	32783	32524	32695	32838	32793	32749	32620	32642	
582	0	32812	32589	32687	32782	32871	32787	32691	32711	
583	0	32889	32511	32695	32749	32679	32674	32769	32711	
584	0	32818	32487	32719	32767	32705	32771	32635	32750	
585	0	32832	32685	32691	32703	32647	32719	32786	32733	
586	0	32849	32711	32685	32677	32669	32727	32863	32647	
587	0	32775	32495	32683	32695	32727	32803	32847	32708	
588	0	32736	32795	32757	32767	32767	32855	32786	32795	
589	0	32806	32723	32767	32703	32605	32705	32749	32663	
590	0	32810	32723	32751	32743	32799	32787	32547	32729	
591	0	32714	32591	32791	32685	32822	32687	32431	32760	
592	0	32678	32842	32703	32745	32801	32775	32465	32709	
593	0	32639	32695	32749	32707	32859	32658	32588	32663	
594	0	32699	32614	32721	32755	32647	32719	32711	32668	
595	0	32687	32815	32805	32785	32642	32735	32647	32707	
596	0	32708	32763	32767	32731	32391	32647	32755	32761	
597	0	32704	32773	32763	32844	32563	32769	32751	32677	
598	0	32745	32621	32819	32763	32391	32725	32871	32684	
599	0	32839	32767	32757	32745	32571	32823	32855	32701	
600	0	32818	32627	32751	32670	32379	32775	32743	32723	
601	0	32820	32590	32775	32768	32586	32655	32763	32675	
602	0	32822	32527	32699	32797	32455	32773	32841	32730	
603	0	32869	32597	32701	32804	32611	32706	32662	32742	
604	0	32838	32523	32690	32787	32631	32801	32635	32599	
605	0	32831	32621	32743	32742	32871	32687	32703	32662	
606	0	32794	32519	32807	32783	32690	32809	32803	32736	
607	0	32810	32724	32807	32742	32869	32767	32775	32711	
608	0	32739	32612	32735	32713	32727	32726	32787	32693	
609	0	32762	32655	32827	32718	32723	32767	32881	32647	
610	0	32708	32519	32845	32822	32727	32785	32839	32756	
611	0	32734	32758	32807	32787	32493	32751	32863	32723	
612	0	32699	32639	32783	32735	32587	32742	32799	32634	
613	0	32719	32451	32763	32719	32715	32795	32637	32644	
614	0	32738	32747	32811	32732	32879	32729	32487	32772	
615	0	32765	32583	32822	32820	32623	32695	32511	32773	
616	0	32715	32759	32817	32763	32543	32647	32677	32738	
617	0	32664	32549	32826	32727	32423	32743	32683	32753	
618	0	32721	32852	32861	32789	32583	32714	32607	32783	
619	0	32749	32678	32775	32791	32631	32635	32523	32823	
620	0	32711	32675	32775	32835	32822	32749	32663	32754	
621	0	32854	32703	32695	32767	32745	32675	32572	32715	
622	0	32865	32583	32693	32705	32849	32735	32566	32815	
623	0	32827	32451	32791	32662	32638	32666	32647	32731	
624	0	32860	32623	32859	32729	32751	32823	32770	32771	
625	0	32847	32631	32807	32767	32645	32743	32751	32665	
626	0	32819	32534	32747	32707	32679	32685	32895	32634	
627	0	32864	32710	32713	32645	32579	32798	32789	32771	
628	0	32918	32615	32673	32707	32683	32835	32677	32769	
629	0	32828	32671	32718	32707	32658	32918	32719	32699	
630	0	32743	32551	32719	32637	32742	32817	32795	32759	
631	0	32735	32562	32636	32838	32759	32679	32763	32673	
632	0	32768	32711	32695	32717	32523	32686	32811	32685	
633	0	32703	32733	32794	32613	32647	32815	32807	32687	
634	0	32697	32609	32743	32755	32601	32711	32665	32719	
635	0	32638	32879	32687	32809	32759	32767	32647	32794	
636	0	32713	32669	32749	32791	32715	32799	32575	32663	
637	0	32729	32599	32775	32807	32555	32635	32755	32749	
638	0	32692	32899	32809	32791	32679	32743	32759	32611	
639	0	32679	32814	32810	32775	32731	32751	32736	32617	
640	0	32671	32630	32742	32755	32709	32635	32819	32670	
641	0	32734	32855	32666	32773	32510	32807	32810	32758	
642	0	32590	32863	32711	32817	32690	32741	32660	32807	
643	0	32622	32695	32621	32747	32583	32807	32582	32775	
644	0	32639	32903	32722	32734	32647	32811	32533	32751	
645	0	32655	32719	32678	32647	32518	32771	32607	32767	
646	0	32662	32788	32717	32669	32738	32827	32647	32743	
647	0	32728	32691	32717	32736	32647	32692	32749	32754	
648	0	32694	32852	32677	32732	32786	32711	32837	32725	
649	0	32743	32734	32757	32727	32658	32795	32713	32711	
650	0	32774	32615	32756	32763	32764	32822	32700	32683	
651	0	32846	32787	32751	32799	32477	32769	32711	32659	
652	0	32901	32706	32703	32803	32669	32687	32719	32723	
653	0	32950	32639	32711	32670	32487	32679	32739	32731	
654	0	32949	32473	32887	32703	32645	32813	32775	32739	
655	0	32952	32739	32918	32832	32611	32671	32798	32743	
656	0	32898	32620	32841	32813	32639	32764	32767	32687	
657	0	32844	32669	32860	32818	32557	32743	32847	32666	
658	0	32723	32567	32807	32711	32675	32692	32843	32587	
659	0	32708	32815	32829	32825	32469	32821	32801	32705	
660	0	32702	32623	32902	32791	32535	32895	32791	32676	
661	0	32729	32575	32895	32845	32535	32831	32551	32793	
662	0	32684	32739	32894	32780	32798	32851	32420	32715	
663	0	32749	32679	32783	32715	32899	32859	32285	32783	
664	0	32696	32663	32647	32675	32717	32775	32400	32885	
665	0	32707	32703	32677	32658	32715	32876	32549	32791	
666	0	32655	32663	32711	32759	32515	32722	32763	32883	
667	0	32656	32671	32722	32742	32583	32807	32823	32669	
668	0	32655	32463	32634	32759	32599	32629	32845	32642	
669	0	32708	32679	32657	32791	32631	32695	32708	32639	
670	0	32795	32540	32774	32742	32469	32749	32799	32715	
671	0	32799	32627	32729	32757	32599	32751	32735	32683	
672	0	32816	32535	32704	32729	32491	32685	32705	32666	
673	0	32758	32791	32663	32787	32655	32634	32711	32759	
674	0	32762	32715	32701	32844	32547	32835	32706	32679	
675	0	32702	32703	32762	32677	32725	32713	32807	32719	
676	0	32751	32807	32811	32719	32599	32739	32743	32773	
677	0	32770	32643	32791	32820	32775	32711	32674	32719	
678	0	32838	32539	32759	32853	32731	32695	32708	32689	
679	0	32796	32699	32709	32772	32807	32735	32735	32719	
680	0	32848	32655	32775	32802	32855	32613	32838	32695	
681	0	32895	32525	32817	32757	32738	32799	32733	32646	
682	0	32946	32771	32783	32817	32719	32739	32727	32735	
683	0	32859	32771	32804	32757	32631	32711	32773	32803	
684	0	32814	32487	32751	32773	32644	32607	32834	32631	
685	0	32785	32620	32769	32767	32715	32838	32839	32685	
686	0	32725	32666	32727	32804	32641	32826	32767	32727	
687	0	32756	32513	32679	32647	32699	32676	32711	32710	
688	0	32695	32812	32669	32630	32498	32795	32663	32762	
689	0	32711	32727	32713	32787	32607	32790	32703	32762	
690	0	32772	32669	32723	32793	32661	32853	32642	32795	
691	0	32752	32599	32748	32679	32483	32830	32683	32775	
692	0	32802	32465	32827	32645	32677	32725	32686	32669	
693	0	32873	32663	32769	32756	32519	32745	32733	32596	
694	0	32787	32711	32749	32837	32679	32775	32655	32694	
695	0	32751	32612	32718	32767	32519	32603	32812	32679	
696	0	32834	32431	32754	32783	32797	32667	32811	32627	
697	0	32800	32698	32855	32727	32804	32767	32773	32719	
698	0	32827	32609	32935	32783	32843	32683	32766	32756	
699	0	32858	32435	32885	32815	32646	32706	32757	32667	
700	0	32758	32495	32831	32839	32775	32675	32675	32663	
701	0	32684	32627	32847	32799	32692	32695	32535	32631	
702	0	32662	32571	32855	32719	32595	32739	32615	32627	
703	0	32607	32751	32729	32647	32711	32854	32583	32791	
704	0	32577	32634	32719	32719	32767	32791	32717	32786	
705	0	32631	32845	32751	32773	32804	32708	32647	32701	
706	0	32644	32847	32722	32731	32791	32771	32669	32657	
707	0	32646	32695	32705	32727	32695	32871	32711	32731	
708	0	32659	32941	32758	32767	32749	32655	32647	32830	
709	0	32692	32791	32783	32795	32639	32772	32642	32727	
710	0	32773	32642	32751	32795	32647	32881	32703	32732	
711	0	32727	32794	32647	32751	32687	32687	32751	32787	
712	0	32743	32708	32639	32865	32645	32775	32698	32735	
713	0	32733	32679	32754	32732	32685	32623	32731	32690	
714	0	32700	32613	32775	32703	32605	32775	32663	32743	
715	0	32711	32750	32721	32709	32635	32799	32805	32742	
716	0	32720	32579	32806	32831	32500	32641	32803	32775	
717	0	32756	32647	32732	32815	32632	32663	32756	32718	
718	0	32674	32791	32807	32846	32583	32775	32765	32751	
719	0	32735	32786	32797	32711	32700	32809	32759	32773	
720	0	32712	32719	32743	32740	32567	32743	32690	32738	
721	0	32772	32667	32718	32837	32729	32591	32671	32697	
722	0	32724	32871	32711	32791	32671	32725	32708	32689	
723	0	32738	32807	32703	32749	32796	32634	32710	32703	
724	0	32782	32737	32715	32717	32819	32811	32735	32771	
725	0	32787	32721	32789	32751	32641	32787	32783	32783	
726	0	32822	32658	32823	32743	32723	32775	32671	32798	
727	0	32793	32691	32855	32647	32674	32773	32647	32751	
728	0	32784	32591	32751	32767	32733	32702	32644	32705	
729	0	32740	32607	32759	32729	32677	32819	32647	32767	
730	0	32775	32807	32783	32727	32731	32805	32699	32723	
731	0	32801	32695	32855	32677	32623	32843	32615	32671	
732	0	32837	32691	32771	32757	32743	32903	32751	32727	
733	0	32867	32495	32775	32723	32647	32710	32703	32711	
734	0	32893	32731	32814	32879	32713	32775	32727	32773	
735	0	32868	32599	32715	32823	32647	32741	32695	32739	
736	0	32765	32465	32710	32775	32671	32751	32702	32711	
737	0	32645	32709	32699	32854	32597	32750	32773	32711	
738	0	32584	32631	32763	32751	32703	32773	32711	32658	
739	0	32590	32475	32635	32829	32559	32839	32770	32695	
740	0	32599	32685	32670	32738	32703	32775	32751	32763	
741	0	32583	32643	32699	32775	32551	32749	32661	32668	
742	0	32615	32487	32775	32850	32647	32710	32717	32673	
743	0	32438	32514	32719	32803	32595	32683	32731	32557	
744	0	32463	32391	32671	32851	32719	32747	32559	32647	
745	0	32497	32549	32665	32740	32640	32679	32557	32756	
746	0	32462	32555	32631	32799	32707	32743	32503	32719	
747	0	32479	32279	32711	32737	32567	32791	32591	32749	
748	0	32548	32425	32679	32743	32647	32811	32771	32683	
749	0	32586	32431	32647	32710	32503	32799	32853	32621	
750	0	32630	32319	32623	32823	32681	32703	32743	32667	
751	0	32626	32227	32635	32834	32421	32807	32735	32762	
752	0	32860	32169	32677	32837	32623	32827	32751	32698	
753	0	32870	32071	32807	32755	32507	32619	32679	32727	
754	0	32890	32086	32739	32801	32641	32707	32697	32685	
755	0	32815	32135	32799	32739	32703	32662	32711	32716	
756	0	32810	32175	32679	32751	32839	32693	32615	32738	
757	0	32952	32054	32655	32823	32807	32647	32593	32751	
758	0	33058	32109	32695	32861	32711	32821	32527	32663	
759	0	33114	32060	32743	32775	32925	32759	32481	32627	
760	0	33073	32231	32709	32807	32887	32756	32515	32647	
761	0	33134	32262	32733	32711	32799	32639	32605	32711	
762	0	33242	32207	32766	32775	32771	32780	32626	32663	
763	0	33303	32215	32751	32828	32677	32775	32722	32727	
764	0	33302	32390	32647	32769	32703	32626	32775	32783	
765	0	33244	32309	32671	32659	32629	32690	32859	32685	
766	0	33310	32725	32827	32699	32479	32781	32863	32669	
767	0	33287	32783	32882	32718	32635	32663	32745	32667	
768	0	33238	32711	32827	32663	32549	32694	32717	32766	
769	0	33231	32917	32831	32647	32558	32775	32839	32771	
770	0	33279	32935	32859	32615	32399	32823	32935	32749	
771	0	33243	32935	33007	32679	32555	32775	32991	32751	
772	0	33146	33399	33037	32711	32543	32765	32903	32719	
773	0	33207	33415	33079	32667	32673	32683	32875	32645	
774	0	33257	33621	33071	32679	32628	32806	32940	32711	
775	0	33170	33535	33055	32647	32559	32743	32954	32693	
776	0	33003	33535	33002	32518	32625	32647	33029	32775	
777	0	32924	33751	32903	32636	32534	32763	32885	32759	
778	0	32759	33799	32916	32669	32643	32743	32927	32707	
779	0	32719	33639	32919	32670	32533	32819	32731	32775	
780	0	32663	33567	32927	32639	32711	32799	32659	32829	
781	0	32790	33394	33037	32615	32481	32756	32674	32811	
782	0	32848	33522	32966	32708	32733	32795	32732	32797	
783	0	32807	33238	32831	32671	32671	32812	32860	32795	
784	0	32807	33157	32855	32707	32789	32759	32759	32759	
785	0	32638	32967	32884	32702	32806	32735	32687	32799	
786	0	32538	33087	32807	32827	32626	32838	32639	32749	
787	0	32322	32899	32711	32743	32839	32711	32518	32766	
788	0	32171	32891	32639	32775	32623	32711	32565	32841	
789	0	32116	32580	32790	32799	32743	32790	32691	32775	
790	0	32072	32839	32699	32855	32677	32868	32639	32831	
791	0	32098	32799	32647	32814	32846	32603	32597	32735	
792	0	32078	32667	32599	32726	32772	32681	32647	32768	
793	0	32225	32611	32742	32851	32662	32701	32519	32794	
794	0	32318	32675	32694	32903	32738	32871	32575	32756	
795	0	32325	32531	32671	32814	32615	32703	32671	32638	
796	0	32367	32631	32687	32748	32628	32804	32716	32679	
797	0	32410	32455	32639	32875	32446	32759	32807	32662	
798	0	32468	32685	32751	32787	32687	32757	32703	32647	
799	0	32470	32565	32727	32807	32575	32767	32764	32736	
800	0	32495	32428	32727	32767	32583	32583	32763	32798	
801	0	32595	32562	32700	32815	32455	32725	32763	32723	
802	0	32726	32435	32631	32829	32747	32724	32585	32679	
803	0	32666	32327	32687	32831	32639	32583	32455	32639	
804	0	32781	32540	32671	32711	32766	32795	32466	32694	
805	0	32787	32455	32803	32743	32730	32835	32656	32813	
806	0	32799	32461	32749	32811	32858	32745	32695	32767	
807	0	32788	32707	32731	32757	32805	32687	32689	32727	
808	0	32775	32690	32726	32726	32789	32743	32818	32740	
809	0	32742	32495	32718	32730	32741	32773	32807	32730	
810	0	32682	32598	32689	32748	32759	32707	32765	32676	
811	0	32660	32487	32717	32751	32546	32834	32743	32685	
812	0	32733	32571	32717	32823	32691	32671	32866	32715	
813	0	32759	32449	32701	32829	32670	32823	32805	32726	
814	0	32791	32643	32756	32711	32711	32725	32783	32647	
815	0	32811	32573	32775	32775	32643	32775	32647	32655	
816	0	32810	32486	32815	32713	32711	32667	32735	32719	
817	0	32863	32732	32749	32743	32605	32775	32673	32727	
818	0	32788	32534	32746	32775	32613	32775	32602	32711	
819	0	32794	32594	32835	32815	32444	32767	32797	32749	
820	0	32839	32429	32719	32703	32607	32767	32725	32771	
821	0	32844	32635	32660	32791	32543	32630	32731	32807	
822	0	32943	32543	32659	32797	32641	32637	32669	32655	
823	0	32903	32603	32646	32734	32483	32773	32775	32728	
824	0	32934	32447	32671	32759	32590	32787	32775	32731	
825	0	32883	32527	32772	32676	32532	32630	32711	32701	
826	0	32872	32383	32679	32819	32647	32737	32627	32701	
827	0	32826	32637	32685	32719	32510	32789	32607	32686	
828	0	32830	32663	32702	32743	32685	32759	32683	32586	
829	0	32828	32564	32675	32733	32509	32711	32690	32631	
830	0	32782	32631	32722	32701	32715	32820	32773	32681	
831	0	32768	32655	32754	32740	32579	32725	32871	32685	
832	0	32759	32549	32775	32767	32767	32687	32843	32727	
833	0	32788	32660	32735	32711	32676	32802	32773	32721	
834	0	32775	32647	32735	32669	32775	32739	32851	32735	
835	0	32738	32519	32764	32661	32658	32747	32807	32644	
836	0	32775	32564	32711	32671	32759	32799	32710	32679	
837	0	32708	32455	32772	32791	32611	32707	32734	32687	
838	0	32711	32579	32858	32757	32731	32687	32623	32623	
839	0	32719	32516	32815	32738	32635	32841	32533	32759	
840	0	32743	32447	32773	32727	32687	32754	32579	32677	
841	0	32749	32647	32723	32731	32535	32771	32694	32667	
842	0	32772	32539	32703	32815	32667	32765	32701	32691	
843	0	32823	32455	32711	32839	32485	32845	32787	32775	
844	0	32820	32645	32761	32713	32630	32823	32679	32749	
845	0	32830	32559	32751	32679	32559	32735	32765	32734	
846	0	32775	32686	32775	32711	32662	32799	32868	32771	
847	0	32711	32834	32727	32822	32613	32829	32743	32783	
848	0	32790	32655	32775	32802	32502	32708	32773	32623	
849	0	32751	32747	32819	32763	32623	32811	32731	32668	
850	0	32647	32871	32758	32775	32526	32805	32807	32747	
851	0	32611	32719	32759	32708	32709	32698	32711	32727	
852	0	32647	32763	32763	32839	32685	32773	32772	32707	
853	0	32647	32819	32695	32725	32759	32784	32749	32759	
854	0	32658	32698	32822	32751	32592	32594	32734	32711	
855	0	32687	32607	32823	32759	32897	32801	32743	32703	
856	0	32749	32775	32839	32666	32720	32822	32615	32763	
857	0	32786	32791	32807	32758	32769	32637	32571	32711	
858	0	32791	32804	32751	32819	32647	32691	32647	32702	
859	0	32840	32637	32683	32783	32825	32745	32717	32783	
860	0	32805	32558	32711	32821	32677	32559	32775	32713	
861	0	32839	32684	32743	32769	32703	32733	32701	32675	
862	0	32858	32570	32787	32703	32709	32745	32730	32795	
863	0	32903	32699	32807	32844	32835	32576	32775	32759	
864	0	32879	32594	32740	32839	32775	32715	32727	32771	
865	0	32914	32466	32686	32775	32671	32775	32788	32703	
866	0	32821	32677	32693	32759	32415	32745	32853	32597	
867	0	32706	32589	32711	32709	32561	32645	32845	32747	
868	0	32817	32743	32711	32687	32509	32723	32754	32676	
869	0	32836	32655	32709	32743	32719	32786	32607	32623	
870	0	32831	32455	32669	32743	32439	32629	32519	32711	
871	0	32742	32623	32795	32761	32607	32794	32537	32671	
872	0	32756	32623	32731	32823	32595	32733	32430	32843	
873	0	32754	32775	32713	32707	32711	32819	32420	32687	
874	0	32665	32647	32719	32674	32643	32807	32591	32735	
875	0	32663	32507	32727	32806	32611	32725	32623	32703	
876	0	32740	32741	32751	32743	32679	32835	32690	32714	
877	0	32753	32658	32767	32749	32494	32666	32799	32759	
878	0	32710	32799	32727	32671	32629	32827	32870	32755	
879	0	32661	32701	32833	32749	32626	32839	32783	32701	
880	0	32668	32599	32845	32719	32831	32690	32775	32775	
881	0	32565	32755	32847	32775	32769	32863	32754	32646	
882	0	32646	32674	32828	32807	32799	32803	32758	32654	
883	0	32690	32763	32735	32775	32758	32861	32775	32717	
884	0	32679	32551	32732	32703	32567	32722	32775	32723	
885	0	32652	32439	32717	32720	32686	32845	32786	32707	
886	0	32735	32559	32775	32695	32647	32839	32879	32567	
887	0	32806	32582	32675	32757	32754	32707	32850	32632	
888	0	32814	32692	32715	32662	32655	32866	32873	32686	
889	0	32756	32573	32711	32718	32579	32690	32861	32747	
890	0	32805	32716	32775	32715	32643	32732	32719	32743	
891	0	32857	32531	32732	32775	32617	32869	32699	32684	
892	0	32876	32461	32703	32775	32639	32756	32645	32654	
893	0	32895	32636	32751	32745	32543	32843	32708	32775	
894	0	32936	32667	32787	32775	32599	32819	32856	32735	
895	0	32911	32592	32783	32726	32524	32807	32797	32714	
896	0	32924	32666	32854	32646	32683	32647	32747	32662	
897	0	32826	32685	32788	32742	32571	32733	32735	32695	
898	0	32733	32871	32791	32812	32703	32715	32767	32775	
899	0	32758	32711	32763	32766	32489	32742	32759	32775	
900	0	32757	32615	32799	32751	32639	32675	32813	32761	
901	0	32779	32687	32706	32757	32493	32767	32679	32775	
902	0	32794	32621	32711	32748	32679	32604	32657	32677	
903	0	32754	32407	32823	32789	32484	32711	32711	32620	
904	0	32757	32567	32751	32791	32658	32726	32751	32621	
905	0	32717	32419	32757	32807	32725	32623	32748	32643	
906	0	32663	32686	32751	32678	32772	32775	32807	32775	
907	0	32695	32706	32719	32721	32663	32775	32775	32707	
908	0	32754	32486	32706	32795	32699	32615	32751	32775	
909	0	32856	32735	32761	32802	32533	32727	32687	32755	
910	0	32698	32593	32775	32799	32687	32818	32639	32620	
911	0	32669	32698	32719	32741	32534	32839	32721	32687	
912	0	32692	32548	32756	32819	32695	32799	32827	32806	
913	0	32709	32647	32743	32822	32551	32647	32790	32731	
914	0	32789	32731	32852	32775	32706	32726	32746	32717	
915	0	32816	32885	32871	32695	32468	32767	32754	32727	
916	0	32735	32727	32787	32677	32621	32699	32775	32659	
917	0	32757	32575	32743	32691	32507	32723	32686	32691	
918	0	32726	32789	32735	32770	32705	32790	32705	32802	
919	0	32700	32743	32738	32807	32733	32647	32662	32805	
920	0	32692	32891	32684	32821	32671	32786	32663	32609	
921	0	32687	32727	32713	32754	32660	32716	32654	32739	
922	0	32735	32875	32695	32795	32514	32804	32667	32716	
923	0	32748	32715	32831	32695	32647	32701	32619	32739	
924	0	32695	32765	32775	32807	32583	32722	32663	32743	
925	0	32692	32679	32739	32751	32711	32731	32715	32597	
926	0	32753	32735	32719	32743	32538	32759	32759	32771	
927	0	32700	32635	32743	32699	32694	32803	32741	32785	
928	0	32692	32687	32711	32767	32719	32812	32745	32711	
929	0	32705	32623	32711	32761	32640	32669	32789	32686	
930	0	32703	32711	32615	32799	32636	32789	32831	32719	
931	0	32742	32695	32791	32775	32695	32645	32817	32767	
932	0	32780	32549	32739	32767	32563	32767	32731	32724	
933	0	32711	32647	32735	32791	32740	32783	32837	32785	
934	0	32733	32594	32758	32799	32647	32743	32932	32772	
935	0	32738	32635	32811	32834	32719	32773	32807	32745	
936	0	32700	32567	32829	32775	32859	32646	32695	32676	
937	0	32698	32655	32833	32763	32715	32799	32775	32644	
938	0	32745	32555	32769	32791	32566	32819	32863	32727	
939	0	32745	32563	32751	32696	32687	32639	32683	32758	
940	0	32704	32758	32847	32717	32580	32655	32668	32655	
941	0	32710	32713	32847	32757	32615	32793	32727	32743	
942	0	32756	32567	32829	32669	32587	32603	32829	32659	
943	0	32804	32747	32795	32791	32501	32647	32842	32615	
944	0	32784	32743	32751	32799	32663	32727	32775	32603	
945	0	32841	32559	32851	32775	32629	32831	32753	32668	
946	0	32767	32767	32775	32673	32859	32741	32575	32775	
947	0	32764	32687	32743	32757	32767	32748	32742	32754	
948	0	32727	32565	32791	32775	32749	32743	32802	32751	
949	0	32745	32735	32771	32733	32815	32830	32759	32775	
950	0	32735	32675	32759	32725	32765	32735	32762	32637	
951	0	32730	32756	32707	32836	32839	32754	32815	32586	
952	0	32758	32615	32686	32756	32763	32687	32582	32627	
953	0	32766	32807	32798	32699	32991	32847	32566	32679	
954	0	32730	32519	32719	32855	32943	32633	32613	32677	
955	0	32834	32607	32719	32775	32903	32723	32647	32706	
956	0	32802	32505	32718	32708	32693	32821	32643	32783	
957	0	32725	32636	32775	32742	32509	32607	32804	32673	
958	0	32730	32621	32819	32773	32660	32707	32673	32675	
959	0	32797	32582	32799	32723	32434	32775	32591	32739	
960	0	32727	32492	32851	32663	32663	32731	32815	32722	
961	0	32748	32751	32821	32787	32594	32823	32758	32687	
962	0	32764	32739	32775	32731	32407	32807	32713	32679	
963	0	32608	32735	32749	32676	32535	32791	32619	32718	
964	0	32708	32797	32690	32738	32543	32738	32795	32710	
965	0	32699	32607	32623	32743	32485	32829	32693	32767	
966	0	32653	32739	32813	32595	32775	32631	32599	32667	
967	0	32658	32871	32679	32759	32847	32734	32639	32765	
968	0	32682	32871	32621	32742	32763	32751	32727	32763	
969	0	32711	32715	32701	32690	32813	32703	32677	32817	
970	0	32756	32793	32715	32823	32613	32791	32659	32790	
971	0	32755	32831	32703	32815	32791	32615	32694	32687	
972	0	32781	32603	32647	32900	32694	32767	32647	32639	
973	0	32716	32815	32772	32759	32807	32786	32503	32677	
974	0	32712	32727	32755	32847	32783	32679	32565	32799	
975	0	32738	32807	32711	32786	32620	32796	32676	32799	
976	0	32769	32541	32807	32717	32666	32673	32646	32747	
977	0	32779	32623	32795	32767	32479	32839	32739	32825	
978	0	32957	32412	32758	32789	32642	32771	32692	32719	
979	0	32955	32186	32735	32763	32567	32601	32738	32671	
980	0	32988	32364	32739	32719	32610	32769	32709	32647	
981	0	33038	32301	32679	32747	32518	32762	32786	32639	
982	0	33049	32367	32831	32727	32667	32555	32801	32593	
983	0	32900	32558	32757	32742	32647	32775	32747	32639	
984	0	32847	32511	32710	32763	32626	32775	32671	32677	
985	0	32797	32553	32775	32674	32535	32611	32757	32655	
986	0	32749	32787	32787	32687	32629	32813	32775	32717	
987	0	32780	32803	32685	32725	32605	32839	32701	32675	
988	0	32807	32575	32692	32700	32751	32708	32703	32703	
989	0	32820	32450	32717	32799	32677	32799	32711	32631	
990	0	32740	32471	32711	32751	32615	32782	32767	32615	
991	0	32761	32599	32775	32786	32738	32679	32821	32663	
992	0	32727	32501	32828	32739	32615	32819	32850	32687	
993	0	32678	32741	32709	32870	32685	32823	32690	32709	
994	0	32626	32815	32679	32875	32620	32821	32679	32775	
995	0	32625	32834	32757	32787	32775	32804	32607	32711	
996	0	32583	32725	32829	32833	32775	32645	32597	32751	
997	0	32687	32911	32796	32755	32871	32765	32583	32791	
998	0	32635	32877	32749	32694	32767	32818	32647	32683	
999	0	32762	32828	32754	32663	32527	32602	32647	32647	
1000	0	32820	32743	32799	32769	32679	32829	32717	32703	
1001	0	32893	32747	32837	32739	32605	32850	32839	32739	
1002	0	32857	32851	32855	32693	32695	32643	32815	32767	
1003	0	32845	32695	32734	32703	32767	32751	32833	32761	
1004	0	32834	32663	32759	32775	32732	32770	32638	32738	
1005	0	32695	32658	32795	32667	32711	32711	32617	32875	
1006	0	32797	32553	32803	32721	32813	32715	32628	32799	
1007	0	32833	32495	32765	32639	32733	32834	32844	32679	
1008	0	32814	32516	32735	32724	32739	32759	32850	32687	
1009	0	32849	32487	32731	32794	32795	32775	32731	32775	
1010	0	32791	32495	32708	32745	32677	32917	32757	32775	
1011	0	32724	32715	32783	32661	32739	32881	32636	32715	
1012	0	32703	32674	32755	32710	32559	32834	32693	32706	
1013	0	32748	32667	32775	32834	32695	32640	32679	32667	
1014	0	32803	32703	32791	32803	32631	32823	32794	32690	
1015	0	32806	32763	32839	32811	32679	32820	32698	32717	
1016	0	32825	32771	32823	32775	32719	32679	32730	32787	
1017	0	32790	32723	32775	32819	32551	32743	32687	32695	
1018	0	32839	32803	32748	32775	32661	32826	32598	32684	
1019	0	32799	32668	32791	32857	32448	32655	32611	32735	
1020	0	32782	32639	32867	32775	32635	32802	32685	32773	
1021	0	32775	32698	32718	32775	32483	32775	32755	32751	
1022	0	32841	32735	32767	32869	32619	32583	32775	32714	
1023	0	32852	32797	32711	32767	32708	32738	32797	32711	
1024	0	32762	32599	32706	32666	32706	32804	32613	32685	
1025	0	32749	32843	32795	32811	32775	32679	32629	32721	
1026	0	32756	32806	32737	32767	32605	32775	32667	32705	
1027	0	32756	32671	32748	32751	32755	32899	32675	32743	
1028	0	32790	32723	32692	32639	32758	32679	32659	32734	
1029	0	32756	32481	32755	32775	32735	32796	32723	32709	
1030	0	32812	32475	32729	32775	32595	32839	32786	32631	
1031	0	32825	32631	32769	32791	32647	32679	32786	32519	
1032	0	32821	32566	32771	32708	32551	32887	32617	32613	
1033	0	32796	32559	32719	32742	32647	32825	32717	32727	
1034	0	32696	32767	32743	32783	32644	32829	32551	32834	
1035	0	32647	32663	32711	32767	32807	32727	32633	32758	
1036	0	32751	32573	32751	32771	32589	32700	32823	32695	
1037	0	32769	32867	32850	32766	32663	32759	32885	32645	
1038	0	32839	32818	32839	32693	32647	32631	32887	32662	
1039	0	32819	32578	32819	32695	32722	32711	32839	32757	
1040	0	32815	32669	32864	32762	32613	32718	32823	32676	
1041	0	32810	32643	32775	32743	32607	32615	32867	32670	
1042	0	32767	32467	32719	32761	32503	32727	32845	32687	
1043	0	32730	32719	32775	32804	32711	32742	32798	32703	
1044	0	32712	32679	32795	32787	32701	32640	32707	32687	
1045	0	32643	32575	32790	32803	32747	32852	32571	32767	
1046	0	32684	32708	32775	32811	32603	32743	32621	32811	
1047	0	32749	32734	32727	32762	32663	32847	32599	32757	
1048	0	32730	32636	32663	32724	32565	32787	32573	32797	
1049	0	32683	32695	32721	32738	32667	32725	32614	32719	
1050	0	32711	32557	32692	32723	32518	32863	32713	32833	
1051	0	32743	32697	32791	32773	32711	32711	32813	32837	
1052	0	32826	32531	32858	32749	32519	32825	32788	32727	
1053	0	32895	32470	32834	32717	32641	32754	32775	32693	
1054	0	32841	32604	32738	32695	32486	32668	32793	32677	
1055	0	32838	32557	32801	32841	32783	32773	32807	32654	
1056	0	32837	32503	32790	32828	32675	32751	32884	32646	
1057	0	32785	32731	32775	32774	32751	32785	32809	32703	
1058	0	32738	32700	32809	32677	32551	32787	32851	32775	
1059	0	32718	32494	32770	32665	32655	32679	32785	32759	
1060	0	32618	32660	32759	32723	32508	32747	32721	32687	
1061	0	32599	32711	32731	32742	32642	32645	32677	32607	
1062	0	32582	32595	32817	32793	32559	32679	32635	32604	
1063	0	32679	32647	32847	32687	32663	32773	32739	32683	
1064	0	32676	32615	32747	32719	32615	32617	32754	32676	
1065	0	32655	32525	32700	32823	32661	32775	32715	32733	
1066	0	32681	32723	32684	32788	32815	32821	32639	32765	
1067	0	32690	32749	32845	32773	32647	32755	32669	32783	
1068	0	32745	32595	32815	32658	32685	32698	32671	32731	
1069	0	32832	32679	32742	32735	32643	32759	32735	32623	
1070	0	32813	32647	32759	32797	32735	32751	32851	32685	
1071	0	32791	32647	32698	32751	32711	32807	32730	32772	
1072	0	32773	32807	32703	32839	32843	32855	32543	32783	
1073	0	32829	32743	32677	32767	32602	32847	32582	32739	
1074	0	32665	32605	32671	32839	32647	32817	32663	32771	
1075	0	32571	32709	32675	32751	32433	32655	32629	32807	
1076	0	32584	32711	32753	32715	32724	32719	32687	32857	
1077	0	32711	32573	32775	32763	32766	32851	32591	32781	
1078	0	32784	32711	32789	32733	32759	32785	32671	32711	
1079	0	32727	32692	32700	32730	32749	32655	32644	32759	
1080	0	32794	32534	32620	32735	32701	32802	32866	32742	
1081	0	32871	32670	32775	32839	32543	32711	32919	32723	
1082	0	32877	32711	32786	32767	32623	32675	32845	32786	
1083	0	32833	32555	32764	32813	32575	32756	32756	32647	
1084	0	32885	32591	32647	32726	32623	32714	32717	32687	
1085	0	32839	32707	32775	32837	32813	32691	32842	32679	
1086	0	32757	32753	32783	32807	32799	32803	32838	32745	
1087	0	32764	32662	32871	32796	32677	32689	32834	32647	
1088	0	32813	32559	32883	32713	32798	32850	32870	32701	
1089	0	32737	32630	32761	32697	32783	32791	32747	32647	
1090	0	32701	32500	32773	32750	32694	32605	32837	32735	
1091	0	32639	32751	32713	32747	32511	32811	32773	32711	
1092	0	32646	32735	32700	32732	32553	32671	32615	32769	
1093	0	32746	32527	32751	32689	32407	32698	32599	32609	
1094	0	32791	32607	32756	32679	32517	32599	32663	32551	
1095	0	32805	32630	32805	32775	32470	32711	32701	32676	
1096	0	32828	32815	32827	32839	32716	32647	32599	32711	
1097	0	32842	32683	32815	32775	32759	32735	32597	32771	
1098	0	32845	32735	32730	32817	32531	32709	32670	32601	
1099	0	32789	32739	32819	32791	32552	32623	32669	32765	
1100	0	32770	32474	32798	32766	32513	32775	32644	32751	
1101	0	32753	32677	32740	32694	32692	32815	32659	32743	
1102	0	32766	32594	32739	32731	32743	32757	32765	32671	
1103	0	32818	32663	32831	32698	32537	32639	32838	32734	
1104	0	32757	32662	32709	32766	32676	32791	32895	32711	
1105	0	32733	32591	32687	32763	32613	32763	32827	32773	
1106	0	32669	32567	32695	32821	32765	32821	32733	32729	
1107	0	32647	32583	32709	32833	32822	32749	32775	32675	
1108	0	32710	32795	32773	32755	32863	32811	32727	32751	
1109	0	32743	32527	32745	32685	32843	32747	32821	32719	
1110	0	32711	32374	32727	32825	32727	32821	32823	32718	
1111	0	32807	32646	32755	32799	32656	32662	32740	32711	
1112	0	32832	32735	32708	32791	32561	32786	32647	32647	
1113	0	32775	32643	32723	32719	32755	32775	32639	32743	
1114	0	32759	32743	32687	32743	32705	32711	32597	32775	
1115	0	32635	32665	32675	32775	32759	32829	32579	32727	
1116	0	32682	32799	32735	32727	32500	32711	32644	32775	
1117	0	32775	32757	32831	32727	32583	32797	32925	32719	
1118	0	32782	32671	32809	32738	32708	32829	32732	32730	
1119	0	32782	32903	32855	32843	32715	32687	32671	32763	
1120	0	32775	32885	32815	32799	32677	32751	32769	32785	
1121	0	32706	32677	32765	32806	32917	32781	32715	32761	
1122	0	32663	32769	32739	32663	32805	32683	32515	32879	
1123	0	32671	32773	32775	32763	32866	32868	32375	32845	
1124	0	32674	32886	32748	32770	32811	32837	32507	32775	
1125	0	32703	32639	32751	32758	32692	32739	32647	32579	
1126	0	32830	32511	32747	32738	32573	32850	32671	32775	
1127	0	32765	32539	32714	32719	32775	32684	32661	32723	
1128	0	32855	32525	32676	32725	32531	32827	32793	32663	
1129	0	32837	32607	32714	32803	32619	32791	32911	32725	
1130	0	32813	32503	32679	32827	32657	32834	32775	32689	
1131	0	32831	32529	32741	32756	32769	32763	32757	32749	
1132	0	32733	32694	32701	32799	32826	32745	32691	32715	
1133	0	32735	32647	32716	32815	32767	32801	32578	32783	
1134	0	32715	32431	32717	32723	32854	32615	32626	32757	
1135	0	32692	32445	32730	32766	32827	32763	32639	32729	
1136	0	32753	32371	32715	32871	32749	32743	32620	32659	
1137	0	32782	32723	32845	32845	32713	32759	32653	32671	
1138	0	32732	32751	32787	32767	32713	32677	32701	32756	
1139	0	32687	32821	32827	32775	32586	32791	32739	32791	
1140	0	32672	32788	32861	32774	32749	32721	32647	32762	
1141	0	32660	32599	32775	32687	32615	32759	32647	32706	
1142	0	32760	32715	32676	32719	32726	32655	32682	32679	
1143	0	32785	32690	32695	32735	32694	32850	32719	32703	
1144	0	32754	32685	32807	32783	32839	32743	32825	32771	
1145	0	32764	32583	32827	32749	32831	32817	32815	32737	
1146	0	32757	32543	32919	32775	32839	32696	32773	32679	
1147	0	32775	32695	32819	32739	32835	32775	32751	32697	
1148	0	32822	32677	32797	32751	32761	32827	32715	32763	
1149	0	32804	32742	32775	32743	32735	32791	32863	32775	
1150	0	32823	32713	32729	32687	32564	32791	32742	32820	
1151	0	32866	32775	32743	32694	32742	32747	32591	32754	
1152	0	32870	32678	32815	32711	32647	32647	32701	32731	
1153	0	32763	32585	32834	32782	32683	32797	32839	32654	
1154	0	32693	32647	32845	32791	32806	32714	32767	32697	
1155	0	32700	32501	32738	32783	32594	32723	32749	32611	
1156	0	32722	32749	32775	32823	32726	32665	32727	32733	
1157	0	32854	32707	32765	32772	32655	32813	32662	32775	
1158	0	32845	32500	32737	32726	32659	32767	32615	32663	
1159	0	32863	32658	32691	32751	32687	32793	32745	32631	
1160	0	32842	32571	32775	32756	32633	32617	32883	32576	
1161	0	32861	32526	32803	32695	32628	32775	32890	32703	
1162	0	32729	32660	32835	32887	32647	32711	32967	32787	
1163	0	32718	32723	32911	32781	32487	32767	33063	32759	
1164	0	32678	32699	32831	32766	32499	32767	32983	32728	
1165	0	32743	32631	32751	32687	32735	32767	32647	32827	
1166	0	32710	32647	32767	32739	32615	32799	32629	32775	
1167	0	32764	32745	32803	32749	32483	32817	32647	32717	
1168	0	32832	32731	32855	32813	32439	32791	32581	32769	
1169	0	32715	32583	32751	32795	32567	32822	32761	32707	
1170	0	32738	32767	32719	32799	32453	32633	32820	32781	
1171	0	32740	32769	32627	32763	32644	32845	32599	32820	
1172	0	32625	32663	32674	32659	32406	32796	32558	32877	
1173	0	32691	32715	32646	32677	32631	32855	32551	32713	
1174	0	32742	32639	32631	32837	32443	32757	32391	32663	
1175	0	32702	32507	32700	32759	32751	32795	32231	32823	
1176	0	32713	32526	32775	32743	32769	32829	32075	32786	
1177	0	32773	32501	32787	32783	32964	32806	32151	32788	
1178	0	32769	32371	32799	32711	32627	32727	32291	32743	
1179	0	32763	32575	32812	32714	32563	32731	32736	32735	
1180	0	32799	32539	32863	32759	32455	32603	32980	32647	
1181	0	32799	32487	32828	32755	32775	32711	33068	32571	
1182	0	32828	32742	32813	32839	32534	32787	33031	32647	
1183	0	32850	32750	32804	32690	32515	32647	33015	32750	
1184	0	32797	32669	32804	32662	32355	32935	32870	32847	
1185	0	32767	32805	32687	32716	32333	32871	32823	32896	
1186	0	32738	32745	32736	32807	32287	32837	32660	32843	
1187	0	32813	32803	32771	32783	32551	32817	32595	32757	
1188	0	32788	32699	32759	32831	32602	32727	32644	32788	
1189	0	32756	32647	32699	32655	33285	32775	32567	32663	
1190	0	32783	32751	32641	32703	33407	32739	32518	32661	
1191	0	32756	32698	32635	32806	33302	32709	32406	32766	
1192	0	32655	32587	32732	32773	33170	32871	32300	32805	
1193	0	32677	32800	32747	32707	32823	32579	32605	32659	
1194	0	32628	32791	32787	32724	32389	32579	32884	32641	
1195	0	32658	32570	32715	32699	32487	32315	33439	32519	
1196	0	32716	32624	32821	32727	32566	32692	33141	32657	
1197	0	32720	32535	32719	32715	32343	32503	32903	32647	
1198	0	32804	32738	32775	32764	32583	32967	33159	32879	
1199	0	32888	32622	32823	32679	32647	33135	32967	32901	
1200	0	32756	32476	32733	32707	32692	32875	32427	32783	
1201	0	32674	32543	32738	32743	32615	32662	32274	32626	
1202	0	32668	32638	32821	32759	32807	32572	32111	32739	
1203	0	32783	32706	32799	32721	33061	32823	32096	32671	
1204	0	32690	32630	32803	32689	33355	32839	32404	32681	
1205	0	32749	32622	32742	32775	33255	32793	31951	32791	
1206	0	32801	32751	32783	32734	32789	32751	32233	32665	
1207	0	32844	32615	32769	32745	32655	32631	32831	32577	
1208	0	32839	32496	32735	32743	32370	32798	32940	32700	
1209	0	32845	32551	32679	32723	32605	32853	32857	32829	
1210	0	32762	32563	32714	32751	32467	32877	32855	32821	
1211	0	32695	32831	32717	32693	32445	32574	32868	32599	
1212	0	32724	32845	32739	32743	32403	32529	32850	32691	
1213	0	32708	32785	32767	32711	32599	32639	32795	32846	
1214	0	32736	32899	32692	32826	32675	32727	32791	32799	
1215	0	32674	32829	32769	32885	32606	32799	32915	32707	
1216	0	32633	32583	32827	32764	32387	32775	32810	32751	
1217	0	32726	32821	32671	32711	32655	32827	32711	32775	
1218	0	32820	32671	32793	32711	32579	32869	32715	32819	
1219	0	32858	32596	32771	32775	32669	32831	32775	32731	
1220	0	32865	32738	32805	32817	32566	32711	32799	32723	
1221	0	32766	32709	32727	32759	32647	32751	32775	32647	
1222	0	32783	32711	32791	32695	32669	32711	32754	32747	
1223	0	32746	32723	32721	32707	32671	32692	32821	32806	
1224	0	32754	32623	32703	32631	32611	32751	32870	32839	
1225	0	32736	32584	32695	32747	32692	32604	32855	32767	
1226	0	32807	32655	32684	32775	32641	32683	32823	32623	
1227	0	32781	32578	32743	32775	32742	32863	32845	32775	
1228	0	32781	32751	32825	32715	32562	32874	32903	32707	
1229	0	32836	32671	32783	32743	32655	32687	32759	32718	
1230	0	32875	32531	32719	32671	32621	32871	32647	32759	
1231	0	32884	32759	32679	32701	32724	32775	32647	32730	
1232	0	32807	32719	32706	32871	32759	32615	32685	32749	
1233	0	32763	32639	32770	32749	32617	32795	32676	32769	
1234	0	32711	32743	32732	32703	32674	32857	32683	32825	
1235	0	32743	32807	32766	32759	32543	32759	32700	32775	
1236	0	32764	32799	32802	32749	32647	32738	32715	32597	
1237	0	32751	32579	32822	32711	32654	32729	32738	32561	
1238	0	32733	32775	32799	32642	32739	32756	32742	32698	
1239	0	32751	32733	32819	32681	32595	32660	32738	32647	
1240	0	32713	32567	32751	32708	32673	32745	32663	32715	
1241	0	32735	32583	32828	32809	32593	32643	32770	32553	
1242	0	32764	32589	32763	32871	32677	32781	32837	32519	
1243	0	32736	32715	32762	32799	32580	32764	32846	32522	
1244	0	32695	32719	32743	32812	32708	32831	32723	32645	
1245	0	32723	32631	32807	32821	32687	32791	32799	32631	
1246	0	32743	32883	32714	32735	32647	32831	32749	32775	
1247	0	32745	32751	32820	32691	32705	32871	32739	32749	
1248	0	32841	32634	32707	32676	32415	32643	32821	32671	
1249	0	32686	32813	32767	32699	32324	32723	32723	32569	
1250	0	32719	32667	32837	32861	31947	32767	32963	32628	
1251	0	32834	32556	32863	32754	32119	32655	32783	32859	
1252	0	32812	32643	32885	32757	32252	32895	32739	32843	
1253	0	32895	32646	32820	32733	32262	32870	32383	32860	
1254	0	32820	32687	32751	32903	32364	32759	32559	32799	
1255	0	32969	32535	32767	32854	32402	32775	33543	32391	
1256	0	32775	32626	32885	32879	32461	32681	33831	32343	
1257	0	32744	32590	32817	32710	33327	32607	34353	32313	
1258	0	32646	32675	32727	32823	33138	32677	34285	32474	
1259	0	32540	32749	32770	32769	33315	32943	32967	32895	
1260	0	32696	32661	32851	32751	32631	33027	32571	33263	
1261	0	32750	32489	32831	32595	32467	32923	32875	33199	
1262	0	32769	32399	32818	32607	32386	32914	33317	32845	
1263	0	32726	32679	32643	32687	32826	32965	33415	32519	
1264	0	32807	32647	32599	33026	32596	32967	31938	32764	
1265	0	32885	32658	32697	33061	32994	33535	31051	33351	
1266	0	32781	32621	32629	32847	32083	32845	31802	32823	
1267	0	32860	32695	32554	32803	32623	32230	32061	32407	
1268	0	32852	32533	32503	32647	33641	32743	30941	32692	
1269	0	32802	32735	32573	32590	33979	32685	30019	32691	
1270	0	32790	32766	32647	32519	33391	32643	31191	32719	
1271	0	32767	32703	32659	32470	33513	32316	32551	32518	
1272	0	32700	32927	32785	32660	33959	32536	33467	32159	
1273	0	32797	32755	32865	32767	33549	32978	32964	32721	
1274	0	32897	32489	33007	32767	32658	32479	33111	32803	
1275	0	32883	32691	32969	32791	32093	32569	33490	32607	
1276	0	32806	32540	32941	32999	32348	32799	32839	32766	
1277	0	32799	32571	32903	32822	32206	32766	31623	32821	
1278	0	32695	32734	32815	32598	31863	32112	31351	32749	
1279	0	32708	32726	32723	32591	32105	32287	33015	32487	
1280	0	32676	32597	32605	32512	32025	32023	33611	32103	
1281	0	32867	32647	32727	32717	31989	32711	33858	32538	
1282	0	32868	32612	32804	33029	31770	32679	33607	32875	
1283	0	32758	32527	32887	32967	31719	32438	33273	32775	
1284	0	32793	32685	32813	32866	32647	32947	33259	32887	
1285	0	32816	32577	32754	33027	32443	32973	33159	32873	
1286	0	32797	32687	32646	32902	32595	33193	33039	33308	
1287	0	32700	32771	32510	32717	32417	32949	32475	33007	
1288	0	32613	32964	32615	32647	33347	32587	32804	32293	
1289	0	32683	32738	32732	32734	33436	32343	32783	32415	
1290	0	32783	32620	32858	32806	33846	33323	32334	32807	
1291	0	32746	32727	32743	32940	33029	32863	33369	32221	
1292	0	32775	32626	32687	32950	32279	32519	32591	32183	
1293	0	32840	32479	32791	32911	32911	32647	31045	32690	
1294	0	32725	32703	32903	32755	33593	33303	31303	33415	
1295	0	32613	32583	32839	32507	33205	33071	31659	33196	
1296	0	32698	32862	32765	32507	33398	32787	32191	32612	
1297	0	32669	32765	32695	32658	34183	32885	31751	32743	
1298	0	32663	32642	32611	32807	33927	32831	31797	32852	
1299	0	32730	32705	32617	32807	33806	33195	31594	32903	
1300	0	32724	32598	32583	32671	32850	32973	32199	32869	
1301	0	32686	32742	32533	32549	32391	32706	32965	32672	
1302	0	32774	32706	32594	32548	31943	32124	33411	32508	
1303	0	32686	32705	32551	32439	32155	32491	32946	32703	
1304	0	32603	32739	32592	32718	32655	32977	33074	32655	
1305	0	32742	32485	32737	33106	32441	32751	33965	32316	
1306	0	32719	32751	32902	33063	31915	32623	34126	32311	
1307	0	32802	32687	32958	33028	32347	32718	33479	32775	
1308	0	32726	32604	32898	32676	32643	32853	32715	33151	
1309	0	32803	32701	32935	32639	32775	33373	32383	32799	
1310	0	32799	32647	32903	32775	32271	33124	33243	32255	
1311	0	32807	32726	32743	32847	31791	32681	33892	32215	
1312	0	32860	32647	32743	33015	31517	32133	33759	32167	
1313	0	32756	32404	32819	32659	32055	32479	33554	32463	
1314	0	32592	32687	32786	32858	32487	32843	33189	32903	
1315	0	32564	32567	32909	32966	32985	32999	32631	32923	
1316	0	32601	32479	32979	32975	32973	32679	33223	32599	
1317	0	32601	32647	32799	32807	33083	32383	32823	32647	
1318	0	32575	32545	32798	32935	33463	32839	32263	32902	
1319	0	32426	32406	32871	32879	32895	32893	32343	32695	
1320	0	32455	32543	32950	32785	32086	32447	33123	32423	
1321	0	32512	32443	32970	32739	31581	31891	33425	32142	
1322	0	32609	32308	32793	32807	31837	32135	32925	32519	
1323	0	32534	32591	32587	32850	32190	33388	31308	33283	
1324	0	32531	32519	32621	32771	32786	33670	30557	33243	
1325	0	32614	32407	32435	32684	33285	33111	31964	32383	
1326	0	32559	32366	32343	32627	33991	32343	32867	31579	
1327	0	32694	32429	32239	32595	33395	32236	32747	32164	
1328	0	32654	32287	32391	32739	32681	32351	32263	32511	
1329	0	32839	32295	32662	32743	33159	33106	31855	32859	
1330	0	32879	32146	32623	32763	33351	33415	31989	32929	
1331	0	32938	32067	32587	33011	33255	32793	32764	32183	
1332	0	32934	32244	32468	32949	32343	32876	33181	32177	
1333	0	33185	31911	32519	32793	31517	31972	33107	32045	
1334	0	33230	31925	32757	32849	31948	32047	33065	32275	
1335	0	33094	31981	33005	32771	32126	33018	32671	33111	
1336	0	33113	32249	33047	32903	32551	33023	32180	33351	
1337	0	33006	32297	32942	32799	32827	33139	33445	33780	
1338	0	33132	32131	33122	32868	32583	33227	34801	33439	
1339	0	33159	32353	33247	32775	31463	32601	35711	32527	
1340	0	33286	32255	33111	32471	31365	32564	35039	32443	
1341	0	33230	32450	33009	32412	32214	32818	33375	33246	
1342	0	33158	32725	32879	32692	32644	33067	31623	32911	
1343	0	33159	32675	32759	32762	33065	32746	31653	31995	
1344	0	33207	32839	32710	32695	32423	32203	32775	31623	
1345	0	33420	32743	32503	32877	33501	32660	31490	32201	
1346	0	33460	32903	32549	32773	32756	32887	31650	32603	
1347	0	33174	33023	32753	32810	32262	32679	33012	32797	
1348	0	32987	33517	32954	32995	31841	32285	34045	32477	
1349	0	33127	33375	33135	32865	32093	32173	34852	32230	
1350	0	32873	33638	33125	32479	32354	32075	34469	32125	
1351	0	32993	33799	33075	32518	32775	33239	32775	32766	
1352	0	32848	33762	33079	32479	32582	33504	29534	33654	
1353	0	32716	33565	32935	32103	33013	33412	28279	34065	
1354	0	32796	33573	32955	31750	33787	33278	30197	33215	
1355	0	33010	33267	32925	32097	34087	33035	31359	32859	
1356	0	32838	33350	32672	32285	33839	32842	31284	32263	
1357	0	32807	33159	32911	32494	33714	32684	31733	32125	
1358	0	32852	33076	33063	33093	34622	33350	31461	32783	
1359	0	32893	33078	33091	33613	33919	32879	31863	32879	
1360	0	32724	33031	32911	33319	32951	31963	33263	32935	
1361	0	32667	33159	32683	33181	32372	32225	34131	32823	
1362	0	32537	32945	32815	32953	31234	31890	34799	32045	
1363	0	32295	33011	32723	32729	31166	32039	34649	32396	
1364	0	32069	32903	32696	32658	31482	32263	34380	33095	
1365	0	32063	32693	32927	32727	31606	32159	33490	33584	
1366	0	32044	32807	32953	32687	31934	32118	33323	32939	
1367	0	31853	32867	32861	32481	32842	32444	33429	32211	
1368	0	31895	32667	32883	32391	33251	32551	33383	32303	
1369	0	32263	32607	32663	32643	33114	32822	33940	32219	
1370	0	32500	32525	32671	32775	33506	32815	32708	32685	
1371	0	32631	32294	32790	32647	33961	33278	31170	32899	
1372	0	32431	32506	32647	32407	32999	32933	31732	32299	
1373	0	32391	32557	32542	32375	31813	32706	31838	32149	
1374	0	32311	32679	32460	32983	31860	32759	32454	32363	
1375	0	32175	32595	32255	33398	32303	32871	32918	32495	
1376	0	32384	32451	32135	33131	31446	32725	33948	32500	
1377	0	32528	32695	32183	32759	31819	32845	33399	32756	
1378	0	32852	32582	32263	32739	31741	32577	33847	32791	
1379	0	32775	32391	32263	32502	32255	32713	33789	32941	
1380	0	32607	32518	32255	32727	32917	32854	33215	32958	
1381	0	32495	32517	32420	33245	34519	32935	32711	33145	
1382	0	32434	32647	32509	33111	35655	33479	32175	32935	
1383	0	32514	32630	32775	32733	34396	32382	31471	32425	
1384	0	32613	32519	33011	32663	33326	32007	31842	32287	
1385	0	32841	32655	33287	32685	33415	31855	31774	31815	
1386	0	33117	32443	33571	32787	33458	32615	31324	31623	
1387	0	33135	32411	33431	32815	33703	33333	31420	33257	
1388	0	32831	32639	33223	32602	33285	33618	31841	33695	
1389	0	32706	32661	33091	32587	32738	33606	32390	33396	
1390	0	32679	32742	32869	32659	32147	33375	33102	32943	
1391	0	32657	32527	32775	32831	32262	33263	33335	32835	
1392	0	32807	32551	32519	32927	32007	33087	33407	32647	
1393	0	32737	32643	32374	32828	32135	32903	33382	32662	
1394	0	32738	32543	32423	32647	31808	32823	33567	32695	
1395	0	32726	32404	32357	32621	31745	32799	33531	32903	
1396	0	32692	32739	32148	32791	32033	33142	33383	32740	
1397	0	32864	32647	32239	32743	32041	33085	33141	32627	
1398	0	32976	32371	32406	32754	32214	33095	32943	32663	
1399	0	32935	32567	32535	32704	32125	33427	32931	32719	
1400	0	32846	32647	32685	32667	32239	33364	32989	32763	
1401	0	32916	32406	32606	32751	32079	32971	32819	32775	
1402	0	32934	32451	32564	32770	32083	32854	32877	32829	
1403	0	32810	32471	32531	32799	31999	32839	33039	32772	
1404	0	32806	32701	32646	32831	32154	32636	32919	32725	
1405	0	32839	32515	32799	32711	32407	32739	32861	32757	
1406	0	32836	32475	32839	32717	32524	32837	32647	32694	
1407	0	32732	32684	32787	32830	32399	32617	32287	32887	
1408	0	32730	32706	32759	32767	32549	32623	32462	32958	
1409	0	32762	32786	32675	32660	32443	32679	32500	32987	
1410	0	32748	32514	32623	32903	32382	32599	32467	32887	
1411	0	32765	32635	32683	33005	32701	32574	32485	33094	
1412	0	32764	32683	32719	32887	32586	32443	33078	32799	
1413	0	32850	32703	32843	32850	32804	32318	33087	32683	
1414	0	32888	32663	32959	32797	32754	32391	33181	32759	
1415	0	32827	32495	32799	32849	32983	32850	32821	32867	
1416	0	32823	32646	32782	32829	32996	32770	32507	32839	
1417	0	32805	32602	32965	32805	32877	32834	32743	32335	
1418	0	32806	32489	33067	32791	32989	32903	32283	32669	
1419	0	32863	32647	33102	32687	33287	32865	31845	32948	
1420	0	32775	32577	33004	32627	33079	32285	32095	32535	
1421	0	32746	32483	32980	32662	32743	31838	32438	32671	
1422	0	32748	32743	32866	32893	32762	32183	32603	32831	
1423	0	32743	32701	32937	32771	32459	32457	32787	32612	
1424	0	32765	32671	32914	32693	32695	32563	32833	32639	
1425	0	32770	32740	32923	32591	32740	32629	32754	32786	
1426	0	32738	32775	32962	32533	32901	32775	32795	32806	
1427	0	32740	32609	32947	32517	32775	32805	32730	32970	
1428	0	32730	32711	32903	32604	32901	32775	32673	33159	
1429	0	32779	32571	32959	32723	32804	32723	32749	33065	
1430	0	32825	32637	32871	32773	32805	32519	33117	32822	
1431	0	32721	32591	32749	32983	32758	32727	33475	32747	
1432	0	32759	32702	32775	33243	32797	32685	33251	32823	
1433	0	32794	32571	32647	33077	32924	32685	33061	32919	
1434	0	32679	32575	32634	32803	32843	32845	33172	32941	
1435	0	32763	32671	32661	32551	32773	32799	32945	32919	
1436	0	32830	32617	32707	32701	32795	32802	32735	32887	
1437	0	32775	32451	32687	32881	33181	32895	31923	32947	
1438	0	32775	32629	32621	32727	32961	32839	31143	32918	
1439	0	32689	32711	32661	32635	32391	32708	32036	32823	
1440	0	32743	32733	32669	32763	32006	32583	32991	32627	
1441	0	32701	32775	32734	32799	32877	32763	33014	32687	
1442	0	32736	32543	32743	32855	32866	32791	32605	32829	
1443	0	32812	32663	32806	32719	32886	32853	32668	32895	
1444	0	32807	32653	32801	32577	32670	32871	32631	32883	
1445	0	32811	32540	32775	32763	32647	32735	32679	32837	
1446	0	32799	32647	32795	32732	32692	32915	32671	32966	
1447	0	32836	32567	32903	32668	32625	32855	32647	32838	
1448	0	32745	32674	32915	32621	32614	32885	32719	32885	
1449	0	32794	32643	32791	32647	32499	32759	32757	32901	
1450	0	32723	32687	32775	32732	32659	32871	32727	32873	
1451	0	32775	32628	32829	32792	32639	32869	32589	32983	
1452	0	32822	32532	32804	32689	32733	32701	32552	32918	
1453	0	32799	32583	32799	32854	32695	32877	32647	32854	
1454	0	32794	32583	32766	32759	32511	32691	32806	32823	
1455	0	32705	32735	32762	32751	32583	32733	32887	32871	
1456	0	32697	32717	32694	32647	32527	32583	32967	32781	
1457	0	32677	32511	32775	32579	32643	32695	32915	32861	
1458	0	32692	32611	32903	32605	32658	32662	32937	32786	
1459	0	32573	32579	32837	32587	32887	32667	32924	32955	
1460	0	32577	32641	32855	32743	32793	32685	32963	32763	
1461	0	32581	32637	32691	32635	32538	32591	32839	32669	
1462	0	32741	32703	32687	32715	32615	32709	32817	32691	
1463	0	32679	32711	32711	32682	32711	32679	32900	32860	
1464	0	32753	32769	32799	32662	32999	32769	32642	32817	
1465	0	32805	32587	32767	32867	33095	32736	32467	32878	
1466	0	32855	32518	32786	32850	32738	32775	32500	32716	
1467	0	32758	32647	32719	32769	32546	32761	32559	32707	
1468	0	32767	32643	32569	32807	32495	32803	32235	32877	
1469	0	32812	32470	32535	32783	32643	32823	32135	32832	
1470	0	32813	32645	32583	32743	32493	32717	32388	32795	
1471	0	32849	32583	32547	32685	32587	32583	32615	32775	
1472	0	32839	32623	32723	32685	32541	32806	32791	32799	
1473	0	32863	32707	32754	32647	32663	32823	32679	32758	
1474	0	32775	32613	32765	32783	32555	32718	32711	32823	
1475	0	32837	32471	32739	32715	32621	32775	32828	32726	
1476	0	32887	32692	32647	32769	32523	32799	32807	32743	
1477	0	32818	32564	32710	32678	32755	32925	32863	32727	
1478	0	32727	32694	32679	32786	32727	32807	32823	32647	
1479	0	32724	32791	32819	32783	32699	32746	32731	32647	
1480	0	32769	32668	32877	32807	32767	32799	32709	32675	
1481	0	32827	32759	32791	32643	32759	32775	32759	32731	
1482	0	32762	32871	32643	32717	32783	32621	32796	32735	
1483	0	32697	32703	32711	32739	32843	32737	32729	32751	
1484	0	32591	32735	32652	32791	32883	32803	32705	32727	
1485	0	32671	32887	32703	32703	32610	32628	32762	32706	
1486	0	32747	32749	32802	32789	32725	32803	32807	32757	
1487	0	32678	32562	32858	32837	32658	32799	32775	32743	
1488	0	32740	32583	32857	32743	32827	32695	32759	32681	
1489	0	32815	32511	32759	32822	32767	32723	32871	32663	
1490	0	32775	32663	32803	32657	32735	32754	32749	32743	
1491	0	32804	32705	32647	32591	32807	32644	32715	32691	
1492	0	32751	32491	32692	32773	32635	32855	32771	32775	
1493	0	32759	32671	32818	32843	32753	32823	32727	32795	
1494	0	32685	32533	32887	32839	32802	32823	32673	32815	
1495	0	32748	32635	32998	32818	32615	32685	32647	32919	
1496	0	32710	32519	32839	32917	32628	32845	32681	32867	
1497	0	32694	32605	32606	32877	32540	32866	32631	32956	
1498	0	32685	32671	32613	32679	32645	32623	32739	32823	
1499	0	32719	32581	32765	32692	32449	32709	32871	32663	
1500	0	32653	32687	32711	32759	32647	32775	32671	32738	
1501	0	32713	32647	32695	32839	32575	32701	32765	32798	
1502	0	32791	32610	32583	32773	32699	32747	32663	32621	
1503	0	32807	32640	32767	32731	32609	32663	32551	32595	
1504	0	32807	32548	32835	32727	32599	32707	32756	32679	
1505	0	32794	32751	32794	32787	32447	32703	32695	32551	
1506	0	32844	32711	32773	32773	32613	32691	32711	32603	
1507	0	32821	32767	32719	32711	32567	32875	32598	32620	
1508	0	32894	32588	32642	32679	32739	32877	32635	32791	
1509	0	32872	32481	32548	32684	32525	32703	32749	32775	
1510	0	32763	32671	32602	32775	32687	32813	32914	32785	
1511	0	32734	32707	32607	32817	32719	32803	32687	32805	
1512	0	32728	32583	32659	32685	32697	32855	32369	32819	
1513	0	32755	32790	32714	32759	32631	32799	32388	32695	
1514	0	32703	32647	32747	32655	32573	32740	32566	32577	
1515	0	32863	32707	32759	32501	32661	32831	32623	32615	
1516	0	32875	32582	32713	32571	32610	32727	32797	32654	
1517	0	32903	32519	32742	32943	32628	32764	32769	32687	
1518	0	32791	32723	32640	32943	32681	32855	32687	32693	
1519	0	32741	32685	32743	32820	32702	32703	32703	32679	
1520	0	32759	32491	32828	32743	32615	32689	32831	32686	
1521	0	32684	32715	32802	32647	32740	32821	32663	32719	
1522	0	32668	32737	32823	32699	32663	32679	32675	32771	
1523	0	32639	32847	32727	32813	32770	32739	32503	32831	
1524	0	32561	32723	32647	32751	32699	32879	32554	32823	
1525	0	32599	32513	32619	32726	32743	32727	32647	32806	
1526	0	32724	32679	32617	32767	32598	32809	32702	32815	
1527	0	32826	32687	32633	32647	32617	32884	32873	32699	
1528	0	32768	32423	32617	32675	32511	32727	32963	32695	
1529	0	32784	32589	32719	32839	32571	32811	32775	32665	
1530	0	32875	32525	32791	32861	32434	32893	32667	32839	
1531	0	32849	32711	32903	32775	32687	32772	32499	32746	
1532	0	32866	32721	33004	32775	32638	32929	32662	32709	
1533	0	32799	32867	32975	32807	32678	32863	32647	32726	
1534	0	32714	32724	32963	32733	32669	32677	32615	32639	
1535	0	32751	32515	32764	32727	32637	32795	32671	32667	
1536	0	32786	32743	32543	32663	32637	32735	32659	32775	
1537	0	32791	32767	32732	32727	32652	32615	32763	32783	
1538	0	32818	32548	32711	32775	32571	32757	32839	32709	
1539	0	32858	32583	32738	32775	32434	32763	32865	32676	
1540	0	32822	32607	32685	32685	32583	32623	32927	32570	
1541	0	32743	32807	32708	32743	32461	32703	32732	32570	
1542	0	32743	32595	32695	32829	32699	32745	32669	32695	
1543	0	32778	32475	32567	32783	32630	32814	32577	32669	
1544	0	32729	32591	32595	32826	32767	32887	32553	32709	
1545	0	32775	32489	32631	32836	32710	32679	32597	32658	
1546	0	32759	32532	32623	32802	32524	32837	32543	32743	
1547	0	32846	32503	32680	32847	32551	32812	32615	32716	
1548	0	32828	32671	32761	32855	32411	32789	32567	32675	
1549	0	32729	32695	32746	32775	32489	32731	32607	32625	
1550	0	32763	32789	32751	32727	32391	32799	32653	32535	
1551	0	32836	32775	32773	32747	32557	32745	32633	32671	
1552	0	32762	32620	32885	32825	32575	32843	32711	32705	
1553	0	32662	32662	32831	32847	32533	32756	32663	32716	
1554	0	32750	32543	32813	32870	32543	32787	32797	32589	
1555	0	32740	32643	32939	32767	32519	32662	32827	32482	
1556	0	32687	32541	32881	32717	32491	32735	32841	32579	
1557	0	32722	32687	32873	32676	32410	32677	32847	32519	
1558	0	32722	32739	32843	32647	32599	32660	32839	32606	
1559	0	32759	32679	32783	32751	32429	32795	32827	32577	
1560	0	32795	32663	32854	32887	32619	32607	32821	32511	
1561	0	32745	32534	32829	32811	32471	32635	32731	32540	
1562	0	32758	32627	32799	32839	32646	32756	32734	32543	
1563	0	32756	32518	32726	32835	32707	32756	32719	32626	
1564	0	32692	32727	32775	32839	32647	32775	32756	32589	
1565	0	32644	32519	32789	32751	32615	32727	32758	32689	
1566	0	32647	32747	32729	32813	32463	32859	32775	32701	
1567	0	32623	32749	32660	32731	32711	32775	32796	32775	
1568	0	32574	32892	32771	32765	32559	32763	32885	32695	
1569	0	32687	32811	32799	32823	32643	32811	32903	32583	
1570	0	32688	32915	32795	32855	32674	32719	32839	32734	
1571	0	32719	32711	32774	32775	32639	32804	32764	32687	
1572	0	32674	32549	32789	32775	32639	32869	32720	32617	
1573	0	32640	32671	32839	32740	32621	32903	32621	32695	
1574	0	32621	32485	32763	32759	32762	32927	32554	32647	
1575	0	32771	32647	32727	32799	32552	32841	32541	32588	
1576	0	32959	32543	32707	32780	32655	32871	32581	32676	
1577	0	32929	32614	32707	32747	32647	32773	32723	32619	
1578	0	33031	32583	32782	32719	32732	32658	32837	32514	
1579	0	33030	32697	32767	32691	32724	32801	33030	32415	
1580	0	32941	32647	32773	32722	32619	32621	32999	32608	
1581	0	32903	32747	32772	32739	32695	32739	32919	32605	
1582	0	32886	32471	32807	32723	32762	32837	32839	32553	
1583	0	32820	32741	32790	32775	32791	32708	32687	32591	
1584	0	32801	32749	32758	32757	32775	32751	32534	32695	
1585	0	32751	32922	32769	32775	32631	32647	32503	32677	
1586	0	32719	32879	32769	32751	32755	32733	32466	32709	
1587	0	32768	32863	32742	32727	32535	32628	32531	32647	
1588	0	32703	32631	32759	32732	32685	32457	32511	32659	
1589	0	32743	32391	32721	32743	32499	32471	32588	32647	
1590	0	32668	32595	32684	32818	32566	32459	32660	32631	
1591	0	32709	32493	32665	32695	32387	32308	32730	32605	
1592	0	32817	32405	32706	32670	32558	32447	32711	32647	
1593	0	32870	32500	32711	32726	32455	32402	32543	32589	
1594	0	32927	32443	32891	32771	32530	32495	32551	32595	
1595	0	32908	32707	32845	32764	32403	32378	32583	32555	
1596	0	32841	32545	32871	32699	32607	32449	32635	32669	
1597	0	32797	32470	32821	32718	32471	32534	32661	32639	
1598	0	32694	32647	32745	32679	32548	32500	32791	32673	
1599	0	32621	32647	32741	32821	32571	32639	32745	32730	
1600	0	32692	32611	32819	32731	32411	32756	32743	32709	
1601	0	32698	32773	32759	32708	32562	32535	32671	32745	
1602	0	32685	32685	32716	32747	32423	32764	32663	32686	
1603	0	32722	32587	32671	32763	32527	32791	32647	32667	
1604	0	32822	32851	32683	32727	32431	32853	32743	32679	
1605	0	32873	32820	32738	32759	32493	32797	32903	32615	
1606	0	32954	32663	32769	32807	32372	32899	32871	32563	
1607	0	32943	32698	32773	32866	32430	32955	32899	32559	
1608	0	32911	32621	32843	32798	32452	32935	32847	32513	
1609	0	32880	32725	32727	32801	32439	33063	32847	32477	
1610	0	32740	32639	32655	32785	32347	33015	32711	32439	
1611	0	32731	32556	32663	32749	32559	33014	32736	32391	
1612	0	32802	32704	32723	32748	32500	32914	32749	32275	
1613	0	32726	32631	32727	32690	32610	32918	32734	32247	
1614	0	32653	32591	32735	32687	32543	33003	32734	32279	
1615	0	32681	32677	32799	32738	32567	32879	32785	32131	
1616	0	32721	32572	32854	32802	32570	33126	32775	32045	
1617	0	32773	32683	32887	32762	32535	33053	32668	32164	
1618	0	32784	32707	32767	32727	32603	33047	32643	32255	
1619	0	32786	32743	32813	32803	32375	33027	32641	32313	
1620	0	32786	32639	32814	32748	32516	32959	32695	32375	
1621	0	32751	32461	32815	32743	32378	33023	32694	32517	
1622	0	32824	32658	32837	32743	32459	32877	32708	32554	
1623	0	32745	32523	32885	32711	32415	33096	32706	32631	
1624	0	32787	32773	32809	32761	32519	33111	32702	32623	
1625	0	32765	32647	32727	32790	32462	32942	32675	32463	
1626	0	32775	32586	32722	32822	32615	33021	32771	32469	
1627	0	32743	32803	32727	32717	32733	33087	33268	32585	
1628	0	32763	32695	32847	32815	32827	32983	33387	32773	
1629	0	32761	32547	32879	32861	32837	32997	33378	32814	
1630	0	32756	32749	32708	32797	32791	32991	33379	32887	
1631	0	32767	32709	32687	32655	32832	33083	33167	32928	
1632	0	32855	32499	32733	32795	32839	33091	33103	32869	
1633	0	32821	32711	32717	32726	32771	32935	32916	32919	
1634	0	32825	32663	32775	32866	32605	32938	32770	32935	
1635	0	32815	32519	32715	32749	32709	32890	32635	33013	
1636	0	32804	32646	32709	32879	32635	32955	32621	32977	
1637	0	32751	32655	32663	32791	32765	32854	32575	32927	
1638	0	32748	32487	32724	32769	32684	32739	32406	33047	
1639	0	32703	32719	32751	32653	32863	32874	32350	32982	
1640	0	32740	32739	32706	32646	32761	32764	32362	32950	
1641	0	32743	32415	32634	32727	32882	32637	32367	33063	
1642	0	32729	32679	32708	32687	32724	32822	32381	33045	
1643	0	32754	32579	32687	32639	32831	32895	32431	32980	
1644	0	32830	32448	32743	32643	32845	32658	32503	32935	
1645	0	32812	32659	32732	32745	32775	32705	32527	32943	
1646	0	32775	32679	32737	32743	32765	32706	32575	33083	
1647	0	32797	32696	32738	32663	32799	32577	32523	33009	
1648	0	32839	32613	32837	32669	32695	32811	32863	32959	
1649	0	32784	32507	32879	32647	32647	32740	32574	33023	
1650	0	32775	32673	32967	32631	32670	32623	32550	32983	
1651	0	32745	32639	32895	32687	32587	32741	32487	32918	
1652	0	32765	32495	32837	32799	32691	32823	32375	32860	
1653	0	32767	32719	32791	32836	32775	32764	32295	32831	
1654	0	32764	32578	32847	32836	32825	32683	32162	32844	
1655	0	32710	32599	32723	32703	32754	32703	32156	32847	
1656	0	32679	32745	32727	32751	32756	32699	32343	32739	
1657	0	32697	32631	32724	32699	32711	32723	32543	32791	
1658	0	32647	32727	32757	32746	32587	32598	32567	32951	
1659	0	32635	32814	32820	32701	32795	32789	32613	32991	
1660	0	32772	32631	32750	32767	32543	32719	32532	32947	
1661	0	32797	32529	32823	32692	32751	32574	32498	32854	
1662	0	32879	32691	32837	32783	32575	32683	32621	32847	
1663	0	32799	32527	32799	32795	32679	32610	32631	32890	
1664	0	32775	32596	32831	32745	32657	32751	32511	32903	
1665	0	32827	32775	32877	32677	32730	32766	32559	32839	
1666	0	32744	32679	32817	32797	32677	32738	32438	32843	
1667	0	32751	32700	32695	32695	32759	32623	32535	32869	
1668	0	32742	32485	32759	32663	32727	32731	32503	32871	
1669	0	32725	32789	32681	32719	32631	32572	32385	32871	
1670	0	32664	32775	32703	32741	32703	32795	32519	32941	
1671	0	32736	32639	32659	32677	32583	32770	32449	32979	
1672	0	32757	32679	32594	32659	32751	32647	32561	32967	
1673	0	32774	32663	32613	32598	32687	32643	32629	32853	
1674	0	32745	32515	32629	32679	32807	32731	32742	32809	
1675	0	32863	32711	32691	32835	32621	32514	32798	32765	
1676	0	32876	32631	32791	32775	32719	32623	32763	32633	
1677	0	32839	32764	32751	32733	32587	32726	32733	32767	
1678	0	32804	32699	32767	32733	32822	32769	32854	32728	
1679	0	32886	32711	32996	32718	32821	32765	32892	32730	
1680	0	32871	32560	32899	32878	32829	32711	32865	32695	
1681	0	32797	32644	32765	32819	32869	32511	32811	32786	
1682	0	32775	32612	32807	32759	32838	32711	32742	32743	
1683	0	32686	32871	32867	32727	32823	32702	32613	32827	
1684	0	32673	32791	32895	32701	32823	32611	32737	32783	
1685	0	32691	32851	32855	32773	32791	32603	32854	32807	
1686	0	32701	32695	32938	32839	32703	32627	32671	32791	
1687	0	32751	32787	32820	32762	32647	32811	32803	32775	
1688	0	32780	32638	32741	32737	32876	32729	32811	32710	
1689	0	32873	32647	32790	32786	32847	32675	32879	32770	
1690	0	32858	32699	32775	32759	32785	32691	32895	32711	
1691	0	32805	32503	32845	32703	32723	32694	32854	32719	
1692	0	32826	32479	32839	32675	32663	32559	32742	32674	
1693	0	32813	32621	32767	32639	32807	32763	32782	32682	
1694	0	32769	32633	32767	32764	32706	32726	32803	32799	
1695	0	32796	32495	32841	32742	32887	32535	32850	32795	
1696	0	32775	32535	32813	32743	32879	32743	32828	32679	
1697	0	32746	32557	32847	32738	32876	32717	32871	32591	
1698	0	32751	32439	32813	32850	32763	32525	32783	32628	
1699	0	32710	32738	32775	32871	32918	32729	32725	32597	
1700	0	32745	32720	32803	32839	32847	32748	32731	32631	
1701	0	32796	32647	32751	32787	32835	32642	32743	32745	
1702	0	32731	32686	32763	32789	32803	32769	32783	32866	
1703	0	32802	32611	32775	32762	32803	32751	32809	32811	
1704	0	32903	32679	32791	32812	32713	32611	32884	32767	
1705	0	32844	32647	32767	32839	32767	32715	32916	32677	
1706	0	32820	32630	32763	32799	32622	32775	32757	32725	
1707	0	32796	32773	32711	32823	32771	32647	32700	32669	
1708	0	32746	32795	32765	32805	32647	32831	32703	32690	
1709	0	32775	32573	32711	32837	32748	32826	32791	32693	
1710	0	32807	32771	32679	32749	32563	32687	32879	32687	
1711	0	32813	32695	32753	32708	32837	32741	32903	32631	
1712	0	32796	32670	32811	32710	32655	32637	32695	32711	
1713	0	32811	32807	32731	32667	32759	32815	32678	32722	
1714	0	32703	32711	32631	32687	32605	32788	32775	32627	
1715	0	32663	32669	32676	32775	32855	32598	32799	32697	
1716	0	32675	32837	32787	32762	32666	32799	32775	32679	
1717	0	32702	32767	32873	32719	32882	32751	32718	32695	
1718	0	32647	32717	32786	32805	32748	32623	32631	32631	
1719	0	32759	32876	32711	32885	32859	32810	32631	32678	
1720	0	32699	32715	32722	32803	32791	32798	32703	32655	
1721	0	32812	32563	32756	32852	32694	32615	32852	32637	
1722	0	32883	32735	32775	32790	32465	32679	32950	32595	
1723	0	32859	32647	32833	32831	32655	32707	32820	32627	
1724	0	32743	32613	32769	32855	32644	32659	32884	32626	
1725	0	32758	32718	32677	32866	32806	32694	32817	32687	
1726	0	32799	32739	32699	32811	32631	32791	32810	32615	
1727	0	32759	32850	32627	32669	32729	32877	32941	32647	
1728	0	32725	32639	32695	32676	32635	32903	32847	32791	
1729	0	32806	32739	32749	32758	32833	32765	32727	32767	
1730	0	32792	32627	32726	32775	32809	32748	32847	32711	
1731	0	32855	32715	32679	32671	32775	32790	32948	32703	
1732	0	32807	32739	32773	32754	32775	32813	32831	32690	
1733	0	32786	32721	32815	32751	32731	32797	32807	32679	
1734	0	32748	32763	32762	32727	32647	32667	32799	32583	
1735	0	32700	32631	32807	32767	32739	32810	32859	32621	
1736	0	32684	32815	32769	32639	32800	32823	32738	32605	
1737	0	32677	32731	32723	32759	32835	32639	32614	32727	
1738	0	32669	32810	32729	32838	32727	32767	32791	32642	
1739	0	32666	32679	32705	32791	32695	32765	32871	32613	
1740	0	32671	32630	32667	32815	32553	32603	32836	32694	
1741	0	32633	32885	32599	32786	32711	32783	32823	32638	
1742	0	32633	32855	32646	32707	32621	32802	32717	32687	
1743	0	32751	32980	32679	32790	32797	32757	32711	32715	
1744	0	32778	32799	32715	32732	32723	32711	32748	32690	
1745	0	32733	32684	32759	32813	32865	32691	32751	32798	
1746	0	32699	32900	32807	32699	32721	32823	32758	32734	
1747	0	32756	32919	32759	32790	32871	32719	32775	32609	
1748	0	32765	32667	32708	32967	32734	32722	32736	32587	
1749	0	32659	32823	32735	32694	32773	32679	32723	32615	
1750	0	32806	32775	32748	32805	32591	32823	32914	32591	
1751	0	32730	32551	32775	32801	32695	32822	32871	32743	
1752	0	32663	32750	32811	32738	32574	32695	32839	32735	
1753	0	32705	32683	32721	32679	32775	32727	32799	32791	
1754	0	32693	32539	32732	32810	32684	32807	32756	32723	
1755	0	32700	32799	32801	32804	32683	32767	32762	32687	
1756	0	32781	32647	32711	32827	32711	32775	32903	32677	
1757	0	32748	32572	32598	32643	32767	32812	32839	32686	
1758	0	32772	32763	32671	32647	32715	32737	32850	32713	
1759	0	32775	32767	32749	32871	32734	32787	32882	32594	
1760	0	32677	32685	32746	32830	32687	32682	32805	32639	
1761	0	32674	32710	32677	32841	32655	32743	32775	32635	
1762	0	32689	32703	32742	32687	32722	32814	32671	32691	
1763	0	32642	32535	32730	32784	32743	32741	32615	32795	
1764	0	32661	32759	32749	32763	32727	32860	32645	32756	
1765	0	32814	32647	32775	32833	32679	32839	32823	32799	
1766	0	32744	32549	32863	32757	32713	32668	32798	32805	
1767	0	32665	32591	32823	32687	32719	32804	32759	32715	
1768	0	32620	32545	32923	32609	32473	32866	32808	32871	
1769	0	32581	32702	32956	32548	32579	32837	32874	32775	
1770	0	32567	32634	32959	32634	32588	32706	32805	32701	
1771	0	32634	32647	32839	32835	32686	32815	32767	32669	
1772	0	32655	32525	32786	32903	32759	32828	32631	32703	
1773	0	32628	32551	32721	32913	32719	32644	32567	32673	
1774	0	32617	32773	32743	32834	32644	32775	32419	32770	
1775	0	32677	32593	32671	32757	32645	32791	32611	32711	
1776	0	32753	32369	32721	32763	32615	32637	32786	32734	
1777	0	32860	32525	32607	32839	32734	32685	32799	32671	
1778	0	32973	32439	32572	32823	32692	32715	32813	32679	
1779	0	32932	32309	32511	32862	32719	32558	32844	32655	
1780	0	32951	32401	32602	32797	32514	32759	32839	32642	
1781	0	32966	32255	32617	32839	32660	32694	32775	32635	
1782	0	32946	32319	32659	32839	32508	32686	32749	32711	
1783	0	32935	32186	32727	32807	32727	32727	32757	32693	
1784	0	32948	32314	32655	32732	32740	32637	32789	32703	
1785	0	32888	32285	32607	32823	32781	32708	32749	32674	
1786	0	32890	32135	32551	32858	32775	32807	32629	32628	
1787	0	32839	32230	32691	32833	32827	32663	32604	32749	
1788	0	32751	32243	32775	32727	32791	32833	32563	32743	
1789	0	32885	32167	32743	32694	32760	32715	32606	32775	
1790	0	32918	32143	32723	32722	32691	32855	32665	32723	
1791	0	33050	31961	32647	32823	32718	32823	32788	32671	
1792	0	33121	32161	32713	32775	32606	32759	32706	32633	
1793	0	33199	31927	32812	32802	32642	32613	32703	32604	
1794	0	33317	31943	32896	32823	32647	32723	32695	32598	
1795	0	33322	31799	32711	32805	32740	32827	32583	32683	
1796	0	33321	31987	32721	32775	32705	32647	32655	32703	
1797	0	33312	32100	32783	32863	32687	32796	32655	32782	
1798	0	33357	32031	32845	32775	32662	32823	32731	32751	
1799	0	33300	32134	32902	32735	32687	32647	32741	32711	
1800	0	33232	32285	32810	32711	32623	32847	32679	32711	
1801	0	33143	32443	32738	32695	32663	32826	32743	32687	
1802	0	33140	32491	32727	32838	32501	32647	32765	32629	
1803	0	33115	32549	32685	32810	32692	32775	32727	32790	
1804	0	32998	32891	32681	32786	32615	32815	32636	32805	
1805	0	33084	32868	32716	32770	32695	32791	32587	32751	
1806	0	33010	32711	32730	32679	32506	32735	32663	32803	
1807	0	33127	32980	32803	32738	32765	32662	32634	32775	
1808	0	33186	32817	32759	32771	32628	32791	32717	32711	
1809	0	33209	32805	32741	32647	32750	32671	32711	32647	
1810	0	33114	33061	32719	32631	32556	32759	32737	32734	
1811	0	33069	32941	32791	32642	32591	32739	32826	32719	
1812	0	32941	32935	32795	32668	32412	32603	32647	32679	
1813	0	32855	33111	32910	32701	32642	32797	32636	32702	
1814	0	32784	32935	32844	32668	32493	32787	32607	32743	
1815	0	32647	33063	32775	32749	32694	32676	32647	32852	
1816	0	32724	32961	32851	32759	32576	32718	32679	32738	
1817	0	32663	33019	32822	32861	32609	32771	32714	32756	
1818	0	32654	33010	32879	32839	32490	32775	32751	32850	
1819	0	32719	33204	32946	32753	32695	32799	32629	32815	
1820	0	32604	32999	32839	32762	32647	32885	32547	32855	
1821	0	32647	32977	32849	32841	32647	32675	32558	32767	
1822	0	32676	33101	32892	32767	32561	32767	32615	32676	
1823	0	32617	32940	32933	32660	32727	32751	32663	32684	
1824	0	32550	32963	32775	32727	32691	32647	32701	32623	
1825	0	32626	32991	32893	32733	32738	32723	32754	32660	
1826	0	32662	32867	32826	32734	32543	32735	32765	32748	
1827	0	32522	32901	32759	32686	32695	32837	32773	32751	
1828	0	32316	33159	32743	32713	32581	32621	32669	32738	
1829	0	32285	33159	32788	32775	32735	32877	32671	32703	
1830	0	32320	32867	32799	32772	32719	32799	32727	32695	
1831	0	32207	33207	32806	32711	32535	32762	32775	32727	
1832	0	32184	33069	32782	32775	32733	32714	32775	32823	
1833	0	32071	33073	32783	32755	32540	32769	32743	32757	
1834	0	32031	33309	32797	32727	32829	32667	32583	32617	
1835	0	32068	33072	32754	32669	32646	32719	32647	32675	
1836	0	32047	33150	32827	32693	32727	32715	32796	32739	
1837	0	32080	32941	32845	32743	32756	32794	32764	32741	
1838	0	31979	33127	32727	32713	32623	32791	32799	32669	
1839	0	31974	33039	32679	32774	32718	32727	32607	32724	
1840	0	32105	32943	32730	32735	32676	32845	32621	32775	
1841	0	32146	33028	32747	32759	32717	32735	32593	32758	
1842	0	32170	32999	32711	32775	32475	32676	32875	32647	
1843	0	32343	32743	32749	32813	32642	32772	32783	32695	
1844	0	32380	32983	32806	32815	32507	32763	32677	32727	
1845	0	32400	32918	32703	32839	32715	32827	32693	32663	
1846	0	32293	32903	32687	32783	32615	32703	32729	32724	
1847	0	32288	32775	32774	32692	32722	32732	32775	32703	
1848	0	32271	32826	32815	32747	32643	32743	32725	32702	
1849	0	32362	32943	32839	32703	32727	32603	32677	32629	
1850	0	32306	32804	32852	32797	32747	32769	32771	32702	
1851	0	32409	32823	32971	32703	32738	32749	32839	32722	
1852	0	32471	32964	32875	32727	32643	32661	32807	32705	
1853	0	32483	32789	32783	32759	32599	32775	32773	32671	
1854	0	32554	32803	32858	32775	32740	32791	32765	32683	
1855	0	32540	32999	32809	32687	32532	32711	32698	32835	
1856	0	32532	32973	32821	32725	32759	32809	32722	32775	
1857	0	32541	32915	32820	32679	32579	32807	32863	32808	
1858	0	32599	32981	32723	32622	32783	32775	32865	32812	
1859	0	32569	32903	32681	32679	32643	32812	32851	32780	
1860	0	32647	32743	32715	32613	32727	32831	32871	32655	
1861	0	32694	32848	32897	32679	32558	32698	32887	32619	
1862	0	32793	32791	32795	32733	32698	32704	32718	32675	
1863	0	32932	32799	32771	32674	32551	32741	32674	32647	
1864	0	32913	32695	32847	32711	32749	32690	32738	32719	
1865	0	32978	32665	32835	32647	32559	32775	32758	32743	
1866	0	33039	32679	32871	32692	32702	32783	32719	32759	
1867	0	33087	32503	32832	32727	32595	32796	32815	32658	
1868	0	33083	32403	32829	32745	32666	32743	32773	32684	
1869	0	32997	32625	32775	32735	32620	32647	32645	32801	
1870	0	33000	32567	32757	32735	32594	32702	32743	32670	
1871	0	33037	32676	32794	32675	32467	32845	32702	32701	
1872	0	32931	32509	32871	32761	32623	32818	32863	32751	
1873	0	32962	32495	32839	32773	32495	32663	32831	32763	
1874	0	32985	32621	32822	32783	32613	32767	32839	32631	
1875	0	32854	32535	32829	32772	32615	32783	32838	32676	
1876	0	32806	32475	32839	32793	32675	32579	32759	32663	
1877	0	32863	32527	32806	32771	32675	32751	32679	32755	
1878	0	32949	32458	32749	32865	32799	32719	32597	32626	
1879	0	32978	32285	32754	32851	32663	32671	32647	32571	
1880	0	32876	32439	32711	32719	32820	32676	32661	32695	
1881	0	32978	32341	32754	32831	32735	32612	32802	32614	
1882	0	32974	32207	32759	32847	32799	32790	32806	32673	
1883	0	33003	32391	32673	32767	32829	32767	32679	32671	
1884	0	32903	32359	32669	32647	32563	32839	32647	32775	
1885	0	32893	32407	32671	32679	32661	32815	32726	32775	
1886	0	32959	32244	32695	32695	32535	32730	32723	32749	
1887	0	32967	32439	32643	32674	32687	32822	32767	32745	
1888	0	33014	32407	32615	32885	32735	32615	32749	32769	
1889	0	33030	32163	32719	32825	32655	32775	32609	32758	
1890	0	33115	32389	32727	32759	32679	32813	32621	32673	
1891	0	33031	32399	32694	32871	32607	32805	32663	32751	
1892	0	32949	32387	32663	32815	32725	32839	32705	32767	
1893	0	32890	32503	32662	32775	32609	32703	32839	32694	
1894	0	32930	32421	32647	32739	32733	32687	32636	32643	
1895	0	32828	32497	32674	32850	32619	32713	32647	32603	
1896	0	32765	32391	32701	32775	32721	32685	32727	32599	
1897	0	32811	32323	32771	32791	32615	32669	32807	32660	
1898	0	32802	32501	32822	32675	32765	32687	32834	32699	
1899	0	32857	32443	32827	32802	32796	32807	32815	32756	
1900	0	32758	32415	32771	32751	32503	32818	32735	32739	
1901	0	32730	32671	32763	32715	32647	32733	32815	32727	
1902	0	32789	32530	32711	32687	32695	32769	32763	32749	
1903	0	32812	32519	32684	32761	32863	32679	32655	32851	
1904	0	32860	32679	32687	32823	32583	32815	32533	32756	
1905	0	32896	32588	32647	32803	32796	32827	32539	32663	
1906	0	32834	32527	32662	32749	32947	32677	32434	32698	
1907	0	32799	32615	32599	32735	32525	32703	32436	32643	
1908	0	32799	32693	32705	32790	32599	32775	32751	32623	
1909	0	32873	32524	32663	32758	32327	32660	32863	32727	
1910	0	32898	32732	32767	32725	32559	32902	32783	32715	
1911	0	32782	32747	32795	32718	32475	32771	32751	32742	
1912	0	32836	32679	32846	32787	32677	32795	32754	32843	
1913	0	32806	32706	32844	32743	32493	32687	32887	32731	
1914	0	32839	32726	32773	32749	32738	32711	32631	32671	
1915	0	32823	32751	32747	32671	32748	32807	32595	32743	
1916	0	32772	32767	32763	32775	32791	32660	32621	32709	
1917	0	32759	32527	32877	32720	32775	32820	32691	32679	
1918	0	32804	32735	32863	32729	32727	32735	32762	32751	
1919	0	32807	32711	32900	32677	32815	32799	32868	32647	
1920	0	32711	32593	32917	32668	32759	32662	32855	32647	
1921	0	32775	32607	32834	32767	32743	32805	32839	32783	
1922	0	32738	32443	32755	32775	32804	32638	32820	32742	
1923	0	32812	32543	32710	32810	32709	32706	32727	32739	
1924	0	32774	32570	32643	32756	32751	32612	32682	32718	
1925	0	32735	32798	32679	32647	32743	32797	32671	32755	
1926	0	32749	32681	32825	32743	32765	32765	32748	32683	
1927	0	32773	32655	32801	32799	32647	32663	32850	32623	
1928	0	32804	32803	32837	32805	32707	32743	32861	32699	
1929	0	32732	32690	32787	32827	32731	32699	32827	32703	
1930	0	32770	32821	32818	32723	32677	32783	32791	32741	
1931	0	32770	32830	32787	32767	32588	32663	32711	32713	
1932	0	32743	32673	32773	32793	32723	32799	32698	32703	
1933	0	32745	32641	32727	32807	32573	32787	32732	32775	
1934	0	32725	32713	32849	32734	32702	32663	32743	32767	
1935	0	32756	32797	32867	32707	32519	32851	32855	32767	
1936	0	32706	32681	32829	32640	32707	32825	32763	32733	
1937	0	32759	32508	32851	32775	32567	32658	32754	32788	
1938	0	32743	32576	32807	32854	32699	32729	32715	32655	
1939	0	32756	32493	32790	32925	32743	32793	32769	32804	
1940	0	32734	32660	32775	32843	32758	32783	32795	32742	
1941	0	32707	32629	32711	32743	32743	32591	32753	32719	
1942	0	32748	32847	32703	32691	32763	32751	32605	32743	
1943	0	32717	32815	32715	32706	32887	32691	32585	32647	
1944	0	32692	32679	32715	32683	32803	32807	32621	32751	
1945	0	32658	32835	32735	32702	32786	32877	32639	32773	
1946	0	32653	32641	32711	32759	32623	32820	32662	32791	
1947	0	32695	32753	32821	32743	32749	32733	32689	32730	
1948	0	32722	32615	32802	32767	32759	32797	32761	32677	
1949	0	32733	32765	32711	32788	32765	32596	32711	32767	
1950	0	32766	32764	32767	32729	32710	32786	32836	32679	
1951	0	32763	32775	32751	32677	32487	32721	32826	32681	
1952	0	32798	32719	32743	32717	32630	32801	32862	32643	
1953	0	32667	32871	32559	32751	32579	32796	32863	32621	
1954	0	32640	32813	32619	32845	32732	32647	32831	32729	
1955	0	32786	32587	32765	32765	32669	32802	32819	32742	
1956	0	32750	32829	32759	32804	32659	32786	32775	32807	
1957	0	32766	32753	32707	32811	32671	32786	32755	32739	
1958	0	32826	32709	32775	32735	32534	32665	32679	32676	
1959	0	32788	32561	32714	32793	32687	32708	32715	32702	
1960	0	32812	32735	32727	32749	32635	32701	32775	32679	
1961	0	32782	32703	32743	32711	32863	32758	32791	32679	
1962	0	32703	32813	32727	32671	33023	32663	32775	32647	
1963	0	32684	32799	32859	32741	32918	32819	32668	32757	
1964	0	32707	32667	32851	32749	32925	32827	32673	32717	
1965	0	32673	32694	32802	32757	32835	32705	32799	32743	
1966	0	32705	32687	32727	32735	32821	32810	32783	32729	
1967	0	32709	32827	32647	32796	32697	32703	32751	32647	
1968	0	32685	32685	32635	32711	32703	32846	32700	32631	
1969	0	32673	32845	32797	32835	32595	32665	32709	32667	
1970	0	32750	32647	32799	32708	32599	32815	32783	32771	
1971	0	32895	32484	32759	32710	32487	32807	32668	32735	
1972	0	32859	32617	32815	32707	32662	32557	32730	32711	
1973	0	32839	32594	32903	32764	32629	32763	32751	32711	
1974	0	32786	32735	32878	32767	32710	32724	32740	32802	
1975	0	32808	32711	32883	32703	32531	32735	32647	32717	
1976	0	32748	32583	32863	32749	32535	32594	32727	32723	
1977	0	32808	32699	32914	32687	32509	32797	32749	32743	
1978	0	32783	32599	32865	32701	32583	32771	32681	32711	
1979	0	32718	32743	32851	32685	32718	32815	32706	32749	
1980	0	32769	32567	32790	32806	32626	32647	32711	32589	
1981	0	32753	32684	32703	32733	32647	32751	32727	32647	
1982	0	32758	32698	32749	32775	32529	32751	32775	32679	
1983	0	32697	32631	32687	32809	32676	32775	32806	32694	
1984	0	32679	32690	32639	32871	32515	32677	32748	32823	
1985	0	32658	32638	32631	32823	32725	32821	32647	32719	
1986	0	32662	32758	32703	32801	32747	32746	32703	32691	
1987	0	32643	32583	32737	32775	32694	32760	32723	32751	
1988	0	32714	32734	32727	32743	32690	32623	32730	32639	
1989	0	32735	32574	32751	32813	32583	32788	32669	32708	
1990	0	32732	32719	32709	32793	32655	32754	32742	32738	
1991	0	32775	32815	32726	32804	32703	32788	32743	32707	
1992	0	32761	32799	32829	32755	32681	32737	32818	32639	
1993	0	32694	32719	32801	32692	32611	32755	32732	32695	
1994	0	32721	32569	32775	32743	32735	32807	32716	32831	
1995	0	32658	32740	32813	32791	32623	32615	32647	32775	
1996	0	32711	32707	32839	32773	32710	32789	32603	32751	
1997	0	32740	32719	32865	32799	32598	32787	32604	32797	
1998	0	32789	32594	32767	32758	32687	32757	32639	32719	
1999	0	32781	32487	32742	32769	32583	32790	32764	32703	
2000	0	32775	32669	32843	32762	32705	32727	32804	32775	
2001	0	32724	32647	32694	32795	32535	32663	32743	32775	
2002	0	32769	32554	32631	32719	32690	32759	32757	32783	
2003	0	32783	32631	32601	32658	32619	32679	32785	32749	
2004	0	32697	32492	32674	32647	32758	32775	32759	32729	
2005	0	32716	32681	32683	32726	32735	32775	32756	32647	
2006	0	32737	32660	32683	32743	32820	32797	32774	32797	
2007	0	32665	32559	32713	32765	32815	32884	32575	32803	
2008	0	32700	32615	32812	32771	32567	32671	32571	32770	
2009	0	32710	32508	32895	32763	32591	32818	32603	32683	
2010	0	32719	32647	32893	32765	32647	32695	32601	32686	
2011	0	32779	32570	32833	32679	32755	32759	32588	32751	
2012	0	32692	32639	32707	32721	32783	32612	32635	32712	
2013	0	32769	32593	32691	32804	32716	32827	32759	32635	
2014	0	32784	32538	32707	32919	32599	32783	32755	32693	
2015	0	32736	32647	32743	32831	32738	32726	32804	32687	
2016	0	32743	32599	32529	32726	32565	32771	32738	32631	
2017	0	32716	32711	32487	32795	32698	32767	32811	32671	
2018	0	32785	32466	32533	32763	32671	32832	32787	32676	
2019	0	32676	32729	32546	32779	32595	32783	32671	32833	
2020	0	32751	32687	32665	32701	32647	32775	32669	32749	
2021	0	32754	32671	32814	32663	32503	32711	32666	32639	
2022	0	32738	32582	32822	32747	32711	32786	32679	32623	
2023	0	32829	32455	32791	32959	32729	32615	32775	32617	
2024	0	32872	32541	32783	32853	32679	32692	32687	32714	
2025	0	32820	32508	32775	32740	32749	32827	32554	32703	
2026	0	32796	32423	32751	32811	32647	32677	32594	32738	
2027	0	32839	32583	32809	32715	32783	32679	32527	32802	
2028	0	32799	32505	32719	32724	32709	32796	32705	32756	
2029	0	32813	32370	32799	32749	32821	32641	32711	32743	
2030	0	32780	32551	32831	32795	32665	32767	32836	32671	
2031	0	32767	32391	32751	32859	32716	32743	32751	32671	
2032	0	32829	32694	32724	32818	32634	32775	32717	32801	
2033	0	32855	32639	32711	32821	32647	32773	32711	32783	
2034	0	32811	32517	32699	32883	32658	32741	32667	32765	
2035	0	32870	32687	32757	32855	32711	32767	32579	32771	
2036	0	32815	32507	32862	32742	32769	32738	32646	32766	
2037	0	32873	32379	32859	32751	32799	32692	32707	32717	
2038	0	32879	32587	32754	32803	32683	32831	32735	32699	
2039	0	32922	32521	32674	32751	32791	32783	32667	32647	
2040	0	32859	32486	32727	32742	32647	32815	32689	32631	
2041	0	32863	32589	32775	32647	32524	32799	32594	32661	
2042	0	32858	32543	32788	32695	32709	32743	32785	32683	
2043	0	32888	32367	32761	32745	32586	32710	32698	32711	
2044	0	32917	32535	32727	32753	32715	32643	32775	32735	
2045	0	32944	32506	32817	32769	32547	32704	32835	32666	
2046	0	32976	32388	32879	32717	32685	32675	32719	32697	
2047	0	32902	32519	32797	32782	32595	32836	32695	32783	
2048	0	32871	32647	32755	32769	32724	32710	32687	32660	
2049	0	32941	32443	32619	32853	32549	32831	32803	32671	
2050	0	32870	32573	32687	32743	32676	32878	32783	32677	
2051	0	32804	32597	32838	32767	32699	32647	32701	32676	
2052	0	32778	32519	32859	32775	32719	32729	32655	32735	
2053	0	32806	32660	32918	32799	32691	32775	32647	32734	
2054	0	32783	32675	32783	32747	32735	32609	32683	32756	
2055	0	32865	32681	32813	32775	32559	32738	32708	32751	
2056	0	32836	32511	32789	32890	32703	32706	32879	32595	
2057	0	32830	32465	32679	32883	32635	32796	32711	32659	
2058	0	32818	32663	32655	32787	32783	32775	32631	32765	
2059	0	32823	32663	32806	32799	32581	32796	32615	32823	
2060	0	32822	32414	32831	32685	32711	32831	32804	32715	
2061	0	32870	32655	32789	32663	32524	32719	32631	32742	
2062	0	32913	32703	32782	32708	32683	32763	32742	32671	
2063	0	32873	32574	32772	32758	32583	32767	32791	32713	
2064	0	32805	32675	32762	32755	32799	32647	32717	32787	
2065	0	32783	32637	32687	32620	32515	32818	32717	32701	
2066	0	32767	32724	32739	32691	32676	32881	32813	32647	
2067	0	32739	32747	32742	32831	32534	32717	32886	32643	
2068	0	32710	32663	32662	32811	32747	32887	32701	32767	
2069	0	32727	32626	32679	32832	32567	32806	32633	32756	
2070	0	32688	32577	32689	32743	32715	32756	32699	32717	
2071	0	32615	32820	32789	32832	32709	32745	32693	32766	
2072	0	32613	32733	32661	32738	32871	32753	32647	32807	
2073	0	32676	32647	32658	32675	32803	32791	32685	32871	
2074	0	32700	32647	32695	32719	32694	32741	32711	32799	
2075	0	32766	32623	32773	32815	32786	32703	32661	32614	
2076	0	32871	32487	32830	32771	32710	32747	32775	32823	
2077	0	32817	32739	32805	32717	32647	32733	32647	32795	
2078	0	32786	32727	32809	32723	32699	32815	32639	32754	
2079	0	32873	32583	32844	32647	32547	32662	32679	32707	
2080	0	32807	32759	32818	32807	32742	32723	32703	32739	
2081	0	32735	32677	32805	32706	32591	32709	32805	32702	
2082	0	32818	32571	32851	32791	32738	32669	32805	32617	
2083	0	32733	32694	32805	32759	32535	32798	32831	32621	
2084	0	32738	32639	32751	32727	32679	32685	32743	32810	
2085	0	32647	32823	32734	32815	32555	32870	32759	32861	
2086	0	32635	32647	32715	32798	32677	32730	32567	32751	
2087	0	32692	32646	32761	32759	32619	32771	32563	32767	
2088	0	32707	32813	32803	32679	32673	32825	32663	32721	
2089	0	32732	32749	32751	32677	32455	32727	32735	32710	
2090	0	32719	32707	32855	32645	32647	32743	32706	32727	
2091	0	32808	32727	32799	32741	32727	32851	32766	32667	
2092	0	32865	32548	32754	32748	32663	32671	32877	32623	
2093	0	32821	32647	32839	32731	32679	32775	32877	32615	
2094	0	32785	32519	32823	32774	32535	32773	32823	32621	
2095	0	32679	32847	32785	32669	32671	32775	32786	32639	
2096	0	32624	32715	32833	32839	32539	32675	32827	32705	
2097	0	32644	32575	32828	32903	32707	32730	32795	32679	
2098	0	32655	32788	32721	32819	32679	32775	32629	32784	
2099	0	32686	32715	32757	32732	32743	32819	32687	32831	
2100	0	32716	32595	32756	32684	32717	32785	32758	32791	
2101	0	32718	32839	32853	32767	32742	32791	32723	32723	
2102	0	32703	32675	32756	32755	32677	32690	32879	32719	
2103	0	32772	32439	32809	32793	32743	32671	32742	32631	
2104	0	32820	32748	32771	32662	32671	32818	32607	32675	
2105	0	32811	32724	32791	32619	32647	32739	32679	32738	
2106	0	32780	32483	32767	32731	32603	32623	32790	32719	
2107	0	32782	32827	32773	32743	32673	32775	32819	32747	
2108	0	32674	32749	32812	32758	32660	32733	32695	32794	
2109	0	32652	32735	32794	32743	32743	32783	32694	32797	
2110	0	32617	32836	32727	32772	32775	32758	32647	32743	
2111	0	32617	32795	32679	32718	32766	32735	32583	32673	
2112	0	32671	32639	32674	32775	32806	32658	32539	32695	
2113	0	32763	32831	32810	32775	32573	32796	32785	32719	
2114	0	32800	32647	32725	32745	32647	32775	32775	32711	
2115	0	32818	32466	32749	32699	32443	32671	32863	32757	
2116	0	32695	32731	32796	32773	32772	32731	32799	32721	
2117	0	32692	32631	32786	32763	32657	32804	32735	32775	
2118	0	32675	32599	32792	32775	32721	32670	32663	32727	
2119	0	32681	32771	32819	32775	32449	32771	32643	32655	
2120	0	32630	32735	32721	32738	32549	32733	32663	32679	
2121	0	32742	32572	32775	32685	32426	32598	32775	32663	
2122	0	32838	32684	32764	32628	32591	32723	32683	32817	
2123	0	32778	32686	32743	32751	32527	32725	32759	32782	
2124	0	32759	32847	32759	32701	32647	32773	32695	32775	
2125	0	32795	32775	32743	32749	32647	32677	32647	32694	
2126	0	32761	32583	32789	32727	32731	32821	32702	32668	
2127	0	32768	32645	32755	32709	32797	32781	32647	32686	
2128	0	32731	32615	32669	32673	32679	32722	32687	32724	
2129	0	32703	32699	32670	32692	32698	32711	32677	32699	
2130	0	32744	32621	32739	32775	32548	32687	32759	32749	
2131	0	32761	32727	32695	32807	32679	32731	32659	32711	
2132	0	32709	32689	32769	32775	32473	32667	32735	32663	
2133	0	32748	32843	32847	32735	32671	32763	32841	32734	
2134	0	32759	32662	32839	32739	32500	32795	32831	32724	
2135	0	32684	32511	32791	32655	32716	32599	32870	32757	
2136	0	32786	32659	32786	32763	32589	32583	32854	32723	
2137	0	32746	32451	32769	32711	32765	32693	32751	32621	
2138	0	32703	32609	32742	32677	32714	32795	32724	32655	
2139	0	32816	32607	32775	32727	32850	32727	32621	32751	
2140	0	32827	32519	32739	32743	32868	32814	32719	32749	
2141	0	32772	32532	32786	32794	32755	32813	32838	32730	
2142	0	32694	32413	32764	32855	32773	32743	32735	32683	
2143	0	32782	32615	32736	32787	32646	32699	32747	32672	
2144	0	32814	32639	32793	32775	32715	32775	32738	32697	
2145	0	32770	32719	32821	32727	32689	32803	32775	32693	
2146	0	32749	32647	32789	32710	32797	32643	32668	32741	
2147	0	32810	32758	32710	32759	32751	32875	32663	32681	
