# OpenSignals Text File Format
# {"00:07:80:3B:46:38": {"sensor": ["CUSTOM/0.5/1.0/V", "CUSTOM/0.5/1.0/V", "CUSTOM/0.5/1.0/V", "CUSTOM/0.5/1.0/V", "CUSTOM/0.5/1.0/V", "CUSTOM/0.5/1.0/V", "CUSTOM/0.5/1.0/V", "CUSTOM/0.5/1.0/V"], "device name": "EMGs", "column": ["nSeq", "DI", "RA_L", "RA_R", "OE_L", "OE:R", "IL_L", "IL_R", "MF_L", "MF_R"], "sync interval": 2, "time": "16:14:21.929", "comments": "", "device connection": "BTH00:07:80:3B:46:38", "channels": [1, 2, 3, 4, 5, 6, 7, 8], "date": "2017-5-22", "mode": 0, "digital IO": [0, 1], "firmware version": 772, "device": "biosignalsplux", "position": 0, "sampling rate": 1000, "label": ["RA_L", "RA_R", "OE_L", "OE:R", "IL_L", "IL_R", "MF_L", "MF_R"], "resolution": [16, 16, 16, 16, 16, 16, 16, 16], "special": [{}, {}, {}, {}, {}, {}, {}, {}]}}
# EndOfHeader
0	0	33535	33015	32569	32612	33039	32573	32982	32593	
1	0	33507	32892	32615	32595	32669	32727	32725	32687	
2	0	33246	32821	32573	32495	32530	32845	32701	32819	
3	0	33138	32711	32621	32607	32732	32692	32981	32838	
4	0	33042	32855	32473	32762	32742	32703	32755	32773	
5	0	32964	33535	32587	32860	32775	32719	32639	32647	
6	0	32908	33966	32591	32691	32739	32783	32927	32823	
7	0	32647	33911	32508	32903	32879	32713	32879	32857	
8	0	32602	33531	32690	32759	32979	32687	32839	32709	
9	0	32623	33335	32681	32679	32814	32655	32765	32693	
10	0	32539	33001	32699	32507	32617	32854	32620	32877	
11	0	32564	32563	32471	32596	32713	32751	32543	32812	
12	0	32549	32191	32711	32644	32903	32660	32584	32670	
13	0	32726	31591	32668	32383	32887	32671	32964	32695	
14	0	32641	31386	32503	32571	32543	32943	32935	32735	
15	0	32655	31457	32751	32423	32647	32847	32974	32663	
16	0	32647	31807	32631	32503	32675	32746	32758	32755	
17	0	32657	32091	32746	32435	32871	32667	32790	32640	
18	0	32671	32333	32637	32672	32767	32839	32823	32748	
19	0	32660	32391	32795	32583	32775	32775	32587	32749	
20	0	32646	32431	32734	32551	32775	32715	32565	32823	
21	0	32753	32611	32673	32787	32891	32727	32578	32692	
22	0	32718	32843	32751	32931	32847	32703	32671	32801	
23	0	32676	33219	32637	32919	32802	32663	32697	32683	
24	0	32642	33087	32763	32711	32759	32717	32621	32671	
25	0	32422	32989	32814	32765	32801	32751	32679	32615	
26	0	32276	33581	32850	32685	32775	32804	32901	32647	
27	0	32367	33911	32809	32551	32775	32773	33021	32695	
28	0	32455	33814	32679	32837	32647	32771	32613	32634	
29	0	32630	33534	32740	32775	32391	32821	32343	32745	
30	0	32839	33197	32642	32839	32647	32831	32663	32707	
31	0	32823	32607	32487	32667	33047	32675	32791	32738	
32	0	32834	32206	32647	32708	33149	32533	32851	32577	
33	0	32852	31765	32527	32619	33159	32511	32765	32663	
34	0	32918	31405	32454	32367	33027	32707	32734	32643	
35	0	32908	31639	32519	32639	32671	32773	32580	32687	
36	0	32863	31799	32647	32765	32695	32763	32879	32559	
37	0	32814	32367	32756	32541	32647	32799	32895	32637	
38	0	32910	32546	32551	32751	32549	32803	32967	32748	
39	0	32849	32989	32671	32789	32621	32789	32852	32797	
40	0	32852	33255	32859	32619	32791	32765	32787	32789	
41	0	32832	33599	32903	32631	32966	32647	32991	32639	
42	0	32975	33461	32843	32645	32789	32783	32986	32733	
43	0	32923	33372	32615	32742	32571	32759	32775	32833	
44	0	32919	33159	32463	32731	32615	32767	32555	32749	
45	0	32846	32615	32627	32562	32931	32815	32627	32855	
46	0	32835	32541	32567	32685	32899	32721	32869	32827	
47	0	32646	32615	32599	32693	32749	32575	32715	32703	
48	0	32551	32751	32468	32514	32692	32527	32714	32742	
49	0	32460	32583	32307	32837	32636	32503	32847	32748	
50	0	32564	32351	32438	32787	32501	32621	32943	32783	
51	0	32811	32295	32466	32775	32375	32710	32484	32613	
52	0	32934	32667	32483	32621	32506	32713	32427	32671	
53	0	33034	32959	32803	32751	32511	32533	32532	32699	
54	0	32953	32733	32759	32719	32621	32598	32723	32731	
55	0	33003	32676	32708	32623	32647	32706	32695	32604	
56	0	33043	32464	32991	32735	32873	32679	32425	32775	
57	0	32687	32562	32962	32607	32607	32801	32508	32903	
58	0	32711	32519	32917	32582	32835	32879	32647	32803	
59	0	32669	32844	32911	32445	32931	32699	32679	32740	
60	0	32751	33133	32813	32571	33217	32681	33117	32681	
61	0	32676	33245	32789	32635	32903	32850	33069	32683	
62	0	32681	33282	32563	32641	32687	32811	33065	32663	
63	0	32703	33175	32662	32509	32859	32749	32842	32530	
64	0	32863	32962	32647	32583	32841	32701	32771	32599	
65	0	32799	32703	32518	32477	32807	32687	32767	32677	
66	0	32783	32531	32482	32541	32814	32628	32619	32669	
67	0	32713	32551	32431	32551	32921	32543	32887	32703	
68	0	32762	32679	32391	32493	32903	32515	32807	32699	
69	0	32700	32711	32493	32543	32711	32686	32739	32858	
70	0	32758	32715	32423	32479	32679	32619	32763	32847	
71	0	32868	32617	32575	32391	32745	32634	32887	32757	
72	0	32810	32625	32327	32519	32759	32743	32851	32749	
73	0	32812	32647	32215	32609	32723	32733	32601	32891	
74	0	32818	32955	32289	32749	32629	32709	32735	32819	
75	0	32663	33170	32647	32775	32716	32795	32719	32861	
76	0	32695	33170	32655	32871	32759	32773	32628	32738	
77	0	32727	32878	32615	32991	32647	32735	32592	32813	
78	0	32767	32623	32745	32799	32765	32718	32703	32775	
79	0	32704	32681	32907	33018	32731	32702	32815	32681	
80	0	32538	32750	33117	33010	32685	32797	32641	32887	
81	0	32521	32727	32959	32815	32757	32769	32790	32903	
82	0	32636	32388	32845	32900	32955	32765	32735	32725	
83	0	32801	32335	32575	32764	33223	32759	32694	32703	
84	0	32942	32468	32636	32615	33063	32682	32585	32715	
85	0	32841	32574	32698	32804	32867	32719	32733	32573	
86	0	32782	32823	32508	32815	32763	32751	32798	32761	
87	0	32744	32783	32613	32623	32595	32826	32671	32823	
88	0	32758	33125	32710	32893	32470	32887	32454	32811	
89	0	32769	33239	32495	32822	32397	32951	32468	32854	
90	0	32793	33242	32579	32764	32695	32827	32695	32775	
91	0	32974	33091	32558	32626	32995	32722	32951	32647	
92	0	33024	32903	32791	32626	32911	32624	32835	32509	
93	0	32960	32951	32700	32551	32801	32726	32611	32698	
94	0	32949	32959	32669	32477	32710	32891	32615	32838	
95	0	32998	32839	32731	32559	32684	32843	32639	32695	
96	0	32937	32461	32589	32469	32662	32827	32615	32887	
97	0	33017	31943	32555	32523	32565	32775	32673	32647	
98	0	33139	31903	32689	32459	32527	32807	32685	32726	
99	0	33220	31987	32343	32794	32561	32775	32756	32617	
100	0	33108	32103	32327	32727	32727	32587	32675	32749	
101	0	32931	32159	32511	32607	32655	32562	32743	32751	
102	0	33013	32180	32535	32757	32751	32497	32823	32633	
103	0	32925	32391	32543	32642	32711	32610	32687	32623	
104	0	32854	32709	32694	32767	32621	32796	32639	32849	
105	0	32823	32775	32635	32655	32725	32751	32840	32751	
106	0	32933	32903	32639	32671	32717	32747	32820	32799	
107	0	33186	33215	32602	32882	32634	32903	32763	32702	
108	0	33139	33111	32903	32834	32913	32697	32837	32647	
109	0	33255	32882	32947	32718	32982	32579	32847	32629	
110	0	33320	33005	32655	32719	32914	32642	32599	32647	
111	0	33274	33119	32636	32869	32889	32703	32439	32795	
112	0	33192	33209	32548	32927	32767	32727	32455	32765	
113	0	33092	33159	32497	32678	32695	32775	32469	32767	
114	0	32890	33127	32514	32687	32683	32815	32937	32751	
115	0	32391	33159	32463	32674	32759	32647	32875	32682	
116	0	31929	33159	32679	32733	32734	32742	32710	32743	
117	0	31809	33254	32587	32829	32742	32666	32566	32638	
118	0	31781	33335	32587	32683	32627	32647	32727	32786	
119	0	31719	33147	32765	32791	32578	32599	32733	32713	
120	0	31423	33701	32632	32815	32735	32643	32711	32701	
121	0	31247	34041	32638	32551	32847	32591	32807	32551	
122	0	31330	34379	32457	32532	32742	32700	32911	32675	
123	0	31824	34055	32511	32556	32713	32763	32751	32771	
124	0	32295	33552	32455	32597	32538	32820	32723	32635	
125	0	32384	33095	32617	32515	32805	32727	32884	32497	
126	0	32614	32687	32639	32595	33221	32474	33261	32435	
127	0	32465	32572	32885	32547	33119	32541	33587	32354	
128	0	32064	32303	32628	32406	32967	32565	33530	32231	
129	0	31816	32297	32775	32396	32966	32503	33362	32111	
130	0	31550	32115	32813	32535	32985	32655	33274	32298	
131	0	31354	31879	32783	32502	33181	32671	33396	32391	
132	0	31406	31887	32641	32289	33153	32507	33275	32411	
133	0	31511	32082	32495	32367	33034	32515	33273	32263	
134	0	31429	32639	32721	32338	32898	32605	33203	32427	
135	0	31672	32927	32775	32430	32866	32681	33174	32583	
136	0	32045	33287	32717	32219	32895	32679	33107	32647	
137	0	32407	33486	33159	32473	32807	32687	33055	32603	
138	0	32657	33375	33079	32467	32667	32757	32863	32591	
139	0	32803	33412	32901	32385	32700	32700	32738	32665	
140	0	32955	33445	33013	32426	32719	32671	32681	32723	
141	0	33368	33127	32867	32442	32717	32818	32485	32775	
142	0	33565	32669	32821	32450	32850	32807	32343	32870	
143	0	33806	32471	32770	32815	32765	32811	32439	32975	
144	0	34017	32143	32519	32892	32727	32759	32521	32900	
145	0	34083	31954	32565	32845	32599	32823	32471	33082	
146	0	34159	31631	32527	32948	32751	32749	32569	33055	
147	0	34266	31591	32783	32863	32641	32849	32431	32966	
148	0	34257	31814	32627	32863	32547	32838	32367	32986	
149	0	34161	32271	32659	32978	32647	32805	32285	33079	
150	0	33932	32751	32816	32933	32551	32749	32295	32987	
151	0	33827	33254	32647	32967	32687	32700	32221	32871	
152	0	33726	33327	32743	32863	32631	32685	32372	32887	
153	0	33494	33174	32562	32957	32708	32731	32543	32933	
154	0	33470	32707	32694	32845	32450	32938	32439	33063	
155	0	33493	32090	32623	32722	32551	32863	32435	32911	
156	0	33365	31901	32487	32743	32585	32837	32629	33061	
157	0	33277	31555	32733	32759	32555	32867	32425	32955	
158	0	33100	31245	32579	32807	32429	32895	32302	33055	
159	0	32938	31085	32391	32850	32686	32775	32413	32924	
160	0	32974	31233	32493	32911	33099	32751	32789	32980	
161	0	32850	31722	32703	32868	32998	32807	32707	32861	
162	0	32940	32583	32703	32806	32495	32897	32550	32934	
163	0	33067	32825	32635	32766	32361	32999	32626	32866	
164	0	33080	32807	32703	32870	32545	32914	32629	32898	
165	0	33007	33103	32603	32831	32789	32771	32803	32823	
166	0	33140	33029	32427	32570	33095	32726	32823	32881	
167	0	32957	32875	32669	32747	33103	32759	32869	32771	
168	0	32764	32927	32465	32671	32966	32655	32821	32735	
169	0	32733	32673	32335	32575	32724	32669	32847	32738	
170	0	32713	32773	32151	32476	32694	32695	32809	32727	
171	0	32609	32655	32564	32759	32863	32575	32877	32669	
172	0	32462	32747	32582	32647	32993	32523	32690	32558	
173	0	32383	32962	32549	32678	32886	32589	32934	32525	
174	0	32484	32999	32409	32659	32847	32551	32897	32607	
175	0	32630	32786	32495	32765	32796	32495	32847	32643	
176	0	32791	33095	32594	32663	32751	32555	32955	32524	
177	0	32831	33287	32813	32483	32718	32807	32947	32695	
178	0	32784	33584	32743	32575	32699	32757	32758	32715	
179	0	32631	33647	32878	32476	32647	32775	32731	32610	
180	0	32609	33635	32903	32380	32812	32589	33005	32570	
181	0	32513	33407	32821	32518	32861	32695	32902	32615	
182	0	32338	33325	33065	32498	32941	32639	32679	32644	
183	0	32313	33167	32915	32491	33027	32679	32766	32523	
184	0	32519	32579	32831	32340	32640	32749	32718	32547	
185	0	32494	32407	32439	32513	32676	32767	32773	32675	
186	0	32567	32565	32659	32567	32722	32820	32681	32817	
187	0	32448	32527	32702	32705	32719	32639	32791	32791	
188	0	32438	32605	32887	32681	32687	32647	33203	32724	
189	0	32448	32671	32887	32983	32705	32742	33123	32793	
190	0	32731	33015	32799	32935	32671	32779	33095	32759	
191	0	32708	33215	32599	32581	32615	32638	32707	32615	
192	0	32812	33373	32581	32775	32655	32559	32519	32707	
193	0	32807	33067	32375	32783	32615	32719	32683	32775	
194	0	32796	32966	32327	32551	32867	32727	32701	32691	
195	0	32798	33074	32475	32655	32821	32791	32571	32703	
196	0	32775	33131	32383	32571	32775	32676	32623	32663	
197	0	32586	33187	32391	32414	32962	32699	32693	32647	
198	0	32556	32807	32519	32475	32972	32629	32695	32627	
199	0	32710	32692	32405	32554	32805	32623	32663	32723	
200	0	32713	32583	32562	32482	32839	32683	32647	32775	
201	0	32714	32499	32686	32683	32847	32637	32751	32630	
202	0	32596	32123	32751	32523	32807	32615	32751	32695	
203	0	32706	32167	32615	32657	32701	32663	32703	32709	
204	0	32684	32407	32667	32573	32751	32731	32530	32647	
205	0	32657	32567	32814	32705	32855	32677	32627	32684	
206	0	32724	32302	32757	32819	32771	32727	32607	32724	
207	0	32767	32407	32871	32663	32733	32775	32457	32705	
208	0	32916	32775	32927	32700	32774	32694	32647	32703	
209	0	32948	33287	32775	32538	32685	32748	32645	32718	
210	0	33119	33823	32705	32646	32325	32855	32631	32677	
211	0	33088	33678	32806	32578	32549	32683	32799	32679	
212	0	32858	33644	32647	32748	32937	32613	33086	32647	
213	0	32750	33385	32569	32775	32901	32822	32663	32671	
214	0	32678	33115	32743	32591	32729	32869	32531	32708	
215	0	32583	32731	32733	32839	32919	32633	32789	32614	
216	0	32601	32595	32517	32836	32773	32647	32858	32638	
217	0	32647	32633	32562	32791	32791	32647	32847	32743	
218	0	32644	32349	32559	32663	32707	32643	32711	32738	
219	0	32535	32295	32623	32655	32591	32714	32559	32695	
220	0	32559	32148	32645	32487	32677	32692	32739	32743	
221	0	32574	32335	32775	32491	32903	32555	32697	32715	
222	0	32574	32310	32764	32436	33027	32599	32671	32769	
223	0	32628	32177	32553	32478	32909	32831	32623	32943	
224	0	32823	32066	32743	32701	32654	32893	32530	32892	
225	0	32883	32217	32607	32647	32599	32804	32871	32758	
226	0	32744	32391	32743	32597	32677	32731	32847	32711	
227	0	32892	32263	32567	32871	32757	32679	32829	32757	
228	0	32783	32455	32324	32854	32765	32645	32662	32644	
229	0	32770	32924	32479	32903	32765	32615	32833	32703	
230	0	32692	33174	32411	32723	32912	32670	32999	32691	
231	0	32606	33479	32303	32926	32832	32687	32946	32725	
232	0	32709	33267	32557	32869	32863	32679	33063	32605	
233	0	32799	33045	32519	32898	32844	32707	32854	32623	
234	0	32903	33170	32567	32892	32821	32703	32719	32681	
235	0	33013	33039	32743	32986	32903	32606	32943	32631	
236	0	33062	32917	32676	32948	32891	32679	32957	32531	
237	0	32933	33135	32527	32595	32845	32735	32863	32627	
238	0	32756	32829	32797	32775	32847	32618	32835	32676	
239	0	32623	32891	32859	32722	32759	32655	32835	32735	
240	0	32615	32932	32751	32439	32807	32711	32690	32671	
241	0	32534	33071	32799	32382	32769	32647	32493	32720	
242	0	32439	32967	32775	32415	32749	32679	32459	32707	
243	0	32270	33215	32647	32333	32679	32669	32745	32655	
244	0	32479	32941	32775	32509	32553	32735	32818	32647	
245	0	32621	32815	32655	32391	32684	32645	32815	32685	
246	0	32733	32385	32947	32380	32787	32663	32765	32663	
247	0	32881	32463	32867	32642	32814	32723	32799	32647	
248	0	32937	32507	32878	32719	32943	32703	32855	32642	
249	0	32853	32822	32775	32751	33007	32569	32831	32722	
250	0	32953	32758	32825	32674	32749	32775	32555	32735	
251	0	33081	32623	32597	32919	32505	32738	32841	32647	
252	0	33108	32879	32647	32922	32506	32796	32863	32767	
253	0	33292	32847	32695	33199	32694	32711	32989	32815	
254	0	33155	32839	32587	32975	32941	32639	32933	32695	
255	0	32903	32511	32623	33007	32935	32459	32951	32775	
256	0	32662	32707	32551	32974	32687	32823	32375	32771	
257	0	32567	32919	32663	32718	32647	32751	32281	32859	
258	0	32555	32951	32433	32819	32818	32763	32391	32823	
259	0	32584	32901	32364	32723	33135	32607	32679	32795	
260	0	32562	33207	32453	32589	33113	32461	32759	32759	
261	0	32521	33205	32347	32389	32831	32711	32900	32743	
262	0	32668	32965	32483	32374	32660	32842	32903	32839	
263	0	32653	32385	32553	32359	32730	32763	32860	32845	
264	0	32669	32231	32501	32299	32723	32757	32589	32787	
265	0	32641	31863	32503	32704	32765	32690	32354	32722	
266	0	32642	31717	32794	32895	32547	32845	32383	32822	
267	0	32751	31547	32855	32913	32687	32901	32743	32647	
268	0	32795	31839	32647	32903	32709	32837	33092	32647	
269	0	32712	32201	32898	32871	32715	32855	32951	32790	
270	0	32682	32708	32743	32687	32639	32791	32803	32799	
271	0	32667	32757	32754	32647	32551	32839	32601	32947	
272	0	32525	33149	32803	32423	32756	32763	32641	32869	
273	0	32666	33579	32647	32365	33011	32743	32701	32711	
274	0	32818	33537	32545	32263	32876	32611	32887	32667	
275	0	32880	33687	32583	32287	32720	32615	32835	32571	
276	0	32872	33653	32551	32371	32623	32703	32738	32805	
277	0	32911	33479	32724	32343	32610	32723	32791	32799	
278	0	32833	33171	32685	32535	32775	32679	32734	32775	
279	0	32745	32981	32837	32695	32711	32775	32655	32751	
280	0	32679	33031	33007	32775	32711	32683	32709	32787	
281	0	32739	32935	32867	32789	32607	32671	32501	32733	
282	0	32798	33191	32847	33033	32721	32695	32549	32743	
283	0	32589	33159	32655	33043	32795	32711	32759	32613	
284	0	32422	32980	32795	33063	32751	32643	32775	32743	
285	0	32279	33099	32687	32806	32655	32703	32847	32647	
286	0	32324	32917	32453	32812	32436	32767	32723	32773	
287	0	32489	32519	32527	32655	32556	32747	32615	32660	
288	0	32693	32146	32399	32519	32577	32729	32549	32711	
289	0	32940	31821	32359	32709	32803	32751	32869	32691	
290	0	33142	31687	32589	32637	32946	32678	33053	32658	
291	0	33159	31410	32637	32667	33099	32663	32921	32675	
292	0	33146	31519	32615	32557	33031	32631	32847	32772	
293	0	33122	31764	32743	32601	32797	32679	32773	32727	
294	0	33170	32207	32620	32772	32799	32599	33014	32541	
295	0	33204	32581	32519	32548	32860	32595	32847	32527	
296	0	33096	32989	32635	32623	32823	32711	32813	32630	
297	0	32986	33248	32629	32621	32842	32647	32751	32685	
298	0	32839	33339	32647	32647	32654	32711	32500	32775	
299	0	32751	33343	32532	32543	32557	32741	32599	32615	
300	0	32710	33287	32643	32323	32554	32733	32540	32634	
301	0	32572	33453	32639	32459	32407	32903	32391	32721	
302	0	32428	33446	32541	32303	32543	32876	32591	32766	
303	0	32440	33117	32837	32308	33012	32531	33175	32698	
304	0	32447	32516	32713	32310	33279	32499	33525	32738	
305	0	32705	32297	32895	32455	32871	32661	33263	32671	
306	0	32817	32283	32966	32708	32727	32726	32923	32658	
307	0	32715	32627	32765	33023	32698	32787	32668	32855	
308	0	32655	32595	32720	32873	32789	32671	32920	32693	
309	0	32679	33003	32631	32993	32645	32714	32729	32687	
310	0	32622	33339	32775	32775	32713	32642	32754	32766	
311	0	32772	33634	32739	32647	32790	32635	32687	32766	
312	0	32743	33651	32567	32549	32767	32629	32655	32838	
313	0	32743	33431	32617	32551	32763	32727	32625	32735	
314	0	32819	33383	32551	32466	32867	32813	32633	32811	
315	0	32841	33175	32355	32687	32755	32858	32607	32749	
316	0	32898	32871	32551	32524	32819	32823	32733	32679	
317	0	32903	32517	32615	32487	32918	32759	32621	32699	
318	0	32893	32342	32404	32642	32948	32727	32740	32851	
319	0	32752	32419	32549	32839	32860	32783	32735	32810	
320	0	32614	32199	32471	32914	32903	32891	32621	32695	
321	0	32595	32079	32356	32695	32839	32773	32514	32621	
322	0	32724	32068	32549	32837	32751	32749	32509	32639	
323	0	32772	32331	32583	32855	32661	32735	32763	32684	
324	0	32761	32454	32447	32630	32630	32837	32959	32567	
325	0	32574	32661	32511	32771	32639	32815	32839	32629	
326	0	32631	32676	32597	32695	32742	32847	32767	32723	
327	0	32548	32769	32694	32711	32719	32804	32812	32687	
328	0	32609	33012	32711	32647	32634	32732	32605	32749	
329	0	32635	33243	32607	32775	32799	32727	32741	32669	
330	0	32524	33471	32629	32940	32769	32695	32717	32690	
331	0	32615	33531	32855	32967	32692	32615	32788	32647	
332	0	32574	33415	32783	32983	32689	32599	32686	32714	
333	0	32518	33437	32711	32795	32700	32639	32719	32735	
334	0	32435	33171	32493	32898	32828	32599	32719	32695	
335	0	32477	32863	32503	32815	32900	32647	32750	32641	
336	0	32487	32690	32526	32818	32681	32725	32559	32743	
337	0	32799	32613	32455	32519	32615	32715	32519	32689	
338	0	33041	32391	32653	32518	32613	32663	32598	32607	
339	0	33183	32269	32583	32287	32855	32589	32903	32639	
340	0	33324	31977	32518	32359	32948	32619	33001	32683	
341	0	33202	32119	32471	32291	32775	32623	32995	32747	
342	0	33055	32399	32679	32493	32899	32658	32967	32598	
343	0	32764	32559	32819	32552	32871	32647	32683	32734	
344	0	32710	32736	32766	32668	32669	32767	32228	32839	
345	0	32692	33015	33019	32575	32726	32709	32507	32903	
346	0	32748	32925	32957	32663	32764	32658	32594	32751	
347	0	32961	32743	32631	32646	32823	32533	33247	32727	
348	0	32951	33090	32681	32527	32772	32647	33071	32771	
349	0	32966	33295	32647	32721	32747	32590	32891	32743	
350	0	32847	33575	32503	32627	32621	32695	32799	32735	
351	0	32967	33461	32638	32614	32574	32717	32807	32839	
352	0	32985	33177	32605	32621	32599	32615	32706	32751	
353	0	32927	33117	32729	32706	32829	32585	32775	32636	
354	0	32977	32847	32526	32771	32799	32549	32829	32735	
355	0	32976	32870	32450	32703	32839	32643	32732	32637	
356	0	32860	32438	32647	32749	32935	32686	32723	32676	
357	0	32877	32171	32508	32753	32871	32751	32690	32702	
358	0	32839	32006	32543	32631	32635	32847	32831	32775	
359	0	32727	32231	32775	32791	32692	32746	32743	32702	
360	0	32573	32359	32727	32758	32647	32787	32797	32691	
361	0	32524	32447	32679	32519	32740	32786	32811	32809	
362	0	32598	32831	32823	32694	32903	32707	32663	32815	
363	0	32735	32851	32743	32686	32895	32627	32975	32706	
364	0	32677	33131	32763	32600	32809	32773	32969	32707	
365	0	32684	33103	32575	32479	32762	32764	32819	32869	
366	0	32769	32911	32647	32647	32903	32719	32854	32727	
367	0	32769	32647	32634	32619	32813	32870	32551	32746	
368	0	32799	32287	32590	32713	32877	32660	32729	32593	
369	0	32791	32067	32945	32549	32765	32642	32854	32611	
370	0	32668	32207	32801	32607	32679	32553	32695	32655	
371	0	32602	32079	32773	32407	32844	32375	32859	32514	
372	0	32633	32129	32719	32693	32980	32367	32691	32515	
373	0	32612	32783	32895	32701	32565	32703	32711	32591	
374	0	32587	33206	32743	32754	32626	32715	32563	32742	
375	0	32742	33391	32703	32842	32667	32867	32583	32847	
376	0	32838	33323	32439	32863	32749	32870	32599	32903	
377	0	32866	32975	32655	32743	32764	32598	32887	32663	
378	0	32773	32511	32711	32607	32597	32522	32903	32495	
379	0	32679	32263	32767	32661	32773	32575	32900	32543	
380	0	32623	31983	32583	32563	32742	32771	32431	32871	
381	0	32540	31835	32743	32586	32991	32710	32629	32775	
382	0	32571	32155	32605	32427	33155	32751	32599	32879	
383	0	32524	32589	32662	32391	32983	32802	32611	32815	
384	0	32677	32823	32519	32670	32727	32683	32883	32677	
385	0	32713	32983	32803	32607	32659	32678	33036	32703	
386	0	32812	33257	32599	32703	32901	32628	33017	32867	
387	0	32703	33411	32799	32626	32527	32735	32711	32723	
388	0	32588	33375	32679	32799	32463	32783	32681	32767	
389	0	32604	33151	32859	32603	32687	32731	32807	32787	
390	0	32799	32919	32628	32517	32839	32701	32833	32827	
391	0	32863	32626	32591	32475	32973	32671	32483	32775	
392	0	32917	32259	32534	32711	32895	32621	32735	32613	
393	0	32928	32431	32647	32617	32607	32742	32775	32799	
394	0	32985	32541	32698	32658	32522	32854	32639	32871	
395	0	33029	32717	32663	32562	32647	32743	32679	32767	
396	0	32926	32807	32700	32587	32762	32765	32787	32679	
397	0	32660	32699	32620	32543	32799	32716	32943	32711	
398	0	32399	32756	32771	32503	32738	32633	32721	32733	
399	0	32383	33188	32723	32507	32785	32589	32703	32558	
400	0	32444	33559	32559	32615	32603	32788	32655	32695	
401	0	32643	33819	32711	32503	32423	32862	32487	32815	
402	0	32767	33565	32615	32837	32413	32829	32307	32769	
403	0	32753	33463	32626	32831	32679	32623	32690	32639	
404	0	32758	33283	32575	32710	33201	32511	33015	32669	
405	0	32596	33027	32443	32943	33268	32647	33010	32647	
406	0	32738	32567	32263	32871	33091	32647	33009	32596	
407	0	33093	32322	32418	32663	32935	32639	32886	32707	
408	0	33273	32071	32407	32903	32863	32730	32671	32785	
409	0	33345	31686	32714	32931	32587	32863	32596	32809	
410	0	33132	31879	32698	32841	32551	32911	32647	32799	
411	0	32993	32381	32803	32745	32587	32775	32743	32686	
412	0	32855	32646	32631	32501	32767	32503	32594	32826	
413	0	32617	32999	32576	32671	32806	32450	32583	32820	
414	0	32492	33087	32675	32687	32877	32525	32748	32734	
415	0	32487	33311	32647	32487	32796	32683	32838	32775	
416	0	32541	32989	32589	32804	32627	32757	32627	32799	
417	0	32677	33287	32775	32759	32613	32729	32530	32795	
418	0	32738	33275	32717	32679	32742	32607	32617	32698	
419	0	32804	33238	32775	32935	32946	32663	32799	32701	
420	0	32819	32919	32607	32838	32999	32647	32911	32647	
421	0	32736	32999	32559	32895	32785	32719	32887	32605	
422	0	32701	32983	32611	32734	32598	32767	32695	32645	
423	0	32741	32911	32763	32727	32543	32679	32698	32775	
424	0	32747	32540	32771	32958	32523	32859	32747	32743	
425	0	32835	32663	32844	32743	32609	32742	32567	32619	
426	0	32811	32636	32805	32836	32967	32535	32503	32755	
427	0	32894	32663	32723	32871	32923	32692	32763	32799	
428	0	33029	32466	32823	32587	32823	32769	33019	32661	
429	0	33083	32294	32751	32571	32702	32862	33023	32685	
430	0	32934	32379	32464	32562	32671	32775	32919	32635	
431	0	32912	32350	32661	32207	32715	32742	32882	32647	
432	0	32735	32511	32641	32383	32679	32773	32898	32586	
433	0	32662	32717	32551	32417	32671	32709	32823	32730	
434	0	32677	32791	32738	32310	32743	32691	32775	32703	
435	0	32791	32647	32564	32383	32797	32785	32836	32823	
436	0	32709	32891	32436	32535	32876	32771	32817	32847	
437	0	32655	32887	32527	32375	32919	32719	32761	32694	
438	0	32714	32979	32703	32479	33079	32717	32791	32795	
439	0	32714	32679	32675	32525	32922	32633	32794	32643	
440	0	32778	32607	32754	32543	32743	32713	32791	32562	
441	0	32807	32455	32723	32481	32734	32791	32655	32722	
442	0	32844	32415	32819	32671	32820	32791	32663	32693	
443	0	32924	32317	32726	32691	32809	32754	32467	32807	
444	0	32782	32244	32581	32683	32819	32791	32513	32723	
445	0	32753	32412	32495	32711	32793	32799	32679	32733	
446	0	32625	32865	32662	32783	32727	32757	32711	32806	
447	0	32572	33228	32689	32687	32687	32771	32746	32772	
448	0	32564	33511	32507	32655	32723	32767	32669	32723	
449	0	32497	33229	32479	32839	32677	32799	32667	32861	
450	0	32502	33159	32407	32685	32603	32827	32881	32812	
451	0	32540	33159	32375	32643	32708	32791	32898	32796	
452	0	32605	32833	32595	32658	32679	32826	32679	32747	
453	0	32538	32966	32431	32757	32671	32723	32685	32703	
454	0	32698	32839	32409	32775	32787	32679	32704	32795	
455	0	32742	32471	32289	32578	32903	32666	32671	32867	
456	0	32713	32367	32607	32663	32875	32761	32637	32711	
457	0	32764	32530	32709	32641	32757	32814	32683	32784	
458	0	32900	32791	32671	32677	32575	32817	32615	32814	
459	0	32984	32903	32879	32641	32859	32647	32647	32647	
460	0	32854	32685	32721	32735	33111	32527	33083	32459	
461	0	32719	32644	32775	32963	32963	32561	32871	32647	
462	0	32626	32703	32735	32897	32751	32789	32583	32858	
463	0	32673	32750	32735	33172	32819	32703	32793	32685	
464	0	32718	33247	32613	33159	32775	32639	32935	32527	
465	0	32720	33157	32459	32871	32717	32717	32900	32629	
466	0	32615	33095	32421	32767	32695	32685	32791	32695	
467	0	32484	33299	32605	32631	32723	32807	32795	32734	
468	0	32583	33146	32635	32498	32895	32669	32771	32591	
469	0	32612	33285	32615	32293	32859	32569	32602	32691	
470	0	32598	33069	32790	32506	32749	32695	32503	32808	
471	0	32541	32871	32863	32501	32613	32775	32343	32821	
472	0	32612	32839	32915	32375	32724	32555	32571	32745	
473	0	32607	32293	32551	32299	32721	32501	33300	32677	
474	0	32713	31903	32598	32455	32839	32485	33010	32687	
475	0	33014	31367	32519	32369	32932	32535	32951	32634	
476	0	33351	30959	32468	32519	32817	32509	32751	32703	
477	0	33500	31034	32493	32543	32663	32677	32535	32791	
478	0	33338	31247	32466	32684	32914	32546	32710	32771	
479	0	33437	31574	32566	32759	32948	32579	32607	32671	
480	0	33705	31879	32631	32639	32841	32605	32767	32786	
481	0	33740	32615	32590	32775	32773	32647	32855	32727	
482	0	33559	33135	32787	32628	32592	32706	32823	32670	
483	0	33212	33838	32715	32631	32573	32775	32750	32647	
484	0	32929	34097	32747	32612	32819	32790	32941	32711	
485	0	32679	33967	32711	32722	32886	32771	32794	32773	
486	0	32535	33811	33010	32790	32850	32991	32657	32692	
487	0	32571	33799	32945	32655	32679	32903	32655	32804	
488	0	32521	33809	32935	32838	32735	32931	32647	32775	
489	0	32511	33783	32731	32878	32775	32671	32775	32756	
490	0	32445	33415	32809	32903	32775	32807	32667	32742	
491	0	32388	32919	32787	32980	32751	32868	32595	32699	
492	0	32475	32557	32487	32930	32738	32867	32621	32695	
493	0	32389	32167	32647	32887	32726	32737	32843	32627	
494	0	32249	32074	32571	32635	32811	32759	32869	32564	
495	0	32303	32316	32503	32679	33103	32647	32935	32675	
496	0	32388	32199	32803	32623	32943	32757	32590	32722	
497	0	32354	32439	32820	32562	32823	32534	32707	32720	
498	0	32400	32775	32935	32582	32597	32765	32794	32663	
499	0	32446	32757	32758	32614	32613	32719	32615	32579	
500	0	32614	32695	32703	32547	32771	32671	32775	32626	
501	0	32852	32867	32748	32421	32861	32623	32719	32787	
502	0	32943	32805	32855	32701	32885	32751	32501	32819	
503	0	32794	32733	32605	32505	32879	32725	32631	32789	
504	0	32743	32489	32806	32637	32643	32785	32671	32887	
505	0	32693	32605	32646	32423	32590	32734	32927	32831	
506	0	32727	32543	32549	32587	32775	32751	32973	32716	
507	0	33028	32579	32227	32483	32764	32667	32799	32647	
508	0	32999	32839	32402	32543	32762	32687	32706	32759	
509	0	32959	32879	32389	32550	32839	32695	32895	32795	
510	0	32981	32823	32370	32415	32767	32795	32801	32811	
511	0	32972	32732	32493	32647	32655	32903	32567	32890	
512	0	32930	32623	32245	32621	32787	32758	32774	32801	
513	0	32947	32766	32348	32775	32835	32655	32843	32677	
514	0	32815	32927	32655	32799	32854	32623	32858	32559	
515	0	32760	33095	32708	32730	32680	32711	32751	32519	
516	0	32640	33023	32615	32958	32578	32791	32627	32725	
517	0	32628	32949	32710	32805	32578	32783	32575	32762	
518	0	32653	33143	32500	32769	32850	32607	32951	32627	
519	0	32690	33159	32621	32639	33071	32660	33146	32567	
520	0	32691	33055	32810	32687	32923	32639	32911	32663	
521	0	32703	32957	32835	32679	32658	32751	32524	32765	
522	0	32722	33007	32673	32834	32587	32786	32475	32647	
523	0	32676	32941	32947	32831	32612	32805	32665	32795	
524	0	32628	32823	32751	32935	32635	32839	32715	32806	
525	0	32661	32853	32783	32769	32754	32721	32749	32762	
526	0	32802	32635	32911	32685	32914	32687	32671	32861	
527	0	32707	32483	32737	32647	32884	32660	32752	32679	
528	0	32676	32183	32863	32475	32751	32627	32711	32655	
529	0	32639	32551	32751	32711	32703	32573	32795	32741	
530	0	32681	33063	32855	32607	32831	32607	32789	32786	
531	0	32719	33241	32687	32711	32970	32567	32871	32647	
532	0	32798	33372	32845	32647	32871	32546	32763	32743	
533	0	32756	33191	32621	32836	32754	32621	32571	32813	
534	0	32855	32870	32683	32879	32698	32673	32562	32805	
535	0	32883	32791	32647	32791	32479	32807	32438	32813	
536	0	32921	32623	32623	32657	32367	32855	32647	32707	
537	0	32941	32263	32647	32404	32828	32687	32815	32639	
538	0	32880	31911	32773	32329	33123	32595	32717	32585	
539	0	32767	32207	32495	32365	33013	32599	32807	32607	
540	0	32810	32365	32569	32313	32869	32687	32903	32686	
541	0	32756	32519	32373	32329	32675	32709	32678	32615	
542	0	32708	32724	32399	32798	32663	32805	32818	32663	
543	0	32620	32562	32315	32683	32742	32762	32727	32759	
544	0	32475	32723	32519	32607	32836	32727	32698	32631	
545	0	32315	32876	32375	32709	32762	32647	32711	32695	
546	0	32471	32937	32495	32759	32701	32743	32847	32743	
547	0	32510	33111	32623	32803	32660	32797	32615	32865	
548	0	32597	32975	32564	32914	32713	32863	32669	32741	
549	0	32679	32875	32795	33010	32660	32797	32628	32687	
550	0	32924	32978	32765	33115	32623	32853	32767	32785	
551	0	33033	32975	32685	32895	32327	33067	32510	32851	
552	0	33046	32820	32421	32733	32453	32790	32487	32807	
553	0	33041	32845	32623	32711	32743	32626	32783	32763	
554	0	33087	32659	32599	32799	32867	32709	32844	32929	
555	0	33209	32479	32505	32411	32759	32762	32839	32895	
556	0	33120	32710	32583	32359	32935	32643	32851	32714	
557	0	32959	32884	32548	32338	32530	32734	32631	32827	
558	0	32796	33039	32687	32442	32538	32749	32647	32734	
559	0	32698	33041	32775	32526	32569	32663	32759	32679	
560	0	32591	32996	33026	32571	32721	32615	33069	32583	
561	0	32545	33075	32948	32375	32742	32718	33143	32590	
562	0	32684	32917	32939	32315	32824	32701	33031	32667	
563	0	32688	32759	32982	32289	32901	32719	33083	32647	
564	0	32582	32220	32647	32484	32855	32677	32935	32596	
565	0	32709	32071	32762	32580	32795	32709	32647	32591	
566	0	32773	31967	32599	32423	32767	32677	32734	32685	
567	0	32823	32095	32711	32515	32758	32679	32663	32727	
568	0	32695	32303	32620	32603	32743	32740	32611	32655	
569	0	32690	32479	32532	32766	32802	32727	32674	32738	
570	0	32868	32815	32391	32602	32755	32761	32427	32834	
571	0	32911	33002	32550	32845	32751	32708	32763	32711	
572	0	32870	33151	32473	32771	32868	32533	32743	32575	
573	0	32783	33402	32503	32823	32834	32659	32879	32694	
574	0	32739	33109	32367	32839	32859	32609	32959	32720	
575	0	32927	33146	32647	32855	32919	32701	32627	32775	
576	0	32879	32995	32574	32949	32828	32743	32541	32839	
577	0	32710	33071	32615	32791	32843	32766	32644	32755	
578	0	32576	32893	32847	32847	32920	32647	32823	32883	
579	0	32535	32827	32679	32759	32836	32647	32583	32818	
580	0	32575	32583	32699	32525	32659	32714	32613	32731	
581	0	32598	32690	32733	32583	32503	32772	32479	32775	
582	0	32647	32767	32989	32658	32635	32723	32911	32646	
583	0	32627	32769	32989	32715	32935	32739	32852	32669	
584	0	32666	32614	33043	32679	33103	32727	33087	32711	
585	0	32615	32883	32775	32517	32851	32727	32891	32642	
586	0	32619	32925	32717	32527	32850	32705	32903	32643	
587	0	32705	32925	32939	32835	32729	32731	32903	32599	
588	0	32830	32775	32803	32771	32511	32898	32705	32719	
589	0	32852	32981	32677	32831	32546	32847	32647	32796	
590	0	32700	33175	32659	32895	32831	32747	32719	32769	
591	0	32642	33001	32415	32599	33138	32615	32799	32591	
592	0	32674	32965	32431	32812	33103	32557	32916	32575	
593	0	32903	33206	32467	32721	32919	32535	32803	32691	
594	0	33044	33095	32271	32722	32667	32685	32964	32711	
595	0	32732	32655	32179	32626	32749	32759	32715	32683	
596	0	32762	32351	32464	32910	32895	32819	32807	32772	
597	0	32876	32391	32529	33122	32999	32805	32692	32811	
598	0	33106	32663	32743	33087	32854	32765	32619	32830	
599	0	33205	32726	32788	32719	32753	32647	32687	32674	
600	0	33084	32871	32919	32823	32615	32567	32927	32677	
601	0	33033	32579	32804	32569	32644	32535	32811	32756	
602	0	32859	32623	32735	32295	32876	32527	32875	32635	
603	0	32739	32503	32666	32317	32583	32767	32727	32733	
604	0	32757	32611	32769	32381	32581	32851	32509	32799	
605	0	32790	32501	32711	32571	32699	32745	32613	32862	
606	0	32452	32475	32691	32507	32709	32749	32698	32706	
607	0	32208	32877	32391	32623	32711	32799	32709	32663	
608	0	32099	32878	32644	32803	32711	32831	32835	32747	
609	0	32154	32927	32737	32871	32709	32756	32739	32734	
610	0	32156	32792	32695	32803	32775	32727	32843	32826	
611	0	32375	32399	32611	32629	32749	32711	32691	32719	
612	0	32599	32211	32615	32615	32670	32775	32740	32669	
613	0	32903	31965	32594	32679	32592	32815	32452	32791	
614	0	33287	32030	32876	32623	32798	32702	32919	32739	
615	0	33303	32258	32705	32569	32749	32831	32687	32785	
616	0	33426	32431	32679	32447	32734	32791	32551	32684	
617	0	33526	32629	32557	32575	32844	32743	32695	32765	
618	0	33351	32678	32794	32727	32734	32878	32535	32743	
619	0	33222	33123	32814	32643	32871	32679	32535	32623	
620	0	33055	33373	32709	32612	32877	32711	32751	32635	
621	0	32902	33644	32493	32677	32862	32887	32802	32663	
622	0	32828	33531	32655	32543	32647	32935	32586	32755	
623	0	32718	33223	32571	32578	32758	32806	32807	32647	
624	0	32594	33279	32630	32439	32747	32751	32706	32611	
625	0	32619	33143	32483	32639	32559	32687	32889	32562	
626	0	32583	33011	32489	32667	32719	32679	33018	32628	
627	0	32613	32852	32735	32903	32887	32675	32711	32647	
628	0	32634	32453	32786	32829	32911	32709	32887	32647	
629	0	32598	32485	32787	32900	32868	32723	32927	32621	
630	0	32463	32850	32557	32879	32645	32748	32647	32661	
631	0	32378	33495	32447	32846	32621	32903	32611	32743	
632	0	32440	33681	32439	32939	32863	32783	32725	32775	
633	0	32496	33843	32359	32831	33048	32575	32919	32701	
634	0	32566	33247	32619	32575	32967	32633	32819	32687	
635	0	32514	33042	32580	32815	32932	32827	32716	32877	
636	0	32537	32615	32591	32855	32939	32748	32631	32861	
637	0	32494	32148	32423	32845	32959	32639	32806	32699	
638	0	32423	32097	32574	32614	32959	32705	32639	32751	
639	0	32520	31911	32535	32647	32661	32851	32807	32735	
640	0	32631	31855	32423	32550	32519	32903	32991	32703	
641	0	32701	32067	32645	32613	32679	32758	32855	32562	
642	0	32775	32467	32707	32626	32647	32789	32786	32729	
643	0	32892	32950	32503	32797	32610	32706	32813	32735	
644	0	33183	32805	32645	32743	32859	32367	33071	32557	
645	0	33159	32867	32556	32535	32823	32457	32927	32755	
646	0	33159	32699	32593	32700	32625	32767	32581	32739	
647	0	33107	32911	32835	32583	32667	32687	32635	32692	
648	0	32815	32887	32763	32247	32786	32623	32723	32687	
649	0	32563	32805	32733	32474	32915	32594	32691	32735	
650	0	32509	32583	32807	32445	32925	32487	32836	32711	
651	0	32496	32539	32646	32514	32895	32559	32706	32700	
652	0	32514	32735	32863	32425	32711	32671	32594	32775	
653	0	32748	32997	32741	32379	32621	32706	32675	32815	
654	0	32848	33259	32710	32540	32623	32738	32757	32751	
655	0	32895	33139	32519	32542	32773	32739	32823	32766	
656	0	32929	32835	32655	32599	32613	32818	32773	32627	
657	0	33065	32471	32775	32545	32550	32679	32775	32582	
658	0	33063	32343	32703	32738	32748	32516	32595	32699	
659	0	33030	32758	32775	32735	32775	32615	32403	32743	
660	0	33021	33143	32647	32635	32677	32941	32347	32790	
661	0	32866	32947	32775	32761	32717	32734	32637	32674	
662	0	32709	32615	32653	32927	32514	33041	32573	32775	
663	0	32791	32535	32463	32711	32604	32802	32769	32719	
664	0	32769	32685	32684	32955	32771	32631	32871	32739	
665	0	32635	32783	32566	32818	32883	32537	32771	32615	
666	0	32623	32751	32615	32785	33127	32531	32839	32595	
667	0	32565	32431	32567	32525	32998	32714	32829	32719	
668	0	32541	32623	32705	32562	33018	32627	32790	32723	
669	0	32519	32707	32643	32538	32930	32794	32727	32583	
670	0	32566	32727	32519	32596	32823	32728	32775	32623	
671	0	32702	32839	32519	32455	32911	32727	32699	32671	
672	0	32674	32647	32370	32634	32967	32877	32806	32759	
673	0	32623	32764	32511	32578	32901	32807	32836	32566	
674	0	32567	32642	32591	32389	32737	32717	32786	32687	
675	0	32487	32799	32615	32629	32643	32839	32571	32739	
676	0	32613	32727	32786	32535	32717	32819	32540	32747	
677	0	32775	32615	32615	32466	32551	32775	32612	32811	
678	0	32793	32731	32647	32435	32581	32721	32554	32831	
679	0	32767	32815	32666	32691	33067	32698	32775	32775	
680	0	32761	32871	32735	32659	33191	32791	32895	32709	
681	0	32703	33254	32845	32717	32943	32759	32611	32715	
682	0	32722	33203	32716	32663	32743	32757	32545	32739	
683	0	32830	33051	32587	32804	32627	32767	32687	32679	
684	0	32932	33247	32751	32743	32815	32671	32977	32679	
685	0	32734	33311	32627	32721	33006	32628	33010	32716	
686	0	32775	33299	32682	32894	32933	32642	32811	32711	
687	0	32687	32934	32997	32916	32737	32739	32703	32723	
688	0	32629	32951	32839	32797	32837	32554	32738	32711	
689	0	32877	33003	32811	32773	32806	32594	32807	32660	
690	0	32964	33095	32590	32927	32722	32687	32724	32675	
691	0	32875	33355	32669	32943	32660	32813	32727	32736	
692	0	32732	33325	32599	32807	32663	32919	32815	32758	
693	0	32743	33319	32527	32938	32735	32807	32827	32668	
694	0	32903	33082	32686	32911	32809	32790	32663	32644	
695	0	32935	32935	32530	32647	32677	32694	32655	32796	
696	0	32872	32391	32614	32615	32610	32747	32660	32767	
697	0	32824	31890	32628	32570	32532	32739	32587	32798	
698	0	32838	31367	32734	32590	32610	32700	32636	32774	
699	0	32927	31191	32689	32551	32723	32559	32811	32749	
700	0	32837	31196	32514	32334	32877	32539	32961	32687	
701	0	32757	31421	32667	32310	32941	32631	32945	32742	
702	0	32757	31989	32595	32574	32791	32703	32609	32788	
703	0	32775	32421	32659	32627	32761	32705	32535	32687	
704	0	32742	32625	32869	32518	32811	32663	32668	32827	
705	0	32700	32867	32711	32711	32738	32763	32771	32731	
706	0	32669	33607	32748	32775	32747	32775	32757	32839	
707	0	32688	33925	32461	32509	32775	32796	32903	32834	
708	0	32727	33775	32751	32739	32751	32713	33021	32615	
709	0	32623	33607	32646	32931	32894	32711	32902	32735	
710	0	32503	33901	32741	32791	32605	32757	32441	32787	
711	0	32514	33700	32596	32807	32663	32799	32387	32914	
712	0	32599	33151	32758	32788	32743	32775	32469	32806	
713	0	32719	32669	32846	32839	32647	32837	32450	32895	
714	0	32921	32103	32530	32557	32879	32751	32679	32764	
715	0	32834	31847	32555	32525	33141	32594	33025	32647	
716	0	32798	31963	32575	32341	33183	32583	33403	32549	
717	0	32911	32015	32575	32263	32439	32788	32786	32764	
718	0	32990	31951	32363	32527	32179	32887	32869	32714	
719	0	33100	31957	32679	32563	32593	32719	33147	32666	
720	0	32937	32303	32703	32447	32987	32511	32879	32683	
721	0	32844	32755	32724	32692	33314	32421	32967	32573	
722	0	32839	32935	32655	32565	33121	32535	32967	32613	
723	0	32849	32916	32711	32410	32788	32751	32735	32831	
724	0	32925	33069	32567	32481	32769	32791	32539	32902	
725	0	33079	32831	32438	32717	32815	32767	32551	32679	
726	0	33130	32903	32391	32743	32946	32765	32730	32750	
727	0	33010	32883	32519	32671	32813	32853	32685	32820	
728	0	33008	32869	32519	32843	32721	32833	32863	32571	
729	0	32738	33005	32493	32819	32679	32784	32685	32635	
730	0	32599	33035	32559	32913	32647	32711	32621	32705	
731	0	32407	32798	32685	32883	32598	32771	32743	32655	
732	0	32219	32895	32807	32711	32679	32679	32713	32750	
733	0	32287	32823	32663	32767	32976	32547	32775	32624	
734	0	32208	32875	32572	32707	32948	32707	32694	32642	
735	0	32306	32564	32692	32677	32783	32769	32527	32714	
736	0	32511	32669	32571	32749	32623	32802	32415	32791	
737	0	32757	32463	32583	32751	32733	32973	32427	32658	
738	0	32866	32365	32423	32591	32855	32835	32681	32751	
739	0	32988	32346	32665	32711	32935	32754	32853	32679	
740	0	33145	32690	32579	32599	32855	32703	32821	32703	
741	0	33253	32838	32756	32481	32670	32831	32743	32749	
742	0	33447	32839	32527	32399	32679	32838	32631	32823	
743	0	33386	32949	32796	32527	32865	32743	32759	32903	
744	0	33287	32862	32860	32620	32703	32827	32671	32719	
745	0	33313	32729	32855	32557	32523	32845	32605	32865	
746	0	33210	33047	32727	32775	32421	32939	32706	32784	
747	0	33072	33275	32925	32749	32859	32775	32771	32817	
748	0	33006	33415	32807	32679	32939	32711	32617	32742	
749	0	32933	33175	32586	32869	32757	32711	32794	32727	
750	0	32927	33175	32572	32751	32548	32891	32735	32594	
751	0	33074	33175	32583	32955	32738	32803	32903	32788	
752	0	33075	32751	32263	33025	32900	32701	32773	32859	
753	0	33094	32747	32391	32790	32797	32549	32721	32738	
754	0	33133	32423	32423	32684	32647	32527	33133	32679	
755	0	33204	32159	32323	32815	32758	32647	32935	32769	
756	0	33311	32079	32398	32763	32869	32599	32802	32717	
757	0	33398	31827	32302	32471	32797	32703	32701	32669	
758	0	33256	31807	32581	32493	32576	32807	32887	32673	
759	0	33123	31879	32647	32610	32483	32911	32820	32839	
760	0	33033	32271	32630	32706	32485	32838	32687	32775	
761	0	32834	32543	32608	32767	32655	32804	32681	32761	
762	0	32383	33003	32551	32687	32765	32733	32518	32671	
763	0	32019	33516	32324	32813	32797	32659	32692	32679	
764	0	31729	33799	32590	32811	32832	32518	32538	32683	
765	0	31554	33899	32503	32589	32903	32668	32595	32711	
766	0	31296	34119	32615	32783	33005	32609	32647	32566	
767	0	31183	34226	32749	32699	32846	32799	32559	32767	
768	0	31170	34363	32731	32695	32731	32767	32533	32711	
769	0	31260	34267	32740	32615	32869	32733	32495	32619	
770	0	31517	34387	32535	32535	32903	32698	32562	32687	
771	0	31872	34322	32513	32575	32913	32583	32854	32556	
772	0	32031	33841	32523	32671	32855	32628	32949	32451	
773	0	32104	33943	32463	32598	32844	32695	33031	32433	
774	0	32285	33685	32527	32572	32759	32593	33061	32417	
775	0	32071	33399	32637	32375	32772	32594	33187	32519	
776	0	31746	33095	32574	32455	32991	32437	33143	32403	
777	0	31384	32996	32895	32374	33298	32319	33477	32199	
778	0	31213	32807	32834	32310	33215	32397	33490	32317	
779	0	31201	32685	33103	32143	32971	32574	33287	32459	
780	0	31483	32154	32980	32247	32881	32695	33201	32525	
781	0	31687	31933	33279	32058	32858	32647	33159	32385	
782	0	31830	31667	33086	32167	32986	32500	33190	32443	
783	0	32042	31623	33131	32148	32991	32677	33143	32553	
784	0	32338	31476	33351	32179	32795	32767	33002	32551	
785	0	32772	31796	33191	32530	32815	32730	32903	32687	
786	0	32924	32055	33031	32585	32786	32755	32855	32726	
787	0	33049	32170	32693	32531	32719	32835	32751	32681	
788	0	33449	32155	32815	32823	32587	32835	32786	32797	
789	0	33693	32437	32703	32879	32671	32738	32767	32803	
790	0	33726	32529	32548	32713	32551	32948	32622	32826	
791	0	33904	32475	32743	32963	32671	32893	32642	32918	
792	0	34142	32279	32623	32929	32743	32877	32580	32991	
793	0	34255	32019	32595	32679	32620	32876	32453	32935	
794	0	34293	31797	32834	32903	32564	32851	32493	32975	
795	0	34377	31613	32647	32839	32527	32769	32298	33002	
796	0	34416	31703	32655	32825	32543	32807	32263	33142	
797	0	34471	31677	32592	33049	32591	32739	32339	32967	
798	0	34220	31745	32697	33055	32647	32660	32351	33033	
799	0	34113	31873	32639	32893	32611	32740	32458	33028	
800	0	33938	32103	32837	33130	32511	32919	32534	32943	
801	0	33892	32043	32797	32973	32539	32823	32540	32935	
802	0	33546	32531	32858	32823	32621	32759	32407	33037	
803	0	33393	32933	32599	32607	32623	32855	32383	33034	
804	0	33166	33135	32541	32660	32701	32810	32635	32903	
805	0	33246	32983	32471	32723	32918	32668	32698	32992	
806	0	33083	32807	32334	32663	32843	32727	32562	32927	
807	0	32959	32965	32354	32775	32819	32689	32671	32915	
808	0	32831	33470	32407	32863	32811	32751	32783	32791	
809	0	32721	33409	32471	32862	32631	32775	32763	32895	
810	0	32521	33319	32580	32573	32575	32738	32673	32822	
811	0	32391	33223	32689	32550	32719	32489	32758	32817	
812	0	32386	33103	32607	32613	32685	32647	32595	32743	
813	0	32505	32882	32701	32755	32765	32677	32739	32847	
814	0	32533	32751	32582	32731	32763	32710	32831	32708	
815	0	32647	32407	32701	32810	32727	32847	32890	32559	
816	0	32766	32207	32519	32567	32754	32766	32971	32579	
817	0	33030	31847	32499	32783	32699	32695	32726	32667	
818	0	33080	31943	32315	32699	32727	32743	32634	32831	
819	0	32988	32074	32527	32734	32725	32791	32509	32845	
820	0	32971	32423	32401	32823	32813	32727	32585	32806	
821	0	32859	32627	32327	32685	32775	32679	32679	32745	
822	0	32564	33063	32663	32487	32847	32741	32631	32799	
823	0	32607	33238	32607	32721	32916	32715	32663	32738	
824	0	32487	33557	32647	32743	32877	32765	32695	32743	
825	0	32509	33407	32487	32438	32709	32763	32581	32639	
826	0	32601	33223	32717	32703	33060	32591	32951	32595	
827	0	32602	33317	32692	32671	33026	32547	32855	32693	
828	0	32556	33343	32531	32468	32845	32646	32701	32671	
829	0	32574	33083	32740	32551	33031	32580	32867	32636	
830	0	32599	33311	32739	32471	32923	32625	32766	32567	
831	0	32561	33451	32625	32335	32694	32775	32578	32519	
832	0	32489	33605	32759	32543	32643	32818	32455	32562	
833	0	32459	33583	32745	32710	32637	32775	32720	32695	
834	0	32519	33415	32527	32630	32903	32623	32839	32638	
835	0	32468	33561	32666	32823	32927	32703	32647	32511	
836	0	32263	33220	32719	32943	33004	32646	32677	32543	
837	0	32322	32835	32647	32879	32847	32645	32759	32631	
838	0	32470	32283	32621	32903	32823	32676	32842	32507	
839	0	32474	31839	32831	32891	32684	32694	32821	32471	
840	0	32432	31727	32725	32559	32543	32634	32775	32620	
841	0	32582	31799	32895	32605	32527	32581	33015	32606	
842	0	32820	32098	32575	32439	32962	32483	33021	32591	
843	0	32755	32669	32821	32390	32871	32677	32875	32591	
844	0	32624	32893	32727	32233	32695	32831	32663	32738	
845	0	32702	32877	32647	32285	32911	32706	32743	32647	
846	0	32856	32679	32466	32279	32869	32844	32303	32799	
847	0	32918	32773	32709	32275	32695	32814	32492	32717	
848	0	32968	32591	32509	32587	32946	32639	32883	32857	
849	0	32903	32675	32575	32674	32749	32759	32791	32669	
850	0	33028	32391	32359	32822	32711	32695	33207	32507	
851	0	33107	32391	32359	32803	32662	32799	33077	32642	
852	0	33046	32622	32423	32850	32551	32799	32559	32751	
853	0	33023	32970	32373	32958	32500	32789	32529	32847	
854	0	33039	32914	32679	32980	32495	32823	32731	32663	
855	0	32943	33109	32655	32891	32685	32723	32803	32775	
856	0	32787	33109	32647	32667	32759	32686	32755	32828	
857	0	32681	33153	32783	32813	32849	32549	33047	32643	
858	0	32620	32891	32655	32855	32583	32771	33135	32767	
859	0	32612	32719	32679	32966	32787	32751	32925	32735	
860	0	32551	32823	32709	32619	32733	32846	32763	32859	
861	0	32537	32646	32784	32767	32731	32647	32711	32671	
862	0	32468	32804	32655	32787	32755	32647	32455	32753	
863	0	32499	32582	32838	32555	32684	32742	32407	32850	
864	0	32482	32683	32571	32646	32447	32843	32353	32820	
865	0	32583	32679	32767	32711	32583	32585	33047	32658	
866	0	32556	32903	32807	32497	32799	32647	33149	32759	
867	0	32636	32937	32767	32471	32945	32668	32978	32807	
868	0	32693	32902	32679	32743	32982	32519	32903	32817	
869	0	32629	32813	32974	32791	32893	32670	32431	32771	
870	0	32615	33095	32799	32574	32895	32738	32331	32854	
871	0	32620	33099	32815	32791	32957	32672	32468	32842	
872	0	32626	33191	32559	32615	32843	32687	32435	32827	
873	0	32658	32975	32718	32487	32647	32667	32679	32623	
874	0	32734	32884	32493	32263	32647	32593	32935	32711	
875	0	32828	32997	32349	32375	32831	32501	32871	32641	
876	0	32833	32902	32132	32535	32791	32733	32645	32738	
877	0	32991	32804	32415	32341	32855	32612	32903	32639	
878	0	32933	32415	32513	32514	32815	32685	32725	32749	
879	0	32911	32391	32621	32615	32631	32838	32659	32775	
880	0	32935	32285	32575	32471	32775	32687	32731	32615	
881	0	32797	32407	32931	32627	33013	32591	32855	32677	
882	0	32765	32339	32898	32575	32911	32695	32710	32679	
883	0	32713	32695	32626	32767	32887	32725	32647	32723	
884	0	32647	32943	32795	32855	32727	32677	32612	32711	
885	0	32713	32867	32762	32647	32640	32841	32665	32695	
886	0	32765	32807	32557	32917	32631	32819	32835	32661	
887	0	32700	32871	32743	32951	32843	32631	32903	32725	
888	0	32802	32913	32703	32717	32861	32643	32967	32615	
889	0	32830	32645	32694	32671	32722	32711	32947	32658	
890	0	32857	32607	32874	32582	32663	32647	33049	32583	
891	0	32818	32593	32725	32713	32788	32762	32945	32497	
892	0	32743	32613	32575	32687	32773	32575	32895	32657	
893	0	32661	32523	32679	32473	32709	32615	32765	32743	
894	0	32660	32725	32645	32660	32783	32590	32775	32637	
895	0	32727	32929	32757	32739	33011	32559	32871	32791	
896	0	32737	33220	32695	32549	33031	32621	32594	32694	
897	0	32754	33011	32623	32743	32847	32709	32575	32583	
898	0	32828	33143	32722	32767	32692	32658	32602	32669	
899	0	32751	32967	32615	32551	32663	32834	32631	32727	
900	0	32807	32758	32435	32685	32687	32753	32695	32700	
901	0	32903	32525	32667	32711	32683	32775	32673	32674	
902	0	32933	32669	32503	32449	32783	32717	32733	32764	
903	0	32855	32573	32541	32613	32903	32647	32807	32815	
904	0	32732	32603	32570	32562	32775	32946	32655	32655	
905	0	32675	32427	32439	32566	32679	32803	32427	32810	
906	0	32674	32557	32439	32821	32763	32815	32553	32879	
907	0	32718	32903	32306	32786	32647	32857	32617	32903	
908	0	32807	33045	32547	32671	32487	32827	32773	32695	
909	0	32868	32764	32481	32837	32581	32789	32924	32681	
910	0	32922	32727	32581	32839	32713	32789	32898	32821	
911	0	32973	32717	32823	32837	32719	32775	32703	32679	
912	0	32990	32646	32725	32722	32724	32729	32727	32701	
913	0	33063	32619	32795	32839	32766	32743	32759	32751	
914	0	33055	32497	32633	32796	32892	32681	32765	32863	
915	0	33037	32559	32722	32583	32933	32713	32885	32754	
916	0	32900	32903	32823	32762	32745	32743	32747	32749	
917	0	32700	33009	32823	32695	32723	32743	32571	32799	
918	0	32677	33146	32711	32639	32807	32643	32759	32723	
919	0	32687	33215	32635	32516	32823	32575	32829	32710	
920	0	32626	32916	32747	32631	32957	32558	33015	32573	
921	0	32741	32941	32767	32679	32769	32703	32775	32716	
922	0	32690	33007	32758	32756	32757	32707	32567	32767	
923	0	32717	32887	32833	32583	32595	32731	32859	32765	
924	0	32679	32966	32895	32695	32593	32903	32800	32791	
925	0	32677	32943	32855	32767	32853	32767	32895	32678	
926	0	32559	32791	32919	32815	33095	32570	32959	32685	
927	0	32503	32807	32894	32723	32834	32756	32791	32743	
928	0	32370	32660	32772	32767	32639	32893	32443	32717	
929	0	32471	32802	32609	32785	32783	32890	32687	32903	
930	0	32490	32754	32685	32599	32879	32815	32727	32815	
931	0	32578	32708	32647	32711	32886	32647	32747	32602	
932	0	32738	32527	32513	32685	32788	32733	32718	32655	
933	0	32762	32613	32590	32644	32753	32844	32685	32813	
934	0	32709	32327	32479	32663	32767	32871	32631	32717	
935	0	32782	32179	32412	32599	32807	32665	32661	32647	
936	0	32806	32413	32647	32612	32807	32663	32940	32679	
937	0	32959	32382	32589	32617	32799	32540	32775	32738	
938	0	32943	32327	32503	32647	32854	32439	32947	32639	
939	0	32912	32423	32591	32499	32855	32535	32955	32723	
940	0	32986	32645	32572	32725	32787	32613	32875	32723	
941	0	32941	32726	32807	32526	32639	32615	32698	32764	
942	0	32955	32819	32743	32460	32671	32671	32578	32647	
943	0	33024	32877	32634	32301	32739	32658	32621	32667	
944	0	32906	32966	32511	32438	32671	32758	32837	32807	
945	0	32914	33195	32692	32470	32807	32791	32637	32919	
946	0	32771	33363	32583	32532	32843	32807	32698	32883	
947	0	32743	33515	32646	32431	32763	32759	32667	32570	
948	0	32672	33591	32532	32626	32655	32797	32477	32695	
949	0	32631	33236	32771	32708	32823	32660	32598	32647	
950	0	32556	33178	32671	32747	32590	32685	32615	32665	
951	0	32545	32940	32679	32775	32551	32658	32758	32820	
952	0	32599	32621	32885	32662	32891	32619	32941	32733	
953	0	32655	32435	32788	32765	33095	32663	32863	32607	
954	0	32769	32397	32789	32833	32946	32725	32745	32647	
955	0	32796	32319	32636	32893	32865	32845	32751	32809	
956	0	32893	32451	32870	32723	32940	32841	32587	32763	
957	0	33041	32324	32775	32879	32719	32879	32559	32662	
958	0	33065	32589	32597	32890	32699	32711	32693	32767	
959	0	33114	32819	32821	32863	32631	32646	32609	32759	
960	0	32998	32822	32727	32727	32530	32585	32539	32671	
961	0	32964	32679	32525	32443	32577	32557	32789	32679	
962	0	32972	32519	32747	32426	32689	32549	33095	32628	
963	0	32806	32530	32600	32357	32851	32575	32829	32549	
964	0	32740	32479	32771	32283	32699	32715	32534	32775	
965	0	32666	32498	32756	32439	32629	32705	32731	32701	
966	0	32609	32333	32652	32679	32551	32675	32524	32655	
967	0	32607	32527	32499	32629	32423	32733	32671	32767	
968	0	32485	32836	32487	32847	32563	32771	32802	32757	
969	0	32434	33109	32635	32729	32743	32698	32962	32631	
970	0	32428	33274	32717	32707	32853	32727	32844	32659	
971	0	32513	33031	32479	32787	33022	32695	32932	32711	
972	0	32516	32999	32543	32791	32981	32623	32959	32669	
973	0	32436	33013	32534	32573	32896	32655	32836	32767	
974	0	32487	32851	32404	32753	32843	32687	32679	32825	
975	0	32487	32532	32523	32751	32788	32806	32767	32647	
976	0	32514	32579	32516	32637	32693	32850	32747	32646	
977	0	32599	32441	32461	32895	32767	32773	32767	32686	
978	0	32742	32532	32429	32895	32822	32769	32759	32729	
979	0	32934	32583	32455	32687	32841	32679	32722	32599	
980	0	33023	32951	32455	32893	32895	32663	33073	32659	
981	0	32878	33059	32559	32788	32759	32723	33061	32677	
982	0	32621	33197	32545	32642	32615	32727	32871	32683	
983	0	32532	32973	32775	32759	32711	32647	32591	32775	
984	0	32601	33127	32715	32671	32691	32623	32579	32887	
985	0	32846	33014	32484	32607	32606	32567	32811	32629	
986	0	32884	32915	32687	32751	32565	32679	32685	32745	
987	0	32775	32631	32692	32721	32687	32662	33055	32735	
988	0	32787	32455	32805	32719	32923	32423	32966	32739	
989	0	32861	32505	32615	32429	32839	32593	32834	32752	
990	0	33031	32631	32751	32555	32794	32710	32723	32914	
991	0	33030	32823	32765	32579	32775	32647	32607	32874	
992	0	32982	32722	32551	32427	32763	32749	32785	32712	
993	0	32932	32918	32629	32663	32655	32754	32739	32830	
994	0	32971	33037	32815	32658	32731	32687	32610	32763	
995	0	32834	33023	32799	32543	32863	32731	32631	32727	
996	0	32636	32630	32724	32655	32789	32799	32711	32661	
997	0	32543	32703	32919	32668	32719	32815	32764	32692	
998	0	32527	32695	32771	32611	32739	32775	32887	32595	
999	0	32463	32636	32539	32535	32874	32815	32902	32527	
1000	0	32529	32519	32759	32639	32751	32725	32742	32481	
1001	0	32639	32575	32732	32510	32839	32579	33002	32524	
1002	0	32897	32621	32681	32658	33309	32450	33187	32487	
1003	0	32964	32759	32884	32497	32838	32646	32724	32671	
1004	0	32974	32890	32775	32647	32493	32623	32271	32659	
1005	0	32973	33020	32695	32700	32587	32703	32735	32587	
1006	0	32923	33029	32586	32598	32831	32574	33145	32603	
1007	0	32928	32759	32567	32781	33131	32516	33046	32681	
1008	0	32775	32689	32462	32737	32895	32621	32807	32647	
1009	0	32899	32579	32663	32711	32865	32623	32687	32642	
1010	0	32913	32820	32587	32625	32735	32631	32633	32717	
1011	0	32934	32973	32759	32699	32575	32646	32359	32826	
1012	0	32893	32903	32581	32663	32751	32571	32515	32767	
1013	0	32841	32668	32717	32443	32839	32491	32877	32578	
1014	0	32793	32869	32667	32642	32808	32661	32727	32770	
1015	0	32761	32837	32598	32751	32741	32601	32839	32715	
1016	0	32786	32695	32801	32579	32588	32703	32788	32807	
1017	0	32772	32473	32701	32797	32479	32852	32745	32836	
1018	0	32698	32323	32543	32918	32447	32914	32564	32927	
1019	0	32696	32151	32791	32871	32823	32679	33030	32671	
1020	0	32629	32295	32748	32703	32699	32789	32844	32735	
1021	0	32538	32741	32895	32854	32612	32803	32695	32773	
1022	0	32593	32903	32703	32823	32487	32895	32583	32706	
1023	0	32647	32775	32827	32607	32615	32877	32530	32764	
1024	0	32590	32857	32791	32811	32733	32927	32475	32771	
1025	0	32577	33055	32694	32639	32781	32839	33053	32700	
1026	0	32647	33095	32641	32571	33055	32679	32868	32663	
1027	0	32671	33111	32563	32567	33025	32708	32852	32727	
1028	0	32665	32943	32655	32741	32858	32791	32669	32879	
1029	0	32722	32787	32645	32662	32770	32747	32559	32775	
1030	0	32700	32476	32689	32316	32738	32643	32827	32683	
1031	0	32671	32487	32495	32383	32671	32719	32775	32763	
1032	0	32762	32647	32602	32317	32687	32679	32843	32789	
1033	0	32764	32695	32531	32359	32717	32725	32838	32759	
1034	0	32750	32819	32407	32311	32793	32714	32815	32754	
1035	0	32784	32839	32495	32263	32762	32751	32734	32784	
1036	0	32718	32967	32413	32165	32823	32731	32807	32707	
1037	0	32671	32895	32545	32410	32815	32647	32823	32805	
1038	0	32743	32759	32448	32483	32839	32643	32711	32820	
1039	0	32765	32423	32350	32751	32839	32615	32671	32767	
1040	0	32829	32324	32487	32799	32895	32567	32822	32647	
1041	0	32925	32303	32732	32677	32633	32839	32718	32754	
1042	0	32942	32487	32539	32967	32599	32855	32543	32615	
1043	0	32862	32461	32644	32941	32639	32689	32614	32731	
1044	0	32954	32871	32645	32799	32742	32690	32795	32721	
1045	0	33011	33159	32855	33051	32679	32782	32617	32643	
1046	0	32823	33340	32683	32967	32703	32763	32382	32893	
1047	0	32735	33095	32581	32948	32878	32671	32756	32807	
1048	0	32660	33183	32751	33015	32951	32617	32839	32675	
1049	0	32559	32954	32755	32770	32611	32679	32756	32749	
1050	0	32594	32885	32609	32882	32367	32799	32711	32742	
1051	0	32599	32583	32706	32839	32541	32813	32687	32687	
1052	0	32647	32691	32738	32602	32863	32727	32890	32787	
1053	0	32686	32805	32751	32709	33203	32679	32971	32695	
1054	0	32717	32943	32435	32631	32998	32719	32995	32611	
1055	0	32735	32967	32548	32851	32685	32743	32831	32709	
1056	0	32759	33003	32767	32787	32621	32734	32727	32730	
1057	0	32663	32835	32647	32807	32751	32765	32730	32562	
1058	0	32663	32725	32486	32759	32787	32630	32787	32787	
1059	0	32672	32415	32742	32623	32951	32640	32867	32690	
1060	0	32740	32295	32834	32444	32886	32657	32855	32687	
1061	0	32728	32071	32971	32517	32698	32716	32758	32711	
1062	0	32815	31889	32895	32503	32809	32643	32797	32751	
1063	0	32702	32091	32713	32391	32711	32717	32647	32676	
1064	0	32660	32322	32818	32503	32609	32681	32508	32644	
1065	0	32815	32497	32727	32583	32631	32693	32525	32762	
1066	0	32791	32681	32574	32431	32791	32642	32679	32669	
1067	0	32719	32679	32482	32626	32915	32573	33010	32551	
1068	0	32864	33025	32588	32643	32963	32629	33097	32511	
1069	0	32885	33405	32685	32559	32771	32711	32671	32711	
1070	0	32787	33223	32493	32775	32819	32687	32585	32697	
1071	0	32854	33551	32511	32796	32887	32677	32671	32602	
1072	0	32930	33563	32539	32759	32931	32647	32765	32695	
1073	0	32877	33347	32663	32843	32982	32695	32903	32702	
1074	0	32708	32919	32542	32823	32839	32679	32971	32691	
1075	0	32696	32937	32646	32775	32797	32694	32759	32629	
1076	0	32704	32963	32681	32975	32639	32790	32511	32807	
1077	0	32743	32879	32655	32831	32596	32775	32534	32832	
1078	0	32971	32534	32417	32763	32695	32731	32607	32815	
1079	0	33026	32677	32499	32787	32804	32751	32633	32671	
1080	0	32992	32635	32607	32706	32705	32794	32575	32775	
1081	0	32834	32743	32631	32665	32766	32663	32620	32715	
1082	0	32820	32647	32775	32439	32782	32717	32699	32647	
1083	0	32937	32835	32775	32595	32769	32775	32495	32699	
1084	0	32993	32802	32963	32631	32790	32734	32601	32775	
1085	0	32963	32726	32838	32387	32817	32679	32751	32748	
1086	0	32948	32666	32607	32683	32799	32791	32738	32655	
1087	0	32802	32524	32807	32659	32839	32839	32734	32763	
1088	0	32627	32679	32679	32738	32810	32870	32797	32794	
1089	0	32615	32681	32387	32539	32738	32748	32645	32775	
1090	0	32511	32838	32690	32688	32791	32637	32675	32669	
1091	0	32577	32579	32703	32646	32965	32590	32717	32853	
1092	0	32692	32837	32607	32575	32945	32663	32798	32887	
1093	0	32694	32983	32631	32695	32869	32658	32743	32863	
1094	0	32612	32775	32619	32713	32789	32628	33087	32620	
1095	0	32631	32513	32647	32677	32711	32557	32973	32614	
1096	0	32763	32718	32463	32795	32534	32603	32830	32727	
1097	0	32999	32719	32427	32869	32557	32643	32579	32591	
1098	0	33143	32745	32735	32709	32621	32615	32741	32756	
1099	0	33090	32795	32689	32815	32639	32761	32751	32771	
1100	0	33149	32939	32607	32914	32773	32727	32671	32815	
1101	0	33063	32845	32685	32635	32991	32524	32885	32717	
1102	0	32978	32727	32724	32811	32773	32633	32755	32867	
1103	0	32884	32515	32534	32719	32507	32815	33089	32775	
1104	0	32727	32758	32807	32455	32669	32767	32879	32711	
1105	0	32617	32765	32734	32557	32855	32699	32719	32621	
1106	0	32607	32683	32466	32627	32855	32698	32859	32750	
1107	0	32525	32405	32599	32595	32903	32643	32875	32751	
1108	0	32443	32567	32613	32942	32585	32679	32703	32569	
1109	0	32346	32759	32487	32813	32331	32757	32815	32515	
1110	0	32472	33093	32449	32741	32613	32717	32807	32738	
1111	0	32473	33107	32331	32615	33007	32751	32775	32839	
1112	0	32663	33335	32487	32515	33060	32743	32634	32708	
1113	0	32751	33159	32487	32325	32887	32703	32567	32826	
1114	0	32847	33078	32580	32343	32735	32717	32530	32831	
1115	0	32892	32719	32505	32378	32647	32711	32667	32771	
1116	0	32859	32835	32295	32407	32587	32783	32573	32815	
1117	0	32804	32834	32373	32539	32607	32775	32543	32791	
1118	0	32766	32556	32423	32611	32569	32810	32549	32695	
1119	0	32830	32151	32607	32423	32707	32775	32623	32733	
1120	0	32929	32031	32551	32549	32739	32708	32691	32751	
1121	0	32854	32007	32595	32612	32815	32670	32596	32635	
1122	0	32881	32275	32943	32487	32763	32691	32491	32625	
1123	0	32817	32236	33011	32557	32765	32754	32609	32803	
1124	0	32835	32358	32804	32613	32745	32729	32566	32757	
1125	0	33005	32515	32893	32802	32735	32669	32765	32644	
1126	0	33106	32639	32756	32697	32737	32791	32790	32621	
1127	0	33074	32759	32723	32879	32743	32695	32627	32749	
1128	0	33012	32854	32959	32751	32655	32643	32559	32703	
1129	0	32831	32911	32879	32669	32647	32718	32551	32715	
1130	0	32689	32959	32967	32783	32755	32711	32583	32663	
1131	0	32700	33199	32819	32717	32974	32503	32855	32685	
1132	0	32654	33213	32579	32711	32947	32726	32967	32724	
1133	0	32582	33111	32771	32823	32850	32719	32879	32685	
1134	0	32582	32959	32719	32847	32738	32683	33019	32705	
1135	0	32642	33050	32583	32637	32679	32705	32866	32707	
1136	0	32654	33062	32579	32799	32740	32786	32711	32723	
1137	0	32783	32887	32711	32717	32771	32881	32773	32791	
1138	0	32716	32655	32515	32581	33095	32694	33083	32755	
1139	0	32807	32815	32687	32677	33145	32581	33008	32749	
1140	0	32852	32764	32759	32607	32663	32773	32903	32819	
1141	0	32720	32629	32871	32521	32575	32694	32541	32663	
1142	0	32751	32310	32797	32690	32426	32587	32479	32391	
1143	0	32711	32681	32609	32803	32343	32725	32695	32588	
1144	0	32837	32719	32743	32607	32766	32497	33287	32548	
1145	0	32831	32492	32627	32798	32993	32598	33063	32607	
1146	0	32775	32763	32711	32735	32978	32612	32811	32623	
1147	0	32703	33079	32685	32721	32754	32700	32725	32647	
1148	0	32674	32943	32655	32719	32847	32655	32887	32735	
1149	0	32659	32845	32583	32475	32815	32679	32846	32675	
1150	0	32547	33107	32475	32642	32860	32548	32742	32639	
1151	0	32622	33143	32623	32593	32738	32815	32775	32702	
1152	0	32751	33117	32690	32382	32534	32903	32773	32775	
1153	0	32606	32893	32546	32487	32598	32763	32822	32711	
1154	0	32639	32986	32443	32471	32723	32711	32598	32739	
1155	0	32624	32893	32389	32415	32789	32662	32585	32755	
1156	0	32705	32743	32551	32583	32807	32775	32507	32797	
1157	0	32698	32571	32583	32615	32740	32716	32563	32747	
1158	0	32681	32663	32788	32438	32667	32783	32551	32807	
1159	0	32614	32663	32838	32591	32738	32679	32614	32845	
1160	0	32669	32573	32715	32646	32869	32666	32655	32714	
1161	0	32753	32767	32847	32627	32695	32819	32749	32831	
1162	0	32988	32620	32711	32683	32731	32790	32719	32775	
1163	0	32955	32607	32951	32751	32807	32788	32699	32845	
1164	0	32883	32623	32804	32663	32775	32802	32620	32679	
1165	0	32873	32503	32572	32879	32845	32711	32766	32747	
1166	0	32856	32583	32790	32902	32703	32695	32687	32751	
1167	0	32855	32659	32775	32767	32596	32775	32647	32693	
1168	0	32660	32594	32605	32964	32759	32685	32740	32639	
1169	0	32749	32287	32485	33099	32914	32713	32738	32818	
1170	0	32839	32445	32227	32950	32901	32667	32919	32825	
1171	0	32774	32606	32516	33033	32818	32658	32858	32797	
1172	0	32726	32761	32479	33115	32858	32707	32837	32748	
1173	0	32727	32639	32311	32949	32737	32755	32804	32729	
1174	0	32726	32567	32517	32775	32647	32747	32707	32763	
1175	0	32772	32806	32553	32711	32717	32671	32567	32631	
1176	0	32785	32884	32647	32373	32690	32574	32798	32683	
1177	0	32773	32739	32603	32303	32548	32621	32855	32647	
1178	0	32642	32903	32615	32291	32530	32717	32849	32481	
1179	0	32671	32791	32679	32348	32775	32791	32839	32647	
1180	0	32687	32807	32700	32343	32759	32738	32842	32595	
1181	0	32732	32527	32763	32343	32807	32751	32903	32551	
1182	0	32767	32865	32873	32599	32665	32743	32869	32647	
1183	0	32663	33103	32757	32602	32479	32871	32711	32639	
1184	0	32786	33183	32921	32477	32821	32671	32831	32595	
1185	0	32742	32991	32847	32813	32883	32723	32775	32669	
1186	0	32647	33125	32551	32775	32703	32807	32694	32775	
1187	0	32647	33191	32657	32679	32742	32919	32619	32735	
1188	0	32708	32820	32581	32687	32820	32773	32812	32823	
1189	0	32706	33007	32591	32586	32948	32741	32820	32775	
1190	0	32738	33007	32498	32663	32975	32681	32807	32679	
1191	0	32910	32815	32573	32549	32894	32677	32839	32669	
1192	0	32948	32354	32495	32481	32859	32655	32830	32693	
1193	0	32943	32511	32507	32663	32667	32677	32791	32787	
1194	0	33026	32676	32404	32570	32797	32681	33015	32655	
1195	0	33025	32798	32492	32561	32827	32668	32959	32711	
1196	0	32926	32567	32427	32639	32789	32659	32823	32799	
1197	0	32949	32707	32671	32687	32775	32663	32633	32691	
1198	0	32845	32727	32685	32647	32765	32677	32741	32805	
1199	0	32812	32655	32548	32973	32742	32683	32754	32741	
1200	0	32687	32438	32775	32875	32669	32662	32775	32686	
1201	0	32706	32445	32671	32899	32717	32647	32775	32695	
1202	0	32706	32205	32844	32748	32799	32694	32711	32607	
1203	0	32817	32383	32975	32881	32786	32663	32647	32743	
1204	0	32775	32411	32887	32935	32749	32751	32659	32829	
1205	0	32735	32847	32731	32789	32743	32759	32709	32799	
1206	0	32647	33316	32811	32765	32659	32829	32535	32891	
1207	0	32540	33819	32775	32831	32628	32903	32485	32841	
1208	0	32391	33639	32639	32747	32798	32771	32659	32813	
1209	0	32285	33871	32918	32669	32935	32733	32749	32807	
1210	0	32346	33899	32931	32677	32962	32794	32598	32887	
1211	0	32532	33563	32667	32437	32883	32707	32551	32887	
1212	0	32711	33069	32879	32641	32788	32747	32709	32850	
1213	0	32716	32364	32787	32676	32607	32735	32788	32679	
1214	0	32730	31903	32783	32662	32749	32674	32818	32655	
1215	0	32749	31751	32621	32775	32671	32719	32738	32827	
1216	0	32782	31453	32631	32795	32599	32671	32493	32850	
1217	0	32916	31479	32629	32802	32863	32551	32887	32655	
1218	0	33003	31623	32355	32615	32895	32615	32767	32687	
1219	0	33006	31647	32354	32683	32703	32525	32823	32702	
1220	0	32988	31892	32487	32773	32555	32596	32805	32539	
1221	0	33078	32291	32685	32742	32524	32687	32953	32661	
1222	0	33060	32625	32479	32615	32591	32549	32980	32531	
1223	0	33023	33122	32631	32566	32979	32519	33151	32476	
1224	0	32860	33183	32595	32572	32749	32709	32839	32698	
1225	0	32746	33069	32511	32562	32847	32681	32815	32662	
1226	0	32725	32977	32605	32405	32740	32821	32527	32767	
1227	0	32638	33265	32593	32547	32557	32943	32359	32820	
1228	0	32526	33319	32518	32450	32643	32711	32411	32771	
1229	0	32509	33106	32771	32474	32465	32717	32237	32853	
1230	0	32604	33241	32711	32503	32425	32845	32675	32690	
1231	0	32950	33269	32492	32573	32727	32677	33549	32427	
1232	0	33084	33299	32659	32676	33159	32631	33055	32621	
1233	0	33177	32996	32531	32559	33300	32526	33125	32685	
1234	0	33026	32807	32457	32811	33003	32549	32996	32825	
1235	0	33030	32839	32309	32741	32949	32535	32867	32799	
1236	0	32959	32797	32407	32738	32795	32629	32658	32677	
1237	0	33026	32817	32546	32690	32572	32719	32647	32735	
1238	0	32839	32877	32766	32887	32506	32685	32557	32767	
1239	0	32760	33189	32629	32863	32495	32823	32619	32775	
1240	0	32681	33389	32535	32743	32543	33030	32685	32775	
1241	0	32721	33021	32667	32699	32723	32879	32955	32795	
1242	0	32788	32827	32727	32615	33102	32670	32885	32543	
1243	0	32671	32845	32914	32762	33153	32562	32965	32573	
1244	0	32620	32894	32855	32732	32599	32957	32722	32775	
1245	0	32589	32486	32647	32503	32505	32975	32455	32695	
1246	0	32767	32443	32751	32725	32468	32896	32647	32787	
1247	0	32864	32143	32595	32743	32599	32811	33015	32698	
1248	0	32836	32199	32613	32711	32903	32645	33131	32631	
1249	0	32587	32228	32499	32813	32855	32711	32775	32813	
1250	0	32474	32579	32639	32769	32687	32707	32611	32839	
1251	0	32556	32647	32573	32966	32563	32734	32466	32601	
1252	0	32542	32533	32589	32719	32443	32703	32566	32631	
1253	0	32391	32655	32695	32523	32583	32747	32615	32741	
1254	0	32447	32743	32647	32436	32773	32735	32690	32695	
1255	0	32555	32716	32715	32477	32963	32742	32655	32887	
1256	0	32701	32463	32564	32583	33095	32505	32687	32886	
1257	0	32838	32673	32723	32543	32959	32646	32709	32725	
1258	0	32806	32977	32759	32358	32727	32801	32566	32863	
1259	0	32781	33197	32432	32630	32899	32819	32540	32871	
1260	0	32786	33389	32621	32597	32809	32871	32629	32711	
1261	0	32885	33191	32711	32543	32498	32803	32543	32679	
1262	0	32834	33267	32583	32629	32543	32765	32627	32759	
1263	0	32642	33255	32697	32590	32582	32669	32738	32775	
1264	0	32708	32687	32755	32433	32822	32551	32903	32644	
1265	0	32975	32415	32791	32567	32759	32823	32903	32751	
1266	0	32970	32373	32759	32519	32892	32791	32927	32735	
1267	0	32967	32333	32551	32454	32835	32823	32783	32699	
1268	0	32819	32263	32725	32535	32881	32702	32799	32691	
1269	0	32861	32519	32598	32607	32951	32733	32799	32711	
1270	0	32887	32743	32701	32473	32749	32703	32625	32709	
1271	0	32751	32903	32581	32579	32711	32775	32551	32730	
1272	0	32634	33051	32507	32594	32535	32797	32663	32831	
1273	0	32570	33339	32439	32507	32554	32830	32531	32751	
1274	0	32665	33111	32447	32665	32807	32663	32806	32688	
1275	0	32903	32799	32485	32711	32933	32647	32735	32688	
1276	0	32775	32391	32420	32807	32935	32671	32723	32805	
1277	0	32805	32354	32387	32684	32850	32715	32749	32855	
1278	0	32748	32691	32541	32911	32733	32743	32715	32783	
1279	0	32727	32914	32674	32861	32854	32727	32797	32541	
1280	0	32718	32985	32486	32810	32839	32723	32893	32529	
1281	0	32722	32863	32726	32832	32643	32734	32670	32602	
1282	0	32629	32883	32729	32855	32599	32795	32574	32517	
1283	0	32671	33071	32821	32743	32679	32775	32571	32475	
1284	0	32713	32951	32924	32647	32751	32735	32484	32617	
1285	0	32796	32748	32710	32623	32867	32577	32571	32647	
1286	0	32720	32355	32666	32477	32819	32527	32931	32567	
1287	0	32719	32061	32803	32581	32903	32596	33313	32582	
1288	0	32757	32397	32839	32679	32999	32615	33327	32647	
1289	0	32844	32518	32687	32474	32798	32775	33043	32687	
1290	0	32845	32646	32895	32695	32854	32748	32955	32803	
1291	0	32694	32663	32743	32719	32679	32837	32663	32741	
1292	0	32570	32688	32727	32865	32597	32775	32943	32795	
1293	0	32596	33003	32625	32831	32647	32703	32775	32724	
1294	0	32668	33087	32639	32871	32724	32707	32647	32725	
1295	0	32740	33261	32473	32795	32735	32765	32721	32737	
1296	0	32789	33111	32657	32589	32775	32789	32722	32810	
1297	0	32937	33102	32487	32754	32695	32811	32804	32721	
1298	0	32966	33046	32563	32699	32755	32791	32692	32884	
1299	0	32978	32985	32855	32415	32643	32819	32493	32893	
1300	0	32918	32869	32734	32567	32759	32695	32679	32771	
1301	0	32850	32611	32751	32695	32668	32773	32811	32851	
1302	0	32709	32703	32887	32481	32578	32823	32655	32966	
1303	0	32717	32647	32962	32562	32855	32641	32645	32762	
1304	0	32753	32551	32754	32482	33069	32543	32714	32668	
1305	0	32691	32227	32631	32356	33089	32438	32832	32725	
1306	0	32685	32461	32751	32589	32799	32557	32719	32645	
1307	0	32721	32818	32639	32609	32708	32658	32479	32703	
1308	0	32866	33031	32451	32607	32706	32701	32657	32807	
1309	0	32950	33089	32525	32621	32900	32623	33044	32591	
1310	0	32815	32878	32471	32671	32901	32658	32902	32591	
1311	0	32683	32754	32629	32834	32771	32663	32771	32583	
1312	0	32605	32973	32684	32738	32742	32699	32663	32703	
1313	0	32692	32987	32707	32843	32820	32731	32679	32767	
1314	0	32786	33007	32563	32883	32756	32903	32699	32756	
1315	0	32851	32658	32354	32710	32759	32870	32505	32735	
1316	0	32953	32190	32463	32839	32807	32757	32591	32717	
1317	0	32916	32363	32455	32835	32959	32527	32959	32621	
1318	0	32918	32627	32315	32731	32820	32587	32919	32761	
1319	0	32895	32583	32535	32703	32795	32647	32701	32791	
1320	0	32943	32423	32598	32750	32647	32695	32903	32703	
1321	0	33080	32423	32743	32667	32711	32631	32868	32742	
1322	0	33122	32509	32707	32755	32751	32627	32883	32703	
1323	0	32941	32611	32625	32484	32607	32751	32767	32806	
1324	0	32769	32559	32773	32351	32624	32930	32719	32700	
1325	0	32599	32541	32687	32383	32934	32655	32841	32690	
1326	0	32706	32615	32613	32421	32873	32666	32663	32635	
1327	0	32696	32741	32871	32455	32748	32863	32823	32681	
1328	0	32501	32850	32836	32479	32741	32740	32929	32731	
1329	0	32445	33035	32727	32519	32599	32717	33039	32775	
1330	0	32558	33241	32749	32500	32734	32749	32858	32722	
1331	0	32655	33277	32715	32562	32827	32698	32960	32695	
1332	0	32534	33095	32775	32633	32925	32637	33037	32839	
1333	0	32532	33261	32743	32615	32836	32628	33087	32899	
1334	0	32660	33261	32507	32438	32717	32719	32703	32721	
1335	0	32595	33223	32511	32500	32479	32887	32437	32769	
1336	0	32806	32687	32579	32647	32594	32749	32723	32645	
1337	0	32844	32331	32519	32519	32553	32730	32647	32602	
1338	0	32830	32319	32751	32739	32514	32766	32607	32561	
1339	0	32978	32317	32751	32735	32489	32962	32647	32719	
1340	0	32997	32551	32601	32743	32604	32711	32660	32668	
1341	0	32740	32475	32711	32846	32727	32715	32655	32565	
1342	0	32727	32795	32607	32749	33023	32604	32615	32647	
1343	0	32724	32963	32729	32677	33139	32517	32823	32601	
1344	0	32756	32961	32639	32679	32972	32421	32983	32631	
1345	0	32864	32799	32482	32721	32692	32759	32647	32511	
1346	0	32856	32835	32574	32726	32599	32687	32537	32663	
1347	0	32775	32559	32647	32669	32685	32630	32620	32663	
1348	0	32615	32231	32455	32767	32775	32633	32643	32605	
1349	0	32538	32087	32609	32807	32903	32559	32895	32685	
1350	0	32596	31981	32643	32657	32723	32693	32791	32775	
1351	0	32666	32319	32622	32947	32631	32735	32662	32817	
1352	0	32846	32543	32891	32858	32714	32701	32435	32855	
1353	0	32968	32877	32788	32831	33003	32615	32753	32727	
1354	0	32968	33223	32669	32895	32925	32563	32711	32671	
1355	0	32924	33327	32388	32733	32838	32645	32870	32727	
1356	0	32927	33299	32543	32801	32662	32859	32767	32685	
1357	0	32940	33397	32381	32695	32795	32759	32687	32751	
1358	0	33101	33415	32431	32579	32805	32775	32623	32694	
1359	0	33217	33127	32437	32510	32663	32850	32775	32690	
1360	0	33176	33055	32647	32558	32545	32811	32731	32847	
1361	0	33027	32863	32765	32635	32551	32783	32689	32790	
1362	0	32876	32901	32895	32663	32583	32711	32692	32791	
1363	0	32637	32787	32859	32644	32679	32647	32775	32839	
1364	0	32450	32552	32763	32704	32743	32619	32775	32847	
1365	0	32581	32235	32833	32591	32863	32581	32691	32595	
1366	0	32643	32317	32724	32729	32855	32613	32718	32692	
1367	0	32630	32327	32521	32708	32831	32691	32830	32673	
1368	0	32512	32589	32715	32479	32835	32721	32736	32659	
1369	0	32420	32647	32607	32647	32740	32775	32599	32692	
1370	0	32484	32759	32535	32567	32660	32747	32747	32759	
1371	0	32656	32805	32647	32391	32664	32623	32839	32693	
1372	0	32551	33335	32607	32470	32639	32765	32891	32811	
1373	0	32487	33287	32612	32487	32859	32814	32805	32796	
1374	0	32545	33154	32579	32364	33030	32601	32661	32799	
1375	0	32623	32805	32599	32629	33064	32570	32591	32799	
1376	0	32731	32319	32703	32751	33002	32647	32589	32735	
1377	0	32759	31898	32785	32737	32723	32735	32455	32903	
1378	0	32855	31955	32647	32871	32807	32705	32655	32939	
1379	0	32879	32132	32671	32887	32805	32626	32573	32791	
1380	0	33073	32373	32698	32895	32438	32687	32846	32788	
1381	0	33281	32353	32973	32867	32454	32685	33263	32723	
1382	0	33181	32775	32909	32775	32647	32745	33071	32715	
1383	0	33015	33047	32727	32535	32935	32818	33039	32734	
1384	0	33042	32924	32815	32539	32903	32751	32659	32700	
1385	0	33108	32921	32639	32557	32935	32717	32479	32686	
1386	0	33209	32935	32489	32621	32831	32775	32590	32839	
1387	0	33196	32955	32607	32567	32631	32887	32519	32877	
1388	0	33198	32707	32503	32604	32532	32900	32551	32789	
1389	0	33159	32684	32588	32727	32660	32757	32823	32687	
1390	0	33165	32637	32454	32741	32865	32578	33095	32695	
1391	0	33104	32743	32349	32631	32622	32599	32786	32703	
1392	0	32925	32811	32637	32933	32632	32676	32855	32647	
1393	0	32839	32783	32561	32815	32867	32575	32972	32705	
1394	0	32892	33044	32667	32818	32731	32679	32834	32731	
1395	0	32974	32917	32751	32609	32647	32647	32835	32610	
1396	0	33009	32843	32615	32737	32813	32813	32695	32679	
1397	0	33017	32551	32562	32615	32855	32723	32594	32663	
1398	0	33097	32694	32709	32842	32832	32727	32683	32631	
1399	0	32931	32791	32647	32850	32859	32683	32682	32743	
1400	0	32989	32623	32535	32726	32615	32767	32689	32775	
1401	0	33061	32358	32751	32590	32415	32783	32647	32745	
1402	0	33155	32172	32734	32673	32439	32820	32676	32735	
1403	0	33311	32275	32742	32623	32571	32679	32727	32815	
1404	0	33401	32372	32660	32754	32815	32619	32775	32575	
1405	0	33185	32463	32415	32767	33020	32706	32684	32795	
1406	0	32679	33039	32487	32596	32977	32576	32673	32795	
1407	0	32150	33382	32388	32879	32823	32621	32599	32647	
1408	0	31936	33239	32532	32871	32716	32695	32569	32790	
1409	0	31661	33619	32461	32698	32799	32562	32679	32679	
1410	0	31485	33983	32590	32817	32861	32561	32571	32579	
1411	0	31418	34231	32539	32798	32716	32699	32349	32751	
1412	0	31333	34231	32343	32796	32671	32743	32583	32765	
1413	0	31311	34559	32449	32775	32675	32687	32485	32709	
1414	0	31557	34383	32510	32714	32775	32639	32655	32663	
1415	0	31988	33909	32462	32489	32765	32607	32605	32559	
1416	0	32207	33494	32519	32607	32749	32599	32687	32500	
1417	0	32538	32855	32553	32534	32822	32559	32847	32551	
1418	0	32484	32930	32818	32239	32750	32634	32715	32484	
1419	0	32260	32918	32743	32355	32863	32527	33133	32263	
1420	0	31753	32925	32685	32471	32915	32593	33298	32337	
1421	0	31318	33043	33106	32330	32655	32799	33120	32310	
1422	0	31117	33205	33002	32461	32755	32659	33287	32165	
1423	0	31127	33034	33121	32425	33207	32555	33651	32202	
1424	0	31306	32945	33019	32237	33287	32455	33906	32334	
1425	0	31629	32499	32999	32337	33391	32583	33711	32426	
1426	0	31819	32172	32900	32313	33227	32679	33395	32473	
1427	0	31999	32116	32919	32207	33111	32471	33127	32663	
1428	0	32174	32052	32962	32479	32738	32868	33159	32823	
1429	0	32354	32195	32783	32590	32737	32799	33135	32767	
1430	0	32516	32171	32845	32599	32711	32775	33102	32658	
1431	0	32607	32391	32741	32471	32598	32843	32791	32741	
1432	0	32869	32659	32563	32743	32599	32855	32671	32795	
1433	0	33356	32557	32661	32815	32647	32862	32670	32892	
1434	0	33645	32489	32804	32791	32663	32789	32594	32879	
1435	0	33846	32151	32931	32913	32775	32716	32671	32902	
1436	0	33938	32023	32786	32916	32783	32839	32566	32955	
1437	0	34231	32221	32677	32715	32691	32773	32439	33103	
1438	0	34330	32110	32783	32837	32619	32924	32263	32997	
1439	0	34378	31843	32646	32927	32735	32825	32453	32955	
1440	0	34482	31789	32698	32815	32641	32829	32230	32857	
1441	0	34376	31943	32546	32843	32663	32818	32282	32881	
1442	0	34216	32259	32263	32903	32735	32819	32420	32999	
1443	0	34075	32310	32335	33031	32722	32841	32567	32879	
1444	0	33953	32231	32299	32950	32681	32774	32627	32995	
1445	0	33735	32153	32391	33035	32421	33047	32221	33075	
1446	0	33637	32014	32599	32933	32535	33027	32257	33005	
1447	0	33564	31974	32561	32971	32854	32855	32356	33039	
1448	0	33486	32037	32566	32807	32757	32855	32407	32946	
1449	0	33436	32327	32691	32690	32591	32927	32383	32971	
1450	0	33398	32525	32495	32391	32500	32855	32813	32812	
1451	0	33338	32543	32731	32359	32583	32827	32610	32935	
1452	0	33305	32598	32543	32327	32583	32827	32426	32986	
1453	0	33243	32505	32525	32263	32669	32751	32470	32986	
1454	0	33047	32583	32401	32343	32647	32821	32463	32843	
1455	0	32871	32647	32751	32274	32619	32725	32553	32703	
1456	0	32884	32763	32659	32615	32878	32671	32967	32691	
1457	0	32873	32743	32555	32706	32811	32834	32727	32758	
1458	0	32749	32775	32775	32751	32941	32587	32815	32787	
1459	0	32736	32671	32487	32775	32859	32646	32923	32725	
1460	0	32647	32724	32487	32813	32812	32619	32983	32769	
1461	0	32572	33174	32683	32671	32735	32655	32850	32775	
1462	0	32513	33379	32703	32775	32749	32645	32775	32671	
1463	0	32429	33314	32775	32723	32768	32711	32806	32859	
1464	0	32322	33051	32612	32501	32771	32711	32803	32771	
1465	0	32474	33183	32619	32755	32759	32667	32663	32589	
1466	0	32454	33175	32583	32723	32737	32674	32719	32666	
1467	0	32380	33383	32639	32751	32711	32632	32659	32695	
1468	0	32260	33155	32601	32858	32763	32607	32727	32604	
1469	0	32103	33503	32783	32871	32881	32709	32691	32687	
1470	0	32256	33319	32681	32818	32963	32727	32738	32699	
1471	0	32527	33215	32823	32677	32937	32755	32751	32613	
1472	0	32850	32966	32722	32871	32870	32749	32635	32735	
1473	0	32978	33087	32427	33043	32639	32727	32503	32716	
1474	0	32861	32949	32561	32862	32425	32868	32647	32718	
1475	0	32587	33139	32543	32951	32531	32835	32767	32647	
1476	0	32455	33093	32319	32845	33047	32569	33039	32604	
1477	0	32381	32858	32485	32567	33158	32426	33234	32519	
1478	0	32413	32827	32695	32747	32966	32587	33024	32607	
1479	0	32455	32717	32539	32615	32732	32759	32596	32669	
1480	0	32544	32797	32683	32434	32763	32722	32771	32807	
1481	0	32636	32807	32543	32135	32815	32583	32715	32799	
1482	0	32679	32390	32351	32315	32671	32647	32900	32719	
1483	0	32681	32514	32471	32281	32601	32731	32735	32535	
1484	0	32695	32603	32431	32231	32762	32709	32621	32661	
1485	0	32615	32711	32455	32351	32762	32899	32637	32715	
1486	0	32743	32725	32807	32348	32859	32743	32871	32567	
1487	0	32758	33223	32759	32252	32783	32647	32715	32644	
1488	0	32714	33302	32823	32525	32743	32670	32775	32702	
1489	0	32673	33071	32585	32611	32681	32638	32571	32663	
1490	0	32661	32375	32492	32571	32814	32587	32742	32567	
1491	0	32594	32250	32606	32569	32822	32530	32935	32661	
1492	0	32748	31767	32615	32639	32938	32567	32983	32708	
1493	0	32685	31427	32455	32559	33127	32647	32997	32647	
1494	0	32495	31449	32479	32815	32993	32708	32706	32788	
1495	0	32540	31463	32340	32871	32789	32750	32559	32782	
1496	0	32694	31789	32631	32679	32639	32803	32604	32743	
1497	0	32797	31974	32445	32791	32676	32791	32827	32847	
1498	0	32993	32143	32639	32831	32855	32771	32911	32775	
1499	0	33067	32727	32699	32947	32851	32733	32959	32741	
1500	0	33151	32925	32719	32775	32709	32759	32939	32597	
1501	0	33119	33298	32839	32991	32477	32885	32734	32758	
1502	0	33085	33267	32883	32903	32591	32882	32663	32732	
1503	0	33004	33461	33036	32783	32879	32711	32751	32596	
1504	0	32935	33616	32804	32976	32868	32602	32833	32620	
1505	0	32865	33530	32933	32951	32810	32583	32887	32703	
1506	0	32756	33382	32972	32827	32743	32621	32797	32613	
1507	0	32568	33507	33015	32845	32855	32547	32858	32807	
1508	0	32340	33534	32803	32694	33014	32527	32813	32837	
1509	0	32268	33254	32621	32647	32711	32742	32751	32771	
1510	0	32322	33383	32599	32535	32775	32609	32854	32803	
1511	0	32349	33247	32596	32346	32631	32613	32883	32709	
1512	0	32301	33191	32727	32477	32587	32679	32687	32707	
1513	0	32359	32638	32703	32564	32631	32775	32623	32749	
1514	0	32607	32551	32495	32666	32754	32717	32809	32693	
1515	0	32879	32527	32641	32639	32742	32655	32647	32731	
1516	0	32947	32567	32658	32859	32690	32799	32548	32711	
1517	0	32985	32171	32540	32809	32754	32703	32578	32767	
1518	0	33089	32135	32531	32572	32775	32672	32807	32638	
1519	0	33047	32378	32539	32723	32775	32765	32734	32813	
1520	0	32930	32757	32772	32751	32667	32863	32498	32775	
1521	0	32751	33127	32733	32579	32879	32713	32566	32704	
1522	0	32709	33447	32853	32637	32799	32763	32679	32844	
1523	0	32718	33459	32679	32567	32639	32802	32623	32771	
1524	0	32738	33119	32586	32477	32690	32588	32567	32665	
1525	0	32797	33047	32668	32596	32692	32687	32829	32679	
1526	0	32872	32903	32724	32598	32725	32642	33070	32588	
1527	0	32775	33069	32559	32373	32695	32743	32854	32605	
1528	0	32885	32831	32559	32503	32739	32731	32698	32775	
1529	0	33031	32543	32386	32431	32763	32775	32783	32815	
1530	0	33036	32289	32475	32271	32787	32771	32833	32595	
1531	0	32937	32377	32503	32421	32732	32725	32975	32741	
1532	0	32686	32467	32459	32550	32647	32773	32771	32794	
1533	0	32710	32508	32547	32471	32727	32770	32621	32711	
1534	0	32700	32497	32485	32733	32914	32695	32676	32858	
1535	0	32612	32627	32743	32891	32966	32638	32694	32759	
1536	0	32623	32547	32723	32765	32837	32679	32767	32628	
1537	0	32526	32855	32957	32727	32459	32719	32686	32767	
1538	0	32574	33109	32693	32694	32519	32719	32811	32699	
1539	0	32903	33015	32599	32431	32751	32711	32769	32647	
1540	0	32927	32973	32717	32559	32941	32622	32655	32750	
1541	0	32902	32807	32823	32748	32714	32743	32385	32742	
1542	0	32820	32683	32743	32759	32884	32629	32629	32695	
1543	0	32765	32333	32867	32842	33069	32575	32717	32683	
1544	0	32890	32191	32725	32913	32719	32749	33007	32633	
1545	0	32797	32059	32903	32799	32647	32762	32977	32623	
1546	0	32775	32359	32671	32870	32726	32811	32759	32711	
1547	0	32717	32372	32516	32635	32639	32511	32707	32495	
1548	0	32637	32951	32559	32591	32511	32639	32923	32679	
1549	0	32714	33206	32390	32715	32679	32830	32863	32758	
1550	0	32855	32999	32487	32647	32860	32772	32748	32797	
1551	0	32742	33138	32471	32759	32786	32735	32727	32853	
1552	0	32642	33159	32547	32662	32751	32903	32789	32879	
1553	0	32756	32999	32506	32447	32790	32798	32642	32775	
1554	0	32815	33251	32731	32562	32749	32804	32614	32703	
1555	0	32770	33383	32755	32534	32543	32891	32722	32773	
1556	0	32853	33397	32580	32467	32623	32830	32615	32685	
1557	0	32929	33575	32574	32525	32559	32679	32577	32802	
1558	0	32840	33365	32590	32619	32627	32685	32923	32643	
1559	0	32847	33063	32519	32767	32787	32635	32949	32805	
1560	0	32935	32497	32450	32599	32913	32615	32840	32799	
1561	0	32983	32375	32821	32559	33082	32599	32923	32621	
1562	0	32948	32098	32751	32647	33143	32615	32879	32685	
1563	0	32861	32060	32674	32590	32999	32679	32621	32711	
1564	0	32775	31847	32647	32589	32935	32775	32763	32599	
1565	0	32693	31974	32516	32679	33026	32694	32773	32773	
1566	0	32575	32340	32615	32775	32984	32677	33079	32679	
1567	0	32596	32435	32469	32754	32885	32711	32967	32701	
1568	0	32669	32595	32319	32835	32893	32687	32839	32711	
1569	0	32568	32575	32423	32991	32613	32827	32523	32813	
1570	0	32662	32903	32306	32900	32511	32795	32642	32687	
1571	0	32735	33003	32489	32916	32559	32758	32639	32720	
1572	0	32839	32959	32519	32879	32562	32687	32841	32743	
1573	0	33069	32795	32656	32879	32698	32603	32763	32647	
1574	0	33093	32895	32587	32927	32709	32762	32647	32809	
1575	0	33008	33044	32661	32887	32815	32673	32583	32799	
1576	0	32805	32870	32690	32591	32847	32692	32587	32698	
1577	0	32743	32951	32831	32791	32749	32803	32594	32876	
1578	0	32555	32962	32785	32735	32662	32753	32580	32925	
1579	0	32487	32887	32903	32727	32699	32695	32619	32863	
1580	0	32572	32607	32741	32743	32671	32677	32639	32955	
1581	0	32654	32843	32495	32615	32485	32579	32631	32897	
1582	0	32576	33035	32721	32500	32581	32628	32557	32721	
1583	0	32588	33229	32719	32685	32711	32591	32632	32749	
1584	0	32765	33227	32863	32699	32627	32713	32643	32895	
1585	0	32728	33334	32829	32671	32933	32543	32871	32724	
1586	0	32671	33629	32767	32636	33089	32575	32867	32756	
1587	0	32554	33600	32903	32594	32894	32695	32775	32763	
1588	0	32669	33389	32819	32391	32871	32742	32767	32738	
1589	0	32835	32818	32626	32575	32838	32794	32751	32631	
1590	0	32871	32425	32627	32661	32751	32790	32674	32671	
1591	0	32812	32107	32447	32435	32749	32791	32775	32669	
1592	0	32813	32082	32692	32667	32807	32757	32833	32575	
1593	0	32962	31838	32577	32787	32797	32850	32773	32670	
1594	0	33030	31911	32486	32615	32855	32751	32799	32683	
1595	0	33017	32019	32523	32819	32707	32662	32765	32575	
1596	0	32932	32353	32699	32863	32669	32733	32511	32709	
1597	0	32956	32631	32546	32659	32759	32765	32711	32687	
1598	0	32841	32821	32685	32791	32839	32794	32695	32673	
1599	0	32782	33091	32711	32685	32799	32894	32717	32623	
1600	0	32769	32925	32557	32487	32591	32926	32658	32669	
1601	0	32684	32797	32726	32582	32567	32773	32967	32543	
1602	0	32663	32508	32807	32569	32884	32694	33059	32593	
1603	0	32642	32302	32657	32415	33079	32645	33079	32567	
1604	0	32580	32879	32822	32523	32976	32535	32983	32591	
1605	0	32603	33220	32831	32470	32807	32667	32991	32708	
1606	0	32556	33131	32814	32407	33055	32599	33247	32597	
1607	0	32575	32705	32559	32719	32954	32709	32844	32615	
1608	0	32543	32687	32434	32671	32566	32823	32455	32791	
1609	0	32674	32327	32668	32629	32757	32644	32567	32774	
1610	0	32679	32615	32629	32661	33031	32499	32742	32798	
1611	0	32665	32553	32831	32575	32871	32647	32933	32861	
1612	0	32598	32835	32847	32711	32513	32703	32811	32627	
1613	0	32645	32879	32638	32669	32623	32647	32713	32715	
1614	0	32762	33159	32793	32647	32711	32765	32727	32743	
1615	0	32802	33051	32743	32862	32883	32629	32793	32773	
1616	0	32827	33079	32719	32844	32897	32607	32815	32644	
1617	0	32925	33359	32607	32541	32743	32739	32741	32632	
1618	0	32964	33295	32603	32551	32687	32637	32754	32763	
1619	0	33007	33343	32497	32475	32751	32833	32847	32757	
1620	0	32828	33287	32631	32383	32811	32687	32831	32709	
1621	0	32681	33183	32799	32429	32643	32773	32803	32831	
1622	0	32799	32879	32766	32642	32478	32887	32582	32787	
1623	0	32780	32847	32981	32733	32675	32770	32719	32767	
1624	0	32738	32738	33061	32539	32914	32577	32800	32743	
1625	0	32718	32447	32827	32679	33047	32527	32739	32758	
1626	0	32607	32495	32694	32655	32854	32783	32631	32903	
1627	0	32399	32245	32831	32545	32967	32791	32731	32826	
1628	0	32423	32110	32599	32655	32903	32783	32539	32729	
1629	0	32511	32231	32401	32749	32834	32759	32611	32767	
1630	0	32535	32045	32593	32769	32733	32673	32873	32766	
1631	0	32601	32084	32415	32775	32455	32709	32903	32580	
1632	0	32518	32095	32599	32591	32469	32791	32914	32663	
1633	0	32551	32454	32647	32743	32559	32759	32823	32630	
1634	0	32805	32583	32556	32675	32595	32775	32735	32543	
1635	0	32890	32887	32775	32703	32567	32863	32535	32630	
1636	0	32878	32699	32511	32788	32517	32861	32421	32668	
1637	0	32890	32743	32461	32859	32747	32756	32767	32579	
1638	0	33179	33095	32571	32820	32881	32642	32677	32607	
1639	0	33223	33247	32639	32957	33082	32634	32747	32739	
1640	0	33036	33463	32602	32903	33045	32681	32793	32635	
1641	0	32679	33351	32775	32823	32970	32615	33014	32623	
1642	0	32549	33140	32819	32647	32969	32575	32890	32733	
1643	0	32570	32996	32963	32677	32964	32631	32694	32639	
1644	0	32477	32799	32739	32619	32914	32485	32815	32700	
1645	0	32491	32479	32669	32675	32668	32719	32765	32878	
1646	0	32301	32517	32503	32639	32694	32813	32751	32737	
1647	0	32079	32503	32386	32333	32500	32833	32719	32789	
1648	0	32120	32647	32447	32451	32615	32767	32786	32699	
1649	0	32289	32382	32461	32404	32795	32637	32771	32755	
1650	0	32635	32511	32567	32283	32767	32734	32603	32647	
1651	0	32892	32919	32578	32319	32742	32709	32700	32687	
1652	0	32884	33124	32497	32464	32662	32729	32611	32796	
1653	0	32839	33303	32743	32591	32551	32803	32551	32659	
1654	0	33059	32924	32789	32771	32835	32609	32956	32659	
1655	0	33248	32941	32729	32735	32841	32541	33327	32495	
1656	0	33438	33069	32703	32537	32580	32794	32823	32676	
1657	0	33473	32566	32607	32701	32634	32917	32638	32839	
1658	0	33243	32342	32731	32700	32755	32683	32771	32711	
1659	0	33194	32274	32459	32642	32964	32606	33007	32694	
1660	0	33110	32367	32575	32694	32881	32665	32861	32839	
1661	0	33004	32495	32663	32516	32806	32622	32583	32759	
1662	0	33215	32615	32909	32727	32839	32599	32671	32771	
1663	0	33264	32871	32683	32721	32790	32571	32683	32791	
1664	0	33191	32900	32487	32671	32602	32751	32530	32713	
1665	0	32933	33243	32700	32845	32603	32843	32215	32854	
1666	0	32551	33431	32807	32911	32713	32885	32299	32943	
1667	0	32399	33415	32727	32758	32997	32769	32503	32767	
1668	0	32535	33203	32751	32681	32822	32775	32589	32763	
1669	0	32590	32925	32725	32794	32566	32804	32599	32855	
1670	0	32684	32795	32807	32795	32706	32706	32897	32683	
1671	0	32624	32749	32597	32917	32791	32723	33123	32791	
1672	0	32470	32807	32414	32911	32836	32735	33041	32727	
1673	0	32455	32919	32381	32829	33023	32647	32927	32703	
1674	0	32383	32799	32343	32839	32940	32647	32967	32757	
1675	0	32279	32658	32404	32845	32647	32839	32839	32859	
1676	0	32529	32461	32463	32711	32543	32911	32627	32743	
1677	0	32718	32245	32810	32687	32623	32663	32870	32465	
1678	0	32639	31959	32711	32639	32695	32602	32971	32551	
1679	0	32661	32023	32595	32723	32662	32643	32975	32593	
1680	0	32726	32114	32789	32707	32695	32739	32707	32559	
1681	0	32870	32159	32739	32583	32727	32885	32703	32839	
1682	0	32988	32199	32767	32391	32767	32814	32839	32759	
1683	0	32932	32743	32589	32645	32677	32758	32877	32647	
1684	0	32986	33014	32715	32543	32724	32695	32751	32639	
1685	0	32922	32891	32685	32610	32862	32671	32809	32766	
1686	0	32944	33003	32855	32473	33090	32610	32966	32671	
1687	0	32804	33091	32883	32583	32919	32621	32747	32647	
1688	0	32556	32941	32715	32635	32831	32673	32767	32685	
1689	0	32538	33095	32782	32672	32662	32831	32683	32687	
1690	0	32597	33159	32773	32788	32663	32797	32647	32754	
1691	0	32592	33221	32695	32694	32687	32749	32826	32799	
1692	0	32604	33007	32767	32501	32684	32767	32740	32804	
1693	0	32647	32661	32682	32637	32427	32897	32563	32738	
1694	0	32722	32601	32715	32707	32390	32861	32450	32819	
1695	0	32825	32355	32519	32767	32748	32702	32709	32751	
1696	0	32871	32315	32351	32711	32967	32683	32709	32735	
1697	0	32946	32223	32581	32765	32951	32679	32577	32815	
1698	0	32930	32495	32499	32765	32855	32687	32413	32775	
1699	0	32836	32694	32541	32859	32883	32667	32739	32759	
1700	0	32871	32741	32463	32671	32871	32719	33012	32647	
1701	0	32663	32923	32495	32588	32903	32819	32823	32766	
1702	0	32604	33239	32605	32521	32919	32679	32941	32723	
1703	0	32694	33207	32575	32647	33197	32550	32986	32623	
1704	0	32662	33315	32503	32647	32862	32714	32530	32715	
1705	0	32713	33075	32565	32503	32623	32941	32711	32833	
1706	0	32750	32943	32605	32751	32735	32614	32969	32679	
1707	0	32725	33039	32489	32646	32891	32679	32855	32791	
1708	0	32841	33063	32647	32679	32743	32919	32583	32813	
1709	0	32869	33255	32542	32685	32791	32903	32583	32850	
1710	0	32783	33009	32757	32811	32807	32847	32564	32871	
1711	0	32818	33189	32718	32819	32623	32828	32835	32631	
1712	0	32698	33342	32677	32674	32811	32679	33207	32623	
1713	0	32694	33158	32877	32669	32946	32621	33127	32730	
1714	0	32582	33059	33001	32451	32892	32670	32827	32643	
1715	0	32747	32563	32647	32663	32733	32615	32734	32675	
1716	0	32884	32383	32455	32715	32662	32589	32991	32665	
1717	0	32843	32221	32679	32535	32623	32605	32839	32660	
1718	0	32839	32303	32708	32835	32548	32607	32743	32754	
1719	0	32941	32585	32766	32911	32834	32569	32711	32775	
1720	0	32989	32567	32683	32769	32663	32609	32683	32802	
1721	0	32954	32682	32511	32805	32647	32735	32567	32743	
1722	0	32837	32671	32623	32703	32775	32668	32695	32725	
1723	0	32708	32919	32674	32371	32775	32739	32719	32720	
1724	0	32612	32837	32835	32493	32871	32685	32879	32641	
1725	0	32594	32487	32789	32459	32871	32527	32717	32679	
1726	0	32668	32249	32708	32379	32720	32639	32475	32678	
1727	0	32796	32031	32755	32451	32647	32683	32487	32663	
1728	0	32751	31972	32705	32559	32604	32771	32409	32877	
1729	0	32723	31963	32823	32321	32559	32711	32699	32853	
1730	0	32628	31830	32751	32591	32567	32687	32892	32687	
1731	0	32898	32263	32690	32674	32839	32576	32901	32743	
1732	0	32998	32450	32515	32678	32815	32722	32598	32766	
1733	0	32878	33084	32519	32887	32871	32775	32675	32640	
1734	0	32703	33243	32436	32923	32855	32659	32683	32780	
1735	0	32508	33250	32455	32971	32855	32690	32647	32714	
1736	0	32529	33316	32695	32893	32676	32687	32550	32715	
1737	0	32679	33124	32502	32898	32684	32682	32526	32583	
1738	0	32834	33059	32353	32683	32819	32705	32623	32731	
1739	0	32799	33351	32588	32617	32771	32749	32591	32747	
1740	0	32792	33205	32465	32507	32799	32723	32662	32715	
1741	0	32933	32807	32473	32431	32809	32748	32683	32687	
1742	0	33023	32797	32580	32491	32679	32843	32662	32731	
1743	0	33031	32655	32477	32511	32669	32743	32603	32751	
1744	0	32888	32855	32663	32495	32683	32659	32721	32719	
1745	0	32980	32915	32765	32597	32711	32760	32821	32871	
1746	0	33004	32719	32703	32691	32878	32723	32959	32879	
1747	0	32930	32859	32622	32597	32863	32876	32941	32655	
1748	0	32754	32895	32541	32715	32790	32871	32826	32759	
1749	0	32838	32598	32575	32758	32607	32770	32730	32786	
1750	0	32911	32799	32385	32671	32391	32831	32807	32733	
1751	0	32891	32819	32444	32739	32491	32807	32683	32855	
1752	0	32846	32987	32375	32569	32859	32642	32934	32797	
1753	0	32540	32852	32565	32647	32983	32705	33047	32727	
1754	0	32372	33017	32631	32543	32898	32694	32971	32723	
1755	0	32332	33007	32559	32611	32914	32705	33003	32647	
1756	0	32391	32647	32619	32763	32855	32714	32921	32723	
1757	0	32476	32631	32571	32677	32879	32795	32783	32759	
1758	0	32626	32613	32487	32783	32771	32707	32761	32683	
1759	0	32747	32413	32743	32559	32762	32764	32707	32722	
1760	0	32854	32337	32663	32709	32789	32687	32647	32621	
1761	0	32878	32420	32885	32669	32615	32631	32668	32887	
1762	0	32791	32391	32866	32535	32751	32654	32735	32871	
1763	0	32847	32897	32804	32746	32903	32695	32660	32631	
1764	0	32951	33071	32957	32721	32989	32667	32599	32699	
1765	0	32923	33487	32741	32645	32879	32695	32293	32823	
1766	0	32993	33477	32706	32813	32731	32707	32623	32635	
1767	0	32928	33271	32543	32859	32647	32815	32597	32746	
1768	0	32861	33427	32835	32702	32644	32769	32735	32738	
1769	0	32967	33243	32653	32815	32767	32655	32853	32764	
1770	0	32839	33018	32741	32699	32697	32701	33031	32570	
1771	0	32658	32869	32662	32727	32645	32769	32889	32591	
1772	0	32474	32589	32757	32551	32689	32762	32647	32743	
1773	0	32455	32209	32759	32663	32863	32655	32694	32844	
1774	0	32554	32063	32487	32831	32867	32595	32503	32861	
1775	0	32759	32191	32669	32831	32823	32663	32661	32727	
1776	0	32852	32103	32601	32799	32855	32543	33068	32617	
1777	0	32936	32019	32287	32607	32802	32642	32999	32691	
1778	0	32973	32119	32564	32599	32571	32769	32703	32669	
1779	0	33014	32278	32511	32637	32707	32758	32562	32655	
1780	0	32902	32759	32463	32591	32775	32756	32519	32655	
1781	0	32972	32948	32681	32335	32741	32719	32687	32701	
1782	0	32932	33263	32662	32461	32665	32735	32646	32613	
1783	0	32850	33239	32621	32535	32583	32868	32804	32647	
1784	0	32686	33071	32759	32503	32645	32701	32751	32615	
1785	0	32309	32951	32735	32603	32742	32817	32799	32671	
1786	0	32172	33191	32714	32787	32967	32754	32762	32662	
1787	0	32247	33215	32629	32963	32919	32794	32742	32871	
1788	0	32482	33015	32692	32735	32871	32831	32873	32723	
1789	0	32623	32693	32722	32903	32795	32763	32743	32807	
1790	0	32769	32758	32691	33005	32591	32895	32613	32765	
1791	0	32874	32916	32790	32724	32671	32763	32983	32679	
1792	0	32951	33159	32807	32764	32506	32999	32831	32863	
1793	0	32960	33484	32817	32693	32719	32863	32775	32870	
1794	0	32903	33501	32594	32713	32967	32675	32787	32767	
1795	0	33024	33199	32647	32647	32823	32628	32665	32759	
1796	0	33115	32775	32583	32566	32667	32774	32797	32886	
1797	0	32997	32506	32561	32299	32868	32695	32967	32863	
1798	0	32751	32455	32531	32502	32655	32655	32983	32671	
1799	0	32655	32407	32303	32468	32575	32766	32987	32711	
1800	0	32562	32348	32443	32331	32695	32743	32819	32757	
1801	0	32578	32327	32507	32479	32762	32719	32647	32852	
1802	0	32684	32391	32343	32535	33003	32516	32679	32711	
1803	0	32781	32321	32569	32475	32863	32495	32636	32707	
1804	0	32967	32196	32615	32581	32803	32487	32773	32557	
1805	0	32884	32051	32461	32551	32623	32717	32719	32603	
1806	0	32862	32183	32739	32543	32559	32875	32617	32787	
1807	0	32870	32284	32623	32835	32695	32851	32615	32743	
1808	0	32874	32293	32708	32839	32732	32786	32502	32631	
1809	0	32834	32343	32687	32742	32791	32679	32533	32590	
1810	0	32788	32627	32841	32871	32571	32865	32485	32694	
1811	0	32733	32879	32818	32847	32605	32839	32535	32669	
1812	0	32694	33159	32788	32914	32625	32727	32613	32545	
1813	0	32719	33054	32895	33115	32847	32660	33023	32653	
1814	0	32631	32935	32858	33042	33076	32646	33031	32708	
1815	0	32661	33123	32788	32932	32965	32669	32871	32647	
1816	0	32660	33151	33079	32619	32823	32699	32826	32659	
1817	0	32724	33117	32871	32615	32695	32775	32751	32669	
1818	0	32663	32827	32941	32511	32757	32683	32565	32588	
1819	0	32744	32973	32903	32289	32804	32771	32630	32603	
1820	0	32802	32775	33006	32587	32743	32765	32807	32709	
1821	0	32871	32895	32863	32797	32713	32807	32663	32765	
1822	0	32825	32912	32683	32879	32785	32615	32839	32615	
1823	0	32775	32903	32599	32727	33001	32563	32943	32818	
1824	0	32783	32795	32671	32709	33027	32671	32595	32923	
1825	0	32724	32551	32370	32607	32806	32805	32933	32813	
1826	0	32610	32565	32349	32484	32647	32773	32871	32646	
1827	0	32535	32364	32213	32534	32487	32767	32495	32844	
1828	0	32554	32123	32669	32331	32730	32751	32811	32813	
1829	0	32662	32303	32749	32437	32903	32786	32820	32807	
1830	0	32708	32423	32639	32442	32775	32765	32612	32722	
1831	0	32655	32867	32631	32607	32639	32711	32636	32715	
1832	0	32631	33301	32455	32663	32613	32727	32847	32733	
1833	0	32660	33325	32742	32771	32647	32805	32807	32855	
1834	0	32661	33221	32574	32655	32767	32749	33058	32767	
1835	0	32599	33229	32461	32679	33138	32559	33062	32701	
1836	0	32668	33110	32133	32663	32935	32607	32783	32647	
1837	0	32734	32943	32313	32519	32831	32695	33042	32570	
1838	0	32643	32866	32431	32658	32679	32691	32769	32681	
1839	0	32556	32663	32357	32715	32727	32684	32775	32641	
1840	0	32723	32629	32609	32726	32759	32663	32720	32647	
1841	0	32775	32523	32699	32806	32692	32685	32671	32686	
1842	0	32740	32633	32669	32883	32679	32734	32647	32799	
1843	0	32892	32927	32919	32725	32647	32812	32501	32743	
1844	0	32858	32951	32759	32839	32711	32884	32559	32743	
1845	0	33062	32914	32743	32775	32844	32813	32621	32735	
1846	0	33005	32628	32695	32613	32829	32681	32829	32758	
1847	0	32893	32676	32655	32579	32837	32731	32815	32721	
1848	0	32870	32769	32675	32543	32819	32703	32711	32647	
1849	0	32941	33039	32619	32319	32677	32822	32701	32775	
1850	0	32906	33086	32632	32401	32773	32646	32599	32715	
1851	0	32805	32843	32690	32373	32731	32703	32606	32719	
1852	0	32908	32591	32627	32263	32739	32743	32565	32636	
1853	0	32885	32527	32559	32531	32851	32709	32639	32681	
1854	0	32947	32412	32707	32547	32751	32642	32751	32748	
1855	0	32929	32454	32594	32641	32725	32620	32873	32694	
1856	0	32791	32599	32637	32609	32973	32509	32893	32583	
1857	0	32740	32603	32399	32870	32916	32790	32791	32639	
1858	0	32599	32551	32655	32791	32775	32759	32741	32699	
1859	0	32460	32710	32615	32903	32599	32807	32739	32787	
1860	0	32445	32951	32751	32791	32723	32701	32787	32887	
1861	0	32635	32950	32687	32805	32843	32525	33102	32644	
1862	0	32797	33097	32663	32785	32767	32586	32932	32799	
1863	0	32871	33079	32703	32615	32627	32741	32541	32775	
1864	0	32978	32935	32503	32911	32679	32740	32647	32807	
1865	0	32957	33119	32375	32863	32659	32743	32647	32701	
1866	0	32959	33055	32263	32766	32738	32663	32734	32736	
1867	0	32863	32775	32479	32710	32647	32643	32637	32662	
1868	0	32812	32681	32638	32599	32503	32742	32639	32834	
1869	0	32538	32895	32509	32804	32631	32727	32717	32839	
1870	0	32586	32941	32774	32690	33050	32702	33071	32741	
1871	0	32581	32951	32647	32622	33055	32557	33124	32543	
1872	0	32673	32899	32703	32430	32836	32749	32791	32761	
1873	0	32740	32710	32647	32601	32775	32895	32631	32833	
1874	0	32711	32993	32859	32415	32839	32754	32711	32709	
1875	0	32591	33025	32814	32589	32855	32599	32813	32710	
1876	0	32441	33167	32771	32697	32663	32797	32692	32740	
1877	0	32466	33186	32563	32695	32557	32865	32600	32887	
1878	0	32628	32850	32757	32485	32615	32845	32670	32679	
1879	0	32647	32431	32719	32645	32611	32767	32658	32781	
1880	0	32631	32231	32661	32712	32855	32819	32747	32743	
1881	0	32529	32461	32827	32685	33113	32671	32931	32775	
1882	0	32676	32642	32895	32783	32833	32765	32882	32609	
1883	0	32840	32933	32966	32767	32739	32695	32892	32571	
1884	0	33102	32923	32839	32703	32844	32719	32767	32735	
1885	0	33356	32730	32903	32531	32910	32739	32590	32822	
1886	0	33196	32815	32847	32628	32699	32813	32531	32756	
1887	0	33114	33011	32513	32579	32793	32774	32682	32939	
1888	0	33039	33204	32519	32431	33023	32689	32647	32803	
1889	0	33147	32727	32603	32647	32940	32667	32819	32643	
1890	0	33092	32342	32351	32597	32887	32606	32788	32691	
1891	0	33071	32379	32693	32541	32967	32709	32636	32775	
1892	0	33051	32481	32705	32695	33129	32671	32767	32823	
1893	0	32830	32535	32425	32507	32973	32695	32775	32743	
1894	0	32781	31903	32615	32473	32735	32801	32949	32714	
1895	0	32795	31655	32653	32451	32735	32706	33047	32633	
1896	0	32705	31879	32828	32564	32557	32915	32623	32807	
1897	0	32637	31828	32487	32767	32679	32739	32575	32571	
1898	0	32523	32079	32542	32719	32839	32535	32687	32698	
1899	0	32358	32447	32434	32871	32613	32799	32783	32711	
1900	0	32412	32951	32226	32895	32551	32767	32715	32543	
1901	0	32434	33239	32327	32727	32559	32717	32727	32647	
1902	0	32512	33463	32415	32855	32603	32679	32690	32623	
1903	0	32647	33731	32455	32893	32711	32685	32485	32661	
1904	0	32520	33607	32479	32911	32827	32635	32591	32727	
1905	0	32397	33191	32721	32861	32854	32647	32677	32663	
1906	0	32470	32717	32663	33199	32785	32590	32719	32703	
1907	0	32537	32735	32647	33000	32837	32695	33107	32559	
1908	0	32621	32847	32634	32623	32673	32703	32598	32658	
1909	0	32702	33015	32884	32647	32775	32597	32429	32677	
1910	0	32698	32867	32837	32583	32787	32557	32543	32775	
1911	0	32655	32555	32647	32439	32807	32541	32782	32751	
1912	0	32721	32855	32788	32271	32733	32599	32541	32763	
1913	0	32893	32993	32738	32447	32717	32695	32484	32811	
1914	0	32968	33107	32831	32563	32662	32655	32831	32767	
1915	0	33007	33174	32791	32475	32692	32819	33281	32630	
1916	0	32876	33519	32634	32619	32763	32841	33058	32775	
1917	0	32787	33355	32435	32719	32692	32806	32895	32767	
1918	0	32911	33030	32562	32719	32740	32591	32983	32553	
1919	0	32979	32599	32659	32839	33083	32517	33035	32687	
1920	0	32990	32415	32573	32951	32726	32615	32658	32727	
1921	0	32924	32289	32715	32829	32583	32671	32834	32679	
1922	0	32797	32153	32716	32757	32487	32925	32839	32663	
1923	0	32743	31847	32855	32478	32547	32853	32903	32833	
1924	0	32799	31875	32830	32445	32713	32719	32674	32799	
1925	0	32957	32303	32885	32514	32807	32669	32632	32701	
1926	0	33133	32827	32684	32535	32903	32647	32701	32846	
1927	0	33037	33120	32911	32471	32877	32687	32630	32835	
1928	0	32861	33055	32675	32577	32829	32660	32631	32711	
1929	0	32658	33300	32339	32578	32831	32693	32814	32836	
1930	0	32607	33213	32391	32695	32919	32679	32887	32887	
1931	0	32589	32935	32375	32727	32887	32639	32791	32679	
1932	0	32619	32732	32371	32818	32799	32613	32509	32820	
1933	0	32559	32870	32359	32977	32551	32767	32665	32835	
1934	0	32602	32711	32391	32837	32602	32691	32747	32743	
1935	0	32565	32431	32593	32720	32692	32773	32719	32598	
1936	0	32587	32147	32543	32989	32642	32903	32640	32671	
1937	0	32462	32222	32818	32903	32519	32797	32679	32690	
1938	0	32444	32589	32957	32675	32423	32805	32447	32628	
1939	0	32533	32976	32775	32775	32771	32567	32647	32670	
1940	0	32623	33319	32903	32734	32903	32791	32725	32711	
1941	0	32694	33119	32743	32503	33037	32799	32639	32540	
1942	0	32748	32959	32832	32639	32911	32743	32631	32679	
1943	0	32886	33159	32643	32481	32667	32749	32491	32743	
1944	0	32855	32965	32850	32643	32593	32775	32535	32852	
1945	0	32987	32851	32759	32679	32708	32679	32810	32670	
1946	0	33159	32487	32638	32851	32655	32756	32788	32771	
1947	0	33127	32497	32711	32834	33023	32647	33142	32719	
1948	0	33063	32751	32723	32791	33051	32679	33095	32615	
1949	0	32878	32819	32578	32685	32797	32708	32871	32762	
1950	0	32735	32901	32583	32391	32775	32691	32729	32804	
1951	0	32679	33197	32551	32490	32838	32660	32762	32643	
1952	0	32576	33391	32431	32431	32967	32639	32743	32783	
1953	0	32530	33231	32431	32446	32847	32702	32691	32873	
1954	0	32552	32775	32469	32703	32855	32620	32835	32751	
1955	0	32485	32783	32352	32719	32713	32751	32629	32775	
1956	0	32557	32454	32619	32455	32669	32783	32775	32823	
1957	0	32736	32237	32594	32627	32884	32755	32983	32643	
1958	0	32929	32114	32647	32679	32874	32685	32855	32681	
1959	0	32997	32135	32553	32535	32759	32669	32597	32799	
1960	0	32887	32543	32846	32606	32582	32719	32879	32831	
1961	0	32743	32734	32765	32679	32420	32743	32895	32647	
1962	0	32744	32871	32747	32726	32549	32647	32734	32591	
1963	0	32844	32791	32773	32615	32791	32645	32847	32675	
1964	0	32919	32627	32774	32783	32775	32751	32823	32747	
1965	0	32952	32881	32563	32733	32788	32661	32669	32623	
1966	0	33098	32747	32499	32694	32775	32563	32725	32691	
1967	0	33018	32851	32738	32642	32670	32611	32527	32679	
1968	0	32901	33129	32601	32775	32675	32663	32455	32721	
1969	0	32799	33228	32615	32757	32495	32753	32495	32708	
1970	0	32756	33009	32519	32635	32630	32739	32391	32868	
1971	0	32711	33055	32591	32529	32683	32723	32261	32943	
1972	0	32645	32964	32503	32835	32669	32679	32535	32770	
1973	0	32607	32749	32627	32773	32867	32599	32967	32675	
1974	0	32574	32575	32549	32663	32825	32679	33030	32609	
1975	0	32719	32659	32468	32683	32727	32727	32891	32773	
1976	0	32914	32676	32739	32525	32700	32800	32812	32842	
1977	0	32833	32854	32755	32819	32222	32925	32363	32903	
1978	0	32607	33071	32799	32775	32315	33061	32364	32797	
1979	0	32566	33207	32627	32535	32855	32827	32754	32847	
1980	0	32679	32679	32750	32751	33309	32775	33148	32749	
1981	0	32848	32671	32785	32709	33635	32549	33274	32687	
1982	0	33069	32677	32965	32510	33239	32607	32999	32687	
1983	0	33078	32839	32983	32599	33042	32387	32839	32727	
1984	0	32950	32791	33070	32613	32842	32530	32788	32791	
1985	0	32868	32575	32786	32767	32757	32655	32719	32685	
1986	0	32813	32563	33007	32483	32787	32668	32557	32591	
1987	0	32717	32807	32843	32671	32685	32539	32679	32637	
1988	0	32694	32807	32679	32627	32428	32701	32805	32703	
1989	0	32810	32944	32451	32659	32455	32734	32747	32769	
1990	0	32866	32748	32668	32471	32510	32867	33014	32630	
1991	0	32729	32916	32471	32647	32775	32765	33071	32747	
1992	0	32612	33207	32583	32413	32941	32710	32743	32765	
1993	0	32624	33359	32487	32487	32725	32775	32700	32876	
1994	0	32754	32814	32543	32619	32639	32643	32643	32762	
1995	0	32717	32463	32495	32695	32601	32735	32582	32791	
1996	0	32791	32255	32407	32578	32647	32765	32677	32818	
1997	0	32818	32015	32529	32647	32647	32796	32647	32775	
1998	0	32827	31547	32535	32687	32699	32845	32641	32933	
1999	0	32785	31617	32477	32647	32731	32766	32631	32911	
2000	0	32931	31655	32327	32727	32903	32775	32855	32671	
2001	0	32900	31743	32291	32647	32801	32763	33221	32642	
2002	0	32793	32389	32674	32439	32711	32794	32603	32681	
2003	0	32647	33127	32758	32639	32647	32719	32582	32708	
2004	0	32552	33453	32797	32615	32839	32612	32690	32519	
2005	0	32529	33727	32663	32553	33023	32611	32933	32655	
2006	0	32345	33751	32775	32721	32843	32801	32821	32766	
2007	0	32375	33887	32791	32615	32713	32794	32614	32559	
2008	0	32398	33707	32711	32627	32691	32762	32710	32535	
2009	0	32543	33303	32851	32793	32775	32755	32845	32658	
2010	0	32837	32879	32693	32807	32895	32829	32785	32591	
2011	0	32967	32495	32501	32699	32967	32748	32875	32579	
2012	0	32979	32346	32738	32893	32811	32865	32613	32805	
2013	0	33003	32287	32615	32803	32679	32731	32687	32775	
2014	0	33083	32209	32495	32718	32629	32759	32727	32595	
2015	0	33047	32043	32639	32764	32711	32701	32759	32615	
2016	0	33190	32006	32631	32846	32738	32758	32735	32667	
2017	0	33113	32271	32802	33015	32866	32566	32615	32759	
2018	0	32989	32647	32765	32967	32813	32689	32756	32689	
2019	0	32954	32959	32719	32775	32786	32812	32834	32751	
2020	0	32855	33002	32703	32700	32785	32743	32677	32806	
2021	0	32685	33135	32807	32659	32771	32724	32639	32809	
2022	0	32713	33191	32850	32574	32677	32589	32711	32742	
2023	0	32799	33366	32761	32351	32591	32877	32836	32695	
2024	0	32694	33147	33010	32439	32627	32948	32749	32833	
2025	0	32676	32989	32791	32439	32766	32831	32583	32878	
2026	0	32806	32623	32495	32553	32681	32767	32719	32759	
2027	0	32697	32407	32662	32537	32783	32621	32891	32775	
2028	0	32479	32599	32471	32304	32888	32667	32623	32820	
2029	0	32331	32975	32498	32567	32895	32642	32793	32789	
2030	0	32308	33286	32436	32637	32749	32727	32847	32741	
2031	0	32502	33407	32519	32567	32735	32647	32791	32749	
2032	0	32591	33135	32526	32743	32767	32668	32667	32823	
2033	0	32711	33055	32443	32605	32801	32669	32725	32765	
2034	0	32773	32859	32662	32496	32751	32703	32603	32967	
2035	0	32850	32423	32529	32647	32683	32711	32431	32866	
2036	0	33016	31847	32468	32687	32740	32691	32391	32938	
2037	0	33389	31739	32239	32588	32579	32674	32490	32807	
2038	0	33845	31815	32555	32534	32583	32743	32743	32835	
2039	0	34022	32053	32466	32799	32755	32737	32758	32723	
2040	0	33970	32067	32517	32873	32783	32775	32767	32815	
2041	0	33775	31907	32447	32799	32647	32719	32727	32643	
2042	0	33607	32131	32691	33086	32775	32647	32710	32834	
2043	0	33551	32333	32666	32943	32811	32722	32709	32844	
2044	0	33639	32471	32734	32925	32801	32755	32694	32807	
2045	0	33543	32842	32759	32742	32636	32787	32562	32753	
2046	0	33238	33093	32734	32956	32722	32615	32754	32855	
2047	0	33028	33095	32574	33093	33031	32539	32775	32827	
2048	0	32617	33439	32514	32845	32704	32690	32511	32711	
2049	0	32338	33583	32655	32993	32559	32635	32551	32671	
2050	0	31845	33775	32615	32893	32674	32687	32676	32676	
2051	0	31615	33585	32517	32731	32838	32693	32612	32629	
2052	0	31416	33877	32789	32798	32807	32612	32865	32715	
2053	0	31186	33991	32743	32786	32809	32567	32719	32627	
2054	0	31143	34308	32684	32887	32773	32554	32695	32503	
2055	0	31135	34053	32623	33095	32623	32723	32733	32431	
2056	0	31300	34123	32620	32938	32791	32727	32964	32495	
2057	0	31529	34137	32839	32935	32823	32691	32847	32509	
2058	0	31916	34303	32799	32734	32799	32692	32671	32454	
2059	0	32103	34063	32671	32535	32879	32623	33031	32483	
2060	0	32156	33364	32755	32263	33132	32573	33303	32511	
2061	0	32089	33143	32787	32228	33075	32553	33229	32359	
2062	0	31732	33117	32636	32036	32982	32601	33191	32427	
2063	0	31421	33147	32647	31871	33055	32551	33159	32124	
2064	0	31276	32733	32546	31871	33051	32423	33254	32060	
2065	0	31078	32416	32351	32070	32897	32475	33387	32100	
2066	0	31138	32197	32513	32083	32799	32668	33254	32247	
2067	0	31555	31860	32630	32357	32847	32635	33131	32365	
2068	0	32014	31935	32647	32407	32887	32597	33135	32391	
2069	0	32454	31879	32837	32277	32631	32823	33092	32511	
2070	0	32662	31879	32933	32487	32575	32810	33004	32639	
2071	0	32607	31770	32735	32598	32662	32751	33167	32621	
2072	0	32421	31863	32839	32615	32799	32799	33023	32665	
2073	0	32514	32213	32679	32607	32967	32703	32861	32690	
2074	0	32632	32455	32741	32695	32805	32743	32739	32714	
2075	0	32925	32863	32655	32867	32615	32791	32647	32739	
2076	0	33206	33429	32647	32775	32562	32767	32474	32891	
2077	0	33576	33251	32599	32879	32187	33021	32455	33058	
2078	0	33742	32999	32613	32950	32476	33015	32685	33078	
2079	0	34051	32521	32647	32991	32950	32859	32727	32998	
2080	0	34254	32223	32743	32795	33179	32773	32587	32959	
2081	0	34407	32063	32747	32943	32783	32887	32355	33127	
2082	0	34412	31586	32539	32896	32598	32919	32309	33071	
2083	0	34377	31590	32743	32858	32821	32903	32351	32951	
2084	0	34308	31303	32615	32685	32775	32756	32439	33068	
2085	0	34225	31425	32579	32786	32599	32735	32343	33085	
2086	0	34159	31375	32783	32751	32647	32877	32439	33097	
2087	0	33951	31643	32695	32626	32595	32943	32313	33043	
2088	0	33573	31979	32637	32687	32443	32979	32238	33093	
2089	0	33437	32029	32841	32723	32477	33010	32359	33071	
2090	0	33371	32143	32903	32515	32565	32901	32514	32893	
2091	0	33383	32532	32863	32562	32743	32841	32638	33079	
2092	0	33349	32790	32585	32545	32574	32748	32551	32861	
2093	0	33285	32807	32551	32485	32647	32770	32565	32765	
2094	0	33211	32990	32486	32541	32703	32673	32485	32807	
2095	0	33234	33159	32341	32690	32775	32727	32452	32883	
2096	0	33129	33111	32535	32623	32775	32919	32383	32934	
2097	0	33025	32839	32375	32658	33012	32735	32413	32835	
2098	0	33012	32583	32445	32663	32735	32844	32675	32855	
2099	0	33047	32599	32415	32517	32471	32834	32551	32775	
2100	0	32821	32638	32460	32702	32555	32797	32783	32799	
2101	0	32511	33007	32543	32723	32759	32703	32692	32702	
2102	0	32493	33367	32719	32895	32691	32775	32959	32685	
2103	0	32448	33199	32703	32764	32674	32794	32895	32859	
2104	0	32366	33037	32599	32877	32871	32658	32839	32791	
2105	0	32352	33155	32851	32805	32791	32685	32843	32613	
2106	0	32338	33399	32764	32743	32847	32723	32775	32751	
2107	0	32191	33957	32763	32950	32954	32695	32590	32757	
2108	0	32287	33821	32565	32841	33012	32639	32699	32775	
2109	0	32375	33662	32807	32679	32863	32743	32743	32611	
2110	0	32460	33207	32735	32727	32783	32663	32893	32685	
2111	0	32518	32711	32628	32671	32759	32663	32669	32839	
2112	0	32357	32531	32325	32628	32918	32743	33043	32623	
2113	0	32341	32597	32611	32445	33042	32743	33079	32738	
2114	0	32470	32215	32541	32421	33110	32565	33053	32548	
2115	0	32571	31943	32475	32535	32765	32645	32971	32610	
2116	0	32585	31895	32695	32622	32674	32671	32851	32719	
2117	0	32713	32071	32563	32647	32733	32625	32830	32629	
2118	0	32957	32400	32740	32655	32698	32674	32820	32615	
2119	0	32903	32463	32573	32620	32775	32598	32667	32743	
2120	0	32887	32716	32701	32837	32673	32685	32379	32677	
2121	0	33040	32742	32590	32903	32485	32783	32399	32647	
2122	0	33287	32527	32473	32812	32621	32717	32970	32447	
2123	0	33334	32694	32690	32733	32819	32665	32979	32601	
2124	0	33319	32863	32612	32701	32716	32799	32527	32645	
2125	0	33141	33047	32725	32925	32710	32811	32455	32699	
2126	0	32898	32999	32911	32991	32575	32740	32501	32717	
2127	0	32710	33607	32775	32849	32806	32702	32797	32630	
2128	0	32537	33746	32749	32788	32867	32679	32866	32810	
2129	0	32374	33575	32939	32591	32911	32639	33061	32694	
2130	0	32351	33223	32727	32317	32903	32814	33319	32462	
2131	0	32303	33127	32623	32501	33087	32631	33007	32695	
2132	0	32252	32977	32669	32419	32903	32663	32717	32803	
2133	0	32294	32765	32635	32610	32800	32743	32483	32638	
2134	0	32414	32543	32628	32470	32847	32538	32391	32679	
2135	0	32502	32594	32734	32364	32839	32351	32647	32599	
2136	0	32557	32538	32670	32451	32322	32487	32837	32532	
2137	0	32708	32623	32558	32551	32375	32734	33261	32663	
2138	0	32684	32713	32695	32599	32791	32647	33102	32615	
2139	0	32786	33091	32596	32786	32999	32647	32823	32599	
2140	0	32921	33227	32631	32815	32871	32747	32766	32656	
2141	0	32911	33207	32466	32815	33015	32629	33003	32773	
2142	0	33020	33238	32727	32685	32943	32805	32820	32775	
2143	0	32999	32999	32679	32743	32852	32723	32605	32706	
2144	0	32836	32903	32772	32635	32755	32679	32742	32730	
2145	0	32676	32997	32595	32439	32612	32775	32551	32787	
2146	0	32671	32942	32915	32623	32845	32724	32559	32793	
2147	0	32715	32743	32867	32514	32980	32725	32734	32700	
