# OpenSignals Text File Format
# {"00:07:80:3B:46:38": {"sensor": ["CUSTOM/0.5/1.0/V", "CUSTOM/0.5/1.0/V", "CUSTOM/0.5/1.0/V", "CUSTOM/0.5/1.0/V", "CUSTOM/0.5/1.0/V", "CUSTOM/0.5/1.0/V", "CUSTOM/0.5/1.0/V", "CUSTOM/0.5/1.0/V"], "device name": "EMGs", "column": ["nSeq", "DI", "RA_L", "RA_R", "OE_L", "OE:R", "IL_L", "IL_R", "MF_L", "MF_R"], "sync interval": 2, "time": "17:55:18.980", "comments": "", "device connection": "BTH00:07:80:3B:46:38", "channels": [1, 2, 3, 4, 5, 6, 7, 8], "date": "2017-5-22", "mode": 0, "digital IO": [0, 1], "firmware version": 772, "device": "biosignalsplux", "position": 0, "sampling rate": 1000, "label": ["RA_L", "RA_R", "OE_L", "OE:R", "IL_L", "IL_R", "MF_L", "MF_R"], "resolution": [16, 16, 16, 16, 16, 16, 16, 16], "special": [{}, {}, {}, {}, {}, {}, {}, {}]}}
# EndOfHeader
0	0	32690	32729	32695	32751	32566	32684	32638	32699	
1	0	32679	32647	32735	32829	32783	32643	32738	32687	
2	0	32726	32775	32727	32759	32735	32733	32698	32713	
3	0	32726	32582	32745	32823	32574	32866	32767	32647	
4	0	32696	32705	32721	32767	32749	32723	32741	32727	
5	0	32780	32590	32747	32658	32680	32703	32729	32631	
6	0	32837	32691	32767	32774	32753	32802	32748	32751	
7	0	32793	32790	32729	32707	32455	32793	32767	32682	
8	0	32740	32807	32807	32767	32771	32802	32761	32751	
9	0	32738	32909	32775	32775	32635	32774	32719	32707	
10	0	32686	32773	32772	32775	32645	32615	32738	32775	
11	0	32719	32822	32783	32759	32607	32599	32703	32748	
12	0	32744	32615	32789	32706	32686	32642	32647	32735	
13	0	32831	32703	32765	32813	32739	32632	32699	32767	
14	0	32833	32667	32725	32757	32583	32731	32745	32655	
15	0	32814	32679	32735	32791	32757	32708	32683	32775	
16	0	32815	32675	32679	32671	32796	32807	32671	32767	
17	0	32749	32756	32671	32791	32567	32807	32788	32697	
18	0	32745	32738	32703	32758	32757	32791	32735	32705	
19	0	32751	32787	32684	32759	32823	32663	32775	32684	
20	0	32754	32740	32633	32775	32693	32797	32738	32762	
21	0	32766	32767	32674	32815	32660	32833	32827	32767	
22	0	32846	32643	32738	32759	32509	32711	32710	32671	
23	0	32794	32569	32767	32792	32739	32749	32732	32775	
24	0	32831	32612	32835	32773	32679	32796	32799	32718	
25	0	32813	32548	32871	32743	32567	32767	32766	32742	
26	0	32734	32807	32857	32775	32708	32647	32743	32691	
27	0	32767	32775	32839	32735	32775	32790	32684	32691	
28	0	32715	32884	32867	32729	32647	32701	32647	32767	
29	0	32679	32852	32851	32797	32687	32705	32623	32711	
30	0	32753	32831	32823	32763	32741	32791	32727	32787	
31	0	32807	32803	32823	32822	32711	32803	32603	32775	
32	0	32823	32743	32802	32863	32775	32657	32663	32683	
33	0	32854	32620	32745	32754	32831	32723	32735	32772	
34	0	32815	32706	32742	32802	32623	32807	32720	32735	
35	0	32817	32643	32687	32718	32637	32839	32740	32733	
36	0	32719	32629	32644	32815	32743	32735	32775	32750	
37	0	32758	32615	32709	32743	32626	32756	32812	32601	
38	0	32775	32727	32719	32815	32759	32815	32775	32671	
39	0	32749	32615	32731	32755	32727	32786	32749	32635	
40	0	32748	32643	32717	32692	32543	32789	32759	32685	
41	0	32725	32615	32759	32799	32727	32783	32826	32615	
42	0	32714	32806	32751	32707	32623	32631	32797	32723	
43	0	32703	32675	32751	32721	32557	32636	32756	32635	
44	0	32735	32670	32771	32695	32711	32791	32695	32751	
45	0	32730	32551	32821	32711	32642	32823	32747	32775	
46	0	32647	32634	32855	32788	32559	32749	32743	32733	
47	0	32663	32535	32823	32711	32743	32751	32703	32733	
48	0	32692	32639	32809	32795	32707	32754	32755	32646	
49	0	32751	32630	32843	32731	32613	32786	32711	32775	
50	0	32775	32749	32823	32775	32715	32683	32701	32747	
51	0	32760	32703	32743	32671	32717	32611	32715	32663	
52	0	32794	32775	32671	32803	32582	32708	32658	32766	
53	0	32865	32671	32675	32749	32660	32785	32615	32663	
54	0	32871	32703	32717	32815	32818	32847	32617	32767	
55	0	32871	32695	32705	32791	32647	32791	32647	32679	
56	0	32850	32626	32773	32827	32709	32799	32659	32757	
57	0	32825	32687	32751	32782	32583	32775	32685	32700	
58	0	32855	32775	32769	32699	32627	32799	32754	32775	
59	0	32773	32715	32719	32786	32647	32839	32775	32647	
60	0	32809	32573	32775	32671	32743	32756	32758	32698	
61	0	32737	32630	32767	32775	32621	32709	32759	32695	
62	0	32804	32562	32799	32791	32673	32637	32771	32743	
63	0	32735	32746	32797	32739	32738	32642	32807	32711	
64	0	32754	32619	32823	32751	32527	32615	32782	32687	
65	0	32833	32775	32794	32775	32647	32763	32804	32810	
66	0	32835	32759	32738	32717	32551	32662	32773	32711	
67	0	32831	32823	32771	32683	32692	32671	32767	32743	
68	0	32801	32791	32751	32755	32663	32734	32751	32726	
69	0	32737	32751	32727	32723	32717	32797	32719	32823	
70	0	32724	32734	32745	32767	32663	32877	32687	32769	
71	0	32797	32734	32729	32741	32695	32861	32669	32627	
72	0	32800	32775	32765	32758	32671	32687	32665	32734	
73	0	32790	32791	32727	32789	32615	32705	32645	32691	
74	0	32811	32679	32755	32727	32711	32804	32639	32751	
75	0	32809	32731	32791	32775	32699	32775	32659	32657	
76	0	32767	32697	32726	32791	32711	32687	32695	32725	
77	0	32793	32759	32723	32802	32695	32853	32716	32711	
78	0	32839	32703	32738	32775	32526	32813	32626	32719	
79	0	32804	32517	32702	32816	32733	32639	32631	32759	
80	0	32786	32623	32756	32775	32795	32623	32599	32742	
81	0	32787	32546	32743	32685	32546	32653	32659	32775	
82	0	32815	32605	32783	32831	32756	32646	32663	32655	
83	0	32775	32509	32763	32732	32767	32773	32667	32743	
84	0	32772	32759	32818	32814	32603	32735	32679	32765	
85	0	32682	32705	32859	32739	32685	32727	32710	32707	
86	0	32694	32807	32882	32792	32635	32759	32685	32683	
87	0	32759	32807	32829	32686	32707	32789	32711	32609	
88	0	32783	32767	32804	32821	32660	32662	32655	32711	
89	0	32786	32725	32847	32751	32543	32637	32688	32669	
90	0	32766	32595	32788	32793	32645	32769	32663	32738	
91	0	32756	32603	32757	32786	32775	32837	32692	32726	
92	0	32738	32531	32783	32775	32679	32725	32647	32687	
93	0	32806	32646	32701	32743	32687	32775	32807	32764	
94	0	32837	32551	32722	32701	32659	32775	32799	32720	
95	0	32771	32589	32721	32767	32759	32811	32749	32742	
96	0	32706	32413	32694	32723	32745	32815	32796	32722	
97	0	32775	32575	32710	32807	32599	32722	32801	32763	
98	0	32794	32647	32715	32751	32669	32745	32765	32690	
99	0	32783	32735	32719	32804	32687	32826	32758	32645	
100	0	32702	32605	32762	32769	32687	32887	32723	32694	
101	0	32718	32710	32771	32799	32701	32759	32787	32673	
102	0	32681	32647	32751	32757	32747	32773	32695	32742	
103	0	32729	32679	32743	32795	32551	32803	32739	32675	
104	0	32698	32527	32767	32699	32703	32795	32743	32717	
105	0	32781	32626	32783	32806	32751	32775	32759	32678	
106	0	32759	32553	32747	32711	32564	32659	32714	32695	
107	0	32742	32687	32746	32847	32695	32783	32775	32690	
108	0	32754	32658	32852	32789	32577	32811	32818	32647	
109	0	32690	32763	32836	32772	32727	32743	32717	32705	
110	0	32769	32786	32819	32843	32671	32754	32743	32677	
111	0	32839	32759	32807	32814	32524	32797	32766	32688	
112	0	32720	32595	32756	32815	32592	32662	32679	32738	
113	0	32690	32543	32671	32684	32611	32807	32723	32699	
114	0	32767	32638	32683	32836	32745	32810	32743	32794	
115	0	32772	32551	32709	32767	32761	32838	32813	32791	
116	0	32775	32599	32647	32771	32589	32775	32769	32797	
117	0	32769	32547	32719	32703	32819	32823	32733	32731	
118	0	32743	32643	32726	32719	32741	32798	32721	32710	
119	0	32742	32611	32710	32755	32609	32663	32765	32719	
120	0	32794	32760	32703	32775	32663	32887	32727	32671	
121	0	32743	32647	32679	32707	32842	32830	32719	32747	
122	0	32797	32700	32711	32759	32641	32799	32711	32743	
123	0	32690	32543	32707	32691	32690	32743	32710	32759	
124	0	32798	32684	32772	32756	32735	32757	32660	32723	
125	0	32788	32695	32807	32735	32767	32815	32771	32647	
126	0	32794	32798	32819	32773	32751	32603	32734	32735	
127	0	32784	32677	32831	32775	32592	32719	32701	32751	
128	0	32678	32543	32805	32703	32679	32789	32735	32738	
129	0	32780	32739	32823	32757	32543	32751	32695	32748	
130	0	32719	32756	32775	32705	32623	32694	32769	32638	
131	0	32724	32767	32782	32743	32694	32607	32747	32725	
132	0	32791	32762	32797	32719	32587	32719	32711	32756	
133	0	32765	32767	32834	32767	32631	32773	32767	32691	
134	0	32807	32699	32844	32733	32577	32769	32748	32731	
135	0	32812	32755	32706	32790	32709	32843	32782	32639	
136	0	32758	32674	32742	32711	32711	32773	32722	32756	
137	0	32757	32759	32657	32811	32566	32623	32796	32717	
138	0	32799	32757	32727	32767	32775	32815	32810	32734	
139	0	32805	32535	32703	32847	32691	32877	32855	32735	
140	0	32769	32615	32685	32749	32534	32743	32775	32769	
141	0	32732	32527	32706	32823	32679	32851	32822	32751	
142	0	32790	32743	32763	32687	32579	32675	32811	32719	
143	0	32681	32687	32767	32703	32685	32775	32791	32765	
144	0	32741	32799	32774	32715	32715	32812	32799	32726	
145	0	32710	32695	32765	32775	32564	32740	32759	32742	
146	0	32678	32735	32805	32820	32799	32813	32807	32767	
147	0	32723	32668	32796	32839	32771	32771	32775	32647	
148	0	32735	32813	32786	32727	32613	32639	32759	32715	
149	0	32725	32791	32767	32775	32699	32709	32747	32660	
150	0	32811	32881	32794	32797	32609	32773	32708	32788	
151	0	32839	32627	32787	32789	32775	32802	32759	32731	
152	0	32808	32603	32729	32731	32647	32631	32754	32605	
153	0	32855	32726	32693	32786	32767	32756	32743	32733	
154	0	32821	32615	32695	32827	32775	32707	32750	32695	
155	0	32708	32495	32727	32773	32671	32807	32719	32739	
156	0	32647	32535	32663	32820	32661	32718	32717	32799	
157	0	32653	32483	32739	32804	32771	32655	32675	32685	
158	0	32675	32619	32731	32806	32647	32811	32735	32699	
159	0	32756	32621	32711	32711	32687	32705	32747	32687	
160	0	32738	32799	32721	32757	32543	32775	32789	32775	
161	0	32742	32669	32756	32715	32647	32647	32690	32697	
162	0	32700	32545	32808	32734	32759	32630	32797	32677	
163	0	32768	32812	32847	32759	32643	32807	32806	32685	
164	0	32791	32687	32795	32782	32675	32793	32765	32646	
165	0	32767	32701	32807	32647	32591	32681	32755	32668	
166	0	32801	32715	32860	32751	32700	32807	32775	32663	
167	0	32747	32845	32841	32747	32671	32767	32790	32713	
168	0	32769	32743	32864	32775	32619	32627	32695	32685	
169	0	32742	32588	32841	32804	32759	32750	32723	32785	
170	0	32823	32705	32799	32763	32688	32775	32735	32711	
171	0	32762	32590	32742	32807	32593	32774	32723	32706	
172	0	32815	32783	32735	32838	32727	32771	32732	32815	
173	0	32775	32566	32711	32851	32690	32613	32753	32687	
174	0	32743	32719	32643	32736	32727	32677	32812	32765	
175	0	32725	32489	32703	32839	32711	32820	32785	32726	
176	0	32769	32647	32740	32775	32547	32804	32727	32775	
177	0	32757	32557	32743	32773	32647	32880	32827	32791	
178	0	32756	32663	32738	32717	32723	32852	32807	32745	
179	0	32743	32507	32774	32792	32566	32687	32719	32815	
180	0	32690	32615	32813	32637	32770	32654	32803	32679	
181	0	32727	32647	32786	32726	32805	32741	32731	32775	
182	0	32793	32746	32810	32758	32550	32813	32739	32687	
183	0	32722	32919	32755	32751	32759	32727	32759	32715	
184	0	32787	32775	32775	32759	32724	32783	32743	32695	
185	0	32780	32815	32733	32769	32615	32758	32775	32698	
186	0	32742	32647	32692	32727	32715	32647	32757	32655	
187	0	32747	32597	32759	32823	32571	32791	32759	32647	
188	0	32789	32695	32755	32799	32595	32803	32802	32734	
189	0	32687	32887	32834	32695	32703	32847	32695	32647	
190	0	32722	32576	32923	32637	32551	32883	32767	32711	
191	0	32796	32515	32845	32783	32615	32715	32799	32735	
192	0	32780	32759	32719	32671	32588	32771	32655	32735	
193	0	32799	32689	32703	32735	32719	32775	32679	32711	
194	0	32823	32543	32759	32815	32699	32818	32681	32711	
195	0	32854	32583	32715	32756	32797	32727	32679	32709	
196	0	32790	32461	32723	32775	32759	32775	32626	32719	
197	0	32749	32587	32717	32775	32631	32687	32613	32631	
198	0	32750	32575	32735	32775	32765	32827	32684	32703	
199	0	32762	32719	32699	32732	32573	32679	32707	32730	
200	0	32773	32690	32799	32734	32663	32826	32663	32658	
201	0	32764	32751	32827	32731	32663	32775	32676	32775	
202	0	32748	32711	32807	32743	32711	32807	32732	32692	
203	0	32780	32602	32795	32741	32700	32759	32775	32727	
204	0	32814	32679	32756	32837	32529	32764	32767	32647	
205	0	32794	32566	32725	32721	32711	32749	32706	32677	
206	0	32772	32751	32727	32799	32733	32771	32749	32729	
207	0	32758	32588	32719	32705	32671	32743	32786	32679	
208	0	32721	32807	32807	32731	32759	32775	32731	32789	
209	0	32722	32723	32791	32687	32703	32679	32734	32789	
210	0	32706	32611	32823	32711	32668	32731	32731	32714	
211	0	32745	32715	32795	32732	32647	32775	32749	32788	
212	0	32791	32641	32805	32711	32769	32621	32819	32745	
213	0	32787	32591	32719	32804	32703	32742	32687	32785	
214	0	32766	32727	32683	32775	32739	32647	32743	32775	
215	0	32793	32613	32655	32830	32569	32775	32748	32679	
216	0	32791	32729	32668	32804	32775	32679	32743	32628	
217	0	32738	32647	32695	32764	32617	32759	32717	32731	
218	0	32807	32721	32736	32847	32745	32809	32670	32679	
219	0	32797	32591	32743	32716	32815	32761	32719	32621	
220	0	32774	32605	32759	32743	32799	32711	32647	32735	
221	0	32697	32789	32679	32801	32731	32817	32747	32708	
222	0	32729	32759	32795	32738	32701	32716	32703	32676	
223	0	32718	32633	32873	32698	32711	32819	32804	32727	
224	0	32714	32727	32822	32727	32627	32731	32720	32681	
225	0	32746	32601	32882	32668	32647	32623	32676	32790	
226	0	32750	32643	32819	32819	32615	32732	32699	32735	
227	0	32822	32623	32839	32751	32577	32811	32647	32695	
228	0	32748	32703	32832	32787	32642	32759	32621	32741	
229	0	32775	32621	32855	32743	32692	32806	32727	32671	
230	0	32770	32758	32807	32660	32646	32817	32727	32719	
231	0	32794	32645	32775	32847	32695	32775	32599	32681	
232	0	32765	32693	32750	32743	32658	32615	32628	32734	
233	0	32829	32595	32647	32803	32647	32742	32676	32637	
234	0	32879	32742	32719	32815	32767	32842	32729	32829	
235	0	32794	32603	32633	32807	32774	32711	32659	32789	
236	0	32814	32695	32594	32797	32623	32843	32655	32811	
237	0	32807	32605	32659	32775	32738	32775	32629	32727	
238	0	32795	32715	32743	32773	32607	32642	32663	32633	
239	0	32749	32659	32710	32719	32653	32797	32685	32709	
240	0	32662	32607	32769	32755	32555	32805	32749	32666	
241	0	32703	32669	32739	32647	32743	32748	32807	32772	
242	0	32711	32578	32794	32771	32661	32647	32770	32743	
243	0	32715	32631	32715	32683	32559	32677	32747	32689	
244	0	32710	32537	32699	32795	32751	32847	32687	32747	
245	0	32684	32583	32755	32711	32754	32751	32647	32626	
246	0	32671	32561	32831	32774	32719	32862	32702	32723	
247	0	32677	32751	32804	32719	32647	32681	32703	32695	
248	0	32754	32747	32807	32671	32619	32789	32783	32671	
249	0	32738	32603	32836	32711	32658	32803	32783	32718	
250	0	32807	32687	32769	32775	32647	32752	32722	32705	
251	0	32781	32575	32812	32758	32775	32759	32775	32807	
252	0	32720	32643	32775	32830	32687	32727	32757	32731	
253	0	32717	32690	32767	32770	32727	32599	32790	32631	
254	0	32768	32727	32701	32839	32723	32767	32759	32854	
255	0	32768	32643	32647	32791	32644	32663	32717	32743	
256	0	32757	32543	32658	32783	32719	32830	32775	32695	
257	0	32802	32669	32703	32811	32549	32812	32795	32717	
258	0	32851	32749	32631	32759	32812	32647	32698	32575	
259	0	32838	32748	32701	32755	32751	32739	32659	32694	
260	0	32839	32734	32758	32683	32533	32811	32727	32711	
261	0	32775	32659	32771	32719	32693	32756	32681	32764	
262	0	32780	32790	32787	32673	32756	32836	32671	32740	
263	0	32812	32773	32791	32743	32639	32846	32663	32630	
264	0	32781	32807	32844	32730	32682	32646	32691	32691	
265	0	32824	32675	32743	32732	32543	32787	32607	32699	
266	0	32783	32631	32754	32733	32687	32767	32599	32686	
267	0	32783	32790	32748	32785	32751	32679	32695	32714	
268	0	32765	32735	32789	32741	32611	32715	32732	32647	
269	0	32802	32761	32903	32801	32755	32835	32711	32723	
270	0	32798	32773	32871	32797	32685	32867	32690	32734	
271	0	32751	32659	32810	32710	32551	32765	32711	32762	
272	0	32742	32689	32823	32799	32809	32629	32703	32715	
273	0	32795	32653	32823	32703	32782	32727	32721	32796	
274	0	32858	32797	32703	32775	32775	32703	32765	32794	
275	0	32809	32662	32663	32716	32761	32735	32762	32662	
276	0	32805	32555	32681	32747	32503	32791	32799	32786	
277	0	32791	32582	32685	32677	32711	32812	32799	32695	
278	0	32760	32519	32775	32807	32686	32623	32839	32766	
279	0	32699	32557	32735	32695	32699	32700	32833	32789	
280	0	32670	32499	32725	32775	32692	32791	32843	32671	
281	0	32647	32661	32743	32791	32508	32819	32749	32727	
282	0	32642	32578	32771	32735	32687	32815	32612	32661	
283	0	32663	32745	32729	32734	32738	32807	32644	32707	
284	0	32631	32575	32732	32751	32567	32809	32598	32714	
285	0	32642	32713	32679	32823	32721	32621	32607	32662	
286	0	32692	32703	32831	32678	32519	32743	32611	32711	
287	0	32810	32695	32859	32791	32701	32683	32598	32695	
288	0	32765	32725	32817	32737	32644	32739	32679	32693	
289	0	32774	32843	32813	32735	32740	32759	32647	32749	
290	0	32713	32791	32813	32659	32685	32675	32599	32691	
291	0	32787	32679	32806	32716	32583	32831	32615	32757	
292	0	32829	32709	32788	32718	32699	32679	32673	32763	
293	0	32797	32663	32794	32759	32765	32826	32661	32647	
294	0	32815	32765	32735	32847	32741	32773	32718	32740	
295	0	32855	32690	32703	32693	32759	32679	32759	32683	
296	0	32833	32671	32718	32819	32511	32754	32725	32727	
297	0	32829	32596	32677	32850	32749	32827	32669	32668	
298	0	32810	32695	32663	32715	32771	32863	32676	32678	
299	0	32727	32767	32711	32741	32529	32807	32666	32749	
300	0	32708	32759	32719	32675	32679	32697	32767	32660	
301	0	32674	32733	32787	32791	32638	32807	32690	32722	
302	0	32714	32759	32819	32659	32655	32807	32695	32687	
303	0	32706	32699	32851	32722	32702	32773	32695	32838	
304	0	32686	32766	32799	32732	32571	32615	32759	32725	
305	0	32679	32621	32765	32831	32693	32583	32750	32739	
306	0	32708	32799	32775	32743	32743	32686	32701	32751	
307	0	32745	32766	32726	32787	32523	32791	32742	32622	
308	0	32736	32861	32734	32751	32700	32799	32853	32733	
309	0	32759	32711	32773	32796	32686	32817	32842	32647	
310	0	32767	32595	32734	32799	32783	32819	32748	32731	
311	0	32813	32679	32819	32772	32749	32759	32703	32691	
312	0	32729	32559	32866	32748	32588	32639	32771	32667	
313	0	32781	32683	32789	32806	32724	32775	32734	32727	
314	0	32861	32579	32743	32735	32751	32791	32751	32663	
315	0	32838	32671	32679	32741	32505	32727	32685	32787	
316	0	32817	32639	32662	32631	32806	32795	32647	32753	
317	0	32860	32527	32637	32750	32797	32797	32757	32767	
318	0	32892	32547	32717	32799	32766	32695	32749	32711	
319	0	32914	32527	32682	32733	32743	32698	32762	32695	
320	0	32825	32695	32671	32818	32655	32793	32818	32676	
321	0	32826	32707	32699	32715	32739	32775	32763	32802	
322	0	32850	32511	32731	32751	32549	32767	32743	32803	
323	0	32847	32595	32738	32685	32595	32723	32775	32709	
324	0	32845	32551	32810	32795	32535	32695	32707	32774	
325	0	32782	32711	32796	32711	32762	32701	32770	32647	
326	0	32773	32663	32839	32749	32759	32846	32786	32732	
327	0	32684	32775	32802	32731	32507	32731	32767	32719	
328	0	32700	32859	32838	32742	32699	32763	32759	32629	
329	0	32665	32871	32835	32655	32739	32775	32749	32751	
330	0	32626	32790	32767	32827	32647	32806	32813	32631	
331	0	32705	32591	32839	32775	32727	32715	32683	32786	
332	0	32730	32663	32773	32843	32551	32738	32743	32703	
333	0	32762	32643	32734	32791	32693	32814	32694	32642	
334	0	32718	32543	32699	32759	32614	32769	32738	32727	
335	0	32771	32553	32637	32866	32786	32839	32699	32755	
336	0	32743	32615	32739	32815	32772	32898	32675	32679	
337	0	32775	32600	32700	32751	32509	32809	32819	32749	
338	0	32788	32551	32737	32754	32743	32695	32822	32631	
339	0	32791	32567	32760	32691	32683	32751	32725	32711	
340	0	32736	32482	32758	32708	32566	32818	32709	32743	
341	0	32710	32743	32730	32743	32679	32807	32722	32658	
342	0	32794	32807	32733	32699	32555	32765	32718	32730	
343	0	32823	32615	32759	32819	32725	32647	32798	32658	
344	0	32813	32674	32806	32743	32719	32647	32759	32698	
345	0	32836	32611	32861	32791	32527	32773	32764	32719	
346	0	32866	32757	32815	32695	32741	32717	32685	32711	
347	0	32780	32822	32775	32789	32695	32629	32699	32821	
348	0	32758	32713	32821	32678	32734	32669	32715	32751	
349	0	32713	32877	32885	32739	32563	32786	32775	32717	
350	0	32647	32742	32855	32771	32765	32827	32743	32775	
351	0	32807	32829	32799	32755	32748	32807	32772	32742	
352	0	32719	32719	32831	32717	32596	32807	32735	32773	
353	0	32767	32765	32718	32743	32663	32811	32719	32684	
354	0	32743	32819	32687	32691	32759	32658	32727	32807	
355	0	32712	32805	32735	32855	32815	32631	32707	32700	
356	0	32690	32757	32715	32711	32757	32765	32599	32730	
357	0	32673	32845	32737	32815	32754	32839	32603	32786	
358	0	32676	32727	32733	32756	32619	32719	32594	32791	
359	0	32621	32831	32735	32772	32647	32679	32599	32773	
360	0	32679	32735	32693	32807	32695	32833	32775	32678	
361	0	32725	32607	32739	32775	32519	32775	32759	32686	
362	0	32788	32745	32703	32682	32631	32598	32756	32621	
363	0	32732	32507	32799	32815	32787	32660	32717	32675	
364	0	32743	32642	32803	32738	32601	32795	32731	32621	
365	0	32746	32519	32807	32799	32603	32695	32799	32726	
366	0	32811	32751	32847	32709	32599	32791	32803	32671	
367	0	32753	32549	32847	32738	32595	32871	32823	32663	
368	0	32711	32757	32867	32679	32631	32799	32871	32703	
369	0	32754	32685	32875	32775	32525	32683	32833	32663	
370	0	32807	32775	32835	32705	32795	32655	32725	32695	
371	0	32805	32683	32787	32825	32785	32669	32662	32647	
372	0	32758	32734	32791	32775	32535	32865	32663	32709	
373	0	32767	32663	32738	32823	32643	32775	32647	32783	
374	0	32757	32573	32735	32797	32571	32757	32673	32663	
375	0	32789	32607	32717	32871	32751	32826	32668	32751	
376	0	32775	32514	32773	32775	32738	32748	32590	32710	
377	0	32787	32670	32738	32826	32589	32578	32659	32765	
378	0	32812	32509	32692	32792	32727	32694	32647	32658	
379	0	32764	32575	32735	32723	32751	32551	32755	32719	
380	0	32770	32481	32679	32759	32631	32783	32769	32695	
381	0	32788	32643	32756	32710	32788	32799	32711	32756	
382	0	32801	32555	32695	32767	32761	32677	32767	32655	
383	0	32794	32617	32735	32647	32535	32769	32743	32669	
384	0	32780	32535	32782	32755	32743	32763	32775	32647	
385	0	32849	32715	32819	32671	32823	32764	32751	32791	
386	0	32848	32621	32764	32831	32557	32846	32642	32695	
387	0	32822	32654	32759	32724	32697	32677	32674	32775	
388	0	32775	32527	32750	32735	32628	32751	32804	32771	
389	0	32724	32703	32799	32710	32754	32763	32807	32677	
390	0	32724	32679	32755	32767	32683	32764	32726	32735	
391	0	32720	32617	32851	32767	32635	32719	32727	32783	
392	0	32711	32635	32799	32767	32687	32623	32673	32695	
393	0	32758	32467	32813	32747	32618	32679	32677	32722	
394	0	32785	32575	32719	32807	32655	32757	32615	32647	
395	0	32770	32503	32719	32839	32703	32819	32637	32685	
396	0	32816	32635	32647	32756	32581	32703	32645	32605	
397	0	32775	32518	32671	32758	32718	32707	32722	32754	
398	0	32774	32673	32711	32773	32689	32757	32675	32639	
399	0	32720	32746	32711	32775	32515	32772	32733	32734	
400	0	32745	32671	32711	32767	32683	32647	32735	32726	
401	0	32775	32567	32746	32799	32663	32754	32722	32775	
402	0	32733	32647	32707	32775	32719	32820	32731	32679	
403	0	32781	32617	32831	32743	32679	32819	32804	32669	
404	0	32797	32690	32806	32791	32535	32791	32749	32735	
405	0	32759	32579	32871	32799	32717	32839	32711	32647	
406	0	32735	32799	32793	32772	32563	32655	32743	32775	
407	0	32751	32711	32787	32775	32747	32730	32775	32769	
408	0	32731	32609	32806	32727	32583	32707	32665	32677	
409	0	32711	32783	32831	32767	32749	32861	32615	32735	
410	0	32684	32755	32868	32807	32793	32829	32623	32756	
411	0	32671	32749	32807	32797	32615	32662	32690	32839	
412	0	32748	32727	32875	32771	32811	32626	32709	32789	
413	0	32761	32772	32743	32775	32711	32711	32748	32703	
414	0	32743	32583	32695	32756	32569	32879	32711	32722	
415	0	32790	32721	32657	32791	32732	32815	32790	32735	
416	0	32822	32645	32646	32703	32688	32678	32748	32703	
417	0	32781	32669	32635	32787	32607	32687	32799	32631	
418	0	32796	32582	32743	32806	32703	32711	32786	32717	
419	0	32817	32723	32751	32814	32637	32799	32676	32667	
420	0	32735	32751	32691	32734	32548	32663	32647	32717	
421	0	32743	32803	32695	32775	32786	32683	32639	32620	
422	0	32712	32694	32755	32639	32783	32773	32709	32804	
423	0	32723	32615	32775	32749	32657	32724	32647	32758	
424	0	32738	32663	32794	32723	32647	32807	32647	32674	
425	0	32681	32595	32775	32758	32803	32817	32647	32703	
426	0	32721	32633	32772	32742	32615	32768	32583	32701	
427	0	32774	32530	32719	32743	32743	32743	32613	32743	
428	0	32737	32721	32727	32698	32551	32698	32623	32597	
429	0	32812	32603	32799	32687	32783	32879	32625	32719	
430	0	32764	32759	32863	32767	32721	32837	32663	32767	
431	0	32783	32773	32836	32731	32677	32887	32671	32655	
432	0	32804	32787	32774	32794	32703	32879	32639	32751	
433	0	32818	32663	32707	32701	32483	32647	32668	32706	
434	0	32841	32500	32663	32763	32638	32703	32595	32743	
435	0	32852	32587	32663	32681	32663	32788	32725	32799	
436	0	32847	32511	32739	32807	32687	32707	32663	32755	
437	0	32836	32751	32669	32753	32663	32775	32623	32761	
438	0	32783	32729	32655	32754	32645	32806	32587	32759	
439	0	32773	32797	32624	32687	32701	32694	32679	32703	
440	0	32748	32753	32695	32804	32709	32615	32682	32694	
441	0	32783	32738	32819	32727	32551	32743	32655	32593	
442	0	32756	32697	32775	32845	32770	32759	32647	32709	
443	0	32743	32726	32847	32727	32749	32725	32690	32655	
444	0	32723	32563	32858	32775	32551	32671	32773	32671	
445	0	32711	32703	32887	32751	32767	32853	32820	32623	
446	0	32745	32647	32884	32811	32751	32783	32813	32724	
447	0	32743	32723	32791	32791	32594	32807	32759	32631	
448	0	32715	32756	32841	32708	32723	32687	32638	32625	
449	0	32743	32725	32887	32691	32623	32799	32629	32775	
450	0	32783	32814	32855	32738	32731	32691	32647	32799	
451	0	32781	32598	32827	32738	32583	32723	32591	32710	
452	0	32646	32564	32743	32772	32769	32854	32681	32815	
453	0	32667	32669	32695	32702	32763	32795	32700	32735	
454	0	32720	32679	32687	32807	32583	32791	32679	32807	
455	0	32639	32763	32719	32708	32689	32866	32755	32818	
456	0	32658	32795	32682	32769	32645	32815	32647	32671	
457	0	32631	32871	32719	32759	32773	32671	32633	32773	
458	0	32607	32647	32663	32782	32790	32802	32619	32743	
459	0	32573	32615	32647	32841	32671	32791	32681	32673	
460	0	32596	32671	32655	32823	32711	32727	32699	32733	
461	0	32637	32623	32647	32733	32657	32809	32759	32679	
462	0	32647	32772	32631	32847	32749	32730	32691	32799	
463	0	32604	32603	32813	32784	32598	32711	32667	32699	
464	0	32590	32475	32729	32679	32679	32703	32620	32640	
465	0	32512	32606	32739	32807	32647	32743	32643	32699	
466	0	32615	32487	32710	32759	32775	32743	32618	32647	
467	0	32662	32519	32715	32810	32751	32715	32636	32627	
468	0	32729	32482	32822	32814	32659	32727	32647	32642	
469	0	32780	32391	32813	32839	32769	32757	32551	32622	
470	0	32823	32468	32741	32829	32582	32635	32701	32594	
471	0	32862	32261	32701	32824	32679	32727	32633	32671	
472	0	32976	32358	32655	32839	32535	32815	32619	32623	
473	0	33034	32238	32586	32864	32695	32771	32615	32814	
474	0	33010	32287	32541	32844	32711	32679	32677	32798	
475	0	33065	32243	32639	32799	32565	32837	32637	32727	
476	0	33191	31988	32557	32850	32735	32799	32667	32705	
477	0	33127	32063	32527	32742	32585	32797	32645	32695	
478	0	33111	32103	32705	32861	32725	32799	32740	32686	
479	0	33263	31887	32611	32836	32698	32747	32767	32605	
480	0	33369	32019	32575	32706	32787	32775	32775	32701	
481	0	33287	32077	32659	32822	32771	32647	32729	32741	
482	0	33147	32375	32687	32721	32762	32689	32727	32679	
483	0	33191	32299	32795	32791	32567	32847	32717	32703	
484	0	33212	32207	32800	32711	32679	32739	32773	32717	
485	0	33325	32421	32807	32830	32511	32766	32727	32638	
486	0	33420	32439	32826	32823	32639	32643	32791	32673	
487	0	33415	32351	32876	32671	32482	32807	32834	32721	
488	0	33311	32519	32903	32751	32639	32725	32811	32663	
489	0	33298	32695	32879	32729	32527	32775	32863	32707	
490	0	33173	32966	32879	32686	32663	32751	32775	32709	
491	0	33124	32877	32903	32683	32687	32587	32775	32713	
492	0	33039	32945	32947	32709	32692	32775	32775	32738	
493	0	32949	33178	32951	32647	32690	32661	32765	32757	
494	0	32690	33268	32863	32621	32727	32754	32775	32719	
495	0	32474	33471	32922	32683	32727	32645	32835	32862	
496	0	32383	33486	32911	32599	32483	32686	32763	32764	
497	0	32346	33371	32989	32662	32637	32799	32763	32698	
498	0	32353	33530	32967	32632	32471	32725	32820	32783	
499	0	32354	33509	32996	32647	32702	32766	32847	32819	
500	0	32282	33607	32979	32615	32743	32759	32863	32791	
501	0	32285	33583	32911	32667	32629	32695	32733	32831	
502	0	32172	33601	32893	32719	32703	32743	32749	32719	
503	0	32108	33495	32885	32663	32534	32815	32819	32879	
504	0	32179	33508	32947	32689	32671	32743	32743	32866	
505	0	32281	33359	32862	32655	32573	32783	32775	32743	
506	0	32425	33177	32918	32703	32797	32703	32749	32725	
507	0	32507	33175	32845	32706	32757	32689	32716	32764	
508	0	32503	33287	32786	32795	32669	32855	32724	32811	
509	0	32495	33060	32804	32727	32679	32807	32663	32775	
510	0	32373	33023	32815	32775	32824	32806	32542	32823	
511	0	32391	32839	32711	32735	32572	32787	32562	32839	
512	0	32374	32877	32671	32731	32799	32725	32585	32799	
513	0	32380	32775	32678	32835	32763	32797	32638	32770	
514	0	32447	32693	32668	32783	32607	32845	32709	32799	
515	0	32444	32563	32638	32871	32775	32829	32647	32735	
516	0	32492	32701	32600	32923	32759	32805	32687	32584	
517	0	32512	32535	32631	32851	32645	32658	32666	32699	
518	0	32537	32589	32647	32854	32717	32692	32681	32607	
519	0	32535	32493	32613	32719	32759	32839	32733	32765	
520	0	32571	32621	32655	32804	32611	32775	32701	32642	
521	0	32604	32539	32644	32775	32707	32679	32721	32775	
522	0	32615	32637	32628	32767	32598	32807	32709	32743	
523	0	32653	32591	32758	32723	32775	32789	32681	32655	
524	0	32660	32679	32735	32807	32735	32593	32642	32685	
525	0	32687	32567	32756	32719	32623	32775	32702	32623	
526	0	32666	32468	32749	32791	32687	32735	32722	32718	
527	0	32749	32611	32820	32771	32503	32749	32703	32788	
528	0	32702	32477	32737	32775	32714	32841	32677	32706	
529	0	32745	32534	32775	32682	32762	32818	32691	32703	
530	0	32804	32425	32701	32807	32647	32771	32679	32669	
531	0	32845	32516	32748	32771	32697	32663	32671	32775	
532	0	32871	32487	32703	32787	32771	32679	32675	32692	
533	0	32877	32548	32711	32788	32749	32803	32703	32655	
534	0	32927	32502	32695	32767	32701	32727	32727	32738	
535	0	32869	32551	32700	32821	32591	32647	32687	32674	
536	0	32881	32503	32627	32759	32731	32706	32635	32751	
537	0	32863	32566	32673	32775	32695	32743	32859	32789	
538	0	32869	32503	32703	32727	32756	32662	32775	32751	
539	0	32861	32661	32687	32789	32783	32835	32831	32748	
540	0	32877	32530	32711	32698	32575	32795	32818	32647	
541	0	32873	32755	32823	32762	32707	32677	32647	32711	
542	0	32884	32679	32827	32762	32719	32772	32697	32679	
543	0	32960	32717	32839	32679	32475	32885	32685	32755	
544	0	32914	32703	32863	32769	32658	32831	32647	32719	
545	0	32836	32551	32807	32671	32621	32758	32707	32756	
546	0	32903	32634	32839	32823	32719	32775	32662	32727	
547	0	32873	32465	32807	32717	32695	32820	32686	32683	
548	0	32841	32567	32810	32791	32530	32773	32687	32677	
549	0	32825	32527	32775	32805	32737	32806	32703	32639	
550	0	32786	32563	32802	32774	32791	32783	32671	32725	
551	0	32766	32467	32775	32812	32660	32759	32667	32711	
552	0	32818	32598	32859	32666	32675	32718	32615	32635	
553	0	32834	32427	32711	32747	32531	32727	32647	32698	
554	0	32877	32511	32662	32711	32724	32827	32661	32613	
555	0	32871	32381	32671	32775	32763	32809	32667	32695	
556	0	32832	32427	32623	32742	32623	32763	32711	32642	
557	0	32815	32447	32738	32757	32755	32715	32705	32788	
558	0	32852	32647	32683	32743	32677	32755	32775	32645	
559	0	32806	32734	32702	32695	32716	32723	32730	32749	
560	0	32783	32655	32668	32799	32562	32739	32687	32646	
561	0	32759	32767	32676	32695	32661	32751	32783	32717	
562	0	32813	32746	32731	32763	32583	32721	32751	32708	
563	0	32813	32692	32693	32775	32723	32662	32733	32629	
564	0	32760	32789	32757	32786	32735	32645	32828	32743	
565	0	32775	32831	32795	32775	32587	32756	32742	32588	
566	0	32756	32662	32823	32807	32710	32775	32795	32738	
567	0	32788	32595	32796	32803	32613	32723	32769	32751	
568	0	32751	32707	32817	32695	32722	32791	32786	32667	
569	0	32756	32559	32799	32775	32727	32786	32767	32743	
570	0	32774	32711	32751	32735	32677	32683	32775	32725	
571	0	32793	32635	32783	32727	32727	32603	32711	32775	
572	0	32762	32738	32748	32695	32513	32639	32713	32767	
573	0	32789	32599	32719	32802	32735	32742	32708	32739	
574	0	32767	32601	32671	32786	32767	32854	32759	32833	
575	0	32804	32535	32690	32832	32647	32821	32733	32681	
576	0	32799	32645	32671	32839	32707	32707	32716	32735	
577	0	32775	32519	32783	32758	32596	32719	32751	32679	
578	0	32743	32666	32759	32759	32767	32775	32719	32755	
579	0	32756	32525	32789	32698	32759	32791	32731	32747	
580	0	32718	32583	32827	32772	32655	32794	32727	32807	
581	0	32874	32479	32763	32773	32763	32831	32701	32671	
582	0	32822	32647	32803	32691	32726	32807	32757	32767	
583	0	32828	32539	32791	32789	32587	32718	32675	32727	
584	0	32775	32735	32775	32711	32673	32738	32687	32647	
585	0	32809	32593	32805	32879	32615	32735	32677	32691	
586	0	32751	32663	32726	32703	32754	32765	32683	32614	
587	0	32786	32671	32759	32724	32715	32747	32633	32759	
588	0	32775	32694	32841	32707	32548	32713	32607	32619	
589	0	32737	32655	32815	32751	32727	32775	32646	32757	
590	0	32789	32787	32835	32783	32735	32791	32647	32774	
591	0	32797	32731	32775	32675	32662	32799	32703	32687	
592	0	32774	32705	32823	32765	32684	32767	32691	32725	
593	0	32773	32703	32755	32834	32647	32751	32654	32759	
594	0	32815	32640	32706	32727	32701	32679	32767	32769	
595	0	32854	32747	32772	32773	32706	32647	32717	32719	
596	0	32802	32675	32731	32695	32506	32739	32719	32787	
597	0	32756	32727	32717	32775	32733	32775	32727	32711	
598	0	32658	32691	32667	32739	32743	32763	32729	32775	
599	0	32716	32813	32690	32757	32569	32737	32699	32647	
600	0	32695	32631	32751	32723	32815	32767	32773	32743	
601	0	32714	32723	32751	32719	32749	32731	32795	32689	
602	0	32736	32529	32775	32810	32581	32765	32823	32723	
603	0	32703	32810	32695	32666	32735	32767	32775	32791	
604	0	32768	32743	32743	32775	32765	32693	32755	32583	
605	0	32769	32837	32783	32685	32675	32647	32683	32666	
606	0	32731	32683	32775	32775	32599	32722	32687	32629	
607	0	32692	32708	32765	32727	32694	32803	32735	32687	
608	0	32796	32607	32819	32749	32663	32823	32717	32676	
609	0	32764	32642	32819	32755	32671	32795	32668	32679	
610	0	32728	32637	32763	32751	32623	32687	32660	32668	
611	0	32732	32702	32788	32853	32709	32795	32695	32695	
612	0	32795	32559	32797	32725	32723	32759	32629	32682	
613	0	32782	32635	32787	32839	32579	32703	32635	32773	
614	0	32793	32579	32687	32802	32810	32738	32659	32775	
615	0	32854	32695	32735	32773	32799	32869	32577	32679	
616	0	32871	32494	32647	32835	32547	32826	32631	32707	
617	0	32813	32623	32739	32719	32718	32723	32721	32643	
618	0	32801	32607	32710	32747	32775	32786	32775	32691	
619	0	32829	32705	32683	32751	32631	32791	32671	32647	
620	0	32736	32687	32703	32797	32683	32770	32701	32711	
621	0	32751	32686	32671	32710	32775	32806	32790	32615	
622	0	32684	32671	32717	32769	32679	32707	32771	32827	
623	0	32720	32734	32823	32683	32687	32655	32645	32727	
624	0	32719	32701	32835	32762	32507	32748	32701	32727	
625	0	32818	32747	32732	32719	32736	32836	32743	32726	
626	0	32775	32743	32797	32775	32759	32871	32727	32697	
627	0	32711	32559	32745	32709	32607	32631	32743	32796	
628	0	32703	32711	32815	32798	32711	32759	32767	32807	
629	0	32798	32691	32862	32765	32755	32735	32743	32775	
630	0	32784	32711	32831	32727	32575	32703	32791	32691	
631	0	32788	32903	32815	32791	32721	32759	32748	32727	
632	0	32782	32669	32804	32705	32683	32742	32603	32701	
633	0	32727	32715	32769	32815	32547	32847	32717	32691	
634	0	32784	32646	32747	32759	32671	32767	32727	32641	
635	0	32775	32647	32735	32734	32690	32793	32727	32695	
636	0	32850	32527	32711	32739	32583	32815	32771	32707	
637	0	32803	32534	32723	32733	32634	32771	32758	32759	
638	0	32681	32439	32678	32870	32667	32787	32658	32685	
639	0	32707	32612	32690	32833	32775	32838	32687	32703	
640	0	32775	32567	32726	32805	32791	32692	32735	32748	
641	0	32799	32789	32732	32711	32757	32829	32711	32663	
642	0	32759	32695	32815	32711	32599	32743	32647	32745	
643	0	32773	32804	32815	32646	32743	32732	32598	32718	
644	0	32806	32740	32743	32686	32627	32763	32634	32615	
645	0	32801	32860	32769	32711	32725	32701	32647	32697	
646	0	32751	32806	32743	32693	32757	32646	32607	32701	
647	0	32710	32841	32787	32686	32615	32787	32655	32795	
648	0	32726	32675	32804	32754	32674	32800	32734	32789	
649	0	32679	32671	32823	32759	32750	32836	32796	32699	
650	0	32704	32551	32788	32719	32543	32842	32762	32725	
651	0	32749	32655	32811	32796	32691	32683	32751	32774	
652	0	32818	32572	32743	32757	32720	32694	32735	32743	
653	0	32847	32660	32765	32783	32659	32719	32743	32748	
654	0	32784	32569	32731	32759	32767	32823	32754	32740	
655	0	32757	32675	32699	32807	32759	32830	32758	32661	
656	0	32771	32567	32617	32794	32559	32723	32775	32723	
657	0	32786	32675	32647	32754	32726	32735	32702	32644	
658	0	32799	32591	32692	32799	32667	32779	32738	32801	
659	0	32694	32631	32606	32662	32551	32791	32639	32695	
660	0	32699	32836	32647	32791	32717	32772	32623	32775	
661	0	32695	32610	32699	32711	32751	32733	32607	32837	
662	0	32775	32515	32726	32815	32581	32759	32621	32821	
663	0	32769	32674	32757	32803	32671	32834	32631	32737	
664	0	32751	32539	32836	32755	32706	32815	32690	32606	
665	0	32736	32695	32871	32741	32500	32786	32659	32725	
666	0	32748	32658	32775	32719	32707	32644	32685	32679	
667	0	32761	32693	32734	32748	32735	32761	32639	32810	
668	0	32754	32591	32806	32715	32687	32757	32669	32723	
669	0	32767	32735	32763	32749	32700	32731	32623	32615	
670	0	32784	32591	32797	32767	32555	32749	32627	32757	
671	0	32756	32606	32817	32748	32681	32655	32615	32739	
672	0	32802	32484	32804	32731	32723	32669	32675	32815	
673	0	32775	32567	32759	32822	32593	32711	32637	32773	
674	0	32782	32535	32759	32774	32701	32761	32711	32687	
675	0	32772	32722	32711	32775	32535	32701	32646	32715	
676	0	32781	32695	32668	32773	32731	32772	32730	32695	
677	0	32730	32739	32684	32790	32621	32679	32681	32775	
678	0	32767	32607	32679	32675	32621	32725	32682	32719	
679	0	32764	32726	32695	32791	32717	32863	32661	32725	
680	0	32727	32695	32686	32709	32789	32851	32839	32821	
681	0	32747	32795	32691	32742	32615	32821	32841	32767	
682	0	32791	32645	32735	32631	32775	32729	32738	32694	
683	0	32725	32533	32787	32753	32751	32741	32795	32647	
684	0	32756	32661	32850	32751	32454	32773	32759	32722	
685	0	32732	32581	32829	32807	32643	32606	32813	32743	
686	0	32743	32843	32789	32731	32551	32755	32643	32614	
687	0	32726	32679	32767	32751	32699	32708	32620	32731	
688	0	32720	32571	32808	32753	32609	32706	32655	32695	
689	0	32775	32767	32925	32767	32749	32633	32569	32722	
690	0	32766	32851	32884	32849	32767	32703	32647	32691	
691	0	32815	32827	32873	32699	32745	32769	32774	32706	
692	0	32790	32611	32775	32748	32743	32757	32791	32679	
693	0	32757	32519	32735	32666	32579	32719	32783	32719	
694	0	32799	32679	32721	32791	32751	32711	32743	32791	
695	0	32799	32671	32675	32758	32583	32839	32685	32627	
696	0	32837	32516	32639	32822	32644	32750	32743	32701	
697	0	32742	32628	32634	32823	32563	32771	32710	32771	
698	0	32775	32687	32723	32727	32684	32798	32607	32685	
699	0	32775	32590	32677	32767	32555	32807	32605	32657	
700	0	32694	32735	32693	32772	32711	32877	32594	32749	
701	0	32722	32698	32759	32752	32637	32871	32646	32727	
702	0	32715	32771	32767	32781	32677	32813	32663	32745	
703	0	32620	32758	32771	32791	32685	32655	32659	32741	
704	0	32712	32593	32807	32807	32495	32806	32609	32655	
705	0	32843	32691	32838	32733	32687	32755	32747	32695	
706	0	32783	32667	32774	32820	32599	32871	32671	32731	
707	0	32715	32799	32720	32707	32687	32659	32797	32627	
708	0	32684	32679	32853	32743	32527	32771	32727	32743	
709	0	32743	32739	32791	32751	32676	32743	32719	32731	
710	0	32783	32572	32791	32740	32551	32791	32767	32703	
711	0	32773	32670	32767	32773	32695	32769	32719	32765	
712	0	32687	32553	32831	32710	32719	32621	32719	32813	
713	0	32813	32773	32821	32775	32748	32794	32703	32695	
714	0	32749	32723	32795	32775	32731	32655	32775	32735	
715	0	32781	32567	32773	32773	32511	32735	32762	32723	
716	0	32790	32631	32685	32765	32667	32739	32669	32647	
717	0	32830	32517	32655	32721	32747	32558	32739	32707	
718	0	32763	32687	32687	32787	32769	32769	32711	32771	
719	0	32757	32694	32711	32716	32759	32807	32653	32662	
720	0	32710	32742	32742	32831	32541	32773	32701	32793	
721	0	32732	32719	32749	32708	32666	32823	32679	32666	
722	0	32696	32729	32733	32775	32719	32763	32676	32797	
723	0	32750	32743	32807	32742	32557	32827	32699	32671	
724	0	32725	32594	32797	32759	32665	32799	32647	32727	
725	0	32816	32655	32782	32749	32783	32819	32684	32775	
726	0	32713	32613	32799	32769	32602	32713	32703	32659	
727	0	32775	32735	32743	32775	32727	32658	32786	32681	
728	0	32796	32823	32799	32647	32725	32743	32815	32647	
729	0	32812	32725	32837	32757	32583	32850	32801	32692	
730	0	32798	32639	32839	32693	32703	32815	32747	32667	
731	0	32775	32643	32773	32775	32684	32841	32765	32711	
732	0	32791	32659	32813	32787	32615	32700	32647	32727	
733	0	32759	32763	32826	32763	32667	32804	32775	32706	
734	0	32790	32711	32717	32818	32543	32811	32770	32724	
735	0	32775	32583	32679	32819	32647	32647	32751	32711	
736	0	32770	32661	32660	32839	32775	32599	32677	32703	
737	0	32771	32775	32662	32775	32679	32667	32753	32713	
738	0	32719	32707	32757	32685	32699	32637	32711	32724	
739	0	32798	32799	32765	32809	32718	32621	32715	32711	
740	0	32775	32775	32690	32668	32663	32759	32771	32679	
741	0	32718	32569	32775	32743	32823	32805	32775	32747	
742	0	32711	32684	32790	32662	32797	32738	32714	32702	
743	0	32708	32555	32827	32764	32613	32775	32714	32767	
744	0	32780	32711	32830	32695	32647	32843	32799	32727	
745	0	32746	32687	32811	32771	32562	32685	32769	32613	
746	0	32751	32807	32796	32663	32734	32647	32761	32765	
747	0	32755	32759	32774	32751	32711	32679	32789	32746	
748	0	32751	32591	32858	32717	32511	32876	32799	32647	
749	0	32754	32660	32852	32766	32713	32775	32823	32691	
750	0	32814	32555	32832	32747	32647	32747	32863	32687	
751	0	32873	32791	32775	32819	32673	32833	32809	32751	
752	0	32826	32581	32773	32690	32626	32860	32787	32749	
753	0	32865	32658	32738	32799	32742	32815	32771	32827	
754	0	32861	32579	32727	32794	32551	32757	32795	32815	
755	0	32818	32623	32667	32758	32697	32625	32784	32727	
756	0	32832	32547	32655	32845	32623	32799	32741	32732	
757	0	32846	32573	32684	32743	32668	32775	32747	32687	
758	0	32839	32595	32772	32727	32711	32671	32694	32823	
759	0	32738	32647	32736	32695	32478	32695	32695	32743	
760	0	32741	32573	32775	32827	32671	32829	32695	32793	
761	0	32710	32647	32787	32711	32709	32837	32655	32761	
762	0	32794	32557	32745	32758	32572	32615	32621	32873	
763	0	32719	32727	32775	32773	32684	32703	32594	32749	
764	0	32754	32683	32798	32725	32669	32791	32698	32685	
765	0	32861	32738	32774	32743	32668	32836	32663	32749	
766	0	32751	32663	32767	32710	32695	32756	32647	32599	
767	0	32784	32791	32819	32786	32677	32775	32695	32719	
768	0	32749	32639	32895	32823	32721	32661	32751	32645	
769	0	32771	32643	32839	32767	32647	32713	32739	32647	
770	0	32815	32695	32874	32795	32671	32771	32835	32708	
771	0	32814	32607	32827	32775	32591	32769	32759	32690	
772	0	32846	32631	32819	32883	32647	32766	32647	32719	
773	0	32822	32567	32757	32807	32709	32834	32675	32703	
774	0	32889	32719	32709	32806	32663	32819	32655	32679	
775	0	32799	32639	32677	32727	32621	32647	32675	32711	
776	0	32835	32535	32695	32807	32663	32743	32711	32647	
777	0	32878	32685	32723	32715	32786	32695	32727	32765	
778	0	32768	32735	32711	32819	32814	32869	32785	32678	
779	0	32773	32570	32647	32775	32731	32671	32759	32711	
780	0	32751	32681	32695	32816	32757	32687	32715	32803	
781	0	32771	32527	32706	32833	32591	32845	32723	32755	
782	0	32810	32623	32806	32719	32647	32807	32775	32674	
783	0	32799	32558	32743	32759	32559	32775	32775	32725	
784	0	32715	32754	32767	32727	32723	32787	32735	32655	
785	0	32727	32629	32848	32775	32765	32815	32711	32695	
786	0	32688	32735	32787	32702	32591	32671	32793	32695	
787	0	32703	32694	32756	32731	32679	32631	32775	32727	
788	0	32782	32770	32703	32693	32615	32749	32756	32740	
789	0	32813	32759	32815	32739	32749	32775	32839	32601	
790	0	32775	32851	32823	32687	32733	32762	32763	32711	
791	0	32734	32599	32853	32787	32595	32799	32785	32726	
792	0	32773	32581	32807	32647	32687	32767	32729	32767	
793	0	32743	32671	32740	32797	32720	32771	32757	32686	
794	0	32699	32553	32717	32765	32520	32707	32765	32751	
795	0	32748	32607	32735	32812	32818	32717	32708	32725	
796	0	32708	32514	32739	32717	32799	32615	32695	32791	
797	0	32728	32631	32661	32839	32659	32771	32678	32741	
798	0	32686	32671	32647	32731	32698	32791	32775	32679	
799	0	32713	32718	32643	32767	32551	32747	32786	32757	
800	0	32690	32671	32699	32738	32683	32742	32702	32706	
801	0	32752	32775	32727	32797	32757	32810	32637	32796	
802	0	32718	32717	32806	32767	32501	32832	32623	32807	
803	0	32736	32565	32822	32767	32703	32701	32694	32674	
804	0	32775	32583	32769	32683	32791	32690	32714	32719	
805	0	32762	32583	32783	32749	32731	32851	32702	32687	
806	0	32687	32710	32775	32775	32741	32837	32803	32655	
807	0	32708	32748	32767	32801	32607	32774	32719	32718	
808	0	32738	32599	32797	32807	32695	32671	32710	32667	
809	0	32751	32643	32947	32769	32566	32690	32742	32709	
810	0	32749	32574	32930	32807	32786	32669	32739	32669	
811	0	32748	32621	32887	32799	32724	32687	32690	32775	
812	0	32824	32565	32819	32695	32555	32807	32757	32749	
813	0	32809	32647	32749	32767	32659	32783	32731	32717	
814	0	32799	32487	32703	32821	32643	32729	32767	32759	
815	0	32791	32647	32683	32815	32791	32772	32828	32735	
816	0	32799	32685	32643	32819	32759	32775	32758	32740	
817	0	32738	32687	32635	32773	32551	32711	32771	32775	
818	0	32765	32685	32747	32811	32679	32723	32763	32655	
819	0	32757	32762	32687	32749	32741	32799	32767	32741	
820	0	32680	32610	32619	32749	32735	32787	32751	32724	
821	0	32749	32519	32687	32717	32771	32767	32727	32587	
822	0	32774	32721	32715	32765	32647	32668	32739	32655	
823	0	32742	32555	32697	32716	32694	32655	32773	32687	
824	0	32799	32681	32693	32844	32775	32763	32754	32727	
825	0	32734	32562	32693	32717	32562	32817	32805	32662	
826	0	32788	32743	32719	32775	32692	32839	32741	32759	
827	0	32732	32671	32759	32743	32683	32727	32703	32831	
828	0	32751	32707	32802	32797	32614	32679	32623	32694	
829	0	32735	32643	32843	32727	32679	32703	32663	32673	
830	0	32711	32730	32815	32771	32732	32789	32641	32667	
831	0	32713	32611	32803	32795	32556	32729	32719	32749	
832	0	32770	32636	32815	32775	32710	32717	32681	32677	
833	0	32743	32621	32791	32749	32655	32807	32642	32735	
834	0	32756	32699	32754	32775	32677	32823	32654	32798	
835	0	32751	32670	32789	32723	32755	32803	32684	32660	
836	0	32802	32703	32727	32765	32582	32817	32655	32677	
837	0	32810	32623	32675	32722	32751	32851	32722	32699	
838	0	32733	32751	32703	32807	32807	32597	32689	32719	
839	0	32772	32715	32693	32698	32683	32799	32669	32763	
840	0	32772	32807	32751	32743	32647	32829	32673	32775	
841	0	32704	32759	32734	32647	32640	32695	32676	32685	
842	0	32773	32579	32797	32795	32775	32747	32717	32655	
843	0	32722	32767	32799	32688	32710	32793	32666	32711	
844	0	32769	32694	32767	32788	32545	32659	32679	32666	
845	0	32748	32733	32821	32743	32755	32611	32721	32679	
846	0	32743	32641	32801	32775	32707	32609	32775	32751	
847	0	32764	32754	32821	32791	32631	32678	32743	32721	
848	0	32703	32603	32791	32740	32599	32809	32765	32738	
849	0	32698	32702	32775	32771	32679	32795	32679	32714	
850	0	32727	32631	32809	32757	32581	32775	32762	32692	
851	0	32787	32687	32794	32749	32764	32767	32711	32587	
852	0	32775	32519	32813	32691	32695	32783	32749	32727	
853	0	32800	32663	32683	32738	32585	32639	32743	32687	
854	0	32825	32639	32694	32679	32714	32707	32772	32775	
855	0	32796	32599	32741	32759	32710	32775	32751	32663	
856	0	32802	32532	32695	32753	32551	32755	32823	32735	
857	0	32751	32683	32694	32834	32733	32799	32669	32766	
858	0	32773	32717	32735	32711	32765	32819	32711	32743	
859	0	32727	32606	32717	32819	32687	32679	32757	32729	
860	0	32712	32645	32731	32708	32687	32845	32727	32684	
861	0	32741	32511	32695	32751	32543	32710	32711	32709	
862	0	32743	32667	32725	32763	32732	32807	32775	32731	
863	0	32801	32751	32787	32731	32633	32757	32737	32711	
864	0	32775	32727	32750	32765	32717	32789	32733	32749	
865	0	32754	32671	32807	32773	32611	32683	32767	32733	
866	0	32782	32723	32823	32658	32615	32747	32751	32745	
867	0	32764	32559	32807	32717	32655	32837	32739	32711	
868	0	32750	32676	32813	32711	32771	32771	32745	32722	
869	0	32740	32611	32823	32763	32639	32615	32751	32771	
870	0	32679	32743	32823	32775	32703	32893	32727	32678	
871	0	32711	32667	32775	32766	32511	32827	32771	32751	
872	0	32724	32791	32729	32811	32711	32738	32731	32677	
873	0	32887	32759	32799	32823	32646	32775	32756	32738	
874	0	32765	32563	32809	32886	32761	32645	32658	32731	
875	0	32784	32671	32786	32735	32811	32809	32735	32662	
876	0	32786	32489	32731	32870	32619	32753	32701	32747	
877	0	32721	32685	32695	32775	32677	32775	32675	32642	
878	0	32833	32611	32679	32762	32553	32735	32745	32767	
879	0	32764	32700	32647	32727	32737	32626	32731	32749	
880	0	32775	32719	32682	32711	32755	32687	32757	32767	
881	0	32741	32887	32666	32726	32563	32751	32748	32725	
882	0	32768	32795	32717	32733	32749	32791	32775	32751	
883	0	32748	32892	32791	32749	32745	32804	32739	32775	
884	0	32791	32695	32833	32733	32663	32839	32801	32647	
885	0	32784	32581	32878	32747	32687	32643	32755	32695	
886	0	32732	32743	32771	32698	32507	32812	32755	32631	
887	0	32759	32615	32802	32823	32719	32789	32719	32743	
888	0	32745	32791	32835	32775	32711	32775	32726	32767	
889	0	32764	32847	32775	32758	32673	32799	32737	32707	
890	0	32702	32565	32767	32745	32769	32683	32713	32715	
891	0	32752	32609	32799	32801	32615	32839	32747	32723	
892	0	32747	32553	32820	32751	32743	32759	32803	32687	
893	0	32723	32631	32803	32810	32683	32769	32767	32691	
894	0	32854	32595	32725	32723	32645	32783	32775	32692	
895	0	32804	32679	32715	32757	32693	32818	32787	32757	
896	0	32815	32629	32669	32683	32589	32862	32807	32655	
897	0	32789	32679	32687	32835	32605	32722	32807	32713	
898	0	32808	32556	32691	32703	32607	32647	32765	32643	
899	0	32725	32693	32703	32808	32793	32645	32759	32685	
900	0	32775	32567	32718	32715	32605	32855	32749	32703	
901	0	32752	32742	32681	32711	32679	32716	32727	32711	
902	0	32771	32751	32711	32697	32534	32822	32839	32703	
903	0	32757	32851	32743	32773	32748	32815	32790	32727	
904	0	32705	32711	32829	32735	32767	32801	32749	32743	
905	0	32748	32615	32791	32799	32595	32685	32693	32703	
906	0	32716	32675	32767	32659	32655	32761	32709	32701	
907	0	32700	32559	32767	32756	32595	32853	32786	32681	
908	0	32738	32605	32724	32759	32723	32717	32711	32733	
909	0	32787	32577	32775	32743	32607	32742	32727	32759	
910	0	32766	32755	32844	32775	32827	32647	32791	32720	
911	0	32730	32707	32837	32692	32830	32655	32698	32815	
912	0	32775	32695	32759	32797	32621	32847	32727	32759	
913	0	32783	32677	32763	32771	32690	32775	32770	32772	
914	0	32840	32687	32791	32792	32695	32726	32679	32674	
915	0	32871	32573	32739	32833	32481	32662	32642	32738	
916	0	32822	32586	32791	32713	32687	32827	32647	32689	
917	0	32804	32491	32764	32759	32667	32740	32581	32790	
918	0	32794	32599	32751	32775	32645	32805	32621	32767	
919	0	32780	32601	32803	32783	32559	32765	32703	32757	
920	0	32762	32695	32774	32727	32687	32734	32733	32723	
921	0	32775	32636	32811	32792	32758	32676	32747	32739	
922	0	32775	32695	32829	32677	32593	32665	32694	32756	
923	0	32763	32859	32831	32803	32707	32671	32789	32749	
924	0	32780	32678	32834	32807	32775	32692	32751	32757	
925	0	32775	32685	32797	32756	32519	32789	32751	32689	
926	0	32764	32743	32791	32813	32735	32727	32759	32725	
927	0	32707	32647	32767	32759	32758	32741	32797	32669	
928	0	32716	32743	32781	32735	32689	32711	32724	32727	
929	0	32763	32646	32803	32775	32709	32639	32754	32726	
930	0	32713	32775	32799	32669	32586	32692	32734	32655	
931	0	32735	32735	32773	32742	32759	32822	32729	32727	
932	0	32727	32795	32743	32711	32755	32765	32727	32679	
933	0	32750	32741	32761	32775	32743	32863	32711	32751	
934	0	32760	32582	32721	32759	32722	32727	32759	32751	
935	0	32823	32727	32692	32799	32630	32775	32748	32675	
936	0	32789	32670	32658	32811	32739	32838	32681	32754	
937	0	32753	32671	32646	32763	32562	32831	32703	32722	
938	0	32764	32629	32695	32729	32726	32719	32692	32823	
939	0	32754	32692	32727	32809	32678	32812	32759	32797	
940	0	32775	32738	32711	32823	32534	32823	32789	32647	
941	0	32700	32821	32739	32743	32708	32717	32788	32711	
942	0	32763	32683	32734	32735	32761	32609	32733	32638	
943	0	32817	32626	32775	32719	32735	32773	32756	32742	
944	0	32745	32683	32775	32823	32739	32675	32731	32723	
945	0	32795	32599	32818	32671	32594	32775	32711	32629	
946	0	32813	32786	32809	32763	32679	32658	32765	32734	
947	0	32792	32674	32819	32717	32580	32644	32783	32662	
948	0	32789	32715	32762	32790	32699	32787	32753	32679	
949	0	32742	32595	32799	32663	32742	32835	32763	32767	
950	0	32760	32706	32799	32807	32589	32758	32746	32735	
951	0	32745	32555	32791	32723	32743	32727	32695	32807	
952	0	32756	32607	32783	32759	32759	32797	32740	32662	
953	0	32829	32551	32764	32807	32511	32685	32767	32771	
954	0	32801	32679	32755	32799	32787	32742	32663	32642	
955	0	32766	32547	32719	32735	32671	32829	32757	32743	
956	0	32738	32610	32695	32855	32491	32855	32775	32756	
957	0	32700	32527	32732	32756	32615	32736	32762	32743	
958	0	32740	32639	32721	32799	32745	32821	32719	32788	
959	0	32740	32733	32747	32714	32722	32662	32695	32703	
960	0	32764	32611	32687	32762	32749	32805	32771	32733	
961	0	32748	32684	32704	32687	32677	32717	32767	32786	
962	0	32788	32533	32683	32754	32727	32762	32815	32647	
963	0	32703	32759	32837	32743	32643	32611	32743	32749	
964	0	32732	32692	32775	32647	32716	32775	32679	32703	
965	0	32747	32571	32735	32755	32563	32727	32687	32685	
966	0	32740	32662	32727	32726	32694	32790	32647	32798	
967	0	32753	32586	32811	32742	32535	32705	32695	32767	
968	0	32743	32775	32793	32773	32683	32844	32727	32665	
969	0	32687	32775	32789	32775	32635	32830	32711	32692	
970	0	32726	32678	32828	32687	32647	32625	32743	32685	
971	0	32812	32734	32871	32740	32579	32669	32770	32658	
972	0	32839	32594	32851	32756	32722	32854	32743	32727	
973	0	32743	32727	32759	32755	32723	32747	32805	32719	
974	0	32775	32690	32750	32756	32567	32711	32769	32671	
975	0	32806	32711	32724	32785	32743	32775	32747	32751	
976	0	32793	32589	32734	32783	32782	32729	32751	32702	
977	0	32730	32671	32716	32765	32575	32647	32795	32771	
978	0	32771	32514	32658	32763	32767	32647	32757	32683	
979	0	32782	32595	32677	32863	32695	32631	32639	32746	
980	0	32743	32514	32747	32843	32766	32691	32647	32775	
981	0	32694	32599	32719	32797	32715	32751	32613	32708	
982	0	32783	32531	32703	32683	32711	32658	32671	32619	
983	0	32767	32596	32730	32738	32631	32807	32646	32701	
984	0	32777	32519	32773	32694	32826	32791	32647	32678	
985	0	32775	32663	32785	32799	32706	32683	32692	32743	
986	0	32711	32580	32751	32749	32611	32717	32743	32749	
987	0	32762	32786	32767	32799	32749	32834	32721	32802	
988	0	32727	32711	32807	32743	32763	32805	32703	32767	
989	0	32659	32895	32807	32757	32543	32827	32657	32709	
990	0	32733	32725	32775	32734	32695	32811	32658	32775	
991	0	32641	32675	32813	32754	32578	32669	32602	32719	
992	0	32647	32819	32695	32823	32751	32834	32633	32685	
993	0	32728	32727	32655	32726	32783	32819	32671	32751	
994	0	32686	32587	32739	32762	32698	32879	32751	32754	
995	0	32815	32562	32741	32751	32740	32717	32775	32646	
996	0	32771	32503	32702	32775	32527	32755	32732	32706	
997	0	32766	32619	32694	32805	32671	32802	32711	32723	
998	0	32834	32607	32681	32807	32821	32765	32773	32751	
999	0	32842	32663	32704	32775	32559	32759	32751	32742	
1000	0	32878	32647	32653	32775	32655	32715	32718	32647	
1001	0	32838	32743	32727	32803	32519	32663	32698	32863	
1002	0	32806	32562	32767	32709	32715	32802	32703	32775	
1003	0	32835	32547	32758	32751	32735	32808	32772	32655	
1004	0	32789	32718	32711	32743	32645	32831	32765	32722	
1005	0	32780	32679	32807	32755	32647	32775	32722	32630	
1006	0	32796	32751	32749	32743	32731	32631	32810	32727	
1007	0	32877	32689	32775	32751	32631	32703	32771	32679	
1008	0	32839	32578	32758	32691	32627	32811	32771	32701	
1009	0	32771	32637	32807	32815	32716	32701	32773	32724	
1010	0	32809	32762	32815	32759	32516	32739	32755	32703	
1011	0	32775	32639	32765	32761	32711	32751	32699	32787	
1012	0	32807	32589	32742	32770	32679	32749	32687	32674	
1013	0	32829	32634	32727	32775	32572	32850	32621	32735	
1014	0	32793	32562	32678	32783	32639	32807	32683	32788	
1015	0	32752	32673	32675	32678	32629	32847	32789	32719	
1016	0	32824	32692	32647	32804	32663	32831	32757	32730	
1017	0	32836	32645	32685	32767	32471	32783	32745	32660	
1018	0	32743	32677	32751	32772	32751	32685	32749	32748	
1019	0	32679	32549	32677	32775	32647	32621	32766	32705	
1020	0	32676	32646	32765	32699	32734	32717	32768	32775	
1021	0	32665	32679	32679	32755	32702	32799	32783	32799	
1022	0	32724	32694	32699	32710	32667	32731	32663	32790	
1023	0	32722	32527	32743	32745	32660	32801	32660	32775	
1024	0	32758	32719	32709	32619	32719	32775	32647	32615	
1025	0	32734	32673	32802	32771	32735	32639	32663	32645	
1026	0	32782	32711	32763	32693	32593	32615	32677	32671	
1027	0	32769	32647	32787	32757	32749	32710	32687	32743	
1028	0	32721	32844	32844	32759	32691	32746	32671	32695	
1029	0	32739	32775	32846	32799	32575	32677	32642	32773	
1030	0	32775	32887	32831	32699	32719	32799	32611	32759	
1031	0	32825	32718	32835	32823	32647	32630	32669	32671	
1032	0	32775	32639	32799	32714	32807	32767	32732	32727	
1033	0	32751	32738	32741	32803	32775	32709	32735	32757	
1034	0	32677	32695	32711	32794	32721	32775	32763	32753	
1035	0	32728	32763	32733	32789	32762	32799	32732	32738	
1036	0	32792	32705	32695	32679	32571	32747	32612	32645	
1037	0	32783	32726	32709	32755	32647	32707	32695	32703	
1038	0	32800	32699	32791	32669	32679	32655	32639	32660	
1039	0	32762	32715	32743	32814	32783	32727	32647	32738	
1040	0	32732	32687	32762	32825	32733	32855	32622	32679	
1041	0	32739	32703	32837	32698	32796	32866	32662	32775	
1042	0	32686	32615	32819	32775	32757	32794	32820	32623	
1043	0	32687	32743	32795	32644	32446	32775	32762	32702	
1044	0	32657	32607	32739	32742	32702	32791	32775	32742	
1045	0	32647	32751	32807	32743	32677	32738	32786	32749	
1046	0	32690	32639	32820	32683	32502	32775	32771	32662	
1047	0	32685	32726	32884	32730	32730	32757	32839	32701	
1048	0	32738	32655	32863	32681	32683	32663	32775	32660	
1049	0	32742	32811	32821	32738	32524	32655	32767	32749	
1050	0	32775	32691	32773	32751	32639	32655	32735	32701	
1051	0	32860	32839	32751	32844	32719	32743	32746	32719	
1052	0	32859	32694	32775	32787	32669	32887	32629	32711	
1053	0	32795	32743	32763	32748	32571	32830	32625	32742	
1054	0	32766	32717	32775	32783	32771	32848	32807	32683	
1055	0	32821	32815	32767	32732	32707	32855	32825	32747	
1056	0	32815	32676	32767	32821	32495	32769	32786	32699	
1057	0	32769	32719	32687	32751	32737	32773	32775	32727	
1058	0	32798	32583	32747	32759	32743	32823	32771	32607	
1059	0	32781	32517	32671	32684	32567	32820	32751	32679	
1060	0	32748	32602	32711	32736	32703	32765	32775	32695	
1061	0	32709	32527	32703	32671	32767	32633	32803	32702	
1062	0	32717	32659	32711	32799	32583	32802	32677	32687	
1063	0	32781	32686	32773	32709	32765	32773	32735	32765	
1064	0	32755	32775	32727	32742	32766	32797	32759	32791	
1065	0	32738	32738	32791	32731	32629	32690	32795	32828	
1066	0	32745	32839	32799	32743	32727	32747	32806	32722	
1067	0	32740	32677	32783	32751	32540	32741	32685	32623	
1068	0	32743	32611	32775	32791	32711	32743	32698	32719	
1069	0	32758	32791	32807	32727	32823	32663	32722	32701	
1070	0	32742	32685	32835	32767	32627	32629	32739	32747	
1071	0	32799	32675	32805	32743	32727	32735	32641	32762	
1072	0	32879	32635	32687	32830	32539	32831	32743	32709	
1073	0	32846	32691	32763	32693	32727	32715	32707	32756	
1074	0	32822	32623	32703	32791	32687	32783	32694	32679	
1075	0	32782	32675	32652	32775	32570	32725	32658	32783	
1076	0	32796	32662	32636	32839	32763	32807	32647	32671	
1077	0	32835	32503	32634	32742	32741	32833	32575	32709	
1078	0	32759	32625	32671	32789	32609	32662	32639	32693	
1079	0	32775	32583	32681	32711	32647	32645	32647	32791	
1080	0	32790	32713	32661	32775	32613	32687	32709	32698	
1081	0	32739	32689	32795	32695	32750	32762	32711	32678	
1082	0	32741	32582	32775	32751	32748	32771	32644	32758	
1083	0	32763	32674	32771	32677	32627	32831	32597	32719	
1084	0	32775	32548	32767	32823	32639	32759	32635	32725	
1085	0	32807	32696	32775	32715	32514	32647	32727	32631	
1086	0	32695	32647	32829	32815	32763	32703	32831	32726	
1087	0	32726	32758	32810	32722	32628	32799	32699	32711	
1088	0	32710	32566	32759	32765	32756	32796	32647	32547	
1089	0	32646	32541	32859	32748	32635	32788	32711	32711	
1090	0	32687	32709	32829	32798	32695	32806	32631	32674	
1091	0	32707	32735	32860	32807	32699	32791	32623	32679	
1092	0	32740	32798	32783	32851	32524	32734	32594	32782	
1093	0	32761	32703	32775	32804	32719	32663	32683	32702	
1094	0	32738	32595	32719	32759	32590	32679	32674	32759	
1095	0	32775	32707	32675	32801	32685	32795	32671	32747	
1096	0	32762	32667	32659	32769	32593	32727	32690	32647	
1097	0	32761	32586	32663	32818	32731	32774	32721	32730	
1098	0	32764	32772	32681	32715	32743	32742	32695	32698	
1099	0	32765	32735	32735	32815	32683	32582	32710	32775	
1100	0	32760	32827	32739	32663	32722	32755	32727	32749	
1101	0	32802	32727	32763	32699	32719	32735	32743	32641	
1102	0	32842	32751	32695	32755	32729	32756	32754	32775	
1103	0	32770	32617	32775	32771	32535	32751	32739	32835	
1104	0	32740	32667	32834	32736	32687	32684	32732	32671	
1105	0	32751	32631	32787	32715	32562	32845	32732	32799	
1106	0	32703	32821	32753	32783	32655	32799	32764	32723	
1107	0	32715	32663	32799	32662	32540	32775	32749	32642	
1108	0	32751	32713	32815	32751	32731	32807	32733	32725	
1109	0	32753	32679	32821	32727	32603	32647	32676	32747	
1110	0	32724	32774	32843	32731	32675	32809	32671	32689	
1111	0	32758	32715	32721	32809	32563	32733	32643	32727	
1112	0	32757	32519	32734	32743	32722	32799	32758	32722	
1113	0	32738	32716	32775	32763	32583	32807	32795	32679	
1114	0	32783	32671	32731	32786	32660	32639	32793	32831	
1115	0	32732	32459	32719	32726	32535	32791	32791	32831	
1116	0	32793	32701	32623	32807	32679	32700	32691	32647	
1117	0	32748	32646	32695	32743	32525	32802	32799	32730	
1118	0	32775	32491	32703	32863	32749	32738	32791	32751	
1119	0	32715	32622	32677	32735	32647	32637	32767	32775	
1120	0	32748	32679	32751	32763	32775	32700	32775	32719	
1121	0	32692	32575	32828	32685	32733	32811	32745	32669	
1122	0	32762	32637	32765	32743	32586	32859	32707	32786	
1123	0	32807	32591	32815	32731	32659	32683	32758	32711	
1124	0	32743	32729	32775	32806	32583	32812	32727	32723	
1125	0	32715	32818	32737	32797	32724	32647	32771	32739	
1126	0	32798	32601	32789	32739	32665	32749	32719	32630	
1127	0	32769	32599	32755	32786	32702	32819	32775	32674	
1128	0	32775	32551	32799	32751	32759	32801	32806	32690	
1129	0	32748	32767	32807	32831	32589	32823	32775	32727	
1130	0	32775	32710	32887	32771	32740	32865	32723	32667	
1131	0	32753	32795	32891	32797	32684	32861	32679	32755	
1132	0	32757	32753	32823	32816	32569	32669	32687	32718	
1133	0	32812	32606	32763	32749	32693	32637	32725	32694	
1134	0	32854	32713	32670	32727	32749	32798	32723	32711	
1135	0	32744	32695	32677	32807	32638	32773	32711	32655	
1136	0	32701	32759	32629	32747	32671	32775	32755	32751	
1137	0	32773	32609	32683	32799	32511	32773	32739	32671	
1138	0	32730	32607	32787	32789	32647	32801	32775	32789	
1139	0	32665	32721	32687	32758	32710	32796	32714	32725	
1140	0	32615	32775	32743	32748	32513	32709	32731	32861	
1141	0	32659	32844	32745	32719	32655	32729	32713	32755	
1142	0	32632	32751	32731	32767	32571	32871	32703	32703	
1143	0	32594	32647	32797	32708	32765	32769	32722	32707	
1144	0	32630	32783	32802	32743	32717	32719	32716	32717	
1145	0	32635	32639	32739	32591	32506	32747	32717	32746	
1146	0	32623	32775	32679	32717	32695	32772	32747	32791	
1147	0	32705	32699	32731	32669	32735	32807	32710	32773	
1148	0	32589	32558	32676	32815	32519	32685	32727	32658	
1149	0	32642	32621	32717	32699	32695	32635	32719	32641	
1150	0	32595	32647	32727	32791	32657	32738	32749	32731	
1151	0	32667	32772	32727	32742	32751	32787	32769	32755	
1152	0	32658	32515	32727	32844	32831	32758	32743	32615	
1153	0	32747	32455	32703	32811	32638	32801	32775	32731	
1154	0	32799	32599	32639	32733	32756	32525	32749	32687	
1155	0	32860	32410	32575	32847	32661	32735	32637	32695	
1156	0	32874	32423	32679	32823	32759	32703	32555	32630	
1157	0	32885	32279	32684	32748	32562	32726	32619	32695	
1158	0	32967	32437	32621	32847	32705	32743	32679	32755	
1159	0	32882	32375	32611	32775	32576	32612	32711	32632	
1160	0	33028	32127	32629	32807	32803	32710	32725	32711	
1161	0	33080	32279	32663	32775	32767	32805	32741	32659	
1162	0	33111	32135	32706	32743	32773	32818	32727	32611	
1163	0	33090	32199	32675	32866	32764	32743	32687	32711	
1164	0	33127	32043	32706	32751	32655	32623	32703	32748	
1165	0	33260	32029	32698	32847	32721	32668	32695	32627	
1166	0	33283	32053	32682	32775	32735	32775	32759	32694	
1167	0	33373	32251	32698	32775	32687	32775	32714	32591	
1168	0	33330	32175	32745	32763	32707	32761	32731	32693	
1169	0	33283	32157	32775	32765	32477	32750	32735	32690	
1170	0	33284	32415	32831	32820	32646	32751	32764	32590	
1171	0	33287	32399	32831	32725	32525	32725	32759	32695	
1172	0	33295	32303	32775	32783	32685	32807	32813	32679	
1173	0	33356	32487	32773	32746	32711	32764	32783	32607	
1174	0	33300	32535	32759	32767	32721	32767	32739	32774	
1175	0	33193	32423	32811	32679	32767	32847	32797	32719	
1176	0	33083	32673	32773	32791	32579	32642	32771	32647	
1177	0	33113	32727	32738	32775	32634	32839	32699	32759	
1178	0	32973	32647	32765	32663	32567	32766	32767	32771	
1179	0	32909	32986	32831	32675	32694	32727	32738	32727	
1180	0	32775	33036	32903	32597	32535	32623	32965	32647	
1181	0	32704	33231	32884	32613	32603	32767	32861	32730	
1182	0	32569	33513	32949	32603	32445	32718	32921	32711	
1183	0	32425	33543	32993	32623	32604	32775	32901	32644	
1184	0	32295	33685	33028	32654	32487	32707	32903	32867	
1185	0	32291	33547	33041	32621	32658	32801	32811	32838	
1186	0	32180	33707	33037	32590	32487	32758	32794	32775	
1187	0	32031	33747	32941	32703	32695	32819	32739	32847	
1188	0	31983	33540	32999	32591	32554	32807	32751	32839	
1189	0	32023	33619	33002	32623	32700	32687	32669	32767	
1190	0	32100	33462	32987	32663	32775	32767	32655	32833	
1191	0	32135	33555	32965	32789	32739	32830	32643	32903	
1192	0	32266	33287	32935	32716	32727	32742	32605	32719	
1193	0	32361	33155	32879	32791	32660	32799	32706	32859	
1194	0	32489	32915	32851	32822	32756	32689	32759	32836	
1195	0	32528	33063	32827	32743	32617	32823	32695	32807	
1196	0	32416	32975	32807	32775	32741	32743	32701	32800	
1197	0	32459	32690	32669	32859	32572	32791	32703	32758	
1198	0	32375	32883	32664	32775	32711	32695	32803	32711	
1199	0	32434	32815	32663	32757	32596	32647	32687	32703	
1200	0	32346	32647	32640	32713	32791	32799	32574	32747	
1201	0	32403	32679	32727	32837	32803	32765	32575	32706	
1202	0	32411	32679	32707	32794	32807	32783	32644	32796	
1203	0	32436	32855	32686	32845	32845	32875	32579	32757	
1204	0	32459	32711	32679	32811	32679	32703	32551	32647	
1205	0	32518	32519	32679	32763	32715	32626	32583	32756	
1206	0	32573	32727	32658	32772	32709	32767	32663	32763	
1207	0	32662	32631	32645	32743	32743	32823	32567	32671	
1208	0	32699	32647	32711	32816	32738	32812	32629	32679	
1209	0	32728	32685	32743	32674	32531	32831	32583	32663	
1210	0	32739	32468	32775	32727	32683	32590	32647	32643	
1211	0	32796	32646	32707	32769	32631	32795	32705	32703	
1212	0	32785	32495	32705	32809	32707	32733	32741	32702	
1213	0	32775	32449	32711	32839	32571	32775	32743	32734	
1214	0	32800	32411	32611	32763	32719	32759	32711	32713	
1215	0	32824	32455	32645	32871	32615	32684	32727	32735	
1216	0	32807	32497	32538	32815	32766	32759	32717	32647	
1217	0	32868	32319	32630	32798	32643	32917	32743	32775	
1218	0	32901	32575	32679	32869	32757	32758	32751	32740	
1219	0	32910	32583	32668	32755	32775	32841	32751	32685	
1220	0	32850	32378	32758	32815	32719	32765	32799	32709	
1221	0	32911	32675	32757	32735	32699	32685	32731	32701	
1222	0	32849	32599	32763	32791	32509	32827	32667	32750	
1223	0	32900	32487	32775	32719	32690	32783	32734	32743	
1224	0	32903	32573	32731	32750	32830	32693	32740	32663	
1225	0	32964	32601	32751	32659	32743	32793	32743	32703	
1226	0	32880	32717	32743	32803	32703	32821	32794	32631	
1227	0	32937	32645	32775	32749	32647	32765	32749	32763	
1228	0	32871	32500	32763	32743	32718	32662	32773	32754	
1229	0	32913	32669	32767	32769	32787	32748	32747	32643	
1230	0	32841	32679	32836	32806	32655	32703	32733	32764	
1231	0	32860	32493	32903	32797	32685	32724	32687	32711	
1232	0	32857	32567	32763	32795	32587	32799	32645	32703	
1233	0	32821	32595	32759	32807	32775	32786	32671	32729	
1234	0	32822	32715	32733	32873	32727	32607	32695	32659	
1235	0	32812	32633	32662	32823	32548	32615	32676	32775	
1236	0	32837	32647	32715	32799	32636	32669	32737	32642	
1237	0	32775	32559	32647	32751	32679	32799	32749	32775	
1238	0	32764	32571	32722	32693	32751	32716	32695	32755	
1239	0	32772	32722	32803	32759	32742	32815	32671	32691	
1240	0	32716	32514	32775	32759	32583	32790	32711	32740	
1241	0	32756	32527	32755	32695	32661	32663	32715	32773	
1242	0	32815	32518	32695	32772	32529	32803	32639	32647	
1243	0	32801	32587	32743	32692	32742	32769	32668	32715	
1244	0	32830	32469	32775	32799	32731	32791	32738	32631	
1245	0	32841	32631	32715	32749	32553	32823	32669	32751	
1246	0	32844	32669	32787	32789	32637	32601	32703	32709	
1247	0	32838	32493	32847	32681	32595	32658	32666	32647	
1248	0	32782	32631	32866	32775	32679	32798	32620	32727	
1249	0	32802	32583	32837	32661	32669	32719	32694	32602	
1250	0	32838	32791	32851	32791	32524	32769	32634	32723	
1251	0	32830	32592	32799	32762	32681	32735	32647	32730	
1252	0	32868	32543	32790	32783	32751	32835	32683	32605	
1253	0	32825	32710	32797	32676	32535	32727	32661	32658	
1254	0	32824	32687	32721	32767	32809	32679	32661	32701	
1255	0	32903	32711	32669	32757	32690	32615	32753	32767	
1256	0	32815	32685	32655	32765	32690	32647	32797	32759	
1257	0	32809	32763	32658	32675	32796	32751	32719	32766	
1258	0	32761	32638	32677	32695	32724	32854	32676	32726	
1259	0	32789	32578	32647	32707	32559	32839	32759	32730	
1260	0	32740	32775	32655	32758	32694	32803	32767	32623	
1261	0	32751	32710	32747	32679	32583	32811	32735	32727	
1262	0	32766	32583	32749	32755	32797	32824	32690	32695	
1263	0	32725	32647	32775	32692	32769	32685	32713	32767	
1264	0	32684	32661	32875	32775	32567	32699	32847	32775	
1265	0	32692	32751	32861	32703	32689	32703	32812	32749	
1266	0	32742	32709	32788	32758	32575	32787	32707	32703	
1267	0	32735	32541	32759	32766	32708	32791	32709	32755	
1268	0	32796	32715	32783	32738	32647	32767	32711	32691	
1269	0	32708	32669	32767	32782	32671	32663	32763	32702	
1270	0	32687	32775	32747	32719	32687	32751	32709	32647	
1271	0	32738	32643	32771	32775	32523	32837	32775	32763	
1272	0	32768	32495	32781	32719	32687	32790	32821	32742	
1273	0	32758	32613	32803	32841	32659	32709	32767	32702	
1274	0	32735	32503	32791	32743	32682	32775	32791	32751	
1275	0	32793	32683	32740	32790	32668	32721	32733	32671	
1276	0	32769	32635	32797	32739	32516	32621	32763	32743	
1277	0	32841	32478	32698	32806	32702	32699	32738	32695	
1278	0	32807	32662	32683	32791	32655	32843	32736	32747	
1279	0	32817	32671	32662	32775	32699	32722	32787	32711	
1280	0	32695	32615	32715	32755	32743	32775	32839	32647	
1281	0	32831	32722	32726	32743	32559	32775	32837	32727	
1282	0	32801	32679	32678	32703	32711	32713	32791	32675	
1283	0	32695	32833	32757	32733	32787	32647	32721	32732	
1284	0	32756	32751	32735	32719	32676	32765	32629	32687	
1285	0	32743	32575	32754	32686	32739	32826	32637	32795	
1286	0	32774	32775	32827	32719	32532	32860	32679	32742	
1287	0	32744	32746	32838	32694	32711	32879	32668	32556	
1288	0	32791	32555	32771	32775	32633	32727	32743	32739	
1289	0	32805	32707	32775	32773	32735	32830	32736	32733	
1290	0	32751	32719	32775	32781	32775	32713	32767	32665	
1291	0	32745	32790	32731	32793	32775	32775	32759	32707	
1292	0	32787	32679	32766	32766	32703	32815	32775	32641	
1293	0	32826	32722	32734	32839	32546	32820	32700	32685	
1294	0	32870	32721	32807	32806	32707	32723	32715	32673	
1295	0	32820	32547	32787	32811	32615	32816	32717	32798	
1296	0	32791	32695	32713	32743	32735	32719	32714	32721	
1297	0	32760	32647	32661	32775	32679	32753	32759	32663	
1298	0	32683	32703	32691	32685	32698	32759	32771	32767	
1299	0	32836	32748	32699	32755	32797	32603	32775	32789	
1300	0	32772	32631	32731	32817	32727	32573	32775	32731	
1301	0	32802	32679	32775	32677	32723	32823	32775	32743	
1302	0	32756	32671	32794	32733	32439	32647	32799	32642	
1303	0	32717	32783	32835	32720	32683	32693	32735	32766	
1304	0	32724	32701	32754	32771	32583	32738	32774	32693	
1305	0	32728	32571	32714	32665	32727	32620	32719	32676	
1306	0	32671	32763	32747	32767	32612	32806	32763	32757	
1307	0	32673	32645	32727	32821	32683	32755	32757	32762	
1308	0	32725	32567	32766	32751	32725	32807	32749	32685	
1309	0	32746	32623	32813	32804	32659	32629	32749	32729	
1310	0	32791	32588	32903	32714	32701	32694	32735	32647	
1311	0	32773	32595	32843	32769	32587	32813	32762	32726	
1312	0	32709	32583	32775	32731	32763	32756	32739	32743	
1313	0	32735	32689	32767	32775	32767	32775	32647	32724	
1314	0	32694	32594	32683	32751	32645	32732	32681	32791	
1315	0	32751	32507	32623	32814	32733	32687	32655	32798	
1316	0	32786	32633	32635	32819	32631	32806	32711	32756	
1317	0	32764	32711	32646	32709	32711	32799	32690	32775	
1318	0	32709	32791	32743	32773	32673	32735	32743	32700	
1319	0	32714	32634	32722	32668	32703	32799	32701	32769	
1320	0	32768	32542	32741	32775	32748	32775	32751	32754	
1321	0	32754	32751	32700	32707	32623	32663	32742	32645	
1322	0	32795	32751	32692	32756	32635	32681	32767	32741	
1323	0	32767	32527	32711	32675	32659	32775	32727	32643	
1324	0	32772	32683	32715	32773	32726	32759	32733	32711	
1325	0	32796	32754	32790	32819	32644	32775	32795	32715	
1326	0	32731	32487	32887	32732	32788	32845	32689	32613	
1327	0	32766	32583	32852	32775	32722	32773	32735	32671	
1328	0	32846	32598	32865	32684	32611	32647	32775	32626	
1329	0	32764	32791	32876	32775	32710	32759	32684	32719	
1330	0	32736	32612	32903	32747	32450	32749	32673	32735	
1331	0	32722	32579	32855	32681	32703	32719	32711	32679	
1332	0	32761	32675	32751	32775	32631	32669	32743	32733	
1333	0	32804	32525	32756	32823	32767	32814	32751	32647	
1334	0	32797	32679	32733	32773	32757	32882	32766	32637	
1335	0	32748	32529	32689	32807	32591	32813	32786	32676	
1336	0	32745	32717	32630	32804	32775	32829	32751	32771	
1337	0	32830	32675	32631	32830	32719	32670	32759	32644	
1338	0	32807	32501	32679	32807	32565	32707	32765	32711	
1339	0	32751	32587	32710	32751	32641	32799	32775	32695	
1340	0	32806	32609	32723	32782	32705	32805	32711	32769	
1341	0	32768	32639	32758	32694	32583	32855	32710	32719	
1342	0	32738	32578	32733	32749	32667	32791	32723	32751	
1343	0	32747	32853	32767	32743	32471	32739	32733	32735	
1344	0	32702	32775	32869	32707	32674	32695	32711	32647	
1345	0	32739	32901	32818	32623	32684	32775	32799	32791	
1346	0	32695	32847	32879	32715	32589	32724	32665	32684	
1347	0	32846	32623	32871	32658	32711	32751	32687	32749	
1348	0	32748	32807	32767	32807	32683	32751	32839	32635	
1349	0	32761	32767	32755	32757	32629	32638	32797	32711	
1350	0	32769	32822	32823	32751	32695	32647	32670	32679	
1351	0	32722	32763	32807	32735	32681	32679	32667	32791	
1352	0	32775	32574	32807	32775	32731	32679	32660	32733	
1353	0	32793	32674	32703	32871	32751	32775	32679	32783	
1354	0	32828	32533	32691	32804	32658	32815	32661	32738	
1355	0	32814	32647	32663	32846	32789	32783	32663	32694	
1356	0	32767	32595	32699	32743	32733	32717	32687	32663	
1357	0	32732	32495	32740	32799	32519	32839	32647	32631	
1358	0	32679	32667	32740	32727	32647	32835	32663	32751	
1359	0	32726	32627	32719	32839	32663	32687	32671	32795	
1360	0	32724	32606	32679	32825	32718	32731	32709	32711	
1361	0	32766	32675	32644	32796	32741	32790	32677	32775	
1362	0	32679	32711	32669	32839	32626	32705	32693	32785	
1363	0	32725	32607	32767	32675	32663	32815	32655	32647	
1364	0	32740	32701	32802	32866	32587	32775	32599	32673	
1365	0	32756	32551	32767	32690	32735	32717	32663	32677	
1366	0	32806	32691	32743	32775	32703	32828	32666	32737	
1367	0	32797	32754	32773	32731	32603	32847	32671	32705	
1368	0	32795	32716	32805	32721	32748	32783	32717	32765	
1369	0	32761	32687	32831	32671	32790	32844	32620	32742	
1370	0	32762	32787	32827	32743	32554	32735	32687	32713	
1371	0	32758	32639	32795	32826	32687	32847	32705	32727	
1372	0	32726	32599	32831	32735	32501	32823	32723	32622	
1373	0	32751	32795	32796	32788	32658	32657	32679	32773	
1374	0	32782	32607	32743	32855	32615	32743	32743	32731	
1375	0	32743	32517	32736	32793	32759	32809	32742	32668	
1376	0	32772	32613	32757	32802	32775	32739	32791	32731	
1377	0	32762	32551	32702	32695	32635	32741	32821	32646	
1378	0	32783	32764	32685	32742	32703	32807	32764	32781	
1379	0	32708	32611	32738	32717	32534	32809	32711	32775	
1380	0	32767	32555	32747	32701	32751	32615	32751	32646	
1381	0	32708	32773	32722	32740	32613	32692	32727	32775	
1382	0	32715	32811	32735	32621	32795	32721	32683	32727	
1383	0	32736	32687	32731	32714	32717	32789	32725	32775	
1384	0	32812	32681	32715	32719	32570	32740	32801	32719	
1385	0	32762	32615	32719	32797	32685	32827	32766	32631	
1386	0	32767	32785	32748	32754	32566	32751	32751	32791	
1387	0	32785	32783	32786	32745	32754	32743	32775	32723	
1388	0	32786	32551	32823	32775	32747	32647	32763	32685	
1389	0	32749	32647	32826	32739	32518	32647	32795	32775	
1390	0	32768	32610	32877	32797	32794	32711	32775	32711	
1391	0	32807	32743	32843	32714	32749	32738	32775	32726	
1392	0	32799	32647	32831	32795	32588	32760	32722	32679	
1393	0	32782	32564	32751	32834	32735	32735	32703	32775	
1394	0	32834	32611	32726	32775	32587	32811	32723	32734	
1395	0	32833	32558	32695	32770	32668	32790	32726	32701	
1396	0	32810	32708	32743	32735	32617	32603	32723	32733	
1397	0	32795	32644	32727	32817	32797	32735	32725	32711	
1398	0	32742	32499	32726	32791	32726	32826	32694	32765	
1399	0	32773	32676	32708	32702	32561	32716	32755	32701	
1400	0	32788	32646	32699	32806	32669	32789	32791	32655	
1401	0	32783	32739	32707	32775	32579	32785	32687	32719	
1402	0	32775	32739	32690	32763	32676	32699	32769	32738	
1403	0	32734	32606	32764	32757	32721	32671	32738	32694	
1404	0	32751	32702	32836	32671	32583	32743	32755	32715	
1405	0	32713	32698	32807	32719	32706	32815	32659	32647	
1406	0	32727	32543	32775	32718	32503	32829	32661	32690	
1407	0	32688	32734	32743	32733	32737	32807	32679	32681	
1408	0	32685	32687	32775	32731	32756	32773	32647	32735	
1409	0	32691	32674	32799	32775	32555	32783	32721	32647	
1410	0	32724	32725	32841	32773	32786	32859	32719	32668	
1411	0	32720	32853	32791	32809	32783	32722	32796	32763	
1412	0	32763	32685	32819	32807	32668	32755	32804	32733	
1413	0	32721	32513	32841	32663	32743	32806	32701	32751	
1414	0	32765	32722	32813	32758	32519	32756	32671	32719	
1415	0	32743	32647	32743	32755	32727	32775	32733	32774	
1416	0	32789	32694	32695	32762	32683	32737	32831	32732	
1417	0	32796	32605	32679	32733	32557	32764	32813	32811	
1418	0	32818	32647	32685	32759	32703	32821	32773	32738	
1419	0	32840	32647	32678	32647	32746	32671	32751	32745	
1420	0	32846	32583	32679	32751	32510	32659	32735	32721	
1421	0	32826	32645	32694	32715	32711	32717	32724	32727	
1422	0	32794	32595	32775	32775	32762	32783	32767	32703	
1423	0	32756	32755	32775	32767	32526	32703	32711	32607	
1424	0	32747	32734	32759	32801	32631	32785	32694	32679	
1425	0	32747	32799	32827	32807	32647	32801	32769	32788	
1426	0	32790	32732	32851	32717	32750	32677	32722	32698	
1427	0	32775	32543	32797	32818	32694	32712	32698	32751	
1428	0	32752	32681	32791	32711	32480	32671	32711	32709	
1429	0	32711	32627	32775	32745	32722	32769	32734	32743	
1430	0	32726	32729	32806	32762	32721	32773	32806	32775	
1431	0	32797	32821	32807	32875	32503	32791	32825	32695	
1432	0	32783	32836	32807	32727	32719	32722	32739	32727	
1433	0	32831	32701	32738	32765	32695	32812	32711	32668	
1434	0	32833	32631	32710	32663	32637	32828	32663	32745	
1435	0	32865	32703	32710	32803	32663	32843	32662	32719	
1436	0	32807	32559	32686	32721	32637	32657	32631	32754	
1437	0	32825	32695	32719	32751	32743	32775	32695	32765	
1438	0	32863	32706	32768	32839	32731	32751	32755	32655	
1439	0	32830	32551	32734	32643	32697	32858	32855	32809	
1440	0	32839	32759	32722	32703	32739	32831	32829	32668	
1441	0	32773	32764	32705	32767	32511	32683	32775	32681	
1442	0	32765	32783	32719	32761	32711	32706	32709	32717	
1443	0	32766	32594	32701	32775	32727	32747	32751	32734	
1444	0	32806	32583	32751	32770	32588	32809	32764	32819	
1445	0	32727	32715	32755	32714	32673	32725	32755	32727	
1446	0	32761	32598	32781	32691	32663	32791	32762	32655	
1447	0	32770	32813	32823	32829	32770	32771	32735	32739	
1448	0	32751	32669	32851	32711	32759	32647	32810	32711	
1449	0	32723	32603	32797	32775	32702	32717	32791	32655	
1450	0	32779	32847	32788	32765	32767	32790	32746	32647	
1451	0	32801	32727	32791	32767	32667	32719	32673	32695	
1452	0	32803	32541	32829	32804	32743	32719	32668	32647	
1453	0	32788	32715	32829	32708	32619	32583	32673	32727	
1454	0	32800	32576	32723	32817	32701	32663	32710	32726	
1455	0	32854	32535	32742	32763	32575	32711	32687	32671	
1456	0	32806	32691	32679	32884	32747	32793	32635	32692	
1457	0	32740	32742	32621	32690	32663	32783	32671	32791	
1458	0	32721	32613	32717	32807	32767	32791	32783	32742	
1459	0	32748	32595	32787	32837	32726	32643	32715	32749	
1460	0	32775	32677	32687	32791	32763	32811	32703	32759	
1461	0	32770	32807	32735	32807	32682	32775	32726	32723	
1462	0	32754	32669	32764	32666	32684	32811	32711	32821	
1463	0	32730	32699	32748	32799	32727	32711	32755	32783	
1464	0	32708	32815	32788	32701	32571	32674	32771	32663	
1465	0	32721	32771	32797	32747	32636	32797	32799	32714	
1466	0	32792	32815	32854	32755	32639	32871	32715	32667	
1467	0	32775	32707	32811	32669	32725	32708	32803	32734	
1468	0	32753	32595	32703	32802	32722	32754	32787	32791	
1469	0	32784	32727	32743	32725	32631	32775	32838	32659	
1470	0	32727	32743	32807	32747	32695	32747	32775	32691	
1471	0	32733	32701	32835	32799	32567	32647	32663	32642	
1472	0	32738	32727	32799	32846	32742	32789	32732	32719	
1473	0	32727	32667	32807	32858	32793	32867	32719	32700	
1474	0	32759	32678	32721	32822	32641	32711	32715	32660	
1475	0	32751	32671	32705	32851	32695	32775	32647	32742	
1476	0	32761	32533	32692	32711	32571	32775	32717	32751	
1477	0	32791	32655	32631	32763	32829	32691	32623	32775	
1478	0	32734	32631	32631	32663	32771	32671	32624	32759	
1479	0	32738	32667	32660	32733	32629	32765	32605	32679	
1480	0	32775	32605	32643	32655	32751	32821	32655	32687	
1481	0	32770	32539	32718	32791	32698	32775	32655	32640	
1482	0	32700	32667	32719	32815	32795	32703	32685	32647	
1483	0	32767	32482	32775	32719	32788	32687	32647	32597	
1484	0	32775	32605	32810	32733	32806	32765	32709	32716	
1485	0	32758	32557	32802	32765	32675	32803	32811	32635	
1486	0	32775	32719	32839	32804	32679	32804	32751	32775	
1487	0	32791	32719	32775	32707	32567	32699	32655	32739	
1488	0	32754	32551	32804	32737	32717	32703	32679	32594	
1489	0	32674	32679	32809	32775	32837	32677	32679	32689	
1490	0	32687	32639	32823	32727	32743	32847	32751	32711	
1491	0	32723	32798	32855	32700	32677	32835	32709	32767	
1492	0	32742	32767	32775	32815	32508	32762	32613	32805	
1493	0	32764	32613	32757	32751	32695	32743	32755	32775	
1494	0	32745	32596	32703	32787	32603	32829	32805	32799	
1495	0	32738	32647	32754	32708	32727	32687	32695	32666	
1496	0	32775	32743	32764	32788	32747	32737	32627	32799	
1497	0	32823	32615	32775	32763	32586	32767	32638	32751	
1498	0	32788	32478	32767	32775	32647	32817	32679	32711	
1499	0	32743	32660	32710	32733	32701	32849	32647	32769	
1500	0	32820	32702	32742	32855	32643	32798	32702	32785	
1501	0	32823	32732	32790	32810	32703	32732	32671	32707	
1502	0	32712	32691	32783	32791	32793	32775	32669	32669	
1503	0	32817	32564	32732	32747	32642	32805	32743	32764	
1504	0	32808	32647	32759	32795	32620	32775	32743	32637	
1505	0	32713	32579	32727	32741	32679	32804	32775	32679	
1506	0	32718	32671	32767	32743	32487	32686	32755	32603	
1507	0	32740	32658	32707	32759	32668	32683	32775	32775	
1508	0	32735	32661	32739	32791	32599	32783	32773	32711	
1509	0	32807	32735	32814	32755	32692	32775	32658	32653	
1510	0	32769	32655	32847	32711	32730	32773	32786	32690	
1511	0	32771	32773	32882	32734	32530	32809	32805	32647	
1512	0	32794	32716	32867	32735	32677	32646	32727	32741	
1513	0	32820	32591	32807	32677	32540	32827	32667	32735	
1514	0	32753	32647	32719	32703	32725	32807	32769	32751	
1515	0	32825	32587	32731	32833	32686	32807	32751	32791	
1516	0	32775	32681	32691	32735	32579	32694	32813	32799	
1517	0	32779	32695	32717	32797	32734	32699	32687	32804	
1518	0	32749	32691	32701	32751	32685	32775	32757	32815	
1519	0	32686	32559	32687	32767	32748	32755	32815	32766	
1520	0	32647	32554	32703	32719	32699	32652	32835	32669	
1521	0	32727	32743	32707	32731	32551	32711	32669	32756	
1522	0	32787	32688	32745	32693	32710	32767	32759	32759	
1523	0	32718	32591	32859	32759	32743	32803	32710	32686	
1524	0	32743	32803	32795	32671	32659	32991	32691	32733	
1525	0	32709	32684	32799	32687	32655	33059	32613	32695	
1526	0	32680	32559	32820	32711	32511	32955	32647	32754	
1527	0	32719	32694	32774	32805	32711	32835	32674	32713	
1528	0	32758	32711	32727	32647	32766	32925	32724	32825	
1529	0	32759	32581	32775	32762	32557	32978	32678	32751	
1530	0	32791	32701	32836	32703	32793	32887	32627	32745	
1531	0	32758	32613	32817	32813	32775	32895	32634	32701	
1532	0	32743	32702	32749	32827	32543	32773	32660	32681	
1533	0	32747	32738	32727	32843	32823	32775	32775	32749	
1534	0	32799	32615	32703	32783	32751	32799	32809	32643	
1535	0	32799	32646	32711	32858	32610	32815	32647	32726	
1536	0	32775	32579	32717	32787	32623	32593	32647	32735	
1537	0	32759	32483	32719	32804	32519	32787	32603	32711	
1538	0	32775	32671	32711	32716	32735	32658	32677	32694	
1539	0	32809	32633	32738	32775	32691	32705	32671	32679	
1540	0	32759	32542	32750	32868	32775	32647	32755	32739	
1541	0	32740	32645	32750	32738	32663	32751	32743	32789	
1542	0	32700	32691	32830	32799	32831	32705	32669	32759	
1543	0	32683	32725	32743	32681	32612	32703	32747	32647	
1544	0	32732	32611	32735	32767	32564	32699	32754	32695	
1545	0	32734	32758	32754	32725	32623	32591	32738	32609	
1546	0	32758	32727	32666	32735	32565	32587	32757	32711	
1547	0	32789	32711	32701	32805	32684	32722	32791	32727	
1548	0	32775	32791	32789	32751	32601	32694	32663	32583	
1549	0	32731	32806	32819	32726	32770	32679	32644	32725	
1550	0	32756	32627	32868	32691	32775	32735	32647	32783	
1551	0	32756	32743	32785	32799	32671	32743	32679	32703	
1552	0	32714	32708	32738	32739	32719	32621	32683	32697	
1553	0	32719	32807	32694	32837	32623	32647	32678	32663	
1554	0	32775	32679	32693	32757	32727	32695	32659	32771	
1555	0	32794	32635	32721	32771	32736	32681	32626	32732	
1556	0	32791	32574	32762	32775	32645	32699	32621	32679	
1557	0	32858	32662	32689	32749	32692	32711	32721	32737	
1558	0	32742	32739	32642	32757	32539	32609	32717	32763	
1559	0	32765	32490	32695	32718	32662	32703	32756	32695	
1560	0	32766	32639	32718	32786	32583	32775	32767	32788	
1561	0	32790	32671	32743	32714	32747	32715	32739	32692	
1562	0	32751	32511	32758	32754	32733	32795	32807	32711	
1563	0	32775	32725	32757	32772	32589	32724	32684	32735	
1564	0	32754	32701	32789	32773	32727	32765	32751	32743	
1565	0	32793	32593	32815	32707	32801	32671	32719	32707	
1566	0	32839	32739	32723	32743	32729	32750	32757	32613	
1567	0	32820	32758	32747	32751	32690	32767	32759	32685	
1568	0	32762	32605	32767	32738	32495	32709	32775	32663	
1569	0	32716	32719	32843	32813	32643	32813	32787	32626	
1570	0	32745	32727	32890	32727	32758	32750	32719	32735	
1571	0	32762	32627	32832	32787	32690	32611	32775	32679	
1572	0	32751	32745	32791	32730	32727	32795	32775	32811	
1573	0	32704	32751	32765	32818	32575	32775	32711	32749	
1574	0	32730	32551	32717	32747	32803	32751	32694	32785	
1575	0	32739	32583	32637	32822	32773	32786	32674	32771	
1576	0	32723	32603	32659	32703	32597	32831	32718	32678	
1577	0	32750	32684	32678	32879	32594	32769	32791	32679	
1578	0	32800	32599	32647	32703	32583	32639	32775	32655	
1579	0	32746	32607	32743	32737	32775	32741	32786	32767	
1580	0	32828	32530	32789	32771	32775	32883	32791	32700	
1581	0	32772	32615	32699	32703	32692	32749	32791	32661	
1582	0	32764	32684	32709	32781	32715	32783	32773	32700	
1583	0	32743	32806	32751	32811	32580	32775	32757	32647	
1584	0	32740	32647	32725	32775	32757	32767	32743	32745	
1585	0	32763	32677	32765	32709	32692	32647	32721	32687	
1586	0	32743	32847	32819	32721	32613	32711	32717	32765	
1587	0	32806	32703	32807	32691	32639	32726	32783	32773	
1588	0	32723	32631	32843	32751	32551	32845	32742	32791	
1589	0	32719	32743	32804	32677	32705	32805	32811	32691	
1590	0	32806	32789	32923	32795	32684	32770	32770	32620	
1591	0	32775	32866	32847	32707	32542	32807	32751	32749	
1592	0	32782	32775	32834	32791	32671	32822	32745	32647	
1593	0	32795	32559	32826	32719	32711	32851	32761	32727	
1594	0	32751	32655	32806	32775	32615	32839	32619	32686	
1595	0	32782	32654	32674	32732	32730	32663	32669	32754	
1596	0	32724	32733	32692	32839	32630	32773	32666	32734	
1597	0	32705	32670	32660	32772	32803	32851	32679	32793	
1598	0	32731	32506	32645	32740	32801	32708	32646	32804	
1599	0	32741	32715	32691	32756	32611	32671	32685	32715	
1600	0	32727	32612	32769	32775	32699	32705	32655	32690	
1601	0	32751	32593	32759	32789	32495	32567	32775	32647	
1602	0	32820	32623	32767	32671	32731	32595	32620	32727	
1603	0	32836	32563	32743	32775	32740	32799	32706	32711	
1604	0	32817	32763	32731	32731	32581	32743	32634	32686	
1605	0	32804	32721	32811	32758	32639	32642	32691	32711	
1606	0	32797	32599	32847	32695	32654	32743	32646	32595	
1607	0	32735	32695	32813	32799	32623	32837	32637	32721	
1608	0	32734	32572	32795	32795	32647	32790	32657	32711	
1609	0	32740	32775	32799	32706	32743	32839	32685	32729	
1610	0	32773	32660	32839	32791	32532	32823	32807	32685	
1611	0	32784	32747	32784	32735	32716	32845	32822	32762	
1612	0	32753	32765	32803	32811	32685	32675	32751	32694	
1613	0	32829	32607	32695	32786	32647	32805	32791	32731	
1614	0	32774	32743	32655	32874	32683	32799	32737	32785	
1615	0	32738	32627	32659	32775	32581	32817	32773	32699	
1616	0	32727	32775	32695	32775	32734	32719	32766	32727	
1617	0	32743	32625	32705	32767	32743	32807	32803	32743	
1618	0	32775	32623	32692	32633	32663	32818	32741	32679	
1619	0	32764	32759	32679	32791	32723	32676	32739	32751	
1620	0	32755	32647	32775	32703	32615	32751	32713	32591	
1621	0	32765	32535	32735	32796	32783	32707	32773	32734	
1622	0	32788	32659	32713	32686	32850	32875	32785	32700	
1623	0	32772	32676	32722	32699	32606	32719	32751	32738	
1624	0	32795	32607	32733	32711	32715	32794	32756	32765	
1625	0	32775	32715	32786	32747	32567	32775	32763	32647	
1626	0	32750	32807	32807	32689	32715	32647	32767	32758	
1627	0	32799	32858	32821	32757	32741	32620	32763	32667	
1628	0	32828	32740	32833	32730	32579	32635	32767	32765	
1629	0	32774	32589	32821	32799	32711	32727	32719	32775	
1630	0	32711	32719	32870	32646	32703	32751	32759	32743	
1631	0	32722	32570	32903	32789	32431	32711	32767	32724	
1632	0	32788	32596	32833	32762	32679	32770	32679	32690	
1633	0	32742	32485	32773	32839	32732	32822	32679	32685	
1634	0	32698	32685	32751	32771	32583	32795	32642	32667	
1635	0	32742	32643	32722	32817	32775	32791	32626	32759	
1636	0	32732	32534	32703	32767	32783	32827	32663	32655	
1637	0	32702	32561	32647	32799	32605	32839	32647	32679	
1638	0	32759	32479	32690	32717	32661	32812	32621	32669	
1639	0	32727	32698	32704	32823	32767	32754	32679	32755	
1640	0	32774	32571	32733	32725	32714	32754	32743	32671	
1641	0	32752	32690	32681	32827	32691	32676	32775	32733	
1642	0	32783	32675	32647	32695	32559	32631	32775	32703	
1643	0	32790	32791	32743	32845	32729	32791	32775	32655	
1644	0	32743	32734	32731	32647	32727	32821	32729	32751	
1645	0	32771	32559	32756	32758	32621	32743	32719	32742	
1646	0	32743	32711	32811	32668	32694	32815	32743	32771	
1647	0	32749	32735	32838	32709	32519	32798	32706	32703	
1648	0	32761	32701	32850	32743	32743	32742	32713	32773	
1649	0	32730	32550	32875	32804	32667	32818	32707	32699	
1650	0	32810	32775	32895	32742	32722	32813	32699	32783	
1651	0	32756	32733	32903	32794	32677	32597	32655	32775	
1652	0	32764	32617	32867	32694	32707	32615	32615	32813	
1653	0	32735	32743	32851	32801	32636	32628	32647	32772	
1654	0	32694	32601	32791	32755	32639	32623	32687	32738	
1655	0	32772	32763	32730	32743	32751	32809	32674	32695	
1656	0	32769	32671	32726	32683	32621	32789	32609	32647	
1657	0	32773	32742	32647	32759	32771	32683	32643	32809	
1658	0	32762	32675	32687	32715	32742	32700	32727	32615	
1659	0	32775	32742	32683	32775	32595	32791	32675	32759	
1660	0	32838	32606	32743	32751	32815	32767	32775	32673	
1661	0	32803	32511	32694	32751	32753	32734	32742	32687	
1662	0	32738	32599	32711	32673	32527	32829	32754	32719	
1663	0	32711	32557	32683	32700	32647	32791	32727	32655	
1664	0	32753	32795	32765	32671	32583	32629	32739	32704	
1665	0	32743	32615	32775	32726	32771	32838	32762	32629	
1666	0	32726	32570	32806	32769	32761	32815	32723	32725	
1667	0	32799	32807	32773	32663	32741	32795	32619	32711	
1668	0	32765	32641	32739	32810	32787	32839	32615	32691	
1669	0	32745	32721	32716	32819	32662	32662	32615	32715	
1670	0	32668	32835	32743	32807	32655	32695	32623	32731	
1671	0	32707	32719	32825	32831	32543	32815	32661	32766	
1672	0	32749	32740	32814	32743	32687	32763	32799	32717	
1673	0	32710	32519	32845	32803	32486	32831	32771	32703	
1674	0	32738	32787	32733	32775	32679	32703	32795	32691	
1675	0	32732	32742	32725	32830	32568	32687	32749	32741	
1676	0	32753	32487	32612	32841	32709	32791	32740	32749	
1677	0	32775	32647	32663	32799	32671	32840	32709	32783	
1678	0	32754	32692	32711	32829	32551	32834	32733	32801	
1679	0	32769	32679	32717	32796	32754	32815	32623	32707	
1680	0	32795	32687	32711	32799	32775	32703	32583	32749	
1681	0	32788	32546	32733	32775	32574	32772	32602	32687	
1682	0	32753	32726	32802	32791	32738	32743	32727	32749	
1683	0	32756	32733	32753	32669	32543	32620	32705	32703	
1684	0	32780	32775	32830	32713	32725	32617	32673	32679	
1685	0	32788	32673	32805	32729	32758	32662	32655	32663	
1686	0	32775	32785	32802	32822	32631	32853	32715	32639	
1687	0	32769	32659	32759	32859	32767	32751	32724	32703	
1688	0	32807	32775	32797	32733	32663	32799	32719	32756	
1689	0	32763	32808	32771	32750	32701	32803	32809	32658	
1690	0	32716	32693	32775	32679	32627	32791	32806	32727	
1691	0	32753	32831	32827	32739	32737	32700	32775	32641	
1692	0	32782	32724	32827	32799	32742	32767	32725	32791	
1693	0	32751	32583	32771	32775	32743	32808	32718	32763	
1694	0	32722	32711	32739	32821	32719	32727	32685	32637	
1695	0	32818	32695	32743	32716	32549	32735	32671	32707	
1696	0	32742	32555	32751	32815	32719	32847	32773	32639	
1697	0	32764	32660	32659	32679	32775	32827	32717	32719	
1698	0	32792	32634	32583	32715	32756	32617	32695	32715	
1699	0	32721	32487	32685	32679	32726	32711	32775	32738	
1700	0	32767	32655	32785	32804	32623	32804	32759	32803	
1701	0	32708	32695	32738	32774	32694	32690	32751	32765	
1702	0	32731	32513	32755	32667	32593	32788	32802	32773	
1703	0	32757	32605	32811	32759	32679	32847	32767	32765	
1704	0	32773	32447	32819	32743	32738	32822	32775	32773	
1705	0	32818	32628	32807	32775	32571	32743	32775	32775	
1706	0	32836	32729	32756	32759	32685	32806	32735	32717	
1707	0	32815	32690	32771	32745	32727	32803	32659	32771	
1708	0	32759	32575	32711	32709	32535	32587	32681	32695	
1709	0	32826	32669	32738	32759	32609	32774	32815	32711	
1710	0	32782	32562	32783	32771	32545	32747	32757	32734	
1711	0	32773	32639	32935	32795	32711	32821	32799	32646	
1712	0	32750	32695	32837	32773	32742	32823	32755	32725	
1713	0	32808	32561	32759	32719	32685	32706	32679	32627	
1714	0	32854	32679	32727	32809	32647	32670	32742	32725	
1715	0	32804	32603	32743	32709	32541	32762	32767	32646	
1716	0	32778	32695	32678	32700	32736	32690	32671	32697	
1717	0	32767	32698	32689	32759	32742	32766	32623	32722	
1718	0	32775	32771	32647	32756	32621	32813	32673	32786	
1719	0	32807	32701	32641	32671	32775	32711	32654	32775	
1720	0	32743	32571	32646	32803	32751	32711	32704	32815	
1721	0	32767	32631	32668	32713	32547	32797	32715	32775	
1722	0	32775	32655	32767	32827	32769	32821	32673	32669	
1723	0	32740	32811	32791	32707	32691	32762	32683	32747	
1724	0	32747	32594	32743	32821	32598	32819	32645	32715	
1725	0	32719	32791	32775	32703	32771	32703	32631	32750	
1726	0	32695	32647	32831	32718	32755	32615	32647	32658	
1727	0	32742	32492	32783	32791	32559	32799	32663	32734	
1728	0	32756	32714	32863	32802	32769	32850	32719	32647	
1729	0	32756	32623	32834	32701	32683	32868	32823	32675	
1730	0	32802	32810	32797	32672	32567	32727	32757	32647	
1731	0	32797	32722	32813	32756	32715	32787	32759	32743	
1732	0	32844	32599	32773	32711	32743	32751	32669	32727	
1733	0	32784	32655	32731	32791	32715	32627	32711	32583	
1734	0	32782	32597	32723	32725	32685	32759	32692	32743	
1735	0	32765	32751	32726	32794	32538	32807	32693	32763	
1736	0	32758	32711	32759	32738	32715	32677	32711	32829	
1737	0	32733	32863	32775	32759	32647	32734	32681	32787	
1738	0	32683	32773	32783	32719	32687	32758	32719	32709	
1739	0	32678	32612	32732	32747	32689	32784	32679	32735	
1740	0	32677	32736	32743	32687	32565	32599	32619	32685	
1741	0	32700	32747	32727	32759	32759	32655	32731	32787	
1742	0	32677	32845	32775	32670	32749	32841	32748	32718	
1743	0	32716	32782	32785	32713	32689	32790	32666	32654	
1744	0	32701	32595	32765	32679	32673	32701	32647	32763	
1745	0	32694	32735	32725	32767	32621	32749	32783	32679	
1746	0	32659	32718	32751	32758	32647	32727	32715	32701	
1747	0	32758	32767	32711	32714	32629	32775	32786	32613	
1748	0	32754	32759	32815	32791	32579	32823	32754	32695	
1749	0	32766	32661	32835	32695	32733	32647	32711	32769	
1750	0	32731	32717	32879	32749	32773	32639	32812	32775	
1751	0	32730	32761	32895	32703	32687	32711	32763	32754	
1752	0	32760	32831	32775	32833	32751	32740	32789	32711	
1753	0	32815	32763	32763	32711	32669	32735	32729	32794	
1754	0	32769	32621	32742	32813	32758	32707	32732	32647	
1755	0	32794	32717	32735	32751	32758	32659	32733	32711	
1756	0	32828	32619	32722	32887	32647	32638	32803	32683	
1757	0	32814	32511	32734	32762	32722	32501	32775	32709	
1758	0	32839	32622	32669	32839	32817	32526	32775	32701	
1759	0	32793	32610	32687	32771	32743	32669	32806	32707	
1760	0	32772	32483	32743	32739	32724	32656	32831	32707	
1761	0	32814	32683	32775	32763	32525	32735	32783	32711	
1762	0	32766	32668	32763	32739	32676	32713	32775	32639	
1763	0	32783	32515	32775	32795	32586	32693	32679	32677	
1764	0	32796	32719	32775	32765	32759	32764	32687	32631	
1765	0	32775	32690	32759	32707	32692	32837	32665	32743	
1766	0	32824	32661	32703	32771	32444	32826	32642	32767	
1767	0	32781	32663	32782	32655	32667	32839	32647	32714	
1768	0	32756	32527	32767	32775	32754	32854	32631	32695	
1769	0	32738	32727	32771	32707	32643	32722	32709	32607	
1770	0	32707	32699	32845	32739	32691	32690	32629	32711	
1771	0	32696	32825	32827	32724	32721	32743	32647	32642	
1772	0	32823	32717	32764	32740	32631	32839	32679	32759	
1773	0	32764	32525	32846	32791	32615	32787	32679	32789	
1774	0	32806	32655	32786	32822	32539	32837	32591	32758	
1775	0	32768	32586	32759	32790	32749	32822	32589	32775	
1776	0	32780	32722	32700	32732	32715	32854	32581	32739	
1777	0	32819	32551	32647	32799	32662	32791	32694	32775	
1778	0	32797	32509	32671	32719	32719	32879	32695	32802	
1779	0	32804	32699	32655	32763	32510	32847	32772	32717	
1780	0	32769	32647	32719	32742	32706	32813	32729	32749	
1781	0	32783	32567	32790	32726	32621	32839	32771	32626	
1782	0	32764	32722	32773	32838	32647	32827	32705	32699	
1783	0	32756	32789	32786	32751	32699	32662	32694	32771	
1784	0	32765	32591	32771	32775	32602	32714	32677	32633	
1785	0	32737	32703	32711	32663	32759	32811	32715	32687	
1786	0	32743	32659	32711	32775	32782	32795	32759	32647	
1787	0	32751	32573	32772	32807	32855	32799	32711	32759	
1788	0	32698	32775	32787	32743	32735	32802	32782	32687	
1789	0	32731	32769	32814	32746	32655	32657	32770	32671	
1790	0	32733	32826	32903	32775	32655	32703	32671	32743	
1791	0	32718	32748	32867	32815	32742	32623	32653	32742	
1792	0	32767	32849	32833	32767	32724	32673	32631	32706	
1793	0	32805	32637	32809	32842	32642	32818	32676	32676	
1794	0	32790	32631	32737	32757	32665	32730	32647	32689	
1795	0	32773	32739	32740	32855	32543	32702	32703	32647	
1796	0	32838	32637	32703	32791	32655	32803	32686	32767	
1797	0	32774	32455	32673	32823	32703	32847	32711	32623	
1798	0	32688	32699	32695	32658	32595	32679	32717	32734	
1799	0	32727	32531	32670	32783	32623	32759	32679	32705	
1800	0	32743	32743	32641	32738	32595	32871	32691	32681	
1801	0	32743	32670	32719	32721	32708	32754	32683	32717	
1802	0	32764	32767	32733	32623	32699	32775	32755	32695	
1803	0	32806	32674	32759	32721	32659	32885	32706	32756	
1804	0	32663	32568	32823	32724	32757	32839	32705	32673	
1805	0	32676	32655	32818	32790	32679	32807	32691	32700	
1806	0	32739	32621	32799	32715	32646	32775	32743	32647	
1807	0	32716	32686	32751	32796	32679	32647	32719	32751	
1808	0	32748	32512	32818	32733	32690	32647	32678	32647	
1809	0	32833	32748	32797	32714	32679	32790	32749	32722	
1810	0	32812	32773	32823	32709	32772	32671	32695	32719	
1811	0	32788	32834	32775	32783	32667	32701	32762	32767	
1812	0	32816	32686	32787	32787	32561	32765	32751	32751	
1813	0	32748	32553	32765	32799	32754	32623	32745	32679	
1814	0	32838	32687	32717	32772	32716	32623	32799	32719	
1815	0	32766	32525	32665	32797	32540	32655	32742	32725	
1816	0	32702	32647	32646	32723	32733	32679	32617	32751	
1817	0	32756	32602	32635	32805	32691	32775	32612	32723	
1818	0	32775	32711	32647	32743	32751	32782	32663	32743	
1819	0	32767	32661	32690	32743	32607	32731	32671	32751	
1820	0	32757	32743	32717	32693	32727	32815	32669	32752	
1821	0	32725	32796	32683	32775	32626	32734	32628	32660	
1822	0	32775	32743	32745	32647	32645	32787	32727	32755	
1823	0	32764	32691	32775	32775	32695	32876	32689	32669	
1824	0	32787	32587	32731	32661	32559	32823	32759	32733	
1825	0	32783	32683	32749	32739	32722	32819	32707	32591	
1826	0	32719	32759	32805	32732	32788	32687	32673	32711	
1827	0	32764	32847	32813	32753	32626	32698	32647	32631	
1828	0	32727	32647	32790	32695	32669	32758	32655	32743	
1829	0	32698	32708	32830	32805	32689	32743	32639	32709	
1830	0	32799	32791	32805	32844	32759	32762	32699	32663	
1831	0	32755	32731	32847	32628	32711	32859	32671	32678	
1832	0	32769	32631	32743	32767	32475	32727	32617	32701	
1833	0	32787	32735	32695	32838	32575	32647	32715	32767	
1834	0	32767	32695	32729	32831	32743	32719	32695	32775	
1835	0	32742	32711	32701	32725	32579	32841	32671	32756	
1836	0	32784	32679	32695	32827	32695	32751	32647	32762	
1837	0	32786	32639	32669	32735	32717	32645	32678	32709	
1838	0	32745	32599	32704	32769	32509	32738	32735	32775	
1839	0	32678	32615	32685	32692	32562	32703	32757	32759	
1840	0	32677	32747	32775	32847	32743	32731	32745	32673	
1841	0	32611	32593	32725	32723	32767	32859	32771	32767	
1842	0	32617	32797	32705	32723	32581	32799	32813	32713	
1843	0	32592	32751	32775	32703	32679	32647	32787	32775	
1844	0	32617	32923	32775	32743	32571	32791	32715	32803	
1845	0	32647	32835	32799	32775	32697	32825	32799	32722	
1846	0	32647	32883	32847	32775	32687	32783	32722	32743	
1847	0	32599	32643	32775	32783	32593	32719	32749	32645	
1848	0	32613	32615	32799	32756	32749	32821	32677	32731	
1849	0	32629	32707	32713	32766	32734	32620	32669	32716	
1850	0	32644	32535	32727	32701	32580	32663	32685	32741	
1851	0	32653	32441	32738	32751	32747	32799	32727	32749	
1852	0	32662	32593	32769	32839	32639	32783	32715	32671	
1853	0	32681	32471	32695	32755	32729	32823	32709	32755	
1854	0	32774	32403	32717	32849	32775	32835	32638	32691	
1855	0	32833	32371	32638	32743	32788	32771	32667	32764	
1856	0	32893	32351	32565	32829	32717	32690	32647	32711	
1857	0	32927	32423	32583	32879	32627	32783	32633	32599	
1858	0	32962	32195	32567	32759	32677	32775	32598	32671	
1859	0	32972	32437	32655	32847	32603	32732	32583	32687	
1860	0	32974	32301	32679	32849	32790	32738	32634	32591	
1861	0	32984	32263	32663	32775	32806	32647	32660	32668	
1862	0	33021	32347	32633	32804	32726	32839	32804	32681	
1863	0	33071	32201	32671	32797	32773	32745	32807	32587	
1864	0	33033	32087	32775	32813	32589	32804	32805	32700	
1865	0	33057	32286	32763	32807	32735	32763	32771	32725	
1866	0	33245	32199	32775	32734	32714	32627	32806	32693	
1867	0	33351	32167	32671	32745	32719	32891	32860	32669	
1868	0	33390	32183	32739	32866	32662	32719	32805	32669	
1869	0	33295	32289	32708	32767	32599	32757	32771	32731	
1870	0	33193	32340	32763	32815	32681	32755	32762	32655	
1871	0	33213	32421	32775	32710	32697	32749	32775	32718	
1872	0	33224	32372	32751	32820	32495	32613	32843	32636	
1873	0	33316	32511	32775	32751	32637	32667	32783	32718	
1874	0	33415	32445	32812	32801	32757	32639	32775	32639	
1875	0	33302	32404	32791	32759	32574	32775	32731	32679	
1876	0	33159	32485	32749	32871	32663	32743	32737	32727	
1877	0	33106	32470	32812	32754	32690	32747	32719	32743	
1878	0	33076	32626	32838	32775	32567	32605	32731	32699	
1879	0	32952	32607	32874	32687	32698	32694	32738	32727	
1880	0	32914	32955	32823	32723	32673	32743	32749	32734	
1881	0	32753	33125	32893	32629	32551	32739	32769	32719	
1882	0	32609	33147	32950	32687	32591	32638	32839	32746	
1883	0	32468	33479	32955	32559	32455	32722	32833	32686	
1884	0	32297	33506	33054	32617	32631	32837	32823	32769	
1885	0	32340	33430	33114	32605	32505	32766	32879	32825	
1886	0	32233	33615	33043	32595	32645	32838	32839	32799	
1887	0	32101	33647	33035	32570	32703	32815	32711	32775	
1888	0	31999	33841	32946	32634	32737	32743	32691	32775	
1889	0	31946	33647	32884	32711	32754	32717	32708	32843	
1890	0	31917	33527	32883	32677	32615	32611	32663	32831	
1891	0	32023	33583	32916	32756	32731	32791	32647	32759	
1892	0	32135	33499	32911	32711	32631	32724	32589	32815	
1893	0	32291	33383	32925	32711	32767	32758	32611	32809	
1894	0	32406	33135	32855	32643	32727	32664	32615	32807	
1895	0	32455	33058	32851	32769	32573	32743	32581	32743	
1896	0	32500	32887	32802	32711	32692	32724	32671	32797	
1897	0	32449	32727	32803	32791	32703	32861	32647	32685	
1898	0	32453	32847	32743	32719	32583	32834	32620	32719	
1899	0	32391	32671	32647	32791	32733	32807	32707	32687	
1900	0	32466	32819	32589	32775	32695	32711	32687	32827	
1901	0	32458	32673	32630	32795	32769	32847	32603	32767	
1902	0	32499	32724	32678	32815	32711	32871	32621	32646	
1903	0	32488	32621	32787	32758	32769	32751	32594	32769	
1904	0	32440	32662	32703	32768	32775	32892	32631	32742	
1905	0	32535	32539	32666	32739	32599	32857	32605	32807	
1906	0	32543	32657	32695	32749	32747	32803	32617	32687	
1907	0	32605	32621	32733	32759	32775	32850	32671	32743	
1908	0	32621	32585	32689	32775	32534	32749	32751	32669	
1909	0	32599	32599	32679	32701	32742	32681	32707	32756	
1910	0	32660	32535	32674	32773	32655	32775	32717	32590	
1911	0	32742	32575	32724	32743	32693	32775	32629	32707	
1912	0	32818	32668	32646	32883	32699	32797	32703	32642	
1913	0	32827	32491	32647	32759	32666	32691	32719	32727	
1914	0	32804	32363	32679	32775	32681	32730	32759	32735	
1915	0	32855	32457	32662	32719	32701	32785	32637	32767	
1916	0	32863	32463	32698	32795	32601	32645	32683	32799	
1917	0	32850	32583	32775	32901	32727	32660	32735	32626	
1918	0	32863	32479	32685	32805	32615	32765	32735	32679	
1919	0	32869	32589	32683	32775	32751	32694	32738	32711	
1920	0	32851	32589	32647	32679	32754	32703	32839	32753	
1921	0	32903	32621	32679	32719	32543	32775	32710	32727	
1922	0	32927	32487	32729	32687	32725	32644	32773	32695	
1923	0	32957	32661	32711	32767	32745	32839	32775	32715	
1924	0	32936	32671	32807	32775	32621	32767	32685	32655	
1925	0	32962	32495	32819	32751	32669	32701	32737	32727	
1926	0	32888	32637	32759	32807	32646	32767	32751	32739	
1927	0	32916	32607	32762	32684	32775	32775	32759	32738	
1928	0	32903	32726	32722	32754	32735	32719	32772	32734	
1929	0	32849	32727	32745	32759	32647	32602	32746	32655	
1930	0	32839	32813	32775	32763	32708	32758	32722	32751	
1931	0	32858	32623	32735	32807	32574	32773	32762	32662	
1932	0	32871	32498	32751	32819	32811	32783	32711	32730	
1933	0	32876	32565	32775	32821	32658	32759	32703	32694	
1934	0	32857	32703	32751	32823	32751	32826	32709	32749	
1935	0	32845	32564	32739	32758	32543	32839	32738	32769	
1936	0	32893	32558	32703	32775	32703	32773	32839	32645	
1937	0	32860	32551	32690	32735	32759	32743	32851	32723	
1938	0	32772	32627	32703	32775	32505	32754	32746	32701	
1939	0	32794	32647	32695	32692	32677	32790	32710	32695	
1940	0	32828	32551	32693	32749	32615	32811	32791	32695	
1941	0	32830	32551	32723	32765	32775	32773	32827	32759	
1942	0	32790	32547	32703	32783	32676	32711	32811	32749	
1943	0	32834	32755	32834	32767	32587	32865	32805	32671	
1944	0	32805	32673	32815	32662	32695	32695	32742	32714	
1945	0	32735	32617	32735	32762	32495	32811	32711	32659	
1946	0	32781	32755	32732	32719	32699	32771	32659	32677	
1947	0	32761	32594	32735	32791	32487	32615	32658	32679	
1948	0	32762	32519	32839	32802	32668	32831	32715	32645	
1949	0	32706	32743	32851	32775	32510	32711	32711	32735	
1950	0	32719	32607	32829	32749	32623	32741	32739	32763	
1951	0	32742	32647	32799	32831	32527	32671	32695	32668	
1952	0	32815	32811	32813	32711	32666	32747	32631	32742	
1953	0	32815	32615	32830	32835	32549	32681	32637	32751	
1954	0	32787	32626	32775	32765	32703	32775	32647	32725	
1955	0	32807	32567	32727	32807	32583	32775	32676	32799	
1956	0	32791	32582	32687	32863	32849	32659	32605	32743	
1957	0	32818	32531	32663	32711	32773	32793	32617	32811	
1958	0	32775	32775	32703	32789	32751	32749	32581	32699	
1959	0	32740	32631	32741	32764	32732	32827	32690	32717	
1960	0	32716	32623	32721	32713	32755	32663	32719	32679	
1961	0	32745	32773	32698	32775	32775	32885	32791	32738	
1962	0	32711	32743	32711	32702	32628	32739	32804	32719	
1963	0	32834	32679	32743	32711	32634	32746	32807	32807	
1964	0	32769	32783	32775	32631	32719	32743	32763	32667	
1965	0	32832	32540	32835	32740	32708	32775	32719	32701	
1966	0	32823	32615	32807	32739	32722	32711	32773	32711	
1967	0	32879	32663	32775	32783	32607	32839	32791	32643	
1968	0	32854	32615	32710	32775	32711	32703	32799	32695	
1969	0	32807	32743	32773	32679	32543	32751	32771	32690	
1970	0	32765	32646	32855	32727	32671	32810	32763	32673	
1971	0	32738	32541	32800	32706	32595	32690	32810	32739	
1972	0	32719	32679	32839	32711	32791	32757	32729	32679	
1973	0	32684	32699	32711	32753	32761	32767	32715	32719	
1974	0	32775	32747	32671	32879	32622	32757	32734	32683	
1975	0	32749	32725	32689	32827	32749	32751	32687	32679	
1976	0	32708	32628	32743	32747	32559	32646	32707	32679	
1977	0	32711	32551	32695	32771	32695	32799	32755	32759	
1978	0	32762	32579	32683	32825	32509	32703	32647	32695	
1979	0	32756	32647	32682	32871	32775	32791	32798	32755	
1980	0	32820	32749	32663	32831	32767	32805	32838	32687	
1981	0	32759	32711	32731	32728	32557	32694	32795	32749	
1982	0	32786	32579	32765	32756	32729	32578	32751	32643	
1983	0	32775	32624	32731	32749	32703	32671	32749	32715	
1984	0	32754	32703	32767	32701	32743	32772	32671	32783	
1985	0	32775	32819	32832	32647	32786	32831	32702	32683	
1986	0	32724	32677	32775	32801	32724	32791	32751	32719	
1987	0	32742	32679	32742	32822	32730	32743	32679	32733	
1988	0	32722	32636	32771	32711	32703	32863	32687	32681	
1989	0	32686	32711	32885	32770	32727	32799	32687	32738	
1990	0	32759	32751	32851	32719	32499	32835	32615	32743	
1991	0	32727	32851	32831	32711	32615	32705	32559	32767	
1992	0	32762	32641	32775	32791	32647	32695	32593	32707	
1993	0	32797	32555	32762	32751	32623	32837	32684	32687	
1994	0	32830	32767	32771	32803	32690	32775	32679	32708	
1995	0	32781	32719	32743	32756	32483	32800	32625	32679	
1996	0	32836	32492	32692	32837	32647	32795	32591	32716	
1997	0	32821	32677	32679	32775	32713	32850	32645	32811	
1998	0	32753	32683	32767	32815	32523	32767	32691	32727	
1999	0	32729	32570	32729	32703	32655	32902	32645	32761	
2000	0	32821	32695	32650	32815	32583	32783	32646	32770	
2001	0	32771	32587	32663	32791	32700	32830	32683	32620	
2002	0	32710	32655	32799	32666	32579	32623	32761	32775	
2003	0	32773	32593	32775	32775	32726	32762	32803	32749	
2004	0	32764	32759	32748	32774	32591	32685	32839	32638	
2005	0	32764	32711	32813	32691	32821	32723	32807	32757	
2006	0	32752	32556	32711	32767	32671	32583	32743	32679	
2007	0	32757	32785	32734	32686	32727	32695	32727	32647	
2008	0	32719	32711	32759	32743	32703	32733	32799	32711	
2009	0	32685	32834	32822	32638	32663	32775	32795	32661	
2010	0	32717	32627	32785	32732	32711	32750	32815	32692	
2011	0	32665	32555	32833	32714	32678	32799	32824	32697	
2012	0	32733	32623	32797	32801	32569	32751	32783	32681	
2013	0	32839	32615	32737	32774	32742	32535	32737	32706	
2014	0	32801	32761	32763	32812	32797	32743	32775	32658	
2015	0	32819	32647	32679	32865	32621	32711	32731	32843	
2016	0	32841	32718	32699	32659	32727	32799	32706	32801	
2017	0	32754	32767	32727	32751	32505	32726	32727	32669	
2018	0	32771	32677	32719	32783	32667	32671	32743	32791	
2019	0	32760	32719	32745	32731	32519	32773	32775	32755	
2020	0	32775	32551	32733	32764	32671	32799	32771	32699	
2021	0	32758	32695	32745	32637	32753	32820	32759	32786	
2022	0	32756	32615	32791	32767	32685	32797	32711	32740	
2023	0	32785	32727	32726	32675	32687	32647	32691	32718	
2024	0	32765	32628	32767	32727	32583	32677	32727	32740	
2025	0	32732	32607	32787	32695	32736	32826	32739	32679	
2026	0	32690	32671	32819	32709	32773	32775	32775	32765	
2027	0	32683	32519	32796	32733	32763	32786	32751	32743	
2028	0	32708	32669	32711	32719	32735	32647	32727	32663	
2029	0	32762	32643	32794	32789	32727	32759	32637	32748	
2030	0	32710	32588	32813	32815	32715	32723	32835	32730	
2031	0	32759	32767	32839	32726	32463	32748	32673	32610	
2032	0	32815	32647	32775	32783	32722	32823	32715	32719	
2033	0	32836	32510	32757	32799	32688	32775	32727	32689	
2034	0	32870	32701	32722	32797	32591	32653	32710	32743	
2035	0	32775	32683	32759	32837	32685	32823	32767	32804	
2036	0	32832	32605	32637	32769	32615	32783	32743	32671	
2037	0	32813	32679	32633	32759	32791	32799	32767	32707	
2038	0	32710	32637	32582	32762	32803	32826	32709	32684	
2039	0	32751	32817	32631	32733	32531	32835	32767	32775	
2040	0	32711	32615	32755	32775	32671	32821	32799	32699	
2041	0	32745	32539	32751	32810	32750	32691	32723	32765	
2042	0	32758	32709	32775	32822	32535	32787	32731	32647	
2043	0	32834	32761	32805	32725	32573	32807	32790	32676	
2044	0	32815	32562	32775	32753	32487	32759	32805	32647	
2045	0	32792	32645	32775	32735	32673	32751	32787	32615	
2046	0	32712	32753	32773	32759	32766	32771	32772	32719	
2047	0	32717	32738	32775	32783	32617	32671	32711	32695	
2048	0	32752	32738	32775	32791	32757	32707	32741	32775	
2049	0	32679	32607	32815	32801	32759	32683	32763	32743	
2050	0	32727	32851	32887	32799	32711	32867	32758	32681	
2051	0	32686	32687	32851	32827	32647	32711	32751	32721	
2052	0	32743	32775	32791	32731	32554	32765	32757	32740	
2053	0	32726	32573	32761	32722	32746	32811	32775	32671	
2054	0	32756	32645	32765	32708	32590	32678	32713	32818	
2055	0	32784	32685	32695	32773	32751	32687	32747	32719	
2056	0	32813	32511	32723	32737	32739	32732	32775	32775	
2057	0	32836	32571	32700	32863	32535	32821	32711	32706	
2058	0	32852	32579	32723	32847	32758	32821	32839	32775	
2059	0	32847	32775	32739	32799	32658	32703	32729	32731	
2060	0	32797	32677	32750	32722	32513	32685	32707	32727	
2061	0	32788	32564	32751	32813	32783	32764	32623	32738	
2062	0	32723	32687	32717	32804	32741	32615	32694	32641	
2063	0	32686	32742	32733	32735	32535	32735	32637	32789	
2064	0	32713	32682	32751	32759	32773	32807	32647	32655	
2065	0	32682	32715	32759	32647	32807	32783	32615	32711	
2066	0	32662	32633	32801	32721	32677	32791	32647	32711	
2067	0	32639	32903	32711	32645	32812	32687	32605	32717	
2068	0	32660	32831	32765	32695	32719	32699	32590	32695	
2069	0	32684	32627	32815	32759	32780	32690	32629	32719	
2070	0	32709	32764	32811	32699	32789	32671	32631	32775	
2071	0	32753	32635	32775	32756	32761	32738	32691	32743	
2072	0	32843	32597	32783	32767	32726	32702	32695	32679	
2073	0	32828	32487	32741	32730	32659	32850	32636	32747	
2074	0	32855	32627	32740	32807	32725	32749	32623	32666	
2075	0	32839	32629	32735	32791	32583	32790	32599	32763	
2076	0	32793	32683	32684	32805	32685	32815	32698	32711	
2077	0	32709	32615	32716	32663	32698	32786	32679	32739	
2078	0	32751	32447	32746	32796	32527	32671	32743	32767	
2079	0	32745	32620	32707	32754	32647	32610	32786	32735	
2080	0	32785	32675	32767	32813	32702	32775	32821	32713	
2081	0	32775	32791	32743	32722	32582	32866	32814	32647	
2082	0	32807	32719	32743	32711	32599	32799	32755	32723	
2083	0	32823	32663	32786	32647	32742	32833	32741	32676	
2084	0	32753	32701	32863	32775	32689	32719	32775	32711	
2085	0	32701	32602	32816	32775	32679	32791	32847	32621	
2086	0	32740	32719	32775	32756	32747	32794	32797	32645	
2087	0	32686	32769	32807	32791	32594	32803	32765	32667	
2088	0	32708	32583	32791	32775	32679	32887	32773	32723	
2089	0	32711	32685	32799	32733	32590	32703	32823	32735	
2090	0	32715	32738	32775	32759	32711	32733	32722	32568	
2091	0	32784	32675	32757	32741	32743	32775	32838	32689	
2092	0	32822	32699	32739	32803	32639	32731	32790	32733	
2093	0	32828	32707	32835	32799	32656	32767	32733	32771	
2094	0	32775	32722	32775	32769	32517	32775	32679	32743	
2095	0	32714	32583	32827	32815	32695	32763	32714	32703	
2096	0	32741	32519	32722	32799	32743	32599	32759	32759	
2097	0	32773	32692	32747	32835	32559	32583	32749	32694	
2098	0	32755	32701	32719	32789	32679	32835	32721	32719	
2099	0	32726	32485	32691	32799	32647	32815	32751	32575	
2100	0	32788	32647	32769	32823	32706	32766	32759	32719	
2101	0	32806	32553	32719	32709	32745	32748	32698	32697	
2102	0	32759	32703	32739	32738	32821	32747	32687	32840	
2103	0	32761	32711	32741	32647	32707	32827	32739	32799	
2104	0	32775	32764	32775	32735	32647	32788	32635	32743	
2105	0	32823	32663	32759	32735	32675	32596	32710	32751	
2106	0	32815	32693	32810	32695	32708	32711	32787	32679	
2107	0	32738	32823	32823	32727	32714	32751	32690	32783	
2108	0	32785	32655	32756	32715	32583	32829	32629	32673	
2109	0	32754	32661	32791	32775	32692	32743	32687	32676	
2110	0	32734	32703	32821	32775	32675	32775	32715	32721	
2111	0	32739	32735	32811	32783	32669	32762	32679	32661	
2112	0	32742	32647	32751	32791	32699	32635	32647	32713	
2113	0	32850	32671	32705	32785	32539	32679	32686	32727	
2114	0	32854	32515	32735	32758	32708	32773	32638	32660	
2115	0	32875	32695	32719	32883	32677	32745	32742	32694	
2116	0	32827	32679	32771	32737	32697	32763	32655	32675	
2117	0	32795	32738	32709	32811	32689	32823	32715	32751	
2118	0	32730	32668	32719	32807	32775	32733	32635	32679	
2119	0	32713	32500	32695	32801	32730	32835	32626	32763	
2120	0	32759	32601	32743	32711	32679	32604	32607	32669	
2121	0	32703	32577	32717	32885	32639	32694	32679	32783	
2122	0	32762	32715	32761	32731	32719	32762	32727	32723	
2123	0	32713	32723	32775	32775	32775	32847	32687	32696	
2124	0	32758	32605	32799	32719	32543	32731	32647	32725	
2125	0	32821	32767	32767	32791	32647	32775	32683	32647	
2126	0	32804	32705	32711	32655	32583	32681	32695	32668	
2127	0	32806	32675	32743	32761	32683	32711	32707	32707	
2128	0	32820	32763	32757	32747	32685	32719	32692	32668	
2129	0	32815	32717	32753	32823	32503	32851	32663	32723	
2130	0	32756	32791	32773	32711	32718	32731	32687	32647	
2131	0	32791	32806	32783	32747	32846	32727	32835	32769	
2132	0	32760	32659	32836	32665	32571	32775	32790	32719	
2133	0	32771	32789	32878	32711	32645	32708	32791	32784	
2134	0	32780	32627	32827	32765	32782	32775	32837	32775	
2135	0	32769	32691	32775	32770	32578	32631	32791	32790	
2136	0	32775	32691	32735	32791	32767	32643	32751	32775	
2137	0	32786	32490	32693	32791	32570	32789	32731	32663	
2138	0	32788	32534	32660	32797	32756	32789	32767	32767	
2139	0	32804	32583	32677	32715	32751	32709	32755	32683	
2140	0	32836	32670	32687	32810	32543	32791	32764	32771	
2141	0	32803	32733	32673	32718	32647	32801	32745	32807	
2142	0	32739	32791	32703	32822	32765	32607	32737	32700	
2143	0	32759	32693	32805	32707	32684	32747	32724	32695	
2144	0	32806	32740	32762	32761	32698	32807	32701	32679	
2145	0	32769	32903	32807	32711	32641	32815	32711	32719	
2146	0	32793	32715	32852	32773	32654	32820	32783	32727	
2147	0	32804	32757	32771	32784	32594	32803	32775	32576	
