# OpenSignals Text File Format
# {"00:07:80:3B:46:38": {"sensor": ["CUSTOM/0.5/1.0/V", "CUSTOM/0.5/1.0/V", "CUSTOM/0.5/1.0/V", "CUSTOM/0.5/1.0/V", "CUSTOM/0.5/1.0/V", "CUSTOM/0.5/1.0/V", "CUSTOM/0.5/1.0/V", "CUSTOM/0.5/1.0/V"], "device name": "EMGs", "column": ["nSeq", "DI", "RA_L", "RA_R", "OE_L", "OE:R", "IL_L", "IL_R", "MF_L", "MF_R"], "sync interval": 2, "time": "17:58:1.843", "comments": "", "device connection": "BTH00:07:80:3B:46:38", "channels": [1, 2, 3, 4, 5, 6, 7, 8], "date": "2017-5-22", "mode": 0, "digital IO": [0, 1], "firmware version": 772, "device": "biosignalsplux", "position": 0, "sampling rate": 1000, "label": ["RA_L", "RA_R", "OE_L", "OE:R", "IL_L", "IL_R", "MF_L", "MF_R"], "resolution": [16, 16, 16, 16, 16, 16, 16, 16], "special": [{}, {}, {}, {}, {}, {}, {}, {}]}}
# EndOfHeader
0	0	32612	32545	32807	32751	32662	32811	32764	32755	
1	0	32683	32439	32887	32809	32734	32773	32657	32627	
2	0	32684	32431	32861	32806	32687	32763	32685	32662	
3	0	32756	32527	32717	32763	32635	32827	32639	32694	
4	0	32702	32421	32756	32735	32644	32613	32719	32727	
5	0	32759	32359	32895	32815	32719	32711	32783	32742	
6	0	32866	32519	32815	32813	32583	32733	32589	32786	
7	0	32857	32443	32844	32821	32679	32647	32667	32689	
8	0	32801	32557	32727	32804	32595	32749	32765	32674	
9	0	32837	32375	32671	32742	32717	32695	32671	32718	
10	0	32819	32599	32690	32743	32629	32775	32739	32740	
11	0	32813	32518	32583	32733	32541	32573	32705	32763	
12	0	32844	32507	32591	32705	32594	32775	32691	32687	
13	0	32839	32387	32605	32679	32577	32724	32751	32671	
14	0	32916	32455	32566	32715	32683	32759	32683	32791	
15	0	32893	32489	32677	32749	32702	32687	32747	32775	
16	0	32832	32406	32693	32725	32563	32858	32813	32754	
17	0	32815	32540	32711	32771	32679	32838	32717	32722	
18	0	32899	32573	32739	32738	32495	32646	32701	32806	
19	0	32919	32423	32683	32751	32783	32661	32707	32613	
20	0	32935	32455	32791	32711	32775	32791	32655	32617	
21	0	32873	32615	32895	32727	32503	32771	32775	32690	
22	0	32891	32558	32860	32775	32708	32775	32803	32621	
23	0	32871	32585	32839	32791	32567	32663	32578	32711	
24	0	32791	32503	32803	32836	32783	32815	32790	32727	
25	0	32865	32613	32825	32869	32790	32695	32743	32599	
26	0	32827	32516	32775	32875	32695	32742	32700	32605	
27	0	32876	32549	32785	32845	32663	32630	32773	32689	
28	0	32903	32375	32685	32815	32561	32723	32671	32663	
29	0	32873	32579	32721	32759	32719	32731	32758	32595	
30	0	32855	32535	32739	32775	32709	32766	32735	32629	
31	0	32871	32565	32662	32805	32623	32583	32603	32723	
32	0	32858	32786	32722	32683	32751	32813	32796	32687	
33	0	32807	32692	32771	32748	32605	32754	32694	32755	
34	0	32807	32676	32687	32767	32824	32791	32623	32703	
35	0	32736	32485	32687	32722	32710	32643	32746	32679	
36	0	32705	32591	32707	32671	32455	32798	32687	32695	
37	0	32700	32663	32671	32710	32667	32775	32727	32701	
38	0	32748	32621	32718	32727	32731	32722	32673	32811	
39	0	32753	32746	32830	32775	32452	32893	32695	32647	
40	0	32767	32503	32713	32689	32670	32660	32718	32763	
41	0	32743	32769	32709	32751	32579	32839	32647	32711	
42	0	32736	32590	32867	32719	32653	32773	32727	32727	
43	0	32801	32667	32749	32799	32732	32791	32687	32793	
44	0	32827	32429	32839	32823	32647	32694	32599	32671	
45	0	32907	32595	32875	32807	32701	32859	32729	32730	
46	0	32850	32576	32823	32871	32556	32731	32679	32755	
47	0	32816	32527	32850	32822	32711	32791	32628	32753	
48	0	32841	32735	32773	32853	32670	32711	32803	32727	
49	0	32787	32639	32735	32751	32745	32823	32718	32684	
50	0	32823	32724	32805	32692	32647	32789	32667	32671	
51	0	32821	32897	32663	32699	32755	32807	32785	32647	
52	0	32775	32805	32695	32743	32773	32877	32775	32721	
53	0	32773	32734	32791	32775	32592	32871	32676	32743	
54	0	32769	32759	32722	32742	32794	32771	32729	32775	
55	0	32683	32578	32691	32747	32749	32805	32751	32643	
56	0	32751	32591	32694	32786	32541	32775	32775	32708	
57	0	32684	32735	32743	32687	32730	32635	32647	32730	
58	0	32746	32599	32799	32699	32727	32738	32692	32693	
59	0	32715	32723	32727	32805	32591	32731	32671	32767	
60	0	32877	32548	32773	32835	32661	32694	32754	32766	
61	0	32834	32695	32806	32799	32561	32775	32775	32733	
62	0	32828	32615	32787	32845	32739	32676	32662	32693	
63	0	32745	32677	32775	32863	32655	32807	32771	32722	
64	0	32705	32611	32839	32783	32507	32807	32647	32803	
65	0	32812	32642	32859	32827	32684	32742	32863	32786	
66	0	32763	32707	32815	32790	32719	32835	32743	32787	
67	0	32740	32655	32789	32763	32631	32641	32671	32719	
68	0	32794	32613	32839	32813	32671	32711	32751	32817	
69	0	32766	32511	32749	32765	32687	32810	32677	32701	
70	0	32762	32759	32621	32747	32532	32814	32775	32637	
71	0	32732	32679	32647	32702	32710	32751	32685	32629	
72	0	32738	32700	32742	32747	32751	32805	32802	32711	
73	0	32757	32503	32698	32759	32519	32685	32663	32727	
74	0	32769	32473	32607	32819	32727	32627	32751	32615	
75	0	32748	32747	32723	32787	32647	32743	32647	32723	
76	0	32738	32757	32783	32764	32518	32799	32697	32743	
77	0	32666	32647	32719	32783	32647	32809	32775	32781	
78	0	32717	32706	32775	32729	32588	32681	32642	32773	
79	0	32675	32827	32797	32801	32668	32825	32765	32803	
80	0	32703	32727	32821	32817	32695	32661	32748	32686	
81	0	32823	32631	32855	32879	32509	32735	32705	32718	
82	0	32820	32579	32938	32914	32647	32609	32647	32710	
83	0	32729	32495	32786	32833	32511	32701	32655	32742	
84	0	32745	32735	32868	32815	32647	32807	32707	32660	
85	0	32749	32633	32895	32815	32647	32700	32711	32663	
86	0	32721	32575	32775	32738	32642	32745	32641	32786	
87	0	32799	32526	32775	32735	32619	32645	32745	32755	
88	0	32799	32659	32783	32668	32507	32815	32796	32751	
89	0	32642	32711	32691	32765	32711	32757	32623	32743	
90	0	32702	32579	32683	32700	32671	32647	32729	32681	
91	0	32805	32847	32599	32743	32767	32775	32719	32670	
92	0	32771	32745	32631	32731	32751	32827	32684	32773	
93	0	32715	32718	32671	32711	32629	32755	32718	32709	
94	0	32775	32491	32743	32735	32745	32831	32703	32726	
95	0	32811	32695	32831	32727	32525	32765	32743	32743	
96	0	32761	32566	32855	32647	32726	32773	32748	32611	
97	0	32751	32517	32732	32687	32591	32751	32807	32647	
98	0	32754	32695	32791	32831	32697	32703	32679	32679	
99	0	32741	32603	32811	32791	32638	32819	32727	32710	
100	0	32738	32690	32751	32853	32791	32791	32691	32767	
101	0	32769	32575	32743	32815	32660	32724	32743	32647	
102	0	32724	32889	32763	32763	32570	32821	32819	32687	
103	0	32713	32691	32709	32819	32756	32674	32715	32736	
104	0	32647	32807	32694	32811	32786	32621	32728	32718	
105	0	32726	32707	32743	32806	32587	32735	32703	32775	
106	0	32768	32719	32702	32871	32746	32785	32795	32743	
107	0	32793	32785	32713	32854	32731	32765	32783	32735	
108	0	32820	32641	32749	32775	32567	32789	32710	32691	
109	0	32805	32694	32749	32801	32667	32679	32719	32749	
110	0	32783	32475	32775	32743	32666	32660	32655	32740	
111	0	32814	32711	32825	32614	32827	32797	32798	32675	
112	0	32841	32583	32767	32564	32717	32819	32773	32742	
113	0	32834	32703	32639	32687	32588	32804	32663	32655	
114	0	32794	32745	32738	32711	32757	32743	32790	32647	
115	0	32810	32564	32623	32741	32727	32820	32707	32679	
116	0	32749	32681	32615	32807	32625	32671	32720	32711	
117	0	32732	32621	32719	32727	32647	32641	32799	32789	
118	0	32788	32735	32745	32711	32630	32791	32669	32699	
119	0	32757	32565	32757	32745	32647	32871	32758	32679	
120	0	32762	32799	32825	32727	32671	32767	32775	32647	
121	0	32794	32703	32775	32723	32591	32825	32743	32775	
122	0	32796	32619	32833	32677	32715	32623	32711	32698	
123	0	32795	32673	32750	32695	32719	32751	32647	32759	
124	0	32812	32519	32829	32789	32642	32753	32647	32641	
125	0	32757	32717	32807	32795	32724	32786	32673	32669	
126	0	32739	32639	32797	32815	32567	32623	32635	32762	
127	0	32765	32719	32791	32868	32811	32655	32687	32745	
128	0	32783	32503	32891	32820	32711	32796	32617	32723	
129	0	32767	32545	32827	32765	32581	32769	32743	32635	
130	0	32772	32711	32745	32833	32847	32711	32756	32679	
131	0	32714	32716	32764	32735	32821	32749	32595	32683	
132	0	32727	32587	32707	32763	32639	32643	32747	32751	
133	0	32692	32718	32687	32807	32678	32851	32771	32837	
134	0	32738	32695	32791	32684	32487	32679	32679	32716	
135	0	32732	32683	32707	32771	32660	32811	32806	32663	
136	0	32628	32695	32805	32813	32559	32877	32763	32615	
137	0	32671	32710	32679	32727	32647	32735	32729	32692	
138	0	32637	32505	32679	32823	32532	32815	32679	32764	
139	0	32765	32678	32631	32775	32719	32727	32765	32727	
140	0	32810	32635	32679	32711	32513	32893	32787	32679	
141	0	32759	32484	32630	32707	32655	32802	32713	32775	
142	0	32761	32573	32661	32695	32692	32839	32737	32743	
143	0	32733	32765	32685	32727	32631	32575	32623	32703	
144	0	32738	32692	32838	32763	32679	32749	32705	32749	
145	0	32679	32747	32687	32806	32514	32687	32723	32705	
146	0	32628	32641	32751	32802	32647	32715	32631	32733	
147	0	32724	32717	32844	32852	32570	32675	32767	32627	
148	0	32742	32562	32723	32835	32734	32827	32741	32647	
149	0	32856	32481	32791	32765	32706	32767	32642	32715	
150	0	32801	32685	32751	32709	32773	32660	32813	32695	
151	0	32730	32647	32791	32679	32722	32767	32743	32781	
152	0	32708	32526	32788	32713	32679	32749	32647	32754	
153	0	32680	32631	32727	32739	32727	32707	32769	32805	
154	0	32718	32733	32783	32757	32685	32803	32692	32621	
155	0	32764	32539	32863	32747	32735	32623	32683	32695	
156	0	32751	32620	32787	32791	32729	32797	32716	32731	
157	0	32760	32441	32727	32831	32679	32775	32623	32742	
158	0	32690	32791	32815	32790	32743	32750	32694	32663	
159	0	32666	32703	32775	32797	32647	32818	32685	32671	
160	0	32738	32687	32805	32775	32623	32647	32746	32671	
161	0	32788	32535	32738	32775	32661	32767	32647	32797	
162	0	32745	32746	32719	32834	32717	32762	32607	32775	
163	0	32755	32614	32743	32799	32595	32794	32727	32679	
164	0	32722	32679	32809	32803	32677	32660	32631	32715	
165	0	32743	32551	32775	32809	32765	32587	32742	32679	
166	0	32789	32690	32728	32839	32519	32763	32655	32717	
167	0	32766	32747	32729	32837	32755	32743	32701	32699	
168	0	32759	32671	32751	32806	32759	32783	32796	32749	
169	0	32815	32773	32692	32759	32519	32719	32724	32741	
170	0	32808	32591	32722	32807	32684	32843	32711	32775	
171	0	32799	32723	32749	32767	32717	32647	32673	32669	
172	0	32836	32635	32759	32751	32765	32807	32804	32627	
173	0	32806	32663	32715	32721	32686	32812	32831	32799	
174	0	32791	32555	32709	32783	32500	32735	32635	32771	
175	0	32805	32759	32771	32835	32677	32819	32758	32762	
176	0	32799	32663	32687	32855	32690	32687	32679	32631	
177	0	32743	32591	32694	32807	32551	32657	32825	32733	
178	0	32801	32733	32710	32802	32783	32831	32827	32708	
179	0	32743	32591	32769	32722	32693	32815	32802	32730	
180	0	32763	32502	32826	32715	32606	32807	32775	32711	
181	0	32758	32813	32797	32743	32807	32867	32789	32689	
182	0	32717	32793	32711	32759	32691	32799	32764	32739	
183	0	32759	32748	32755	32775	32549	32852	32647	32661	
184	0	32713	32789	32831	32819	32754	32783	32767	32711	
185	0	32738	32620	32734	32811	32634	32674	32633	32739	
186	0	32783	32558	32791	32724	32663	32644	32791	32775	
187	0	32791	32791	32822	32735	32687	32775	32626	32663	
188	0	32852	32710	32893	32661	32702	32798	32799	32743	
189	0	32796	32599	32715	32751	32543	32757	32831	32695	
190	0	32796	32525	32687	32794	32739	32773	32715	32759	
191	0	32839	32694	32787	32726	32677	32802	32791	32691	
192	0	32854	32614	32738	32722	32559	32611	32667	32750	
193	0	32788	32663	32715	32717	32757	32578	32743	32764	
194	0	32769	32668	32685	32724	32771	32809	32671	32725	
195	0	32794	32543	32827	32775	32607	32746	32647	32614	
196	0	32854	32765	32775	32807	32751	32695	32735	32684	
197	0	32807	32671	32687	32731	32775	32723	32655	32635	
198	0	32836	32735	32765	32775	32754	32662	32751	32691	
199	0	32849	32647	32727	32727	32751	32756	32717	32707	
200	0	32791	32861	32711	32791	32629	32731	32599	32655	
201	0	32728	32697	32823	32807	32665	32679	32731	32673	
202	0	32742	32738	32799	32723	32469	32723	32684	32741	
203	0	32773	32559	32831	32748	32647	32726	32588	32684	
204	0	32815	32783	32820	32667	32575	32722	32713	32725	
205	0	32807	32742	32863	32674	32666	32855	32751	32719	
206	0	32813	32791	32817	32703	32690	32739	32759	32669	
207	0	32751	32599	32876	32717	32509	32623	32767	32803	
208	0	32794	32799	32789	32679	32685	32813	32655	32739	
209	0	32790	32687	32803	32738	32723	32751	32794	32791	
210	0	32775	32669	32786	32700	32479	32799	32692	32669	
211	0	32806	32671	32822	32723	32701	32839	32797	32698	
212	0	32758	32579	32743	32743	32665	32639	32771	32725	
213	0	32815	32756	32742	32732	32477	32665	32895	32775	
214	0	32732	32719	32759	32701	32706	32818	32887	32631	
215	0	32784	32669	32767	32732	32719	32775	32756	32758	
216	0	32773	32691	32679	32739	32595	32830	32711	32775	
217	0	32759	32647	32729	32711	32791	32749	32603	32694	
218	0	32788	32575	32754	32711	32703	32647	32754	32775	
219	0	32757	32511	32815	32756	32773	32687	32644	32797	
220	0	32799	32615	32756	32751	32631	32775	32819	32647	
221	0	32787	32692	32703	32786	32715	32740	32695	32679	
222	0	32736	32585	32735	32787	32759	32707	32795	32724	
223	0	32826	32620	32687	32786	32793	32818	32733	32694	
224	0	32757	32507	32742	32759	32681	32663	32642	32727	
225	0	32822	32740	32827	32795	32567	32727	32818	32679	
226	0	32786	32635	32786	32781	32691	32771	32807	32725	
227	0	32749	32687	32767	32861	32716	32757	32742	32746	
228	0	32773	32629	32743	32837	32551	32775	32743	32765	
229	0	32850	32850	32791	32727	32675	32623	32609	32695	
230	0	32854	32667	32748	32725	32609	32799	32687	32679	
231	0	32817	32703	32815	32643	32702	32637	32763	32681	
232	0	32825	32599	32739	32690	32687	32734	32687	32739	
233	0	32841	32646	32697	32767	32735	32755	32687	32685	
234	0	32863	32699	32790	32752	32687	32796	32770	32747	
235	0	32789	32532	32751	32807	32581	32791	32563	32639	
236	0	32772	32774	32745	32687	32601	32815	32685	32709	
237	0	32732	32643	32743	32751	32667	32690	32647	32732	
238	0	32794	32723	32754	32701	32758	32787	32752	32575	
239	0	32768	32539	32806	32727	32543	32708	32661	32741	
240	0	32775	32745	32732	32739	32728	32669	32771	32751	
241	0	32759	32701	32751	32754	32771	32846	32698	32699	
242	0	32768	32676	32855	32743	32606	32861	32775	32661	
243	0	32694	32675	32831	32787	32775	32893	32695	32722	
244	0	32692	32535	32723	32813	32763	32903	32751	32806	
245	0	32724	32839	32707	32795	32601	32833	32791	32647	
246	0	32753	32755	32770	32775	32743	32807	32761	32719	
247	0	32753	32717	32815	32749	32692	32805	32711	32807	
248	0	32738	32591	32823	32788	32599	32575	32753	32635	
249	0	32759	32615	32700	32711	32723	32725	32743	32684	
250	0	32723	32725	32671	32735	32707	32740	32775	32718	
251	0	32724	32691	32689	32720	32715	32713	32795	32687	
252	0	32711	32555	32749	32655	32531	32750	32759	32765	
253	0	32739	32663	32775	32629	32713	32743	32751	32727	
254	0	32732	32475	32743	32708	32711	32742	32642	32677	
255	0	32700	32508	32671	32662	32595	32711	32701	32767	
256	0	32711	32631	32749	32679	32589	32751	32702	32743	
257	0	32738	32628	32814	32731	32732	32671	32759	32647	
258	0	32709	32638	32751	32676	32775	32579	32663	32689	
259	0	32691	32595	32735	32700	32619	32821	32707	32759	
260	0	32736	32647	32739	32787	32759	32817	32629	32703	
261	0	32722	32694	32773	32743	32684	32677	32815	32775	
262	0	32773	32836	32760	32823	32734	32763	32737	32629	
263	0	32751	32635	32787	32807	32756	32662	32671	32663	
264	0	32764	32615	32733	32831	32549	32884	32815	32775	
265	0	32716	32851	32806	32855	32647	32775	32684	32707	
266	0	32802	32711	32775	32817	32666	32769	32756	32743	
267	0	32812	32591	32823	32809	32775	32829	32708	32674	
268	0	32800	32773	32707	32773	32668	32647	32655	32715	
269	0	32838	32615	32743	32831	32503	32607	32711	32717	
270	0	32781	32735	32807	32803	32687	32647	32663	32775	
271	0	32775	32593	32677	32775	32662	32741	32723	32663	
272	0	32730	32802	32758	32791	32595	32729	32799	32669	
273	0	32736	32627	32799	32709	32724	32723	32690	32715	
274	0	32732	32660	32754	32822	32647	32743	32743	32773	
275	0	32703	32615	32727	32775	32634	32583	32612	32703	
276	0	32735	32571	32799	32775	32681	32775	32774	32617	
277	0	32781	32695	32719	32815	32599	32786	32775	32743	
278	0	32732	32631	32741	32801	32793	32647	32683	32700	
279	0	32763	32773	32799	32803	32679	32799	32758	32750	
280	0	32764	32675	32699	32753	32583	32719	32647	32705	
281	0	32790	32517	32738	32686	32663	32847	32787	32678	
282	0	32789	32709	32775	32708	32603	32799	32743	32679	
283	0	32716	32660	32743	32797	32725	32865	32822	32775	
284	0	32735	32725	32775	32775	32536	32711	32647	32733	
285	0	32711	32623	32749	32807	32745	32837	32743	32748	
286	0	32690	32734	32789	32826	32719	32727	32687	32695	
287	0	32721	32535	32825	32847	32442	32775	32802	32623	
288	0	32793	32765	32719	32845	32709	32801	32647	32667	
289	0	32731	32631	32764	32799	32679	32637	32791	32679	
290	0	32743	32711	32738	32749	32517	32679	32694	32738	
291	0	32780	32582	32719	32733	32695	32793	32686	32611	
292	0	32768	32742	32699	32747	32709	32813	32727	32769	
293	0	32775	32655	32732	32773	32447	32711	32641	32723	
294	0	32741	32559	32794	32743	32657	32775	32727	32791	
295	0	32796	32739	32745	32703	32709	32607	32668	32723	
296	0	32751	32733	32751	32767	32734	32790	32783	32727	
297	0	32783	32544	32783	32759	32663	32765	32713	32747	
298	0	32818	32662	32773	32754	32730	32830	32821	32738	
299	0	32820	32635	32789	32789	32559	32865	32822	32647	
300	0	32797	32630	32758	32695	32758	32717	32743	32783	
301	0	32799	32501	32743	32767	32759	32815	32723	32727	
302	0	32743	32647	32823	32759	32589	32719	32622	32759	
303	0	32821	32703	32698	32765	32756	32629	32715	32605	
304	0	32807	32511	32775	32799	32839	32771	32671	32703	
305	0	32783	32757	32806	32836	32599	32791	32717	32690	
306	0	32790	32591	32871	32839	32785	32707	32685	32647	
307	0	32806	32675	32794	32785	32783	32735	32767	32686	
308	0	32743	32499	32807	32821	32598	32739	32735	32727	
309	0	32754	32706	32787	32764	32659	32595	32591	32803	
310	0	32769	32687	32699	32788	32767	32755	32739	32809	
311	0	32732	32719	32745	32754	32675	32835	32607	32711	
312	0	32767	32619	32692	32834	32709	32745	32679	32812	
313	0	32799	32713	32681	32797	32642	32775	32822	32771	
314	0	32752	32705	32671	32743	32647	32813	32747	32669	
315	0	32739	32687	32711	32828	32716	32738	32663	32742	
316	0	32761	32510	32767	32759	32775	32635	32749	32703	
317	0	32712	32738	32743	32719	32593	32845	32769	32817	
318	0	32754	32699	32764	32785	32775	32845	32743	32711	
319	0	32739	32742	32710	32791	32694	32893	32793	32695	
320	0	32743	32597	32740	32767	32565	32767	32615	32759	
321	0	32775	32747	32791	32786	32739	32834	32743	32686	
322	0	32750	32630	32679	32811	32637	32735	32647	32742	
323	0	32730	32695	32790	32770	32615	32723	32775	32703	
324	0	32775	32623	32765	32735	32603	32690	32635	32775	
325	0	32707	32556	32803	32834	32811	32715	32815	32692	
326	0	32742	32567	32839	32799	32646	32832	32711	32701	
327	0	32827	32719	32843	32814	32705	32839	32748	32669	
328	0	32764	32743	32738	32775	32541	32841	32633	32754	
329	0	32855	32635	32758	32718	32710	32759	32690	32722	
330	0	32797	32769	32811	32767	32722	32791	32612	32767	
331	0	32824	32487	32798	32827	32511	32798	32743	32607	
332	0	32775	32731	32757	32759	32711	32653	32635	32735	
333	0	32787	32719	32734	32683	32647	32607	32742	32739	
334	0	32726	32662	32786	32719	32717	32681	32669	32676	
335	0	32769	32759	32837	32731	32611	32635	32695	32759	
336	0	32727	32663	32709	32775	32647	32803	32714	32747	
337	0	32743	32607	32743	32797	32731	32767	32761	32757	
338	0	32679	32763	32790	32821	32589	32719	32635	32663	
339	0	32719	32647	32837	32845	32783	32687	32735	32725	
340	0	32791	32743	32717	32767	32595	32719	32710	32756	
341	0	32806	32582	32791	32747	32703	32839	32775	32669	
342	0	32765	32692	32833	32855	32671	32621	32841	32731	
343	0	32798	32679	32783	32759	32749	32619	32790	32743	
344	0	32780	32589	32859	32803	32698	32661	32799	32658	
345	0	32762	32797	32773	32773	32541	32767	32707	32748	
346	0	32717	32647	32725	32799	32775	32835	32709	32725	
347	0	32722	32634	32725	32804	32647	32735	32679	32647	
348	0	32702	32511	32698	32775	32773	32706	32717	32623	
349	0	32701	32711	32631	32751	32612	32807	32658	32687	
350	0	32775	32629	32739	32797	32644	32798	32763	32727	
351	0	32808	32549	32740	32797	32532	32679	32791	32724	
352	0	32822	32724	32709	32798	32772	32801	32655	32647	
353	0	32790	32647	32767	32708	32679	32825	32719	32765	
354	0	32829	32685	32838	32622	32495	32738	32647	32731	
355	0	32884	32511	32701	32699	32719	32809	32775	32693	
356	0	32839	32764	32671	32733	32631	32692	32647	32679	
357	0	32823	32629	32815	32713	32455	32809	32715	32713	
358	0	32751	32547	32747	32767	32646	32869	32681	32767	
359	0	32705	32711	32749	32775	32735	32699	32685	32717	
360	0	32676	32615	32806	32775	32489	32765	32724	32679	
361	0	32642	32647	32823	32798	32773	32775	32623	32667	
362	0	32647	32755	32742	32783	32693	32658	32731	32775	
363	0	32677	32639	32783	32713	32555	32663	32749	32751	
364	0	32746	32691	32766	32740	32735	32805	32695	32662	
365	0	32782	32701	32807	32809	32679	32822	32718	32769	
366	0	32785	32804	32775	32796	32711	32775	32767	32819	
367	0	32726	32715	32755	32720	32553	32723	32723	32706	
368	0	32795	32646	32756	32767	32679	32871	32647	32701	
369	0	32812	32647	32831	32717	32783	32731	32754	32783	
370	0	32775	32733	32743	32691	32557	32573	32647	32718	
371	0	32782	32703	32671	32703	32741	32759	32691	32679	
372	0	32759	32667	32681	32743	32783	32799	32629	32804	
373	0	32759	32557	32759	32791	32511	32698	32722	32719	
374	0	32742	32767	32722	32793	32739	32740	32708	32639	
375	0	32708	32582	32701	32815	32671	32743	32854	32755	
376	0	32775	32701	32731	32791	32743	32623	32719	32701	
377	0	32752	32519	32747	32755	32679	32711	32771	32635	
378	0	32813	32655	32707	32769	32726	32773	32683	32613	
379	0	32775	32612	32719	32821	32723	32711	32765	32679	
380	0	32714	32633	32721	32847	32551	32725	32704	32677	
381	0	32788	32541	32756	32845	32797	32834	32796	32679	
382	0	32837	32580	32839	32729	32668	32806	32692	32773	
383	0	32814	32711	32833	32719	32659	32617	32775	32775	
384	0	32802	32693	32751	32761	32548	32718	32685	32695	
385	0	32775	32665	32764	32753	32742	32798	32763	32721	
386	0	32763	32814	32837	32743	32754	32743	32769	32749	
387	0	32791	32658	32791	32711	32647	32846	32751	32741	
388	0	32804	32711	32759	32667	32775	32754	32735	32643	
389	0	32801	32567	32767	32743	32663	32682	32738	32686	
390	0	32764	32790	32759	32718	32561	32818	32772	32711	
391	0	32785	32639	32679	32667	32743	32795	32612	32647	
392	0	32765	32642	32725	32667	32662	32819	32747	32646	
393	0	32766	32775	32767	32695	32669	32825	32627	32691	
394	0	32729	32687	32743	32647	32775	32699	32757	32830	
395	0	32696	32587	32722	32735	32735	32838	32705	32775	
396	0	32742	32751	32829	32711	32522	32740	32703	32698	
397	0	32707	32749	32750	32722	32636	32820	32839	32671	
398	0	32739	32883	32831	32749	32479	32646	32823	32732	
399	0	32681	32614	32870	32795	32659	32806	32661	32743	
400	0	32726	32436	32791	32751	32605	32773	32775	32709	
401	0	32671	32711	32809	32742	32711	32826	32708	32710	
402	0	32662	32606	32775	32775	32577	32855	32743	32789	
403	0	32720	32707	32811	32802	32727	32839	32583	32739	
404	0	32760	32547	32741	32829	32695	32865	32743	32658	
405	0	32791	32599	32773	32775	32482	32833	32711	32750	
406	0	32831	32383	32823	32756	32647	32647	32727	32711	
407	0	32845	32644	32762	32791	32725	32759	32735	32737	
408	0	32878	32654	32721	32818	32738	32793	32647	32611	
409	0	32850	32591	32727	32775	32711	32847	32679	32647	
410	0	32893	32659	32719	32767	32543	32673	32775	32709	
411	0	32812	32639	32671	32756	32708	32787	32691	32719	
412	0	32748	32815	32743	32695	32743	32771	32710	32863	
413	0	32748	32635	32671	32635	32637	32747	32683	32703	
414	0	32725	32749	32647	32661	32693	32850	32711	32758	
415	0	32756	32543	32733	32662	32687	32674	32799	32759	
416	0	32703	32763	32751	32647	32627	32799	32731	32775	
417	0	32701	32709	32721	32827	32751	32717	32775	32705	
418	0	32775	32539	32734	32775	32595	32791	32707	32688	
419	0	32745	32735	32772	32765	32783	32631	32763	32743	
420	0	32773	32686	32730	32773	32631	32574	32825	32757	
421	0	32788	32543	32675	32690	32637	32767	32738	32748	
422	0	32751	32717	32775	32795	32607	32770	32775	32723	
423	0	32781	32709	32811	32754	32607	32673	32673	32757	
424	0	32743	32591	32817	32743	32519	32705	32711	32700	
425	0	32726	32659	32847	32767	32699	32815	32671	32708	
426	0	32683	32663	32755	32758	32775	32818	32615	32719	
427	0	32727	32559	32759	32759	32535	32791	32751	32623	
428	0	32727	32603	32887	32765	32655	32834	32817	32710	
429	0	32765	32631	32773	32786	32644	32615	32692	32743	
430	0	32722	32807	32715	32831	32726	32787	32731	32711	
431	0	32703	32789	32788	32719	32697	32725	32825	32815	
432	0	32701	32635	32695	32647	32759	32805	32647	32690	
433	0	32729	32754	32694	32743	32675	32647	32711	32647	
434	0	32804	32775	32732	32766	32459	32743	32647	32783	
435	0	32838	32603	32710	32775	32710	32813	32743	32743	
436	0	32841	32725	32751	32756	32585	32843	32743	32726	
437	0	32862	32746	32790	32757	32742	32786	32724	32679	
438	0	32865	32482	32803	32805	32710	32735	32775	32647	
439	0	32841	32679	32859	32787	32551	32739	32813	32713	
440	0	32788	32602	32811	32851	32719	32702	32767	32719	
441	0	32774	32484	32705	32870	32674	32739	32823	32789	
442	0	32785	32646	32783	32839	32584	32605	32731	32647	
443	0	32804	32671	32763	32793	32678	32794	32879	32685	
444	0	32834	32501	32701	32805	32662	32796	32727	32683	
445	0	32761	32810	32707	32834	32647	32743	32775	32763	
446	0	32718	32671	32759	32802	32659	32831	32783	32721	
447	0	32685	32617	32807	32783	32638	32647	32754	32708	
448	0	32673	32823	32741	32871	32754	32711	32766	32729	
449	0	32708	32675	32805	32879	32749	32796	32660	32733	
450	0	32749	32693	32766	32769	32614	32712	32775	32661	
451	0	32759	32749	32742	32743	32743	32791	32663	32726	
452	0	32742	32655	32706	32763	32731	32803	32763	32660	
453	0	32757	32726	32754	32727	32591	32687	32621	32743	
454	0	32713	32575	32753	32775	32796	32646	32791	32657	
455	0	32812	32740	32727	32763	32647	32839	32813	32747	
456	0	32790	32628	32637	32775	32683	32955	32765	32767	
457	0	32847	32575	32697	32823	32668	32975	32751	32643	
458	0	32772	32541	32732	32775	32731	32895	32793	32739	
459	0	32725	32745	32815	32819	32711	32955	32719	32751	
460	0	32736	32675	32759	32767	32732	32919	32639	32735	
461	0	32775	32627	32775	32830	32675	32985	32717	32630	
462	0	32681	32631	32823	32830	32713	32876	32663	32703	
463	0	32743	32679	32695	32815	32646	32883	32716	32702	
464	0	32812	32660	32699	32836	32679	32743	32676	32710	
465	0	32802	32743	32863	32823	32647	32637	32607	32658	
466	0	32796	32691	32797	32711	32747	32794	32804	32647	
467	0	32775	32543	32769	32693	32675	32647	32759	32701	
468	0	32764	32717	32759	32734	32551	32730	32711	32730	
469	0	32793	32686	32775	32687	32765	32612	32703	32677	
470	0	32733	32641	32711	32662	32734	32687	32717	32679	
471	0	32692	32845	32742	32630	32602	32775	32795	32787	
472	0	32690	32647	32775	32690	32750	32617	32756	32797	
473	0	32717	32587	32715	32724	32695	32715	32677	32804	
474	0	32749	32817	32711	32684	32765	32623	32825	32675	
475	0	32804	32723	32851	32821	32702	32711	32743	32681	
476	0	32745	32666	32759	32741	32642	32743	32767	32685	
477	0	32743	32743	32695	32775	32787	32723	32742	32767	
478	0	32751	32570	32775	32863	32683	32722	32640	32745	
479	0	32791	32524	32751	32843	32465	32658	32764	32731	
480	0	32844	32630	32735	32771	32730	32804	32619	32805	
481	0	32883	32677	32773	32831	32743	32799	32701	32756	
482	0	32770	32495	32819	32831	32523	32789	32765	32668	
483	0	32822	32599	32799	32861	32603	32638	32661	32746	
484	0	32786	32663	32862	32850	32541	32759	32759	32647	
485	0	32687	32485	32801	32869	32749	32756	32839	32671	
486	0	32726	32597	32748	32775	32733	32749	32663	32751	
487	0	32745	32663	32767	32719	32535	32617	32811	32731	
488	0	32760	32447	32772	32701	32715	32639	32615	32679	
489	0	32687	32667	32791	32678	32663	32766	32755	32613	
490	0	32727	32591	32720	32732	32556	32679	32767	32727	
491	0	32736	32639	32705	32759	32715	32775	32658	32675	
492	0	32722	32793	32687	32722	32618	32623	32764	32726	
493	0	32769	32695	32743	32671	32711	32821	32775	32723	
494	0	32834	32644	32694	32687	32759	32679	32659	32589	
495	0	32787	32806	32731	32775	32771	32775	32735	32637	
496	0	32807	32747	32737	32737	32687	32679	32721	32731	
497	0	32798	32629	32711	32759	32583	32759	32647	32698	
498	0	32763	32823	32835	32781	32799	32775	32743	32751	
499	0	32903	32765	32754	32757	32718	32774	32718	32697	
500	0	32795	32714	32759	32783	32771	32771	32759	32814	
501	0	32790	32579	32717	32815	32719	32698	32671	32734	
502	0	32775	32615	32749	32807	32732	32607	32647	32786	
503	0	32738	32690	32807	32765	32711	32727	32803	32727	
504	0	32734	32692	32767	32797	32594	32739	32687	32740	
505	0	32756	32757	32751	32743	32671	32787	32691	32794	
506	0	32692	32679	32807	32711	32703	32727	32646	32679	
507	0	32713	32819	32783	32791	32494	32745	32711	32710	
508	0	32743	32735	32743	32837	32635	32642	32673	32676	
509	0	32787	32615	32765	32831	32687	32774	32775	32695	
510	0	32830	32758	32743	32725	32527	32828	32795	32635	
511	0	32867	32620	32647	32759	32705	32701	32646	32662	
512	0	32784	32586	32719	32705	32643	32799	32807	32751	
513	0	32769	32717	32794	32687	32751	32621	32835	32671	
514	0	32821	32679	32735	32646	32627	32755	32683	32698	
515	0	32775	32673	32735	32626	32710	32822	32767	32660	
516	0	32756	32578	32766	32705	32527	32773	32655	32734	
517	0	32687	32679	32815	32673	32738	32733	32698	32695	
518	0	32711	32677	32727	32663	32743	32743	32639	32671	
519	0	32734	32481	32824	32717	32607	32708	32743	32599	
520	0	32740	32639	32847	32719	32727	32766	32715	32690	
521	0	32671	32699	32764	32743	32615	32823	32591	32791	
522	0	32677	32659	32769	32807	32731	32646	32698	32775	
523	0	32782	32642	32743	32733	32711	32799	32749	32738	
524	0	32797	32460	32766	32823	32767	32695	32703	32695	
525	0	32909	32551	32771	32758	32726	32743	32724	32739	
526	0	32885	32567	32836	32743	32640	32758	32821	32718	
527	0	32855	32809	32828	32732	32643	32759	32819	32647	
528	0	32786	32773	32799	32759	32525	32790	32707	32791	
529	0	32738	32717	32741	32677	32594	32801	32812	32775	
530	0	32748	32747	32761	32684	32623	32639	32720	32715	
531	0	32788	32711	32663	32694	32563	32823	32719	32687	
532	0	32764	32731	32759	32666	32707	32775	32655	32727	
533	0	32709	32599	32695	32703	32621	32775	32759	32748	
534	0	32738	32735	32685	32678	32541	32895	32727	32715	
535	0	32731	32748	32711	32701	32727	32658	32607	32692	
536	0	32732	32607	32765	32733	32700	32765	32767	32679	
537	0	32782	32607	32679	32753	32715	32813	32757	32787	
538	0	32754	32493	32707	32771	32763	32799	32645	32759	
539	0	32770	32677	32749	32763	32605	32687	32686	32759	
540	0	32860	32615	32732	32875	32790	32765	32635	32725	
541	0	32877	32604	32843	32823	32813	32703	32749	32698	
542	0	32836	32739	32775	32771	32767	32662	32737	32659	
543	0	32864	32705	32829	32740	32647	32615	32677	32681	
544	0	32793	32519	32795	32807	32727	32846	32727	32717	
545	0	32727	32799	32813	32839	32647	32807	32751	32629	
546	0	32677	32623	32732	32845	32685	32771	32758	32757	
547	0	32652	32642	32791	32843	32727	32647	32717	32725	
548	0	32703	32775	32887	32704	32543	32727	32759	32715	
549	0	32762	32598	32751	32695	32633	32599	32743	32647	
550	0	32751	32577	32703	32636	32715	32732	32675	32679	
551	0	32626	32647	32786	32692	32615	32815	32703	32714	
552	0	32628	32615	32673	32679	32723	32767	32690	32711	
553	0	32679	32527	32702	32703	32723	32811	32755	32665	
554	0	32700	32775	32786	32775	32517	32631	32743	32763	
555	0	32720	32607	32725	32773	32727	32747	32673	32759	
556	0	32762	32615	32691	32743	32669	32850	32751	32739	
557	0	32822	32735	32749	32719	32589	32765	32695	32707	
558	0	32793	32775	32767	32623	32749	32775	32807	32783	
559	0	32852	32775	32732	32755	32807	32802	32738	32679	
560	0	32834	32582	32818	32759	32659	32629	32707	32809	
561	0	32805	32751	32817	32771	32740	32767	32727	32695	
562	0	32794	32647	32743	32819	32763	32733	32663	32821	
563	0	32764	32507	32753	32799	32595	32775	32711	32775	
564	0	32780	32605	32789	32793	32754	32661	32711	32727	
565	0	32757	32684	32841	32831	32786	32775	32831	32681	
566	0	32738	32733	32839	32719	32490	32853	32675	32715	
567	0	32772	32519	32785	32767	32727	32623	32661	32723	
568	0	32761	32619	32903	32831	32678	32763	32690	32772	
569	0	32756	32629	32717	32775	32727	32764	32607	32655	
570	0	32722	32837	32719	32763	32667	32850	32741	32711	
571	0	32783	32795	32714	32703	32558	32698	32791	32727	
572	0	32867	32843	32743	32719	32698	32663	32731	32769	
573	0	32802	32683	32730	32721	32615	32813	32825	32631	
574	0	32775	32739	32743	32757	32495	32727	32694	32775	
575	0	32748	32711	32759	32765	32731	32875	32791	32711	
576	0	32743	32471	32687	32695	32709	32703	32737	32727	
577	0	32751	32571	32686	32759	32549	32751	32663	32646	
578	0	32813	32574	32727	32719	32699	32799	32737	32676	
579	0	32754	32429	32679	32787	32743	32775	32723	32751	
580	0	32670	32642	32660	32811	32548	32765	32796	32751	
581	0	32709	32730	32786	32762	32674	32711	32791	32671	
582	0	32698	32679	32759	32707	32710	32667	32695	32627	
583	0	32647	32721	32775	32783	32765	32750	32747	32711	
584	0	32727	32466	32869	32687	32710	32710	32722	32751	
585	0	32736	32687	32751	32701	32596	32763	32630	32757	
586	0	32863	32621	32791	32741	32727	32643	32711	32789	
587	0	32916	32466	32853	32713	32682	32807	32786	32614	
588	0	32818	32605	32791	32767	32735	32647	32615	32660	
589	0	32827	32579	32767	32811	32683	32811	32799	32646	
590	0	32807	32711	32795	32803	32493	32709	32839	32707	
591	0	32766	32583	32755	32766	32635	32679	32687	32771	
592	0	32740	32635	32823	32733	32658	32771	32734	32647	
593	0	32767	32783	32726	32647	32788	32707	32691	32647	
594	0	32735	32699	32769	32647	32729	32775	32743	32655	
595	0	32775	32594	32757	32743	32583	32612	32731	32726	
596	0	32797	32757	32739	32767	32640	32775	32659	32765	
597	0	32738	32667	32742	32715	32666	32813	32772	32594	
598	0	32737	32541	32775	32705	32519	32765	32661	32683	
599	0	32712	32711	32714	32735	32681	32775	32735	32733	
600	0	32666	32758	32748	32767	32676	32743	32723	32804	
601	0	32668	32551	32805	32831	32727	32807	32662	32739	
602	0	32647	32679	32748	32844	32709	32754	32645	32670	
603	0	32647	32647	32815	32767	32631	32859	32679	32660	
604	0	32708	32711	32715	32775	32675	32674	32711	32743	
605	0	32673	32579	32742	32807	32572	32743	32647	32693	
606	0	32751	32551	32751	32759	32683	32732	32718	32701	
607	0	32805	32684	32795	32745	32533	32605	32747	32775	
608	0	32820	32716	32804	32667	32759	32775	32635	32797	
609	0	32792	32885	32743	32695	32738	32738	32809	32626	
610	0	32775	32717	32809	32762	32643	32839	32739	32645	
611	0	32765	32577	32731	32707	32668	32609	32775	32689	
612	0	32756	32780	32675	32775	32603	32786	32741	32749	
613	0	32763	32822	32709	32759	32775	32895	32723	32700	
614	0	32762	32593	32692	32739	32803	32887	32758	32692	
615	0	32783	32747	32788	32806	32607	32719	32749	32723	
616	0	32751	32707	32785	32898	32695	32911	32645	32695	
617	0	32813	32588	32703	32790	32583	32749	32697	32717	
618	0	32810	32643	32804	32750	32715	32820	32690	32647	
619	0	32820	32471	32759	32813	32629	32604	32671	32659	
620	0	32812	32635	32783	32771	32804	32721	32767	32699	
621	0	32728	32675	32815	32762	32789	32614	32759	32799	
622	0	32789	32535	32731	32767	32509	32763	32701	32733	
623	0	32773	32727	32775	32718	32710	32577	32742	32751	
624	0	32737	32637	32893	32711	32682	32735	32726	32707	
625	0	32789	32511	32773	32727	32775	32767	32642	32711	
626	0	32778	32695	32783	32775	32823	32799	32767	32756	
627	0	32941	32751	32791	32743	32725	32695	32732	32658	
628	0	32869	32831	32719	32807	32751	32798	32660	32773	
629	0	32822	32637	32787	32733	32597	32807	32716	32783	
630	0	32770	32749	32683	32807	32749	32695	32719	32683	
631	0	32786	32844	32636	32745	32743	32835	32633	32727	
632	0	32714	32662	32675	32711	32761	32695	32722	32833	
633	0	32743	32591	32691	32763	32719	32759	32766	32767	
634	0	32730	32739	32805	32811	32531	32727	32735	32719	
635	0	32766	32773	32753	32775	32647	32703	32814	32679	
636	0	32804	32751	32755	32823	32535	32775	32727	32705	
637	0	32810	32615	32829	32773	32695	32791	32673	32714	
638	0	32813	32661	32711	32791	32703	32739	32791	32738	
639	0	32743	32595	32775	32743	32615	32831	32798	32759	
640	0	32710	32607	32775	32739	32647	32695	32671	32700	
641	0	32770	32479	32760	32715	32484	32863	32767	32647	
642	0	32822	32762	32807	32709	32699	32763	32775	32675	
643	0	32825	32743	32749	32727	32647	32796	32661	32725	
644	0	32812	32570	32839	32775	32738	32647	32791	32735	
645	0	32736	32756	32867	32791	32771	32829	32759	32713	
646	0	32730	32769	32775	32791	32627	32775	32617	32758	
647	0	32662	32843	32845	32866	32720	32637	32838	32655	
648	0	32647	32647	32764	32859	32571	32755	32775	32655	
649	0	32696	32531	32783	32729	32738	32684	32687	32707	
650	0	32686	32687	32727	32743	32687	32806	32757	32755	
651	0	32729	32519	32690	32735	32543	32783	32685	32749	
652	0	32800	32674	32690	32647	32733	32639	32723	32675	
653	0	32795	32547	32759	32685	32647	32663	32726	32837	
654	0	32765	32747	32799	32711	32562	32815	32621	32738	
655	0	32816	32647	32707	32807	32709	32707	32727	32719	
656	0	32804	32515	32707	32823	32667	32879	32695	32647	
657	0	32794	32647	32757	32815	32729	32695	32820	32729	
658	0	32775	32519	32710	32796	32727	32839	32788	32773	
659	0	32729	32555	32742	32865	32583	32706	32670	32767	
660	0	32714	32647	32797	32767	32709	32826	32773	32749	
661	0	32748	32551	32786	32860	32550	32666	32847	32647	
662	0	32813	32543	32846	32765	32667	32783	32697	32677	
663	0	32791	32707	32837	32742	32583	32821	32767	32725	
664	0	32796	32655	32827	32788	32660	32695	32751	32723	
665	0	32839	32847	32828	32747	32647	32775	32711	32689	
666	0	32804	32703	32775	32775	32516	32764	32735	32782	
667	0	32745	32775	32850	32731	32626	32685	32663	32668	
668	0	32736	32591	32855	32695	32642	32748	32731	32742	
669	0	32703	32939	32725	32722	32615	32677	32723	32703	
670	0	32724	32759	32815	32739	32643	32861	32669	32743	
671	0	32724	32615	32771	32773	32469	32755	32738	32689	
672	0	32749	32843	32707	32717	32723	32871	32647	32647	
673	0	32769	32738	32685	32652	32676	32815	32829	32743	
674	0	32693	32751	32735	32726	32547	32683	32788	32727	
675	0	32717	32839	32687	32715	32623	32807	32621	32775	
676	0	32788	32583	32699	32711	32495	32751	32725	32663	
677	0	32793	32518	32757	32725	32743	32740	32659	32644	
678	0	32829	32722	32722	32799	32759	32563	32707	32738	
679	0	32867	32665	32757	32783	32662	32751	32739	32679	
680	0	32789	32537	32775	32791	32687	32793	32692	32775	
681	0	32749	32647	32701	32831	32487	32691	32620	32767	
682	0	32707	32535	32766	32717	32690	32757	32759	32637	
683	0	32749	32703	32815	32764	32769	32679	32692	32715	
684	0	32689	32489	32767	32734	32775	32711	32701	32751	
685	0	32749	32503	32743	32815	32775	32743	32743	32743	
686	0	32747	32679	32771	32757	32639	32790	32671	32723	
687	0	32711	32603	32775	32759	32799	32742	32741	32679	
688	0	32751	32454	32799	32711	32819	32783	32826	32668	
689	0	32830	32655	32655	32775	32610	32671	32701	32775	
690	0	32937	32612	32735	32655	32743	32879	32787	32706	
691	0	32888	32567	32718	32685	32595	32851	32851	32706	
692	0	32940	32751	32685	32723	32807	32951	32711	32667	
693	0	32843	32591	32726	32735	32725	32718	32775	32687	
694	0	32878	32607	32762	32738	32519	32859	32677	32733	
695	0	32859	32537	32743	32739	32709	32871	32807	32699	
696	0	32788	32681	32823	32775	32647	32833	32737	32719	
697	0	32875	32679	32727	32756	32751	32642	32663	32699	
698	0	32735	32635	32709	32748	32615	32775	32696	32719	
699	0	32755	32734	32831	32785	32615	32799	32797	32753	
700	0	32686	32743	32729	32743	32662	32717	32790	32719	
701	0	32690	32549	32719	32715	32653	32775	32768	32711	
702	0	32635	32867	32775	32775	32711	32847	32583	32724	
703	0	32643	32647	32819	32775	32551	32734	32729	32773	
704	0	32685	32759	32715	32823	32671	32631	32609	32647	
705	0	32793	32623	32815	32767	32745	32791	32701	32791	
706	0	32827	32766	32821	32788	32551	32749	32670	32757	
707	0	32740	32621	32797	32775	32647	32690	32731	32677	
708	0	32799	32798	32765	32801	32660	32815	32639	32677	
709	0	32721	32594	32775	32799	32579	32807	32775	32753	
710	0	32654	32717	32731	32811	32709	32807	32677	32729	
711	0	32709	32631	32717	32795	32647	32755	32667	32759	
712	0	32701	32758	32775	32775	32471	32851	32725	32711	
713	0	32668	32625	32725	32775	32724	32627	32755	32647	
714	0	32770	32615	32698	32791	32775	32757	32731	32727	
715	0	32779	32487	32671	32809	32545	32823	32795	32758	
716	0	32780	32615	32692	32781	32695	32706	32687	32691	
717	0	32794	32598	32671	32765	32670	32627	32843	32574	
718	0	32801	32507	32734	32809	32539	32607	32694	32702	
719	0	32830	32511	32823	32775	32596	32748	32799	32671	
720	0	32902	32775	32851	32807	32669	32780	32702	32687	
721	0	32828	32644	32771	32706	32615	32687	32743	32807	
722	0	32732	32735	32817	32747	32553	32751	32703	32765	
723	0	32728	32583	32871	32787	32767	32694	32625	32839	
724	0	32685	32811	32815	32763	32687	32639	32775	32743	
725	0	32747	32767	32782	32763	32647	32790	32659	32732	
726	0	32708	32663	32811	32711	32797	32724	32753	32799	
727	0	32586	32910	32823	32707	32775	32884	32786	32855	
728	0	32655	32683	32748	32746	32526	32727	32695	32694	
729	0	32647	32571	32771	32775	32773	32919	32729	32735	
730	0	32641	32799	32791	32807	32802	32971	32659	32668	
731	0	32656	32773	32681	32695	32703	32839	32759	32685	
732	0	32665	32685	32703	32733	32775	32735	32662	32735	
733	0	32734	32787	32647	32647	32635	32903	32626	32709	
734	0	32782	32853	32661	32723	32735	32799	32771	32710	
735	0	32860	32673	32759	32692	32683	32876	32799	32763	
736	0	32859	32799	32775	32671	32638	32803	32730	32751	
737	0	32783	32791	32674	32724	32710	32711	32757	32765	
738	0	32878	32567	32765	32806	32559	32784	32654	32719	
739	0	32850	32699	32788	32799	32743	32783	32818	32735	
740	0	32815	32647	32759	32750	32707	32667	32817	32725	
741	0	32900	32484	32791	32863	32502	32743	32708	32727	
742	0	32806	32559	32732	32809	32661	32723	32754	32727	
743	0	32791	32605	32748	32868	32713	32730	32675	32667	
744	0	32828	32775	32839	32827	32557	32541	32767	32647	
745	0	32887	32639	32933	32806	32615	32597	32775	32721	
746	0	32839	32599	32843	32795	32626	32756	32679	32679	
747	0	32807	32690	32815	32804	32615	32711	32804	32647	
748	0	32780	32525	32765	32697	32587	32791	32735	32606	
749	0	32722	32467	32671	32683	32567	32658	32695	32718	
750	0	32716	32579	32801	32775	32690	32795	32706	32711	
751	0	32730	32695	32695	32821	32723	32715	32655	32747	
752	0	32628	32591	32711	32743	32529	32763	32647	32759	
753	0	32621	32743	32783	32809	32733	32599	32703	32626	
754	0	32689	32773	32765	32759	32755	32773	32563	32761	
755	0	32750	32613	32743	32807	32555	32757	32655	32767	
756	0	32734	32747	32813	32799	32743	32773	32760	32819	
757	0	32765	32775	32743	32749	32677	32683	32581	32733	
758	0	32760	32623	32711	32695	32751	32870	32713	32695	
759	0	32665	32699	32740	32615	32775	32731	32667	32791	
760	0	32738	32737	32733	32655	32599	32824	32721	32703	
761	0	32711	32575	32709	32718	32692	32583	32703	32711	
762	0	32720	32665	32743	32758	32559	32738	32647	32694	
763	0	32686	32615	32727	32743	32719	32711	32780	32629	
764	0	32705	32543	32813	32767	32761	32814	32771	32737	
765	0	32759	32597	32821	32799	32589	32646	32617	32671	
766	0	32828	32631	32801	32861	32668	32767	32727	32724	
767	0	32873	32553	32807	32865	32527	32746	32711	32679	
768	0	32826	32703	32807	32807	32697	32710	32821	32692	
769	0	32834	32717	32734	32743	32747	32804	32775	32757	
770	0	32787	32631	32757	32679	32587	32576	32669	32740	
771	0	32728	32679	32775	32647	32757	32713	32763	32659	
772	0	32762	32485	32719	32733	32633	32719	32825	32726	
773	0	32745	32703	32788	32803	32735	32655	32647	32709	
774	0	32704	32647	32692	32783	32563	32725	32775	32742	
775	0	32804	32596	32762	32827	32715	32641	32835	32711	
776	0	32903	32527	32767	32831	32729	32758	32679	32713	
777	0	32934	32443	32707	32791	32785	32621	32801	32623	
778	0	32912	32566	32731	32676	32749	32743	32723	32635	
779	0	32854	32571	32685	32743	32647	32732	32685	32695	
780	0	32783	32757	32783	32815	32726	32711	32771	32679	
781	0	32743	32679	32825	32823	32535	32699	32687	32694	
782	0	32740	32743	32775	32787	32679	32751	32751	32637	
783	0	32655	32839	32813	32796	32758	32758	32735	32604	
784	0	32663	32759	32765	32815	32557	32747	32643	32692	
785	0	32661	32667	32727	32692	32677	32775	32771	32702	
786	0	32677	32640	32749	32663	32687	32751	32791	32738	
787	0	32640	32782	32775	32735	32723	32775	32655	32679	
788	0	32692	32743	32717	32722	32647	32711	32729	32734	
789	0	32679	32647	32763	32669	32551	32759	32674	32797	
790	0	32703	32647	32663	32767	32647	32767	32684	32765	
791	0	32711	32678	32692	32761	32603	32683	32700	32817	
792	0	32697	32519	32775	32803	32770	32747	32583	32671	
793	0	32799	32711	32647	32711	32791	32679	32717	32735	
794	0	32783	32735	32737	32823	32628	32833	32775	32723	
795	0	32804	32583	32839	32747	32725	32807	32715	32757	
796	0	32797	32709	32685	32710	32723	32775	32801	32677	
797	0	32852	32695	32795	32809	32762	32699	32647	32701	
798	0	32835	32553	32814	32645	32751	32887	32725	32751	
799	0	32831	32769	32800	32669	32615	32695	32802	32697	
800	0	32816	32699	32749	32739	32663	32818	32711	32702	
801	0	32756	32773	32815	32787	32642	32730	32765	32699	
802	0	32746	32662	32710	32812	32698	32815	32617	32711	
803	0	32647	32743	32802	32839	32637	32839	32703	32737	
804	0	32647	32727	32813	32821	32445	32846	32689	32743	
805	0	32665	32839	32767	32735	32647	32666	32631	32685	
806	0	32612	32823	32783	32839	32567	32775	32771	32647	
807	0	32581	32829	32715	32775	32647	32671	32711	32679	
808	0	32515	32607	32711	32759	32637	32756	32639	32727	
809	0	32473	32700	32764	32751	32515	32633	32740	32751	
810	0	32485	32575	32659	32721	32701	32767	32703	32787	
811	0	32476	32551	32742	32756	32559	32667	32719	32614	
812	0	32494	32551	32735	32863	32724	32759	32739	32623	
813	0	32519	32564	32692	32731	32647	32799	32721	32645	
814	0	32492	32535	32691	32751	32711	32790	32591	32743	
815	0	32512	32295	32660	32857	32803	32843	32743	32725	
816	0	32557	32441	32723	32803	32597	32703	32660	32759	
817	0	32615	32418	32723	32811	32727	32815	32701	32685	
818	0	32550	32508	32628	32759	32714	32827	32734	32637	
819	0	32585	32436	32721	32783	32677	32838	32647	32751	
820	0	32684	32413	32630	32811	32742	32727	32683	32727	
821	0	32718	32321	32635	32812	32755	32692	32654	32703	
822	0	32832	32315	32742	32865	32639	32821	32639	32647	
823	0	32791	32303	32783	32839	32711	32813	32679	32671	
824	0	32818	32163	32677	32830	32607	32631	32647	32679	
825	0	32869	32180	32721	32775	32716	32797	32663	32733	
826	0	32851	32091	32669	32799	32775	32722	32790	32695	
827	0	32924	32183	32692	32831	32687	32713	32559	32679	
828	0	32983	32055	32738	32827	32727	32647	32679	32662	
829	0	33035	32098	32695	32850	32757	32839	32710	32666	
830	0	33196	31813	32607	32815	32711	32759	32667	32733	
831	0	33183	32094	32705	32739	32759	32733	32731	32733	
832	0	33230	32125	32727	32671	32691	32757	32659	32631	
833	0	33302	32199	32755	32647	32701	32697	32787	32734	
834	0	33398	32196	32715	32735	32513	32551	32749	32755	
835	0	33439	32099	32692	32719	32669	32663	32756	32590	
836	0	33517	32375	32706	32802	32647	32647	32711	32771	
837	0	33524	32263	32767	32738	32692	32635	32869	32743	
838	0	33473	32429	32775	32718	32474	32607	32736	32742	
839	0	33437	32679	32833	32695	32653	32510	32773	32743	
840	0	33295	32957	32855	32681	32463	32716	32903	32633	
841	0	33239	32899	32875	32769	32621	32695	32759	32767	
842	0	33176	33183	32997	32707	32642	32735	32806	32706	
843	0	33024	33287	32995	32703	32428	32695	32821	32682	
844	0	32989	33321	32990	32605	32621	32757	32892	32677	
845	0	32971	33701	32982	32676	32639	32771	32903	32799	
846	0	32802	33661	33058	32667	32375	32775	32879	32796	
847	0	32732	33581	32999	32677	32534	32827	32919	32823	
848	0	32759	33780	33067	32615	32439	32647	32927	32727	
849	0	32804	33613	32939	32629	32605	32783	32837	32711	
850	0	32775	33622	32967	32597	32619	32775	32879	32815	
851	0	32724	33470	32963	32620	32453	32722	32827	32743	
852	0	32790	33471	32911	32607	32595	32717	32807	32722	
853	0	32807	33357	32890	32742	32514	32829	32847	32687	
854	0	32855	33471	32859	32742	32702	32743	32785	32647	
855	0	32908	33287	32869	32687	32755	32903	32751	32743	
856	0	32869	33063	32903	32795	32617	32796	32767	32725	
857	0	32804	33191	32787	32759	32723	32890	32655	32764	
858	0	32662	32999	32815	32795	32613	32847	32671	32733	
859	0	32521	32683	32765	32791	32687	32842	32655	32743	
860	0	32368	32877	32713	32799	32699	32807	32595	32809	
861	0	32287	32703	32695	32829	32761	32711	32706	32782	
862	0	32116	32691	32709	32807	32740	32735	32617	32762	
863	0	32090	32852	32681	32803	32748	32813	32631	32735	
864	0	32065	32673	32671	32809	32723	32754	32647	32751	
865	0	31981	32689	32727	32790	32687	32791	32643	32782	
866	0	32085	32461	32690	32807	32597	32798	32719	32706	
867	0	32171	32591	32692	32775	32775	32643	32713	32647	
868	0	32263	32562	32759	32867	32839	32789	32603	32743	
869	0	32378	32515	32615	32819	32711	32756	32615	32766	
870	0	32361	32757	32739	32820	32734	32815	32590	32775	
871	0	32364	32582	32684	32748	32567	32655	32594	32668	
872	0	32434	32599	32625	32799	32709	32807	32663	32700	
873	0	32428	32367	32647	32820	32773	32841	32603	32815	
874	0	32553	32641	32659	32791	32673	32839	32631	32663	
875	0	32590	32535	32642	32847	32734	32787	32621	32735	
876	0	32671	32545	32677	32847	32765	32831	32707	32761	
877	0	32735	32407	32701	32789	32596	32719	32727	32743	
878	0	32818	32461	32581	32877	32621	32823	32693	32621	
879	0	32786	32518	32647	32868	32613	32807	32739	32775	
880	0	32743	32375	32718	32821	32759	32709	32703	32667	
881	0	32789	32553	32739	32873	32719	32807	32799	32711	
882	0	32790	32571	32759	32850	32615	32613	32763	32642	
883	0	32743	32454	32895	32757	32685	32786	32667	32681	
884	0	32797	32713	32786	32791	32643	32775	32719	32735	
885	0	32757	32638	32719	32802	32687	32807	32623	32751	
886	0	32827	32605	32813	32751	32783	32708	32675	32823	
887	0	32884	32479	32798	32749	32631	32673	32746	32691	
888	0	33009	32607	32733	32740	32679	32732	32655	32621	
889	0	33013	32559	32754	32700	32519	32739	32673	32743	
890	0	32872	32547	32721	32683	32727	32743	32719	32690	
891	0	32861	32583	32719	32690	32767	32591	32621	32759	
892	0	32831	32647	32687	32703	32596	32751	32675	32613	
893	0	32801	32463	32733	32751	32647	32722	32643	32663	
894	0	32866	32683	32732	32751	32735	32655	32775	32706	
895	0	32860	32530	32775	32683	32479	32735	32700	32687	
896	0	32824	32519	32743	32687	32731	32819	32797	32703	
897	0	32834	32349	32647	32799	32794	32647	32751	32721	
898	0	32793	32475	32703	32671	32639	32785	32743	32755	
899	0	32791	32519	32775	32661	32791	32771	32771	32631	
900	0	32945	32619	32715	32749	32687	32719	32751	32790	
901	0	32899	32537	32771	32775	32431	32759	32695	32731	
902	0	32879	32709	32843	32819	32703	32838	32595	32763	
903	0	32825	32631	32770	32783	32695	32639	32699	32637	
904	0	32792	32467	32797	32775	32487	32783	32629	32647	
905	0	32790	32791	32836	32765	32711	32834	32735	32655	
906	0	32684	32675	32869	32863	32692	32765	32623	32717	
907	0	32707	32685	32811	32811	32565	32759	32751	32615	
908	0	32767	32443	32751	32807	32715	32807	32775	32727	
909	0	32759	32582	32857	32743	32703	32605	32679	32679	
910	0	32759	32631	32734	32663	32551	32821	32813	32757	
911	0	32741	32487	32719	32709	32671	32775	32707	32623	
912	0	32755	32703	32807	32743	32727	32775	32810	32754	
913	0	32744	32666	32751	32668	32615	32876	32833	32743	
914	0	32748	32775	32721	32644	32743	32712	32765	32687	
915	0	32809	32538	32761	32739	32655	32775	32727	32679	
916	0	32855	32681	32740	32753	32767	32786	32676	32765	
917	0	32845	32575	32671	32743	32735	32668	32783	32734	
918	0	32903	32453	32749	32775	32567	32862	32671	32732	
919	0	32854	32688	32794	32807	32701	32839	32783	32692	
920	0	32765	32765	32775	32846	32709	32705	32819	32748	
921	0	32784	32572	32724	32789	32703	32823	32726	32775	
922	0	32743	32695	32765	32831	32709	32751	32767	32687	
923	0	32801	32671	32708	32818	32647	32859	32662	32685	
924	0	32782	32791	32838	32751	32722	32695	32601	32739	
925	0	32763	32695	32795	32727	32647	32761	32715	32644	
926	0	32775	32835	32867	32822	32687	32643	32821	32694	
927	0	32877	32647	32795	32817	32610	32743	32708	32715	
928	0	32855	32647	32806	32749	32751	32591	32818	32719	
929	0	32775	32807	32871	32789	32679	32809	32823	32605	
930	0	32791	32693	32759	32842	32723	32775	32687	32643	
931	0	32791	32419	32747	32737	32749	32860	32775	32675	
932	0	32764	32535	32775	32686	32621	32723	32751	32743	
933	0	32765	32557	32775	32663	32679	32899	32634	32713	
934	0	32807	32687	32803	32726	32547	32805	32815	32746	
935	0	32742	32643	32743	32709	32711	32775	32795	32742	
936	0	32727	32783	32795	32767	32586	32645	32675	32662	
937	0	32717	32637	32697	32775	32676	32793	32727	32724	
938	0	32702	32483	32695	32793	32757	32743	32711	32751	
939	0	32668	32615	32710	32790	32647	32769	32636	32703	
940	0	32664	32434	32727	32775	32661	32654	32775	32727	
941	0	32697	32378	32749	32742	32492	32751	32771	32639	
942	0	32744	32706	32791	32787	32655	32743	32581	32571	
943	0	32790	32655	32708	32677	32559	32759	32690	32673	
944	0	32708	32807	32749	32775	32644	32671	32694	32763	
945	0	32738	32748	32715	32831	32702	32791	32647	32726	
946	0	32855	32585	32767	32855	32785	32773	32715	32775	
947	0	32886	32815	32769	32790	32735	32703	32775	32677	
948	0	32730	32760	32783	32775	32577	32627	32687	32713	
949	0	32676	32915	32748	32847	32679	32729	32810	32692	
950	0	32768	32775	32756	32687	32607	32763	32775	32771	
951	0	32705	32739	32759	32679	32711	32818	32711	32815	
952	0	32718	32685	32749	32755	32788	32655	32813	32831	
953	0	32709	32631	32757	32745	32692	32826	32722	32687	
954	0	32666	32447	32748	32805	32707	32695	32675	32647	
955	0	32722	32571	32723	32799	32581	32855	32717	32647	
956	0	32733	32557	32841	32773	32731	32658	32683	32763	
957	0	32772	32724	32762	32796	32687	32775	32742	32757	
958	0	32765	32694	32723	32775	32830	32775	32738	32787	
959	0	32729	32636	32729	32820	32767	32751	32601	32671	
960	0	32757	32707	32726	32767	32647	32527	32749	32658	
961	0	32820	32635	32791	32739	32679	32743	32751	32609	
962	0	32820	32511	32743	32730	32605	32716	32694	32745	
963	0	32812	32655	32759	32775	32711	32605	32725	32767	
964	0	32818	32636	32727	32806	32607	32735	32749	32751	
965	0	32804	32871	32799	32795	32719	32847	32638	32795	
966	0	32738	32751	32839	32759	32615	32671	32775	32794	
967	0	32770	32591	32743	32775	32705	32805	32791	32705	
968	0	32746	32879	32749	32765	32695	32742	32595	32812	
969	0	32732	32725	32756	32757	32623	32877	32733	32711	
970	0	32785	32547	32751	32687	32615	32743	32721	32771	
971	0	32829	32661	32805	32735	32487	32911	32726	32694	
972	0	32871	32583	32729	32655	32615	32866	32733	32644	
973	0	32769	32626	32743	32687	32562	32799	32647	32631	
974	0	32786	32615	32863	32749	32703	32823	32722	32735	
975	0	32775	32643	32815	32668	32718	32647	32733	32717	
976	0	32836	32735	32795	32743	32491	32743	32642	32629	
977	0	32789	32535	32743	32775	32622	32775	32743	32615	
978	0	32757	32583	32689	32797	32543	32749	32803	32692	
979	0	32710	32755	32756	32791	32669	32710	32719	32647	
980	0	32747	32610	32743	32849	32743	32624	32759	32738	
981	0	32775	32612	32743	32828	32621	32748	32735	32581	
982	0	32787	32695	32726	32759	32725	32739	32719	32634	
983	0	32753	32725	32677	32740	32583	32663	32791	32687	
984	0	32742	32541	32703	32811	32710	32773	32647	32722	
985	0	32775	32671	32807	32716	32635	32754	32759	32711	
986	0	32708	32603	32756	32797	32803	32671	32683	32675	
987	0	32711	32567	32822	32775	32775	32803	32734	32679	
988	0	32764	32621	32797	32801	32573	32647	32746	32811	
989	0	32770	32516	32719	32813	32679	32775	32679	32757	
990	0	32799	32460	32775	32765	32543	32667	32786	32703	
991	0	32710	32634	32743	32706	32701	32707	32715	32607	
992	0	32671	32678	32723	32725	32791	32636	32631	32671	
993	0	32775	32739	32747	32711	32563	32615	32711	32758	
994	0	32743	32698	32783	32680	32763	32775	32647	32769	
995	0	32798	32723	32682	32695	32692	32676	32732	32599	
996	0	32823	32620	32761	32749	32775	32685	32795	32626	
997	0	32886	32791	32684	32809	32715	32734	32671	32661	
998	0	32869	32731	32739	32831	32610	32703	32775	32811	
999	0	32782	32819	32705	32859	32609	32798	32775	32743	
1000	0	32839	32663	32786	32823	32471	32629	32603	32735	
1001	0	32751	32507	32751	32787	32739	32730	32775	32687	
1002	0	32748	32759	32758	32775	32775	32711	32694	32659	
1003	0	32710	32679	32822	32727	32583	32819	32711	32755	
1004	0	32701	32450	32814	32676	32679	32671	32679	32751	
1005	0	32740	32663	32839	32743	32498	32870	32623	32783	
1006	0	32783	32743	32903	32775	32722	32780	32748	32738	
1007	0	32701	32671	32754	32796	32767	32821	32775	32663	
1008	0	32757	32647	32773	32709	32551	32621	32639	32773	
1009	0	32735	32709	32807	32719	32725	32751	32719	32727	
1010	0	32736	32508	32812	32787	32711	32835	32627	32794	
1011	0	32710	32789	32799	32739	32621	32769	32716	32701	
1012	0	32810	32673	32804	32749	32798	32775	32669	32782	
1013	0	32740	32731	32839	32775	32695	32859	32742	32759	
1014	0	32706	32575	32727	32767	32674	32723	32814	32671	
1015	0	32748	32815	32801	32799	32617	32818	32663	32763	
1016	0	32781	32827	32883	32833	32613	32809	32698	32739	
1017	0	32775	32801	32703	32844	32663	32762	32605	32733	
1018	0	32696	32867	32727	32823	32639	32731	32733	32671	
1019	0	32775	32603	32863	32719	32715	32631	32761	32623	
1020	0	32773	32647	32747	32726	32607	32679	32807	32715	
1021	0	32770	32451	32727	32845	32674	32789	32775	32823	
1022	0	32841	32605	32767	32730	32679	32743	32655	32685	
1023	0	32767	32557	32867	32751	32731	32679	32747	32803	
1024	0	32757	32431	32767	32711	32557	32775	32742	32767	
1025	0	32679	32455	32747	32790	32739	32775	32805	32711	
1026	0	32743	32639	32759	32775	32695	32725	32759	32775	
1027	0	32705	32613	32775	32837	32647	32683	32738	32759	
1028	0	32685	32669	32709	32893	32834	32859	32655	32639	
1029	0	32702	32788	32725	32727	32807	32773	32679	32647	
1030	0	32790	32671	32747	32695	32615	32831	32671	32669	
1031	0	32770	32467	32663	32775	32770	32811	32640	32727	
1032	0	32801	32661	32706	32743	32591	32763	32738	32695	
1033	0	32802	32679	32658	32764	32743	32775	32754	32738	
1034	0	32754	32583	32614	32756	32775	32801	32799	32642	
1035	0	32753	32775	32675	32785	32795	32679	32745	32740	
1036	0	32697	32844	32709	32791	32739	32786	32799	32685	
1037	0	32785	32726	32710	32791	32701	32818	32725	32727	
1038	0	32733	32927	32819	32755	32671	32682	32835	32687	
1039	0	32777	32713	32795	32729	32677	32763	32671	32750	
1040	0	32743	32737	32767	32765	32705	32579	32747	32756	
1041	0	32694	32506	32754	32751	32529	32615	32831	32613	
1042	0	32743	32631	32871	32831	32583	32775	32663	32687	
1043	0	32737	32596	32802	32763	32511	32711	32727	32703	
1044	0	32788	32655	32820	32711	32683	32659	32647	32679	
1045	0	32823	32727	32854	32763	32726	32799	32767	32786	
1046	0	32790	32498	32751	32877	32573	32707	32747	32639	
1047	0	32767	32639	32790	32786	32647	32747	32705	32677	
1048	0	32800	32574	32871	32825	32703	32783	32703	32663	
1049	0	32765	32532	32773	32759	32455	32643	32646	32679	
1050	0	32768	32575	32742	32771	32709	32615	32749	32722	
1051	0	32727	32775	32705	32799	32679	32812	32625	32673	
1052	0	32679	32687	32749	32815	32725	32826	32698	32647	
1053	0	32693	32743	32799	32801	32581	32799	32621	32679	
1054	0	32708	32623	32663	32829	32812	32831	32747	32679	
1055	0	32694	32599	32748	32845	32759	32701	32701	32743	
1056	0	32751	32587	32743	32759	32553	32831	32623	32692	
1057	0	32785	32645	32743	32775	32607	32775	32735	32692	
1058	0	32813	32646	32791	32787	32502	32788	32785	32684	
1059	0	32774	32463	32759	32759	32679	32647	32645	32717	
1060	0	32749	32605	32775	32735	32657	32799	32799	32695	
1061	0	32772	32671	32887	32743	32423	32807	32775	32799	
1062	0	32856	32623	32787	32725	32647	32711	32767	32623	
1063	0	32738	32711	32731	32751	32741	32775	32748	32801	
1064	0	32812	32711	32861	32763	32509	32722	32637	32764	
1065	0	32735	32599	32795	32807	32724	32691	32720	32771	
1066	0	32759	32818	32671	32791	32735	32847	32657	32702	
1067	0	32726	32775	32733	32851	32591	32751	32713	32766	
1068	0	32724	32695	32655	32791	32775	32791	32647	32775	
1069	0	32719	32851	32699	32804	32606	32807	32711	32677	
1070	0	32766	32765	32737	32811	32766	32703	32681	32764	
1071	0	32802	32690	32733	32739	32823	32838	32847	32783	
1072	0	32762	32543	32647	32717	32711	32743	32681	32775	
1073	0	32815	32711	32729	32731	32540	32877	32675	32685	
1074	0	32796	32775	32703	32814	32775	32647	32797	32722	
1075	0	32844	32867	32674	32735	32819	32775	32690	32791	
1076	0	32886	32711	32799	32767	32669	32749	32764	32754	
1077	0	32885	32677	32663	32759	32726	32647	32755	32749	
1078	0	32839	32871	32673	32748	32711	32775	32647	32599	
1079	0	32775	32737	32807	32739	32578	32803	32711	32709	
1080	0	32749	32751	32866	32759	32671	32743	32635	32716	
1081	0	32671	32548	32818	32686	32682	32786	32785	32764	
1082	0	32714	32707	32871	32710	32551	32763	32793	32676	
1083	0	32764	32587	32903	32655	32699	32669	32687	32705	
1084	0	32738	32583	32790	32582	32662	32799	32791	32719	
1085	0	32764	32519	32811	32623	32591	32662	32679	32773	
1086	0	32802	32639	32869	32615	32606	32615	32765	32631	
1087	0	32732	32565	32749	32677	32455	32757	32803	32647	
1088	0	32775	32751	32823	32743	32647	32759	32775	32762	
1089	0	32764	32694	32815	32679	32644	32703	32791	32705	
1090	0	32745	32607	32743	32731	32473	32731	32647	32687	
1091	0	32806	32727	32738	32818	32695	32783	32743	32655	
1092	0	32802	32748	32691	32799	32668	32739	32823	32669	
1093	0	32735	32855	32703	32751	32694	32765	32681	32683	
1094	0	32781	32725	32665	32795	32646	32815	32791	32786	
1095	0	32805	32613	32748	32758	32507	32799	32797	32783	
1096	0	32787	32775	32727	32807	32710	32799	32663	32735	
1097	0	32847	32623	32775	32727	32731	32727	32775	32627	
1098	0	32839	32519	32743	32804	32547	32815	32741	32719	
1099	0	32890	32691	32823	32827	32723	32775	32775	32727	
1100	0	32796	32633	32647	32839	32732	32788	32861	32802	
1101	0	32804	32529	32727	32859	32620	32683	32743	32677	
1102	0	32729	32717	32815	32791	32677	32812	32724	32671	
1103	0	32775	32663	32695	32731	32609	32671	32726	32643	
1104	0	32841	32775	32830	32711	32687	32692	32719	32743	
1105	0	32775	32635	32766	32711	32607	32615	32799	32671	
1106	0	32717	32663	32723	32759	32740	32731	32791	32661	
1107	0	32731	32547	32809	32717	32631	32682	32742	32733	
1108	0	32733	32663	32709	32801	32477	32699	32717	32732	
1109	0	32671	32622	32787	32784	32677	32619	32677	32739	
1110	0	32748	32763	32772	32809	32663	32810	32613	32775	
1111	0	32783	32657	32699	32759	32793	32775	32641	32734	
1112	0	32783	32601	32795	32734	32703	32749	32615	32679	
1113	0	32773	32775	32647	32703	32558	32775	32735	32749	
1114	0	32807	32677	32679	32710	32743	32809	32702	32735	
1115	0	32788	32620	32799	32731	32675	32771	32671	32791	
1116	0	32889	32631	32786	32789	32655	32837	32719	32647	
1117	0	32834	32655	32751	32715	32775	32663	32637	32775	
1118	0	32743	32658	32919	32725	32761	32823	32811	32769	
1119	0	32748	32495	32743	32719	32567	32722	32710	32743	
1120	0	32856	32659	32751	32707	32731	32749	32627	32684	
1121	0	32837	32567	32799	32731	32511	32710	32714	32631	
1122	0	32893	32538	32763	32767	32683	32793	32679	32669	
1123	0	32856	32635	32815	32839	32567	32791	32591	32798	
1124	0	32840	32627	32709	32854	32690	32591	32745	32773	
1125	0	32749	32726	32791	32858	32710	32784	32754	32671	
1126	0	32715	32613	32742	32854	32702	32757	32685	32707	
1127	0	32642	32803	32775	32799	32711	32767	32803	32671	
1128	0	32653	32703	32831	32863	32559	32617	32727	32626	
1129	0	32661	32579	32807	32755	32627	32770	32727	32619	
1130	0	32724	32581	32807	32705	32543	32692	32659	32727	
1131	0	32742	32595	32755	32685	32719	32765	32738	32743	
1132	0	32826	32669	32775	32685	32724	32853	32691	32799	
1133	0	32780	32679	32701	32669	32733	32839	32692	32685	
1134	0	32814	32533	32742	32700	32703	32732	32751	32669	
1135	0	32829	32759	32733	32738	32590	32846	32607	32767	
1136	0	32833	32634	32742	32795	32729	32749	32743	32743	
1137	0	32796	32557	32748	32679	32707	32583	32695	32755	
1138	0	32807	32735	32831	32681	32617	32789	32749	32682	
1139	0	32743	32647	32765	32686	32677	32761	32731	32647	
1140	0	32769	32484	32823	32775	32503	32663	32767	32722	
1141	0	32716	32757	32759	32819	32639	32775	32755	32711	
1142	0	32623	32719	32791	32822	32719	32775	32756	32789	
1143	0	32647	32730	32767	32836	32595	32759	32621	32667	
1144	0	32724	32605	32737	32797	32716	32671	32797	32683	
1145	0	32721	32703	32759	32769	32611	32756	32751	32734	
1146	0	32764	32527	32772	32838	32743	32775	32703	32759	
1147	0	32754	32702	32759	32727	32722	32805	32814	32775	
1148	0	32791	32647	32773	32741	32838	32630	32764	32755	
1149	0	32708	32699	32687	32709	32879	32775	32695	32636	
1150	0	32695	32495	32669	32731	32647	32771	32711	32733	
1151	0	32692	32669	32751	32711	32839	32800	32609	32711	
1152	0	32755	32679	32719	32741	32755	32801	32717	32743	
1153	0	32737	32612	32663	32775	32647	32647	32703	32679	
1154	0	32742	32703	32669	32759	32751	32801	32738	32759	
1155	0	32715	32670	32711	32799	32677	32759	32741	32743	
1156	0	32756	32583	32719	32775	32747	32691	32631	32775	
1157	0	32828	32759	32735	32687	32724	32797	32621	32791	
1158	0	32764	32695	32745	32748	32567	32775	32663	32685	
1159	0	32743	32549	32759	32763	32655	32823	32605	32685	
1160	0	32761	32727	32655	32863	32567	32642	32749	32706	
1161	0	32802	32727	32769	32773	32711	32837	32784	32739	
1162	0	32773	32663	32831	32759	32607	32747	32703	32725	
1163	0	32791	32688	32756	32754	32699	32807	32783	32795	
1164	0	32805	32775	32859	32775	32606	32793	32829	32655	
1165	0	32831	32609	32815	32723	32503	32700	32735	32797	
1166	0	32791	32763	32806	32721	32663	32765	32749	32751	
1167	0	32765	32687	32829	32682	32700	32701	32687	32686	
1168	0	32747	32576	32845	32726	32476	32797	32740	32628	
1169	0	32745	32807	32757	32717	32740	32719	32687	32687	
1170	0	32757	32637	32839	32671	32805	32705	32775	32695	
1171	0	32767	32514	32790	32685	32639	32806	32823	32692	
1172	0	32708	32775	32727	32663	32719	32773	32621	32583	
1173	0	32740	32655	32773	32717	32643	32843	32723	32599	
1174	0	32702	32542	32695	32717	32695	32607	32647	32729	
1175	0	32671	32661	32679	32791	32687	32819	32769	32757	
1176	0	32628	32643	32797	32783	32461	32877	32783	32645	
1177	0	32754	32449	32628	32812	32756	32767	32713	32617	
1178	0	32725	32593	32676	32799	32775	32775	32775	32743	
1179	0	32692	32647	32775	32813	32607	32647	32615	32767	
1180	0	32808	32525	32694	32794	32739	32794	32663	32785	
1181	0	32762	32717	32695	32807	32807	32788	32679	32677	
1182	0	32791	32743	32862	32747	32671	32715	32695	32745	
1183	0	32738	32543	32775	32711	32665	32820	32685	32775	
1184	0	32734	32663	32802	32809	32541	32658	32627	32731	
1185	0	32781	32629	32775	32806	32747	32775	32683	32755	
1186	0	32736	32703	32793	32850	32530	32827	32719	32739	
1187	0	32733	32707	32711	32751	32655	32709	32718	32695	
1188	0	32759	32751	32812	32641	32493	32783	32663	32663	
1189	0	32791	32683	32775	32706	32757	32683	32757	32703	
1190	0	32799	32711	32743	32687	32694	32759	32700	32679	
1191	0	32747	32827	32785	32727	32551	32599	32750	32725	
1192	0	32723	32757	32699	32749	32647	32795	32775	32721	
1193	0	32775	32663	32751	32759	32543	32691	32711	32647	
1194	0	32797	32740	32703	32788	32740	32773	32711	32703	
1195	0	32794	32611	32764	32823	32531	32786	32853	32647	
1196	0	32835	32563	32696	32783	32626	32694	32767	32731	
1197	0	32700	32575	32754	32743	32580	32695	32631	32773	
1198	0	32725	32487	32791	32798	32758	32847	32723	32743	
1199	0	32775	32743	32783	32819	32749	32775	32599	32714	
1200	0	32733	32622	32839	32735	32474	32767	32729	32635	
1201	0	32732	32614	32795	32828	32647	32843	32753	32743	
1202	0	32736	32756	32775	32862	32686	32679	32703	32693	
1203	0	32797	32566	32820	32803	32623	32802	32719	32703	
1204	0	32765	32642	32783	32807	32767	32749	32637	32663	
1205	0	32765	32571	32703	32819	32669	32775	32739	32743	
1206	0	32724	32730	32767	32783	32590	32683	32703	32759	
1207	0	32722	32761	32743	32780	32762	32791	32743	32767	
1208	0	32735	32589	32701	32717	32751	32810	32804	32674	
1209	0	32754	32719	32711	32758	32663	32775	32729	32647	
1210	0	32852	32742	32745	32788	32719	32773	32771	32700	
1211	0	32812	32788	32727	32711	32539	32783	32699	32639	
1212	0	32743	32725	32750	32663	32687	32787	32731	32716	
1213	0	32722	32583	32793	32687	32637	32804	32708	32775	
1214	0	32749	32679	32738	32704	32783	32775	32639	32679	
1215	0	32758	32743	32708	32699	32612	32690	32731	32722	
1216	0	32781	32615	32790	32623	32582	32790	32647	32773	
1217	0	32723	32660	32756	32757	32759	32701	32803	32751	
1218	0	32660	32607	32699	32791	32689	32813	32737	32658	
1219	0	32749	32623	32748	32802	32563	32615	32646	32661	
1220	0	32772	32695	32775	32775	32756	32775	32735	32757	
1221	0	32759	32743	32771	32804	32711	32698	32674	32759	
1222	0	32774	32517	32831	32739	32751	32794	32683	32759	
1223	0	32894	32703	32791	32726	32719	32583	32647	32629	
1224	0	32849	32607	32775	32742	32687	32735	32791	32707	
1225	0	32863	32571	32831	32772	32759	32797	32833	32732	
1226	0	32847	32722	32795	32775	32753	32681	32775	32797	
1227	0	32828	32647	32796	32797	32676	32767	32775	32687	
1228	0	32834	32471	32795	32791	32751	32623	32637	32684	
1229	0	32758	32639	32687	32801	32692	32802	32711	32775	
1230	0	32726	32662	32713	32810	32743	32662	32773	32731	
1231	0	32760	32527	32715	32687	32742	32821	32639	32795	
1232	0	32694	32646	32687	32669	32629	32700	32663	32658	
1233	0	32703	32711	32773	32715	32655	32786	32703	32583	
1234	0	32695	32614	32702	32743	32476	32711	32775	32711	
1235	0	32778	32679	32726	32787	32692	32757	32785	32775	
1236	0	32716	32727	32767	32642	32623	32735	32701	32643	
1237	0	32727	32659	32823	32687	32445	32735	32703	32646	
1238	0	32782	32775	32743	32711	32660	32823	32667	32683	
1239	0	32690	32727	32847	32675	32640	32711	32691	32722	
1240	0	32749	32867	32903	32731	32575	32847	32599	32743	
1241	0	32742	32593	32817	32733	32630	32686	32775	32655	
1242	0	32719	32591	32847	32771	32745	32678	32787	32671	
1243	0	32725	32507	32823	32797	32627	32751	32669	32692	
1244	0	32742	32659	32767	32863	32647	32771	32699	32719	
1245	0	32742	32637	32789	32831	32557	32771	32647	32755	
1246	0	32812	32587	32669	32831	32636	32687	32735	32679	
1247	0	32822	32635	32694	32745	32535	32596	32771	32749	
1248	0	32756	32543	32803	32741	32715	32839	32655	32775	
1249	0	32785	32761	32663	32732	32665	32738	32775	32747	
1250	0	32820	32647	32695	32727	32554	32858	32771	32748	
1251	0	32747	32501	32635	32705	32671	32590	32647	32724	
1252	0	32718	32787	32635	32645	32455	32773	32706	32675	
1253	0	32747	32642	32737	32607	32691	32811	32731	32711	
1254	0	32749	32771	32749	32647	32735	32717	32775	32723	
1255	0	32762	32749	32775	32703	32669	32765	32801	32698	
1256	0	32767	32718	32775	32839	32663	32617	32679	32631	
1257	0	32813	32571	32683	32825	32583	32764	32709	32751	
1258	0	32758	32815	32716	32759	32763	32734	32716	32727	
1259	0	32740	32735	32751	32819	32655	32868	32725	32786	
1260	0	32764	32534	32717	32839	32535	32679	32751	32676	
1261	0	32767	32611	32797	32893	32748	32775	32637	32678	
1262	0	32762	32655	32791	32877	32788	32710	32753	32694	
1263	0	32783	32458	32739	32869	32467	32807	32718	32735	
1264	0	32733	32647	32743	32869	32741	32736	32751	32622	
1265	0	32695	32678	32765	32759	32806	32799	32676	32661	
1266	0	32698	32547	32705	32707	32589	32727	32738	32764	
1267	0	32755	32757	32710	32718	32759	32685	32765	32749	
1268	0	32748	32715	32803	32679	32723	32831	32751	32695	
1269	0	32740	32727	32817	32715	32546	32615	32759	32640	
1270	0	32820	32597	32943	32775	32639	32806	32621	32647	
1271	0	32751	32675	32771	32799	32535	32745	32736	32669	
1272	0	32765	32655	32803	32701	32697	32662	32775	32754	
1273	0	32760	32583	32775	32751	32695	32788	32711	32806	
1274	0	32713	32689	32773	32713	32786	32749	32755	32799	
1275	0	32743	32742	32852	32681	32740	32775	32798	32719	
1276	0	32749	32586	32727	32685	32516	32719	32775	32717	
1277	0	32759	32709	32791	32756	32679	32769	32749	32795	
1278	0	32732	32573	32802	32791	32695	32863	32639	32721	
1279	0	32800	32647	32775	32727	32767	32860	32755	32807	
1280	0	32775	32614	32861	32789	32746	32655	32826	32699	
1281	0	32756	32799	32771	32735	32533	32837	32663	32671	
1282	0	32769	32679	32786	32743	32703	32831	32723	32796	
1283	0	32801	32591	32791	32698	32723	32708	32683	32703	
1284	0	32775	32807	32731	32671	32773	32627	32786	32742	
1285	0	32769	32699	32787	32749	32699	32607	32775	32671	
1286	0	32871	32477	32815	32775	32514	32775	32628	32584	
1287	0	32833	32594	32764	32839	32687	32723	32749	32687	
1288	0	32847	32501	32787	32661	32581	32673	32734	32723	
1289	0	32761	32748	32687	32707	32783	32653	32627	32727	
1290	0	32806	32587	32730	32699	32735	32838	32773	32663	
1291	0	32700	32555	32655	32647	32743	32824	32742	32700	
1292	0	32676	32673	32701	32631	32799	32668	32605	32647	
1293	0	32718	32631	32737	32707	32659	32765	32755	32661	
1294	0	32744	32727	32663	32775	32703	32677	32775	32727	
1295	0	32775	32735	32759	32771	32532	32755	32647	32711	
1296	0	32804	32743	32725	32767	32633	32663	32707	32698	
1297	0	32886	32645	32761	32859	32577	32835	32681	32735	
1298	0	32853	32634	32735	32861	32638	32745	32743	32640	
1299	0	32820	32587	32804	32823	32625	32823	32775	32727	
1300	0	32870	32623	32823	32783	32525	32791	32687	32754	
1301	0	32743	32647	32822	32759	32615	32647	32773	32731	
1302	0	32764	32583	32695	32833	32599	32765	32642	32709	
1303	0	32775	32707	32715	32797	32527	32747	32706	32801	
1304	0	32773	32631	32719	32835	32689	32786	32679	32828	
1305	0	32738	32647	32756	32851	32773	32678	32775	32767	
1306	0	32766	32831	32807	32812	32559	32796	32783	32694	
1307	0	32756	32727	32743	32831	32694	32799	32671	32775	
1308	0	32774	32687	32698	32863	32708	32711	32685	32735	
1309	0	32721	32572	32749	32811	32637	32863	32703	32743	
1310	0	32732	32679	32741	32802	32701	32578	32799	32647	
1311	0	32701	32711	32694	32797	32717	32767	32692	32724	
1312	0	32718	32548	32807	32815	32559	32810	32807	32711	
1313	0	32775	32551	32815	32738	32771	32743	32759	32646	
1314	0	32775	32767	32687	32775	32775	32898	32751	32611	
1315	0	32798	32692	32711	32773	32500	32838	32743	32729	
1316	0	32791	32730	32799	32804	32729	32738	32655	32747	
1317	0	32799	32510	32763	32811	32771	32775	32687	32623	
1318	0	32780	32811	32804	32769	32516	32755	32643	32748	
1319	0	32713	32631	32863	32727	32719	32782	32703	32691	
1320	0	32797	32587	32867	32759	32663	32630	32582	32727	
1321	0	32726	32755	32783	32763	32791	32751	32806	32671	
1322	0	32743	32670	32801	32775	32745	32771	32687	32722	
1323	0	32647	32623	32837	32725	32638	32711	32713	32695	
1324	0	32689	32839	32836	32759	32758	32794	32757	32807	
1325	0	32679	32662	32826	32775	32687	32671	32723	32739	
1326	0	32684	32527	32831	32731	32579	32739	32834	32642	
1327	0	32724	32679	32743	32791	32703	32767	32695	32726	
1328	0	32715	32669	32775	32831	32629	32727	32748	32679	
1329	0	32775	32503	32759	32819	32708	32679	32623	32726	
1330	0	32775	32774	32690	32863	32757	32807	32727	32643	
1331	0	32748	32653	32700	32875	32733	32887	32706	32719	
1332	0	32797	32695	32626	32885	32783	32846	32615	32710	
1333	0	32762	32741	32659	32732	32690	32647	32797	32769	
1334	0	32783	32639	32695	32782	32506	32823	32647	32617	
1335	0	32802	32553	32698	32763	32679	32661	32682	32597	
1336	0	32749	32679	32762	32830	32555	32597	32761	32679	
1337	0	32748	32625	32739	32843	32689	32783	32798	32771	
1338	0	32765	32764	32751	32871	32735	32843	32699	32683	
1339	0	32825	32631	32751	32854	32761	32843	32775	32753	
1340	0	32733	32610	32790	32791	32759	32571	32823	32743	
1341	0	32742	32790	32831	32827	32655	32731	32607	32639	
1342	0	32775	32667	32714	32727	32661	32735	32742	32749	
1343	0	32786	32563	32819	32686	32539	32737	32677	32759	
1344	0	32771	32769	32822	32799	32721	32613	32639	32775	
1345	0	32718	32679	32761	32828	32683	32703	32702	32671	
1346	0	32772	32519	32775	32741	32538	32719	32605	32668	
1347	0	32775	32647	32717	32646	32689	32743	32711	32690	
1348	0	32782	32631	32761	32775	32579	32731	32755	32794	
1349	0	32783	32815	32611	32759	32647	32730	32791	32723	
1350	0	32795	32623	32751	32743	32642	32791	32684	32708	
1351	0	32692	32630	32813	32751	32647	32751	32775	32690	
1352	0	32786	32515	32660	32747	32705	32607	32700	32690	
1353	0	32766	32727	32735	32741	32673	32807	32775	32732	
1354	0	32743	32702	32808	32767	32887	32731	32767	32730	
1355	0	32791	32647	32716	32782	32868	32733	32676	32784	
1356	0	32820	32620	32823	32797	32788	32711	32775	32803	
1357	0	32757	32573	32775	32849	32731	32799	32799	32669	
1358	0	32733	32771	32823	32767	32635	32871	32707	32635	
1359	0	32775	32723	32763	32766	32719	32647	32661	32647	
1360	0	32767	32513	32807	32775	32565	32823	32722	32764	
1361	0	32807	32735	32751	32738	32758	32771	32631	32765	
1362	0	32691	32605	32775	32676	32687	32791	32722	32701	
1363	0	32705	32695	32806	32647	32503	32706	32700	32735	
1364	0	32708	32799	32871	32687	32700	32791	32775	32801	
1365	0	32732	32687	32721	32741	32763	32807	32726	32691	
1366	0	32793	32629	32759	32795	32711	32735	32626	32669	
1367	0	32747	32619	32759	32783	32695	32663	32807	32732	
1368	0	32784	32646	32729	32727	32429	32797	32815	32655	
1369	0	32813	32503	32766	32703	32669	32775	32647	32604	
1370	0	32789	32671	32747	32775	32644	32745	32741	32682	
1371	0	32820	32655	32753	32703	32703	32627	32757	32647	
1372	0	32694	32763	32749	32738	32690	32801	32662	32712	
1373	0	32773	32647	32735	32690	32596	32729	32729	32787	
1374	0	32768	32765	32783	32666	32655	32817	32677	32702	
1375	0	32738	32839	32735	32597	32459	32694	32694	32687	
1376	0	32759	32662	32767	32707	32660	32881	32754	32807	
1377	0	32765	32710	32717	32742	32711	32793	32636	32818	
1378	0	32763	32607	32749	32757	32567	32823	32715	32676	
1379	0	32813	32615	32783	32735	32602	32695	32807	32671	
1380	0	32764	32501	32676	32737	32530	32821	32685	32647	
1381	0	32799	32695	32735	32726	32673	32751	32745	32783	
1382	0	32751	32615	32742	32701	32743	32775	32743	32698	
1383	0	32765	32533	32756	32747	32774	32743	32647	32727	
1384	0	32804	32767	32769	32815	32694	32751	32743	32764	
1385	0	32723	32681	32813	32847	32525	32733	32725	32725	
1386	0	32751	32543	32823	32807	32659	32652	32679	32683	
1387	0	32727	32786	32725	32827	32669	32775	32773	32775	
1388	0	32738	32667	32895	32819	32458	32731	32852	32754	
1389	0	32785	32756	32852	32751	32645	32775	32735	32760	
1390	0	32809	32551	32735	32788	32655	32669	32772	32687	
1391	0	32836	32655	32802	32775	32699	32758	32743	32628	
1392	0	32816	32716	32684	32759	32727	32803	32619	32663	
1393	0	32797	32675	32711	32795	32606	32767	32681	32655	
1394	0	32754	32695	32873	32738	32775	32613	32639	32791	
1395	0	32733	32671	32807	32775	32709	32759	32799	32739	
1396	0	32761	32731	32759	32809	32578	32787	32749	32667	
1397	0	32820	32623	32771	32875	32727	32643	32683	32690	
1398	0	32775	32519	32725	32754	32705	32753	32741	32805	
1399	0	32787	32711	32751	32742	32613	32679	32771	32729	
1400	0	32761	32572	32700	32769	32613	32819	32715	32835	
1401	0	32740	32591	32743	32766	32639	32703	32775	32695	
1402	0	32787	32687	32791	32743	32699	32770	32723	32665	
1403	0	32756	32567	32773	32767	32641	32733	32639	32719	
1404	0	32791	32460	32749	32775	32775	32797	32797	32789	
1405	0	32722	32619	32757	32834	32679	32673	32763	32749	
1406	0	32727	32629	32865	32775	32692	32713	32627	32723	
1407	0	32745	32658	32875	32739	32574	32867	32783	32719	
1408	0	32809	32829	32859	32813	32708	32711	32699	32709	
1409	0	32815	32677	32794	32775	32647	32762	32759	32682	
1410	0	32813	32747	32803	32641	32603	32678	32805	32711	
1411	0	32785	32644	32691	32643	32697	32807	32711	32617	
1412	0	32690	32731	32724	32707	32686	32836	32767	32694	
1413	0	32670	32706	32679	32681	32620	32839	32663	32711	
1414	0	32729	32621	32711	32652	32689	32822	32747	32615	
1415	0	32735	32833	32660	32647	32657	32671	32783	32623	
1416	0	32763	32627	32726	32743	32815	32807	32722	32749	
1417	0	32759	32583	32735	32721	32691	32879	32767	32689	
1418	0	32815	32831	32717	32591	32507	32775	32639	32787	
1419	0	32786	32775	32686	32739	32711	32829	32711	32681	
1420	0	32774	32613	32713	32735	32737	32687	32647	32711	
1421	0	32775	32671	32631	32759	32517	32644	32763	32753	
1422	0	32724	32548	32713	32706	32739	32819	32703	32635	
1423	0	32733	32591	32771	32754	32663	32791	32775	32759	
1424	0	32687	32765	32733	32775	32530	32751	32811	32699	
1425	0	32734	32647	32733	32801	32721	32775	32687	32742	
1426	0	32745	32643	32804	32751	32684	32658	32727	32641	
1427	0	32690	32475	32726	32801	32485	32671	32642	32719	
1428	0	32723	32702	32759	32839	32647	32774	32770	32767	
1429	0	32668	32635	32861	32773	32671	32770	32663	32773	
1430	0	32708	32607	32774	32751	32511	32743	32839	32621	
1431	0	32749	32511	32691	32725	32679	32775	32754	32727	
1432	0	32793	32733	32725	32743	32741	32623	32623	32671	
1433	0	32780	32658	32815	32697	32571	32732	32719	32631	
1434	0	32766	32667	32722	32803	32755	32829	32647	32681	
1435	0	32738	32559	32751	32843	32767	32683	32789	32677	
1436	0	32756	32543	32775	32775	32534	32762	32683	32767	
1437	0	32775	32753	32773	32773	32705	32798	32759	32655	
1438	0	32716	32743	32826	32747	32743	32587	32629	32751	
1439	0	32710	32722	32887	32719	32507	32766	32732	32679	
1440	0	32765	32495	32850	32687	32644	32775	32717	32775	
1441	0	32729	32695	32889	32771	32484	32757	32627	32769	
1442	0	32739	32725	32815	32738	32687	32631	32709	32660	
1443	0	32722	32753	32819	32692	32722	32675	32767	32766	
1444	0	32703	32605	32851	32703	32647	32742	32629	32735	
1445	0	32704	32729	32815	32731	32629	32641	32735	32711	
1446	0	32729	32655	32748	32808	32559	32751	32707	32638	
1447	0	32728	32557	32775	32805	32668	32638	32745	32647	
1448	0	32793	32599	32740	32719	32767	32775	32823	32751	
1449	0	32799	32641	32797	32751	32735	32871	32694	32702	
1450	0	32813	32687	32687	32708	32735	32765	32771	32677	
1451	0	32807	32564	32722	32719	32525	32895	32750	32687	
1452	0	32751	32713	32646	32727	32771	32715	32681	32733	
1453	0	32807	32677	32687	32790	32615	32862	32717	32711	
1454	0	32742	32606	32763	32821	32804	32799	32747	32739	
1455	0	32740	32559	32825	32679	32725	32713	32711	32787	
1456	0	32737	32738	32709	32671	32632	32787	32695	32685	
1457	0	32759	32671	32749	32765	32773	32701	32617	32775	
1458	0	32713	32687	32757	32759	32663	32799	32719	32883	
1459	0	32739	32585	32775	32679	32727	32783	32763	32727	
1460	0	32709	32663	32850	32711	32701	32772	32646	32767	
1461	0	32713	32722	32833	32823	32535	32855	32731	32695	
1462	0	32724	32600	32827	32711	32636	32835	32743	32655	
1463	0	32715	32685	32759	32803	32711	32739	32772	32717	
1464	0	32739	32637	32775	32797	32847	32671	32775	32762	
1465	0	32742	32490	32809	32775	32855	32607	32671	32699	
1466	0	32751	32813	32715	32703	32623	32739	32775	32743	
1467	0	32845	32631	32796	32705	32801	32747	32749	32591	
1468	0	32791	32580	32839	32723	32791	32743	32679	32796	
1469	0	32820	32685	32710	32647	32603	32615	32723	32751	
1470	0	32846	32473	32725	32613	32675	32594	32671	32789	
1471	0	32865	32701	32775	32713	32735	32803	32748	32647	
1472	0	32816	32719	32703	32751	32691	32683	32754	32731	
1473	0	32860	32695	32686	32775	32669	32775	32631	32715	
1474	0	32806	32619	32742	32813	32621	32775	32751	32762	
1475	0	32861	32551	32631	32751	32694	32709	32666	32647	
1476	0	32851	32791	32663	32807	32677	32791	32759	32763	
1477	0	32772	32681	32711	32757	32567	32827	32647	32676	
1478	0	32714	32633	32757	32797	32662	32775	32783	32723	
1479	0	32823	32637	32751	32775	32640	32855	32725	32607	
1480	0	32812	32527	32735	32809	32489	32714	32586	32748	
1481	0	32821	32738	32759	32775	32601	32875	32773	32727	
1482	0	32763	32549	32759	32811	32655	32903	32719	32647	
1483	0	32804	32604	32801	32827	32526	32783	32860	32647	
1484	0	32775	32507	32779	32851	32598	32903	32757	32687	
1485	0	32761	32694	32717	32859	32599	32786	32658	32605	
1486	0	32786	32603	32795	32790	32791	32607	32787	32702	
1487	0	32786	32685	32797	32838	32647	32730	32647	32654	
1488	0	32706	32527	32697	32814	32530	32735	32799	32746	
1489	0	32743	32671	32711	32795	32684	32758	32775	32735	
1490	0	32740	32631	32727	32751	32749	32743	32727	32759	
1491	0	32729	32727	32662	32740	32581	32610	32737	32703	
1492	0	32695	32691	32659	32775	32735	32765	32695	32695	
1493	0	32738	32530	32647	32775	32748	32795	32796	32711	
1494	0	32771	32775	32679	32847	32586	32791	32679	32677	
1495	0	32717	32667	32669	32855	32647	32735	32727	32775	
1496	0	32684	32703	32754	32847	32623	32775	32643	32739	
1497	0	32660	32535	32829	32775	32703	32723	32747	32658	
1498	0	32704	32815	32837	32759	32515	32558	32685	32786	
1499	0	32794	32859	32911	32698	32662	32623	32749	32773	
1500	0	32743	32759	32866	32703	32599	32655	32627	32663	
1501	0	32773	32621	32891	32679	32503	32659	32751	32731	
1502	0	32775	32671	32866	32639	32713	32725	32694	32711	
1503	0	32734	32575	32775	32676	32647	32563	32741	32783	
1504	0	32736	32543	32794	32695	32687	32554	32707	32622	
1505	0	32768	32705	32860	32685	32611	32723	32742	32738	
1506	0	32756	32631	32756	32665	32647	32661	32708	32692	
1507	0	32771	32599	32807	32722	32497	32692	32647	32753	
1508	0	32720	32774	32706	32706	32666	32775	32710	32799	
1509	0	32715	32708	32724	32703	32559	32709	32711	32730	
1510	0	32711	32589	32667	32671	32677	32787	32695	32671	
1511	0	32739	32903	32658	32831	32626	32655	32791	32683	
1512	0	32708	32775	32639	32763	32615	32685	32694	32775	
1513	0	32714	32775	32605	32831	32775	32891	32704	32676	
1514	0	32703	32567	32543	32695	32855	32847	32795	32623	
1515	0	32712	32822	32638	32727	32527	32775	32668	32725	
1516	0	32709	32743	32683	32705	32730	32868	32799	32743	
1517	0	32636	32718	32583	32741	32775	32852	32660	32705	
1518	0	32657	32687	32679	32735	32579	32769	32623	32721	
1519	0	32739	32822	32804	32773	32686	32877	32735	32769	
1520	0	32749	32702	32783	32727	32711	32711	32577	32738	
1521	0	32784	32663	32871	32743	32573	32645	32711	32745	
1522	0	32806	32818	32991	32703	32723	32769	32595	32679	
1523	0	32803	32747	32843	32681	32695	32751	32717	32767	
1524	0	32718	32607	32775	32631	32615	32734	32743	32813	
1525	0	32745	32559	32851	32775	32715	32732	32705	32641	
1526	0	32766	32481	32825	32686	32682	32559	32807	32722	
1527	0	32821	32735	32751	32749	32795	32743	32685	32670	
1528	0	32878	32695	32718	32727	32699	32703	32775	32647	
1529	0	32868	32711	32691	32798	32526	32877	32686	32631	
1530	0	32854	32627	32663	32770	32745	32703	32791	32775	
1531	0	32822	32511	32635	32799	32771	32859	32786	32735	
1532	0	32791	32735	32757	32763	32500	32801	32743	32751	
1533	0	32754	32597	32662	32788	32695	32701	32868	32647	
1534	0	32833	32635	32679	32766	32699	32814	32687	32731	
1535	0	32814	32519	32751	32769	32599	32701	32758	32789	
1536	0	32841	32790	32785	32811	32742	32711	32725	32671	
1537	0	32772	32655	32821	32811	32711	32799	32703	32725	
1538	0	32775	32646	32879	32772	32647	32745	32711	32775	
1539	0	32788	32547	32759	32799	32695	32731	32667	32759	
1540	0	32727	32609	32661	32807	32743	32759	32711	32655	
1541	0	32762	32725	32783	32769	32487	32903	32619	32678	
1542	0	32814	32669	32765	32775	32727	32910	32707	32769	
1543	0	32821	32718	32762	32759	32658	32931	32663	32687	
1544	0	32812	32627	32639	32718	32535	32879	32787	32679	
1545	0	32736	32803	32714	32740	32715	32893	32711	32723	
1546	0	32720	32717	32765	32743	32558	32647	32763	32718	
1547	0	32711	32635	32740	32807	32676	32592	32661	32647	
1548	0	32741	32707	32803	32767	32671	32743	32702	32732	
1549	0	32756	32500	32859	32795	32671	32703	32775	32703	
1550	0	32730	32757	32782	32775	32658	32783	32685	32763	
1551	0	32748	32671	32647	32811	32567	32903	32751	32709	
1552	0	32751	32636	32711	32759	32711	32789	32639	32805	
1553	0	32795	32639	32775	32719	32705	32847	32775	32807	
1554	0	32775	32542	32749	32755	32669	32857	32647	32671	
1555	0	32761	32759	32709	32775	32658	32764	32742	32790	
1556	0	32723	32557	32804	32802	32674	32772	32796	32711	
1557	0	32728	32607	32798	32785	32763	32677	32698	32748	
1558	0	32769	32431	32815	32785	32723	32715	32749	32695	
1559	0	32758	32703	32839	32812	32551	32747	32637	32671	
1560	0	32758	32565	32787	32855	32742	32655	32749	32756	
1561	0	32783	32723	32695	32887	32743	32625	32729	32715	
1562	0	32810	32574	32735	32823	32635	32594	32675	32726	
1563	0	32786	32797	32735	32749	32749	32637	32711	32663	
1564	0	32813	32711	32743	32807	32775	32722	32633	32747	
1565	0	32793	32731	32847	32790	32591	32599	32705	32723	
1566	0	32808	32699	32827	32775	32710	32685	32743	32767	
1567	0	32764	32827	32835	32714	32605	32535	32631	32647	
1568	0	32797	32695	32835	32663	32711	32663	32710	32657	
1569	0	32743	32726	32759	32669	32671	32735	32735	32687	
1570	0	32738	32717	32815	32735	32663	32719	32743	32771	
1571	0	32757	32623	32815	32724	32747	32742	32745	32638	
1572	0	32745	32647	32711	32655	32623	32731	32639	32751	
1573	0	32743	32703	32731	32679	32564	32663	32775	32695	
1574	0	32749	32690	32775	32660	32765	32807	32692	32786	
1575	0	32717	32740	32771	32689	32619	32678	32809	32687	
1576	0	32812	32611	32763	32757	32519	32739	32799	32719	
1577	0	32850	32725	32845	32751	32749	32621	32687	32707	
1578	0	32763	32670	32771	32759	32735	32773	32727	32746	
1579	0	32743	32679	32762	32703	32555	32702	32687	32663	
1580	0	32772	32565	32765	32759	32663	32790	32719	32673	
1581	0	32698	32655	32663	32747	32597	32613	32689	32715	
1582	0	32741	32539	32644	32795	32693	32789	32615	32703	
1583	0	32734	32635	32709	32781	32685	32751	32748	32755	
1584	0	32698	32479	32775	32751	32467	32769	32801	32689	
1585	0	32726	32631	32773	32745	32733	32823	32748	32761	
1586	0	32692	32765	32810	32806	32692	32638	32735	32742	
1587	0	32697	32689	32837	32775	32480	32823	32723	32749	
1588	0	32729	32719	32790	32833	32743	32719	32735	32655	
1589	0	32716	32740	32811	32798	32711	32821	32660	32747	
1590	0	32699	32759	32687	32772	32519	32689	32737	32775	
1591	0	32650	32871	32647	32822	32769	32767	32690	32781	
1592	0	32612	32851	32681	32709	32711	32847	32754	32707	
1593	0	32637	32762	32695	32759	32555	32765	32669	32738	
1594	0	32624	32791	32646	32799	32731	32815	32787	32751	
1595	0	32688	32677	32709	32845	32799	32642	32711	32677	
1596	0	32622	32671	32703	32807	32604	32791	32647	32717	
1597	0	32567	32647	32635	32847	32763	32858	32714	32687	
1598	0	32575	32482	32709	32903	32685	32826	32612	32751	
1599	0	32498	32435	32807	32845	32583	32815	32663	32624	
1600	0	32468	32572	32769	32807	32711	32710	32583	32763	
1601	0	32415	32447	32799	32853	32659	32623	32749	32731	
1602	0	32409	32291	32815	32791	32754	32821	32763	32727	
1603	0	32480	32189	32703	32853	32700	32804	32767	32673	
1604	0	32500	32443	32719	32871	32559	32685	32726	32693	
1605	0	32515	32415	32806	32871	32586	32788	32677	32740	
1606	0	32627	32370	32865	32803	32647	32759	32703	32631	
1607	0	32685	32322	32847	32783	32669	32647	32730	32711	
1608	0	32748	32276	32748	32775	32493	32591	32727	32719	
1609	0	32799	32123	32715	32769	32705	32719	32595	32679	
1610	0	32764	32263	32679	32813	32710	32791	32663	32677	
1611	0	32861	32235	32532	32727	32581	32695	32554	32671	
1612	0	32933	32093	32606	32766	32717	32775	32683	32735	
1613	0	32865	32107	32647	32799	32834	32775	32562	32613	
1614	0	32903	31993	32605	32807	32674	32647	32646	32708	
1615	0	32973	31860	32659	32836	32847	32675	32635	32663	
1616	0	33079	32103	32711	32831	32775	32811	32713	32589	
1617	0	33158	32118	32813	32803	32579	32751	32615	32646	
1618	0	33217	32071	32727	32793	32695	32738	32739	32685	
1619	0	33121	32059	32679	32763	32708	32791	32775	32709	
1620	0	33134	32303	32885	32786	32603	32615	32643	32655	
1621	0	33274	32210	32775	32783	32677	32767	32694	32695	
1622	0	33399	32309	32811	32786	32554	32756	32711	32705	
1623	0	33367	32371	32819	32767	32677	32790	32732	32727	
1624	0	33271	32535	32763	32711	32759	32690	32725	32687	
1625	0	33185	32553	32735	32738	32595	32613	32743	32647	
1626	0	33250	32839	32858	32753	32629	32751	32799	32717	
1627	0	33209	32723	32844	32775	32527	32732	32810	32727	
1628	0	33196	33047	32847	32710	32637	32764	32775	32681	
1629	0	33172	33093	32798	32675	32647	32647	32838	32686	
1630	0	33246	33287	32727	32663	32563	32882	32847	32759	
1631	0	33143	33317	32775	32692	32647	32855	32961	32775	
1632	0	33095	33423	32835	32631	32677	32791	32987	32759	
1633	0	33119	33644	32881	32590	32557	32823	32942	32717	
1634	0	33068	33783	32923	32717	32580	32726	32979	32679	
1635	0	32985	33604	33071	32695	32485	32863	33090	32695	
1636	0	32918	33775	33031	32694	32525	32775	32861	32773	
1637	0	32796	33829	33083	32699	32532	32767	32831	32809	
1638	0	32780	33637	33041	32791	32647	32708	32807	32799	
1639	0	32770	33836	33063	32799	32623	32786	32805	32695	
1640	0	32791	33639	33014	32740	32516	32678	32831	32807	
1641	0	32841	33551	32937	32793	32606	32801	32754	32759	
1642	0	32919	33447	32964	32801	32708	32787	32820	32735	
1643	0	32908	33142	32957	32811	32707	32727	32647	32799	
1644	0	32847	33245	32819	32743	32595	32667	32692	32763	
1645	0	32724	33025	32809	32797	32693	32799	32660	32707	
1646	0	32506	32957	32749	32759	32711	32699	32628	32785	
1647	0	32314	32717	32676	32807	32815	32767	32640	32612	
1648	0	32089	32791	32703	32789	32711	32719	32603	32799	
1649	0	32058	32708	32711	32754	32759	32633	32666	32759	
1650	0	31969	32751	32619	32821	32719	32829	32605	32747	
1651	0	31977	32568	32655	32847	32691	32827	32685	32711	
1652	0	32017	32774	32583	32791	32675	32823	32705	32791	
1653	0	32058	32605	32516	32740	32655	32847	32639	32795	
1654	0	32150	32661	32591	32786	32717	32747	32789	32799	
1655	0	32245	32423	32675	32807	32703	32661	32557	32647	
1656	0	32326	32461	32760	32819	32603	32718	32722	32743	
1657	0	32407	32660	32701	32815	32761	32813	32605	32791	
1658	0	32455	32567	32716	32875	32769	32831	32693	32691	
1659	0	32468	32511	32719	32948	32815	32823	32578	32754	
1660	0	32507	32614	32821	32927	32610	32788	32726	32722	
1661	0	32559	32390	32668	32902	32666	32775	32559	32679	
1662	0	32612	32391	32711	32899	32724	32795	32660	32691	
1663	0	32696	32583	32757	32868	32871	32767	32613	32703	
1664	0	32671	32539	32819	32940	32607	32775	32669	32704	
1665	0	32643	32463	32804	32871	32833	32639	32663	32671	
1666	0	32698	32509	32839	32843	32683	32814	32675	32743	
1667	0	32763	32374	32875	32736	32587	32846	32738	32771	
1668	0	32790	32583	32878	32749	32532	32749	32661	32643	
1669	0	32799	32537	32703	32799	32677	32685	32691	32725	
1670	0	32830	32487	32738	32775	32806	32797	32594	32717	
1671	0	32836	32373	32749	32838	32599	32687	32711	32666	
1672	0	32794	32527	32707	32917	32765	32695	32673	32667	
1673	0	32863	32559	32591	32775	32775	32839	32647	32727	
1674	0	32865	32454	32687	32739	32596	32827	32747	32701	
1675	0	32902	32557	32754	32743	32726	32737	32615	32605	
1676	0	32928	32421	32711	32815	32654	32811	32831	32775	
1677	0	32844	32630	32685	32661	32483	32663	32739	32719	
1678	0	32821	32479	32749	32699	32683	32807	32764	32764	
1679	0	32868	32595	32692	32790	32635	32721	32773	32619	
1680	0	32870	32495	32751	32813	32487	32766	32673	32789	
1681	0	32914	32647	32804	32743	32657	32790	32775	32687	
1682	0	32802	32558	32786	32786	32678	32623	32708	32775	
1683	0	32795	32647	32775	32759	32459	32819	32815	32607	
1684	0	32827	32655	32859	32775	32743	32866	32831	32721	
1685	0	32815	32578	32827	32733	32747	32711	32715	32669	
1686	0	32833	32594	32808	32743	32503	32863	32775	32637	
1687	0	32903	32513	32855	32753	32615	32690	32671	32637	
1688	0	32839	32695	32663	32759	32554	32775	32775	32727	
1689	0	32793	32642	32667	32747	32699	32703	32727	32695	
1690	0	32768	32709	32663	32802	32759	32719	32694	32720	
1691	0	32854	32541	32581	32754	32587	32807	32687	32665	
1692	0	32793	32716	32615	32751	32767	32738	32615	32705	
1693	0	32791	32694	32657	32701	32791	32813	32795	32702	
1694	0	32804	32703	32658	32671	32646	32828	32764	32767	
1695	0	32838	32591	32637	32731	32663	32757	32646	32687	
1696	0	32762	32549	32736	32705	32628	32771	32709	32750	
1697	0	32775	32591	32719	32727	32804	32615	32671	32734	
1698	0	32836	32669	32805	32735	32748	32785	32733	32748	
1699	0	32797	32727	32804	32701	32617	32866	32703	32610	
1700	0	32775	32707	32943	32677	32591	32799	32767	32679	
1701	0	32741	32527	32902	32741	32709	32725	32762	32658	
1702	0	32787	32546	32819	32706	32695	32775	32805	32775	
1703	0	32748	32692	32807	32695	32543	32751	32714	32773	
1704	0	32769	32587	32809	32662	32797	32642	32807	32759	
1705	0	32754	32727	32805	32685	32708	32763	32759	32647	
1706	0	32762	32498	32799	32666	32543	32791	32694	32711	
1707	0	32769	32662	32847	32770	32762	32783	32727	32723	
1708	0	32786	32676	32757	32762	32791	32693	32660	32805	
1709	0	32748	32495	32719	32818	32813	32775	32679	32647	
1710	0	32763	32756	32823	32795	32858	32847	32799	32646	
1711	0	32745	32601	32719	32775	32613	32775	32743	32740	
1712	0	32729	32671	32722	32711	32692	32850	32791	32719	
1713	0	32786	32548	32733	32772	32723	32723	32787	32719	
1714	0	32799	32743	32719	32743	32517	32639	32742	32733	
1715	0	32807	32738	32663	32751	32738	32830	32734	32803	
1716	0	32775	32543	32773	32743	32747	32773	32699	32727	
1717	0	32850	32749	32719	32791	32655	32788	32759	32809	
1718	0	32737	32703	32743	32747	32655	32690	32786	32693	
1719	0	32748	32647	32747	32787	32700	32591	32749	32775	
1720	0	32810	32548	32789	32796	32515	32736	32743	32831	
1721	0	32820	32731	32775	32874	32703	32795	32646	32644	
1722	0	32764	32612	32839	32754	32757	32679	32703	32767	
1723	0	32761	32655	32867	32732	32511	32755	32591	32813	
1724	0	32822	32535	32775	32731	32744	32838	32690	32807	
1725	0	32790	32749	32843	32751	32655	32642	32793	32694	
1726	0	32708	32669	32893	32806	32631	32783	32819	32734	
1727	0	32709	32659	32823	32803	32647	32771	32773	32775	
1728	0	32703	32551	32795	32811	32615	32751	32669	32737	
1729	0	32702	32754	32790	32791	32671	32845	32694	32595	
1730	0	32743	32719	32791	32854	32802	32803	32631	32719	
1731	0	32796	32647	32727	32749	32826	32647	32723	32769	
1732	0	32721	32574	32715	32662	32658	32775	32677	32679	
1733	0	32790	32771	32658	32709	32658	32721	32659	32690	
1734	0	32807	32567	32679	32727	32503	32711	32679	32787	
1735	0	32797	32598	32750	32751	32751	32675	32711	32733	
1736	0	32836	32509	32827	32711	32637	32615	32795	32646	
1737	0	32841	32427	32791	32687	32570	32692	32637	32687	
1738	0	32811	32679	32789	32716	32703	32746	32855	32701	
1739	0	32812	32554	32897	32690	32596	32717	32849	32751	
1740	0	32799	32551	32767	32713	32619	32844	32726	32626	
1741	0	32769	32405	32783	32738	32750	32586	32765	32631	
1742	0	32726	32647	32885	32836	32713	32751	32646	32707	
1743	0	32692	32658	32711	32796	32615	32845	32735	32730	
1744	0	32690	32599	32775	32775	32773	32727	32740	32599	
1745	0	32717	32508	32756	32813	32747	32799	32607	32759	
1746	0	32711	32771	32863	32819	32583	32783	32738	32671	
1747	0	32718	32795	32725	32844	32775	32639	32615	32769	
1748	0	32718	32647	32770	32842	32766	32716	32766	32741	
1749	0	32732	32683	32819	32919	32572	32755	32676	32775	
1750	0	32701	32547	32749	32843	32711	32847	32715	32736	
1751	0	32700	32851	32747	32759	32763	32771	32775	32748	
1752	0	32701	32743	32694	32723	32534	32863	32631	32687	
1753	0	32685	32769	32762	32637	32685	32639	32759	32804	
1754	0	32711	32621	32717	32731	32668	32735	32647	32727	
1755	0	32719	32599	32751	32751	32663	32815	32687	32683	
1756	0	32737	32852	32818	32754	32727	32815	32751	32784	
1757	0	32775	32730	32833	32809	32747	32730	32723	32797	
1758	0	32808	32698	32767	32717	32471	32741	32738	32647	
1759	0	32815	32743	32738	32711	32711	32751	32646	32743	
1760	0	32836	32687	32831	32812	32671	32685	32687	32679	
1761	0	32759	32718	32725	32811	32607	32623	32647	32718	
1762	0	32753	32726	32759	32799	32673	32772	32775	32646	
1763	0	32747	32711	32847	32775	32743	32759	32621	32751	
1764	0	32775	32583	32775	32775	32525	32743	32719	32725	
1765	0	32743	32733	32742	32790	32627	32671	32789	32719	
1766	0	32791	32586	32798	32767	32703	32819	32633	32669	
1767	0	32782	32623	32870	32807	32491	32802	32773	32694	
1768	0	32748	32487	32826	32829	32695	32599	32715	32713	
1769	0	32767	32715	32759	32830	32687	32775	32810	32679	
1770	0	32726	32665	32807	32750	32725	32775	32791	32604	
1771	0	32772	32621	32751	32721	32794	32711	32669	32790	
1772	0	32793	32663	32683	32702	32599	32851	32775	32740	
1773	0	32768	32719	32734	32701	32666	32789	32749	32740	
1774	0	32743	32759	32604	32718	32535	32797	32667	32791	
1775	0	32695	32606	32773	32789	32669	32679	32763	32710	
1776	0	32706	32727	32743	32775	32597	32799	32775	32668	
1777	0	32743	32677	32706	32757	32769	32628	32715	32678	
1778	0	32732	32708	32801	32747	32707	32669	32785	32703	
1779	0	32744	32551	32847	32771	32628	32791	32623	32598	
1780	0	32712	32677	32775	32775	32732	32802	32729	32694	
1781	0	32765	32694	32815	32807	32747	32775	32655	32729	
1782	0	32706	32423	32823	32780	32539	32842	32738	32787	
1783	0	32727	32692	32811	32791	32731	32581	32753	32647	
1784	0	32718	32605	32822	32787	32742	32766	32633	32660	
1785	0	32763	32644	32797	32719	32551	32715	32674	32757	
1786	0	32762	32427	32879	32690	32647	32756	32679	32682	
1787	0	32757	32699	32827	32742	32715	32741	32701	32612	
1788	0	32793	32663	32799	32743	32477	32602	32785	32675	
1789	0	32780	32657	32653	32699	32669	32751	32711	32730	
1790	0	32759	32489	32663	32725	32718	32757	32775	32717	
1791	0	32774	32775	32655	32675	32557	32805	32673	32701	
1792	0	32773	32703	32695	32690	32757	32771	32716	32700	
1793	0	32824	32647	32658	32619	32707	32759	32711	32763	
1794	0	32820	32679	32677	32711	32717	32830	32785	32727	
1795	0	32772	32721	32775	32721	32673	32823	32658	32647	
1796	0	32749	32647	32782	32797	32715	32655	32709	32759	
1797	0	32735	32831	32687	32751	32687	32807	32646	32789	
1798	0	32751	32663	32674	32735	32515	32843	32821	32749	
1799	0	32769	32727	32797	32818	32666	32804	32837	32706	
1800	0	32781	32479	32741	32826	32742	32759	32775	32791	
1801	0	32820	32671	32741	32803	32578	32850	32791	32758	
1802	0	32764	32595	32825	32887	32626	32735	32718	32759	
1803	0	32751	32599	32820	32815	32660	32669	32790	32655	
1804	0	32748	32563	32767	32839	32599	32775	32775	32673	
1805	0	32642	32741	32759	32841	32699	32711	32647	32734	
1806	0	32697	32663	32773	32887	32585	32815	32723	32782	
1807	0	32732	32609	32732	32822	32598	32807	32647	32715	
1808	0	32706	32572	32806	32719	32609	32647	32715	32663	
1809	0	32732	32701	32741	32676	32559	32825	32727	32710	
1810	0	32754	32637	32685	32751	32678	32771	32671	32639	
1811	0	32704	32549	32711	32714	32545	32758	32723	32751	
1812	0	32743	32607	32709	32739	32679	32785	32743	32709	
1813	0	32805	32495	32655	32681	32553	32754	32716	32695	
1814	0	32787	32711	32722	32805	32749	32691	32662	32693	
1815	0	32794	32647	32707	32773	32598	32739	32791	32587	
1816	0	32759	32557	32637	32765	32773	32835	32735	32683	
1817	0	32733	32709	32741	32767	32766	32799	32599	32719	
1818	0	32764	32583	32666	32693	32559	32639	32693	32703	
1819	0	32742	32572	32775	32802	32685	32734	32687	32759	
1820	0	32713	32747	32715	32755	32609	32725	32655	32717	
1821	0	32725	32594	32726	32831	32701	32790	32775	32657	
1822	0	32693	32659	32773	32775	32693	32567	32739	32718	
1823	0	32729	32481	32734	32711	32623	32805	32647	32789	
1824	0	32724	32725	32813	32775	32725	32765	32775	32775	
1825	0	32676	32549	32815	32773	32675	32621	32742	32711	
1826	0	32743	32748	32831	32735	32694	32789	32854	32703	
1827	0	32670	32745	32775	32807	32581	32655	32679	32710	
1828	0	32686	32823	32775	32807	32674	32765	32831	32771	
1829	0	32713	32662	32671	32835	32521	32692	32815	32709	
1830	0	32711	32741	32701	32743	32755	32815	32716	32676	
1831	0	32726	32612	32613	32663	32925	32731	32799	32749	
1832	0	32717	32735	32659	32663	32751	32835	32799	32727	
1833	0	32733	32663	32647	32671	32841	32667	32815	32807	
1834	0	32789	32495	32647	32775	32737	32810	32807	32742	
1835	0	32839	32631	32666	32806	32889	32738	32725	32687	
1836	0	32814	32695	32647	32769	32767	32847	32811	32757	
1837	0	32762	32580	32743	32783	32667	32679	32803	32734	
1838	0	32724	32647	32831	32790	32716	32869	32743	32754	
1839	0	32780	32591	32858	32783	32623	32855	32740	32719	
1840	0	32836	32763	32791	32802	32679	32619	32797	32695	
1841	0	32789	32647	32809	32839	32517	32799	32735	32641	
1842	0	32770	32621	32790	32887	32674	32775	32658	32607	
1843	0	32817	32773	32787	32703	32443	32695	32615	32623	
1844	0	32782	32727	32745	32755	32708	32809	32731	32751	
1845	0	32828	32519	32801	32799	32677	32764	32703	32759	
1846	0	32861	32701	32817	32799	32620	32831	32643	32712	
1847	0	32821	32709	32753	32815	32633	32717	32678	32741	
1848	0	32782	32629	32732	32763	32575	32732	32723	32621	
1849	0	32795	32820	32687	32669	32679	32721	32631	32633	
1850	0	32767	32689	32687	32711	32669	32790	32773	32699	
1851	0	32751	32709	32787	32676	32470	32663	32786	32690	
1852	0	32742	32589	32647	32661	32697	32845	32675	32743	
1853	0	32797	32793	32659	32731	32685	32865	32730	32663	
1854	0	32804	32687	32703	32743	32539	32823	32679	32719	
1855	0	32754	32671	32699	32827	32591	32775	32725	32751	
1856	0	32788	32543	32791	32770	32727	32579	32775	32803	
1857	0	32711	32767	32814	32823	32470	32751	32719	32655	
1858	0	32773	32699	32807	32766	32679	32791	32727	32775	
1859	0	32718	32767	32735	32852	32588	32727	32661	32759	
1860	0	32730	32525	32790	32839	32614	32791	32663	32694	
1861	0	32775	32755	32870	32819	32598	32762	32621	32679	
1862	0	32793	32637	32743	32763	32630	32707	32692	32711	
1863	0	32764	32695	32817	32729	32465	32851	32767	32751	
1864	0	32773	32690	32797	32734	32711	32759	32681	32745	
1865	0	32759	32839	32850	32662	32743	32607	32727	32671	
1866	0	32870	32751	32883	32748	32647	32727	32669	32703	
1867	0	32825	32607	32859	32742	32670	32773	32683	32731	
1868	0	32885	32719	32860	32743	32571	32705	32725	32735	
1869	0	32814	32732	32805	32797	32773	32847	32671	32788	
1870	0	32801	32588	32771	32661	32578	32763	32667	32677	
1871	0	32825	32818	32775	32691	32708	32851	32775	32686	
1872	0	32821	32630	32719	32681	32754	32647	32623	32785	
1873	0	32829	32722	32707	32669	32621	32791	32721	32733	
1874	0	32846	32571	32773	32703	32743	32854	32729	32695	
1875	0	32871	32775	32647	32673	32679	32826	32771	32700	
1876	0	32826	32687	32702	32661	32589	32847	32797	32761	
1877	0	32900	32702	32799	32715	32759	32647	32694	32742	
1878	0	32806	32607	32812	32709	32604	32694	32759	32582	
1879	0	32788	32775	32764	32733	32519	32743	32686	32683	
1880	0	32793	32631	32877	32791	32643	32743	32770	32759	
1881	0	32745	32717	32771	32767	32669	32611	32767	32740	
1882	0	32825	32825	32771	32787	32719	32655	32679	32694	
1883	0	32769	32711	32868	32819	32639	32695	32775	32675	
1884	0	32756	32723	32771	32850	32634	32814	32698	32775	
1885	0	32742	32556	32791	32757	32669	32757	32787	32766	
1886	0	32743	32791	32811	32775	32623	32623	32763	32749	
1887	0	32772	32735	32733	32775	32705	32581	32775	32772	
1888	0	32833	32706	32747	32771	32635	32773	32771	32727	
1889	0	32828	32665	32757	32775	32636	32734	32687	32679	
1890	0	32792	32799	32796	32766	32655	32703	32751	32679	
1891	0	32782	32701	32663	32811	32559	32759	32647	32751	
1892	0	32733	32663	32675	32775	32734	32711	32786	32711	
1893	0	32789	32770	32707	32751	32748	32613	32663	32684	
1894	0	32848	32463	32718	32807	32500	32753	32761	32725	
1895	0	32794	32694	32734	32839	32695	32719	32647	32729	
1896	0	32775	32507	32767	32785	32619	32775	32660	32583	
1897	0	32770	32563	32757	32775	32735	32647	32775	32612	
1898	0	32757	32466	32711	32815	32661	32742	32701	32687	
1899	0	32759	32742	32707	32823	32687	32799	32739	32706	
1900	0	32745	32676	32756	32829	32557	32718	32661	32548	
1901	0	32758	32575	32807	32891	32748	32773	32747	32716	
1902	0	32710	32643	32775	32815	32699	32815	32674	32663	
1903	0	32712	32519	32703	32775	32503	32619	32775	32655	
1904	0	32769	32749	32775	32781	32607	32789	32669	32735	
1905	0	32752	32709	32821	32787	32685	32843	32773	32793	
1906	0	32731	32724	32739	32775	32588	32759	32793	32707	
1907	0	32703	32542	32710	32831	32748	32621	32612	32647	
1908	0	32673	32783	32735	32839	32686	32767	32773	32791	
1909	0	32745	32639	32679	32791	32551	32815	32660	32757	
1910	0	32766	32726	32711	32775	32803	32815	32727	32743	
1911	0	32786	32519	32745	32791	32714	32721	32687	32791	
1912	0	32816	32803	32726	32738	32551	32836	32666	32724	
1913	0	32742	32647	32698	32711	32751	32839	32689	32751	
1914	0	32797	32695	32740	32646	32647	32775	32593	32642	
1915	0	32711	32531	32823	32725	32735	32708	32713	32671	
1916	0	32751	32738	32796	32737	32669	32678	32571	32727	
1917	0	32732	32670	32711	32782	32631	32831	32699	32734	
1918	0	32706	32633	32759	32750	32743	32867	32703	32647	
1919	0	32671	32679	32791	32739	32663	32773	32703	32715	
1920	0	32700	32775	32767	32727	32717	32832	32743	32760	
1921	0	32738	32661	32732	32735	32654	32715	32647	32687	
1922	0	32739	32570	32847	32732	32721	32815	32806	32685	
1923	0	32775	32751	32785	32757	32559	32834	32802	32690	
1924	0	32790	32707	32739	32807	32717	32765	32721	32671	
1925	0	32725	32583	32775	32832	32687	32663	32751	32745	
1926	0	32738	32811	32695	32751	32767	32795	32727	32735	
1927	0	32711	32679	32722	32686	32775	32727	32601	32699	
1928	0	32713	32742	32775	32751	32516	32729	32685	32771	
1929	0	32743	32612	32631	32755	32741	32799	32569	32769	
1930	0	32669	32807	32743	32743	32747	32720	32691	32775	
1931	0	32717	32621	32767	32710	32595	32788	32723	32709	
1932	0	32831	32627	32708	32742	32715	32819	32631	32707	
1933	0	32740	32411	32751	32695	32698	32784	32763	32761	
1934	0	32734	32577	32809	32661	32763	32799	32769	32755	
1935	0	32775	32581	32727	32734	32687	32687	32662	32703	
1936	0	32734	32700	32839	32753	32516	32773	32694	32671	
1937	0	32749	32556	32751	32775	32731	32831	32773	32751	
1938	0	32762	32577	32793	32759	32695	32795	32693	32679	
1939	0	32703	32575	32876	32763	32613	32698	32719	32739	
1940	0	32692	32623	32815	32727	32727	32805	32751	32665	
1941	0	32692	32503	32727	32742	32505	32756	32666	32666	
1942	0	32656	32711	32723	32692	32697	32751	32767	32665	
1943	0	32709	32749	32791	32715	32530	32623	32759	32742	
1944	0	32734	32505	32815	32748	32791	32773	32683	32695	
1945	0	32762	32723	32743	32694	32828	32761	32722	32719	
1946	0	32773	32763	32815	32737	32678	32828	32820	32566	
1947	0	32810	32591	32773	32794	32711	32679	32765	32724	
1948	0	32815	32659	32773	32789	32787	32581	32709	32738	
1949	0	32756	32803	32764	32847	32641	32662	32719	32647	
1950	0	32815	32751	32783	32797	32711	32835	32789	32692	
1951	0	32844	32549	32706	32799	32591	32747	32655	32724	
1952	0	32752	32791	32739	32855	32797	32879	32839	32734	
1953	0	32799	32702	32745	32828	32701	32706	32759	32724	
1954	0	32740	32567	32761	32813	32751	32805	32626	32740	
1955	0	32751	32742	32737	32857	32671	32735	32748	32671	
1956	0	32775	32557	32727	32846	32514	32695	32751	32596	
1957	0	32804	32646	32803	32791	32692	32663	32678	32765	
1958	0	32789	32543	32731	32775	32663	32751	32663	32749	
1959	0	32754	32707	32751	32742	32551	32775	32631	32757	
1960	0	32763	32699	32753	32666	32604	32771	32723	32669	
1961	0	32742	32557	32709	32771	32455	32643	32743	32663	
1962	0	32722	32681	32724	32743	32674	32619	32583	32791	
1963	0	32678	32667	32627	32757	32703	32759	32691	32739	
1964	0	32679	32529	32727	32698	32586	32687	32643	32668	
1965	0	32719	32839	32679	32737	32723	32742	32738	32655	
1966	0	32700	32669	32638	32799	32695	32603	32740	32719	
1967	0	32785	32573	32711	32795	32783	32595	32679	32749	
1968	0	32767	32583	32743	32807	32743	32745	32775	32775	
1969	0	32761	32647	32772	32703	32551	32731	32655	32667	
1970	0	32767	32687	32769	32723	32868	32773	32727	32807	
1971	0	32803	32583	32793	32751	32811	32671	32751	32743	
1972	0	32745	32647	32677	32733	32586	32671	32647	32802	
1973	0	32753	32677	32751	32727	32691	32839	32766	32663	
1974	0	32738	32621	32701	32718	32719	32749	32731	32819	
1975	0	32694	32733	32671	32787	32548	32820	32715	32743	
1976	0	32775	32647	32743	32700	32590	32647	32787	32766	
1977	0	32812	32567	32756	32711	32451	32775	32791	32721	
1978	0	32775	32772	32767	32699	32659	32738	32825	32671	
1979	0	32701	32607	32855	32787	32763	32775	32758	32711	
1980	0	32775	32647	32815	32791	32614	32735	32633	32725	
1981	0	32687	32579	32815	32818	32727	32646	32797	32743	
1982	0	32744	32811	32845	32839	32681	32775	32827	32617	
1983	0	32684	32727	32797	32839	32646	32813	32747	32754	
1984	0	32737	32763	32830	32751	32743	32790	32749	32738	
1985	0	32749	32511	32820	32807	32578	32819	32675	32695	
1986	0	32756	32799	32765	32791	32717	32773	32723	32643	
1987	0	32785	32655	32809	32850	32655	32663	32735	32607	
1988	0	32722	32738	32823	32871	32523	32817	32625	32733	
1989	0	32792	32543	32706	32788	32700	32818	32709	32751	
1990	0	32766	32711	32714	32826	32695	32743	32647	32731	
1991	0	32721	32647	32713	32738	32743	32807	32757	32660	
1992	0	32743	32567	32685	32709	32695	32669	32732	32647	
1993	0	32771	32559	32663	32727	32762	32669	32681	32701	
1994	0	32747	32663	32783	32703	32761	32765	32729	32679	
1995	0	32775	32639	32727	32703	32695	32767	32663	32679	
1996	0	32762	32615	32743	32715	32543	32821	32823	32687	
1997	0	32719	32471	32791	32699	32724	32782	32706	32783	
1998	0	32730	32765	32747	32719	32647	32719	32823	32791	
1999	0	32739	32727	32713	32703	32641	32663	32819	32735	
2000	0	32783	32743	32726	32662	32566	32761	32699	32676	
2001	0	32786	32548	32681	32683	32620	32765	32749	32771	
2002	0	32806	32719	32798	32802	32719	32686	32699	32642	
2003	0	32730	32639	32863	32829	32612	32826	32715	32698	
2004	0	32719	32611	32796	32795	32597	32758	32788	32663	
2005	0	32732	32611	32753	32773	32647	32735	32665	32769	
2006	0	32734	32685	32811	32827	32558	32819	32734	32719	
2007	0	32769	32755	32830	32790	32629	32763	32647	32769	
2008	0	32783	32571	32775	32751	32575	32788	32767	32617	
2009	0	32812	32710	32699	32761	32718	32790	32646	32663	
2010	0	32791	32662	32727	32738	32661	32699	32709	32675	
2011	0	32788	32559	32671	32733	32705	32655	32645	32747	
2012	0	32737	32687	32627	32751	32546	32647	32737	32634	
2013	0	32775	32551	32725	32729	32797	32849	32647	32743	
2014	0	32759	32749	32759	32765	32775	32814	32673	32753	
2015	0	32764	32695	32773	32828	32759	32823	32739	32742	
2016	0	32775	32843	32858	32755	32671	32581	32647	32773	
2017	0	32775	32593	32859	32681	32743	32775	32679	32802	
2018	0	32806	32655	32899	32775	32668	32731	32797	32724	
2019	0	32748	32823	32963	32767	32631	32643	32821	32691	
2020	0	32754	32687	33007	32791	32725	32671	32676	32719	
2021	0	32720	32695	32934	32814	32731	32775	32705	32735	
2022	0	32775	32563	32883	32805	32471	32783	32679	32821	
2023	0	32775	32671	32927	32815	32671	32799	32731	32711	
2024	0	32734	32601	32900	32839	32607	32609	32823	32711	
2025	0	32755	32547	32887	32795	32828	32815	32803	32772	
2026	0	32724	32711	32807	32694	32704	32763	32581	32763	
2027	0	32706	32775	32775	32718	32498	32771	32719	32759	
2028	0	32714	32543	32815	32771	32719	32671	32839	32751	
2029	0	32760	32711	32763	32797	32647	32769	32709	32687	
2030	0	32815	32647	32816	32836	32738	32790	32725	32639	
2031	0	32856	32787	32805	32823	32751	32639	32738	32658	
2032	0	32782	32755	32821	32797	32607	32854	32615	32739	
2033	0	32823	32791	32815	32734	32626	32799	32716	32727	
2034	0	32782	32567	32789	32719	32663	32775	32669	32791	
2035	0	32775	32775	32743	32766	32789	32740	32767	32709	
2036	0	32780	32647	32789	32690	32737	32663	32733	32733	
2037	0	32773	32623	32771	32647	32679	32804	32718	32775	
2038	0	32751	32669	32823	32766	32747	32789	32711	32751	
2039	0	32806	32631	32739	32735	32699	32605	32807	32817	
2040	0	32785	32567	32855	32732	32759	32751	32742	32719	
2041	0	32770	32737	32767	32708	32495	32743	32699	32724	
2042	0	32785	32775	32843	32647	32690	32691	32788	32655	
2043	0	32727	32613	32815	32685	32642	32863	32703	32619	
2044	0	32752	32727	32842	32695	32711	32807	32617	32731	
2045	0	32832	32647	32846	32685	32663	32817	32755	32767	
2046	0	32807	32495	32725	32745	32516	32741	32615	32681	
2047	0	32724	32767	32754	32789	32743	32615	32724	32639	
2048	0	32761	32703	32807	32741	32668	32790	32671	32567	
2049	0	32783	32485	32698	32804	32703	32811	32638	32619	
2050	0	32769	32677	32687	32795	32711	32642	32783	32719	
2051	0	32778	32621	32731	32653	32539	32839	32721	32709	
2052	0	32818	32641	32661	32765	32737	32775	32567	32743	
2053	0	32791	32548	32647	32771	32710	32751	32734	32670	
2054	0	32813	32764	32663	32671	32681	32676	32647	32831	
2055	0	32732	32557	32669	32701	32724	32691	32791	32775	
2056	0	32684	32602	32676	32811	32647	32743	32751	32773	
2057	0	32710	32478	32681	32743	32619	32713	32609	32647	
2058	0	32698	32751	32655	32843	32735	32769	32743	32739	
2059	0	32753	32634	32686	32791	32671	32669	32623	32707	
2060	0	32711	32634	32719	32826	32583	32615	32735	32677	
2061	0	32783	32759	32693	32791	32642	32769	32725	32638	
2062	0	32716	32714	32735	32795	32605	32715	32679	32766	
2063	0	32762	32725	32831	32815	32757	32751	32795	32709	
2064	0	32754	32595	32735	32858	32683	32683	32757	32772	
2065	0	32726	32775	32751	32892	32559	32763	32711	32643	
2066	0	32768	32663	32775	32796	32679	32747	32692	32722	
2067	0	32759	32681	32739	32705	32734	32749	32687	32751	
2068	0	32822	32540	32785	32699	32549	32603	32775	32733	
2069	0	32809	32707	32711	32727	32703	32775	32742	32727	
2070	0	32794	32637	32722	32751	32750	32895	32719	32628	
2071	0	32762	32595	32756	32750	32751	32846	32767	32647	
2072	0	32811	32767	32687	32764	32710	32685	32789	32723	
2073	0	32782	32647	32724	32783	32558	32827	32667	32687	
2074	0	32780	32677	32679	32858	32742	32775	32733	32731	
2075	0	32725	32519	32647	32775	32747	32794	32689	32659	
2076	0	32775	32735	32655	32799	32607	32684	32797	32685	
2077	0	32799	32621	32687	32766	32716	32767	32775	32763	
2078	0	32727	32695	32698	32719	32707	32823	32731	32714	
2079	0	32787	32601	32771	32687	32615	32719	32815	32677	
2080	0	32783	32763	32759	32684	32642	32839	32767	32633	
2081	0	32800	32711	32709	32647	32661	32642	32731	32738	
2082	0	32781	32663	32791	32647	32583	32783	32671	32723	
2083	0	32767	32638	32852	32626	32663	32850	32855	32708	
2084	0	32798	32719	32822	32711	32695	32663	32775	32683	
2085	0	32763	32743	32788	32751	32724	32739	32586	32745	
2086	0	32759	32572	32805	32735	32647	32669	32815	32717	
2087	0	32745	32829	32669	32773	32527	32807	32734	32789	
2088	0	32756	32623	32671	32834	32765	32713	32687	32767	
2089	0	32769	32727	32703	32775	32737	32743	32731	32634	
2090	0	32844	32543	32675	32785	32575	32597	32706	32726	
2091	0	32756	32671	32727	32701	32695	32734	32603	32698	
2092	0	32698	32567	32647	32767	32591	32806	32699	32700	
2093	0	32846	32727	32655	32845	32690	32671	32695	32643	
2094	0	32841	32660	32703	32805	32687	32759	32563	32775	
2095	0	32799	32694	32681	32820	32721	32727	32799	32758	
2096	0	32686	32542	32663	32783	32710	32871	32687	32719	
2097	0	32774	32687	32725	32735	32533	32791	32647	32647	
2098	0	32856	32679	32811	32783	32637	32771	32702	32727	
2099	0	32806	32563	32831	32775	32579	32759	32731	32751	
2100	0	32783	32734	32787	32743	32757	32679	32647	32725	
2101	0	32816	32667	32775	32715	32726	32759	32731	32765	
2102	0	32746	32630	32759	32838	32523	32749	32819	32727	
2103	0	32806	32759	32761	32711	32629	32793	32733	32676	
2104	0	32814	32631	32796	32647	32515	32595	32807	32671	
2105	0	32765	32617	32711	32643	32671	32767	32775	32727	
2106	0	32783	32594	32709	32675	32676	32796	32663	32703	
2107	0	32708	32726	32775	32701	32508	32710	32679	32684	
2108	0	32694	32669	32687	32759	32669	32703	32619	32679	
2109	0	32815	32583	32751	32727	32647	32647	32728	32775	
2110	0	32694	32783	32783	32775	32769	32811	32775	32754	
2111	0	32729	32594	32790	32749	32751	32734	32602	32751	
2112	0	32788	32681	32743	32775	32575	32859	32767	32707	
2113	0	32775	32605	32791	32756	32765	32642	32749	32854	
2114	0	32728	32473	32735	32791	32804	32757	32775	32791	
2115	0	32704	32671	32690	32843	32633	32823	32763	32754	
2116	0	32671	32583	32796	32839	32767	32722	32609	32683	
2117	0	32690	32567	32667	32759	32594	32807	32727	32661	
2118	0	32751	32709	32797	32699	32733	32663	32759	32703	
2119	0	32716	32607	32723	32759	32775	32862	32687	32717	
2120	0	32705	32711	32759	32798	32608	32718	32735	32730	
2121	0	32760	32555	32743	32775	32703	32775	32660	32603	
2122	0	32740	32771	32655	32847	32639	32775	32786	32723	
2123	0	32708	32714	32678	32775	32583	32633	32711	32699	
2124	0	32734	32743	32719	32775	32630	32827	32759	32703	
2125	0	32745	32551	32711	32745	32603	32749	32813	32679	
2126	0	32727	32801	32734	32695	32674	32719	32634	32693	
2127	0	32816	32755	32805	32807	32679	32627	32753	32735	
2128	0	32769	32795	32791	32818	32585	32807	32665	32739	
2129	0	32784	32605	32767	32785	32731	32715	32772	32695	
2130	0	32754	32799	32785	32751	32703	32741	32775	32677	
2131	0	32775	32685	32745	32725	32647	32673	32647	32773	
2132	0	32800	32703	32758	32790	32714	32775	32711	32690	
2133	0	32782	32535	32705	32807	32446	32775	32704	32743	
2134	0	32842	32629	32815	32811	32734	32642	32631	32735	
2135	0	32807	32743	32716	32847	32694	32743	32775	32655	
2136	0	32811	32503	32711	32845	32638	32775	32711	32743	
2137	0	32833	32713	32767	32795	32727	32676	32783	32743	
2138	0	32767	32660	32783	32735	32647	32759	32819	32766	
2139	0	32788	32621	32767	32815	32588	32639	32646	32623	
2140	0	32765	32509	32827	32764	32707	32764	32802	32647	
2141	0	32824	32535	32796	32692	32655	32823	32647	32757	
2142	0	32718	32595	32767	32665	32671	32807	32739	32647	
2143	0	32735	32615	32817	32647	32647	32747	32789	32630	
2144	0	32694	32660	32796	32557	32591	32575	32743	32723	
2145	0	32720	32762	32731	32633	32669	32841	32771	32773	
2146	0	32767	32623	32771	32773	32715	32677	32694	32695	
2147	0	32732	32623	32671	32809	32636	32733	32719	32719	
