# OpenSignals Text File Format
# {"00:07:80:64:6D:DA": {"sensor": ["CUSTOM/0.5/1.0/V", "CUSTOM/0.5/1.0/V", "CUSTOM/0.5/1.0/V", "CUSTOM/0.5/1.0/V"], "device name": "Platform", "column": ["nSeq", "DI", "CH1", "CH2", "CH3", "CH4"], "sync interval": 2, "time": "11:17:39.78", "comments": "", "device connection": "BTH00:07:80:64:6D:DA", "channels": [1, 2, 3, 4], "date": "2017-6-16", "mode": 0, "digital IO": [0, 1], "firmware version": 772, "device": "biosignalsplux", "position": 0, "sampling rate": 1000, "label": ["CH1", "CH2", "CH3", "CH4"], "resolution": [16, 16, 16, 16], "special": [{}, {}, {}, {}]}, "00:07:80:3B:46:38": {"sensor": ["EMG", "EMG", "EMG", "EMG", "EMG", "EMG", "EMG", "EMG"], "device name": "EMGs", "column": ["nSeq", "DI", "X", "CH2", "CH3", "CH4", "CH5", "CH6", "CH7", "CH8"], "sync interval": 2, "time": "11:17:39.78", "comments": "", "device connection": "BTH00:07:80:3B:46:38", "channels": [1, 2, 3, 4, 5, 6, 7, 8], "date": "2017-6-16", "mode": 0, "digital IO": [0, 1], "firmware version": 772, "device": "biosignalsplux", "position": 1, "sampling rate": 1000, "label": ["X", "CH2", "CH3", "CH4", "CH5", "CH6", "CH7", "CH8"], "resolution": [16, 16, 16, 16, 16, 16, 16, 16], "special": [{}, {}, {}, {}, {}, {}, {}, {}]}}
# EndOfHeader
527	0	5459	6459	12236	13736	0	0	32724	32803	32903	32715	32774	33170	32694	32815	
528	0	5441	6446	12278	13709	1	0	32810	32791	32903	32679	32767	33019	32790	32659	
529	0	5430	6501	12248	13704	2	0	32814	32807	32956	32679	32775	32515	32797	32503	
530	0	5388	6471	12221	13704	3	0	32772	32775	32835	32811	32823	32384	32903	32743	
531	0	5400	6468	12281	13706	4	0	32708	32743	32608	32740	32615	32782	32825	32903	
532	0	5465	6501	12264	13690	5	0	32770	32671	32767	32745	32771	33245	32711	32988	
533	0	5417	6473	12221	13672	6	0	32811	32727	33037	32703	32841	33159	32729	32740	
534	0	5424	6476	12214	13672	7	0	32839	32759	33019	32788	32775	32788	32717	32999	
535	0	5418	6532	12245	13733	8	0	32843	32713	32966	32807	32711	32325	32796	32875	
536	0	5407	6477	12222	13694	9	0	32858	32731	33038	32772	32734	32344	32646	32655	
537	0	5445	6474	12250	13682	10	0	32766	32671	33177	32766	32666	32839	32663	32617	
538	0	5415	6490	12220	13682	11	0	32775	32677	32999	32747	32330	33092	32671	32655	
539	0	5436	6466	12241	13696	12	0	32743	32739	32903	32725	32529	32923	32691	32669	
540	0	5400	6488	12205	13714	13	0	32734	32791	32884	32683	32823	32629	32745	32436	
541	0	5398	6504	12230	13688	14	0	32741	32748	32615	32655	32751	32175	32818	32700	
542	0	5406	6480	12253	13699	15	0	32719	32797	32482	32732	32671	32318	32957	32818	
543	0	5423	6478	12224	13704	16	0	32771	32827	32442	32767	32628	33036	32837	32804	
544	0	5448	6479	12256	13727	17	0	32708	32803	32340	32765	32623	33281	32555	32586	
545	0	5450	6507	12252	13672	18	0	32710	32671	32330	32775	32781	33159	32586	32842	
546	0	5449	6480	12232	13666	19	0	32759	32755	32473	32759	32759	32623	32675	32884	
547	0	5397	6447	12256	13658	20	0	32823	32715	32482	32714	32838	32155	32789	32695	
548	0	5374	6482	12234	13676	21	0	32742	32621	32474	32727	32771	32559	32802	32647	
549	0	5413	6454	12280	13648	22	0	32767	32751	32727	32828	32594	32837	32979	32775	
550	0	5414	6464	12184	13698	23	0	32751	32753	32575	32815	32635	33053	32991	32567	
551	0	5428	6522	12230	13709	24	0	32781	32738	32695	32821	32444	32763	32946	32765	
552	0	5387	6478	12194	13700	25	0	32775	32711	32660	32605	32445	32415	32807	32719	
553	0	5416	6466	12206	13710	26	0	32788	32846	32698	32553	32711	32252	32773	32530	
554	0	5434	6492	12172	13732	27	0	32828	32807	32634	32570	32775	32853	32609	32805	
555	0	5425	6498	12229	13694	28	0	32728	32884	32572	32607	32804	33379	32607	32876	
556	0	5411	6486	12229	13700	29	0	32750	32923	32487	32647	32869	33341	32775	33015	
557	0	5413	6464	12204	13712	30	0	32706	32901	32477	32663	32789	32932	32894	32737	
558	0	5480	6467	12143	13686	31	0	32675	32915	32645	32607	32819	32263	32891	32909	
559	0	5392	6460	12157	13704	32	0	32661	32883	32685	32647	32503	32458	32893	32981	
560	0	5420	6466	12196	13685	33	0	32698	32847	32919	32685	32502	32914	32954	32735	
561	0	5432	6432	12225	13700	34	0	32745	32863	33254	32687	32263	33381	32931	32903	
562	0	5404	6456	12268	13712	35	0	32751	32894	33077	32775	32279	33003	32868	32815	
563	0	5414	6440	12240	13714	36	0	32765	32791	33287	32789	32509	32629	32807	32573	
564	0	5387	6480	12248	13632	37	0	32713	32743	33319	32753	32767	32208	32796	32775	
565	0	5429	6449	12156	13732	38	0	32806	32725	33179	32717	32895	32363	32605	32772	
566	0	5432	6500	12256	13690	39	0	32821	32775	33103	32775	32854	32599	32647	32607	
567	0	5429	6476	12204	13712	40	0	32807	32711	32990	32723	32775	33087	32727	32732	
568	0	5428	6464	12258	13723	41	0	32892	32735	33156	32786	32643	32863	32811	32871	
569	0	5410	6430	12244	13685	42	0	32847	32701	33039	32701	32633	32316	32811	32789	
570	0	5436	6494	12237	13693	43	0	32838	32749	32967	32711	32679	32045	32781	32857	
571	0	5426	6453	12202	13696	44	0	32762	32825	32855	32762	32657	32563	32733	32775	
572	0	5435	6517	12186	13698	45	0	32775	32884	32679	32775	32758	33229	32605	32385	
573	0	5404	6440	12176	13713	46	0	32804	32805	32571	32879	32804	33150	32587	32503	
574	0	5440	6466	12235	13666	47	0	32773	32759	32375	32894	32901	32871	32691	32568	
575	0	5420	6480	12206	13650	48	0	32767	32775	32495	32831	32843	32377	32822	32449	
576	0	5390	6512	12228	13704	49	0	32668	32807	32277	32852	32652	32447	32863	32630	
577	0	5411	6450	12230	13664	50	0	32711	32791	32281	32889	32507	32697	32815	32830	
578	0	5439	6488	12230	13684	51	0	32663	32815	32199	32818	32415	33382	32718	32685	
579	0	5420	6464	12206	13666	52	0	32754	32786	32071	32767	32607	33461	32829	32893	
580	0	5410	6448	12256	13658	53	0	32764	32719	32343	32602	32870	33006	32871	32882	
581	0	5414	6436	12203	13690	54	0	32832	32701	32579	32511	32756	32503	32710	32492	
582	0	5394	6435	12248	13662	55	0	32853	32711	32444	32591	32801	32426	32629	32471	
583	0	5414	6470	12255	13724	56	0	32722	32751	32340	32593	32939	32769	32717	32791	
584	0	5454	6458	12237	13749	57	0	32691	32802	32542	32647	32719	33388	32695	32931	
585	0	5472	6477	12257	13688	58	0	32672	32717	32455	32671	32629	33237	32668	32911	
586	0	5445	6438	12216	13696	59	0	32677	32707	32489	32599	32673	32733	32783	32775	
587	0	5392	6436	12273	13669	60	0	32709	32703	32735	32733	32428	32299	32782	32758	
588	0	5390	6482	12256	13677	61	0	32688	32745	32735	32793	32370	32247	32769	32605	
589	0	5440	6454	12238	13687	62	0	32775	32700	32789	32841	32546	32946	32823	32902	
590	0	5413	6488	12240	13649	63	0	32892	32711	32871	32903	32525	33254	33009	33127	
591	0	5421	6434	12312	13730	64	0	32865	32737	32715	32933	32538	33143	33023	32966	
592	0	5424	6421	12226	13736	65	0	32809	32772	32893	32852	32525	32447	32857	33119	
593	0	5420	6453	12254	13696	66	0	32756	32763	32836	32879	32735	32227	32543	32582	
594	0	5413	6457	12282	13698	67	0	32816	32863	32953	32865	32899	32451	32375	32276	
595	0	5424	6488	12272	13654	68	0	32763	32902	32991	32839	32765	32954	32551	32337	
596	0	5457	6451	12228	13688	69	0	32809	32791	33019	32790	32679	33255	32742	32279	
597	0	5409	6513	12216	13692	70	0	32738	32775	33087	32796	32982	32899	32923	32813	
598	0	5442	6476	12264	13728	71	0	32738	32793	33050	32666	33152	32287	32962	32971	
599	0	5371	6505	12249	13745	72	0	32721	32759	33311	32661	33228	31791	33065	33260	
600	0	5396	6508	12252	13708	73	0	32765	32743	33370	32661	33174	32103	32903	33271	
601	0	5380	6459	12237	13700	74	0	32813	32739	33466	32613	33177	32688	32709	32830	
602	0	5408	6500	12184	13678	75	0	32874	32727	33141	32662	32927	32951	32687	32855	
603	0	5442	6476	12246	13720	76	0	32900	32716	33093	32670	32599	32697	32717	32591	
604	0	5432	6436	12316	13673	77	0	32788	32767	32835	32622	32402	32244	32722	32771	
605	0	5421	6476	12292	13688	78	0	32717	32715	32695	32593	32186	32473	32745	32775	
606	0	5472	6523	12295	13680	79	0	32780	32715	32723	32548	32548	32869	32676	32735	
607	0	5390	6472	12249	13700	80	0	32751	32727	32540	32598	32516	33335	32709	32761	
608	0	5446	6458	12213	13742	81	0	32720	32693	32631	32692	32335	33243	32871	32683	
609	0	5444	6436	12236	13700	82	0	32657	32743	32451	32671	32439	32783	32818	32797	
610	0	5447	6494	12306	13725	83	0	32647	32831	32328	32717	32446	32327	32773	32836	
611	0	5460	6520	12232	13731	84	0	32677	32883	32524	32643	32474	32167	32730	32487	
612	0	5388	6425	12320	13712	85	0	32734	32842	32465	32663	32703	32810	32711	32575	
613	0	5432	6419	12227	13701	86	0	32764	32775	32582	32594	32765	33196	32775	32775	
614	0	5458	6466	12220	13708	87	0	32820	32771	32647	32609	32756	32957	32849	32565	
615	0	5444	6470	12248	13721	88	0	32873	32850	32735	32655	32811	32701	32807	32671	
616	0	5392	6476	12240	13713	89	0	32791	32699	32796	32603	32685	32417	32738	32615	
617	0	5422	6425	12284	13733	90	0	32818	32700	32655	32713	32726	32602	32723	32817	
618	0	5462	6468	12278	13712	91	0	32831	32694	32506	32635	32835	33299	32637	32773	
619	0	5411	6478	12241	13676	92	0	32841	32701	32359	32591	32657	33518	32575	32702	
620	0	5392	6472	12268	13705	93	0	32730	32767	32427	32715	32980	33106	32567	32668	
621	0	5412	6520	12227	13728	94	0	32852	32740	32604	32738	33116	32601	32677	32695	
622	0	5425	6436	12261	13699	95	0	32775	32727	32558	32655	32796	32260	32809	32903	
623	0	5436	6475	12255	13712	96	0	32773	32700	32609	32692	32632	32333	33013	32858	
624	0	5437	6495	12253	13664	97	0	32710	32719	32737	32767	32531	33092	33090	33023	
625	0	5396	6456	12266	13712	98	0	32677	32827	32919	32788	32555	33311	32962	32899	
626	0	5444	6480	12272	13700	99	0	32679	32899	32971	32901	32493	32820	32807	32919	
627	0	5472	6431	12232	13745	100	0	32633	32955	33255	32867	32617	32415	32679	32863	
628	0	5404	6462	12238	13728	101	0	32736	32887	33090	32785	32935	32327	32662	32519	
629	0	5399	6437	12258	13719	102	0	32708	32885	33046	32783	32951	32434	32785	32605	
630	0	5407	6425	12256	13697	103	0	32781	32855	32942	32735	32842	33071	32827	32671	
631	0	5456	6479	12290	13727	104	0	32745	32811	32773	32789	32695	33221	32685	32375	
632	0	5413	6473	12286	13712	105	0	32778	32721	32774	32805	32634	32669	32753	32823	
633	0	5459	6476	12244	13698	106	0	32737	32763	32473	32915	32515	32423	32745	33020	
634	0	5418	6472	12280	13752	107	0	32809	32817	32564	32799	32439	32578	32855	32754	
635	0	5400	6457	12280	13672	108	0	32756	32868	32447	32815	32855	32903	32923	32961	
636	0	5456	6461	12253	13669	109	0	32730	32827	32497	32775	33026	33357	32890	32850	
637	0	5450	6425	12262	13752	110	0	32699	32844	32486	32751	32903	33007	32873	32729	
638	0	5414	6466	12236	13708	111	0	32708	32716	32559	32654	32823	32457	32823	32602	
639	0	5402	6439	12204	13718	112	0	32726	32711	32839	32634	32722	32135	32850	32474	
640	0	5385	6467	12226	13710	113	0	32756	32735	32775	32671	32607	32263	32711	32567	
641	0	5397	6409	12224	13728	114	0	32809	32773	32902	32647	32643	32858	32748	32757	
642	0	5474	6475	12240	13661	115	0	32780	32755	32697	32553	32783	33342	32765	32647	
643	0	5428	6496	12272	13728	116	0	32748	32783	32804	32496	32572	33095	32769	32845	
644	0	5456	6510	12252	13680	117	0	32807	32791	32717	32551	32601	32567	32790	32751	
645	0	5396	6468	12264	13700	118	0	32666	32711	32775	32525	32785	32423	32751	32867	
646	0	5389	6476	12241	13734	119	0	32696	32725	32995	32497	32879	32562	32865	32822	
647	0	5411	6475	12258	13724	120	0	32773	32753	33060	32506	32756	33044	32797	32606	
648	0	5436	6432	12266	13688	121	0	32809	32775	32894	32615	32515	33154	32867	32975	
649	0	5409	6453	12225	13718	122	0	32835	32843	32943	32745	32375	32589	32803	32773	
650	0	5454	6476	12304	13696	123	0	32823	32851	32805	32759	32485	32123	32703	32596	
651	0	5420	6429	12252	13686	124	0	32769	32837	32898	32703	32748	32254	32802	32766	
652	0	5452	6489	12227	13713	125	0	32833	32839	32911	32709	32821	32712	32858	32884	
653	0	5432	6457	12189	13754	126	0	32836	32831	32990	32668	32935	33351	32783	32580	
654	0	5424	6460	12252	13678	127	0	32900	32799	33019	32735	32865	33263	32735	32708	
655	0	5468	6448	12328	13697	128	0	32855	32767	32903	32796	32850	32734	32803	32825	
656	0	5419	6482	12242	13684	129	0	32879	32759	32937	32797	32799	32135	32711	32635	
657	0	5400	6436	12234	13720	130	0	32800	32735	32870	32823	32742	32245	32674	32829	
658	0	5379	6456	12257	13693	131	0	32749	32807	32631	32775	32716	32911	32637	32939	
659	0	5447	6478	12225	13656	132	0	32726	32797	32729	32729	32623	33197	32631	32639	
660	0	5413	6462	12259	13730	133	0	32711	32839	32557	32749	32475	33223	32591	32647	
661	0	5414	6472	12226	13730	134	0	32749	32823	32537	32760	32612	32691	32685	32898	
662	0	5451	6447	12248	13728	135	0	32676	32807	32342	32807	32596	32307	32713	32705	
663	0	5403	6449	12321	13715	136	0	32720	32749	32258	32898	32407	32614	32860	32743	
664	0	5410	6469	12277	13690	137	0	32706	32749	32215	32752	32501	33238	32876	32717	
665	0	5443	6416	12241	13720	138	0	32669	32706	32057	32703	32603	33241	32885	32825	
666	0	5406	6432	12261	13728	139	0	32662	32775	32123	32775	32717	32677	32881	32807	
667	0	5423	6456	12184	13676	140	0	32756	32703	32399	32820	32787	32263	32762	32807	
668	0	5404	6424	12248	13678	141	0	32738	32687	32432	32773	32863	32089	32724	32697	
669	0	5455	6465	12257	13724	142	0	32765	32765	32584	32811	32820	32534	32767	32421	
670	0	5394	6416	12210	13769	143	0	32791	32771	32640	32791	32727	33135	32763	32595	
671	0	5433	6461	12200	13680	144	0	32723	32714	32637	32839	32807	32935	32695	32613	
672	0	5416	6426	12254	13692	145	0	32742	32743	32847	32807	32750	32597	32703	32519	
673	0	5397	6444	12234	13722	146	0	32735	32747	32791	32813	32602	32143	32790	32748	
674	0	5398	6462	12248	13692	147	0	32784	32720	33132	32887	32517	32539	32785	32933	
675	0	5420	6421	12217	13720	148	0	32732	32754	33223	32887	32639	33069	32750	32833	
676	0	5384	6417	12296	13729	149	0	32740	32847	33159	32809	32670	33372	32743	32899	
677	0	5389	6384	12257	13693	150	0	32684	32817	33167	32661	32691	33364	32679	32911	
678	0	5445	6435	12289	13689	151	0	32700	32835	33063	32596	32699	32709	32677	32847	
679	0	5382	6394	12221	13762	152	0	32823	32767	33126	32469	32775	32415	32647	32727	
680	0	5425	6436	12238	13718	153	0	32808	32756	33039	32535	32867	32540	32723	32742	
681	0	5424	6402	12224	13696	154	0	32805	32790	32887	32535	32839	32903	32775	32726	
682	0	5386	6412	12226	13746	155	0	32807	32823	32829	32561	32793	33189	32887	32823	
683	0	5384	6472	12246	13728	156	0	32807	32881	32579	32595	32551	32813	32829	32696	
684	0	5395	6449	12253	13769	157	0	32801	32838	32598	32559	32663	32231	32793	32765	
685	0	5434	6434	12186	13730	158	0	32751	32831	32839	32628	32625	32259	32859	32543	
686	0	5405	6422	12277	13728	159	0	32713	32830	32796	32613	32679	32637	32815	32596	
687	0	5428	6412	12234	13726	160	0	32683	32822	32833	32711	32647	33076	32601	32604	
688	0	5404	6429	12265	13760	161	0	32757	32805	32871	32807	32545	33388	32691	32571	
689	0	5402	6444	12245	13713	162	0	32764	32771	32798	32852	32763	32992	32643	32551	
690	0	5418	6392	12232	13742	163	0	32765	32790	32855	32751	33093	32437	32647	32576	
691	0	5413	6432	12252	13680	164	0	32748	32851	32786	32757	33028	32084	32661	32775	
692	0	5401	6462	12293	13754	165	0	32718	32804	32690	32807	32631	32493	32676	32700	
693	0	5397	6412	12305	13714	166	0	32710	32846	32745	32801	32157	32983	32813	32911	
694	0	5409	6403	12242	13722	167	0	32764	32799	32807	32871	32181	33183	32811	33041	
695	0	5390	6439	12273	13696	168	0	32773	32775	32551	32903	32430	32749	32711	32735	
696	0	5411	6413	12285	13762	169	0	32751	32807	32661	32942	32775	32391	32722	32647	
697	0	5405	6408	12272	13762	170	0	32820	32781	32713	32926	33030	32321	32775	32788	
698	0	5452	6396	12218	13744	171	0	32753	32775	32543	32875	32833	32566	32860	32719	
699	0	5382	6400	12284	13734	172	0	32805	32764	32588	32839	32510	33236	32967	32935	
700	0	5411	6424	12268	13744	173	0	32775	32769	32479	32834	32498	33207	32894	32717	
701	0	5449	6416	12296	13732	174	0	32783	32731	32647	32739	32641	32757	32845	32911	
702	0	5388	6401	12306	13765	175	0	32796	32702	32607	32692	32713	32330	32711	32925	
703	0	5413	6389	12278	13708	176	0	32818	32743	32730	32615	32647	32575	32811	32809	
704	0	5393	6420	12296	13776	177	0	32660	32847	32797	32566	32511	32984	32829	32929	
705	0	5392	6404	12248	13756	178	0	32724	32836	32661	32525	32636	33299	32791	32831	
706	0	5380	6375	12257	13732	179	0	32676	32758	32711	32388	32734	32823	32732	32697	
707	0	5412	6389	12277	13798	180	0	32724	32678	32564	32455	32749	32295	32703	32876	
708	0	5385	6379	12306	13716	181	0	32734	32757	32567	32581	32671	31980	32686	32943	
709	0	5397	6397	12296	13733	182	0	32806	32740	32684	32574	32692	32403	32736	32731	
710	0	5393	6404	12344	13780	183	0	32810	32735	32847	32602	32793	33010	32679	32795	
711	0	5383	6368	12268	13756	184	0	32816	32723	32800	32635	32823	33276	32663	32945	
712	0	5395	6385	12251	13741	185	0	32806	32734	32799	32703	32699	32875	32739	32541	
713	0	5401	6387	12240	13754	186	0	32787	32755	32935	32772	32675	32493	32815	32684	
714	0	5393	6372	12302	13754	187	0	32858	32769	33028	32799	32685	32423	32863	32783	
715	0	5405	6388	12296	13749	188	0	32754	32663	33239	32830	32775	32799	32802	32635	
716	0	5383	6372	12266	13720	189	0	32754	32659	33257	32821	32639	33036	32754	32791	
717	0	5405	6436	12312	13722	190	0	32740	32693	33014	32749	32807	33191	32726	32790	
718	0	5384	6450	12298	13712	191	0	32687	32799	32823	32787	32935	32644	32749	32669	
719	0	5383	6410	12282	13760	192	0	32711	32855	32726	32815	32763	32165	32698	32771	
720	0	5367	6389	12300	13754	193	0	32697	32814	32647	32753	32527	32255	32632	32876	
721	0	5440	6386	12296	13749	194	0	32734	32805	32751	32712	32487	32803	32738	33047	
722	0	5427	6352	12282	13781	195	0	32810	32765	32760	32727	32711	33411	32748	32789	
723	0	5368	6410	12234	13802	196	0	32756	32775	32769	32803	32711	33307	32727	32647	
724	0	5376	6386	12284	13736	197	0	32714	32775	32727	32747	32763	32722	32734	32637	
725	0	5394	6364	12260	13744	198	0	32734	32794	32701	32647	32663	32251	32684	32541	
726	0	5385	6353	12313	13764	199	0	32759	32821	32660	32804	32442	32277	32644	32527	
727	0	5366	6380	12248	13758	200	0	32786	32767	32583	32860	32489	32811	32717	32557	
728	0	5385	6313	12285	13754	201	0	32765	32789	32335	32835	32677	33119	32659	32333	
729	0	5350	6330	12362	13775	202	0	32781	32871	32273	32843	32738	32948	32695	32539	
730	0	5420	6340	12272	13716	203	0	32786	32791	32319	32775	32807	32351	32867	32797	
731	0	5356	6327	12352	13757	204	0	32710	32815	32339	32733	32658	32376	32898	32759	
732	0	5394	6345	12283	13706	205	0	32673	32775	32359	32748	32595	32790	32935	32978	
733	0	5370	6322	12328	13754	206	0	32729	32881	32495	32691	32765	33295	32855	32911	
734	0	5389	6333	12269	13811	207	0	32756	32867	32600	32623	32695	33357	32839	32719	
735	0	5356	6336	12255	13752	208	0	32784	32801	32751	32555	32743	32939	32831	32834	
736	0	5324	6361	12382	13771	209	0	32775	32831	32957	32625	32849	32201	32775	32996	
737	0	5339	6340	12270	13776	210	0	32800	32815	32807	32622	32851	32214	32805	32725	
738	0	5384	6377	12388	13776	211	0	32710	32831	32867	32679	32755	32437	32801	32771	
739	0	5383	6305	12328	13784	212	0	32720	32803	32837	32754	32708	33077	32811	32967	
740	0	5386	6410	12358	13788	213	0	32722	32797	32836	32767	32758	33175	32787	32717	
741	0	5372	6316	12360	13828	214	0	32775	32795	33026	32707	32631	32679	32749	32831	
742	0	5362	6312	12284	13793	215	0	32804	32767	33039	32719	32740	32435	32791	32876	
743	0	5415	6357	12317	13760	216	0	32802	32737	33058	32735	32765	32559	32696	32606	
744	0	5384	6354	12276	13805	217	0	32717	32812	33095	32716	32900	33095	32687	32830	
745	0	5408	6331	12322	13776	218	0	32764	32814	32919	32671	32859	33191	32639	32836	
746	0	5438	6338	12306	13781	219	0	32715	32871	33003	32626	32996	32993	32631	32635	
747	0	5378	6292	12283	13762	220	0	32746	32775	32853	32621	32845	32455	32708	32852	
748	0	5348	6309	12332	13738	221	0	32812	32671	32771	32679	32541	32107	32647	32692	
749	0	5345	6318	12396	13796	222	0	32792	32655	32754	32679	32400	32293	32660	32809	
750	0	5360	6302	12277	13772	223	0	32861	32704	32850	32766	32351	33022	32765	32819	
751	0	5348	6350	12358	13768	224	0	32833	32751	32569	32847	32279	33159	32725	32563	
752	0	5375	6310	12304	13768	225	0	32828	32827	32571	32873	32250	33086	32671	32740	
753	0	5384	6332	12339	13750	226	0	32786	32762	32595	32839	32357	32583	32758	32639	
754	0	5395	6347	12328	13781	227	0	32856	32799	32624	32887	32540	32255	32827	32745	
755	0	5398	6310	12314	13790	228	0	32778	32862	32695	32848	32772	32641	32806	32830	
756	0	5345	6321	12290	13779	229	0	32780	32743	32722	32864	32725	33110	32669	32637	
757	0	5364	6313	12344	13774	230	0	32808	32857	32889	32850	32803	33315	32743	32731	
758	0	5360	6316	12304	13801	231	0	32700	32839	32868	32647	32819	32791	32833	32682	
759	0	5412	6311	12363	13788	232	0	32718	32827	32979	32631	32727	32175	32791	32933	
760	0	5361	6335	12376	13746	233	0	32731	32795	32885	32665	32829	32247	32834	32831	
761	0	5324	6330	12330	13780	234	0	32746	32738	32827	32663	32739	32492	32858	32943	
762	0	5342	6306	12339	13764	235	0	32711	32733	32871	32647	32743	33199	32743	32723	
763	0	5356	6260	12324	13781	236	0	32741	32783	32676	32597	32751	33115	32813	32687	
764	0	5310	6278	12300	13774	237	0	32733	32747	32645	32525	32717	32591	32849	32581	
765	0	5358	6262	12344	13802	238	0	32781	32717	32455	32583	32583	32169	32835	32532	
766	0	5389	6285	12382	13781	239	0	32799	32766	32484	32693	32530	32308	32775	32703	
767	0	5378	6275	12274	13778	240	0	32742	32791	32429	32695	32527	33014	32708	32630	
768	0	5337	6342	12398	13820	241	0	32858	32766	32683	32726	32663	33385	32642	32765	
769	0	5330	6272	12396	13801	242	0	32831	32839	32644	32837	32815	33127	32597	32767	
770	0	5358	6282	12376	13794	243	0	32775	32766	32803	32799	32706	32639	32683	32691	
771	0	5348	6244	12328	13782	244	0	32718	32807	32567	32713	32575	32106	32769	32850	
772	0	5324	6285	12376	13785	245	0	32725	32803	32825	32687	32495	32463	32805	32655	
773	0	5356	6221	12341	13798	246	0	32726	32759	32676	32658	32641	32878	32735	32870	
774	0	5284	6276	12394	13820	247	0	32818	32826	32757	32663	32635	33195	32767	32871	
775	0	5330	6292	12360	13762	248	0	32831	32821	32719	32679	32655	33101	32623	32756	
776	0	5322	6250	12391	13789	249	0	32765	32698	32735	32716	32791	32559	32700	32751	
777	0	5341	6246	12398	13798	250	0	32760	32725	32644	32677	32635	32209	32838	32701	
778	0	5301	6284	12427	13833	251	0	32716	32764	32895	32655	32699	32721	32887	32791	
779	0	5324	6297	12434	13826	252	0	32748	32743	32801	32644	32838	33241	32899	32775	
780	0	5347	6248	12440	13830	253	0	32692	32819	32819	32631	32982	33127	32911	32831	
781	0	5315	6253	12395	13801	254	0	32817	32751	32751	32603	32826	32803	32900	32678	
782	0	5313	6244	12416	13824	255	0	32774	32722	32819	32775	32709	32293	32862	32758	
783	0	5345	6261	12400	13813	256	0	32789	32713	33018	32735	32512	32157	32811	32797	
784	0	5332	6246	12360	13834	257	0	32794	32765	32819	32815	32492	32634	32694	32501	
785	0	5327	6268	12372	13837	258	0	32727	32802	32845	32827	32463	33225	32854	32790	
786	0	5322	6273	12403	13804	259	0	32733	32758	32803	32756	32351	33287	32933	32991	
787	0	5305	6230	12396	13856	260	0	32751	32723	32663	32659	32423	32879	32863	32759	
788	0	5320	6197	12466	13843	261	0	32757	32740	32983	32703	32634	32347	32807	32836	
789	0	5304	6277	12373	13845	262	0	32793	32722	32934	32619	32773	32442	32636	32694	
790	0	5338	6239	12410	13828	263	0	32805	32751	32909	32599	32607	32878	32743	32606	
791	0	5316	6238	12381	13827	264	0	32769	32871	32557	32578	32519	33196	32717	32611	
792	0	5307	6245	12426	13846	265	0	32745	32847	32572	32587	32293	33183	32590	32391	
793	0	5353	6192	12438	13874	266	0	32605	32869	32487	32679	32381	32549	32707	32489	
794	0	5342	6144	12433	13856	267	0	32667	32885	32460	32835	32767	32159	32910	32924	
795	0	5291	6202	12472	13820	268	0	32713	32756	32591	32839	32855	32231	32811	32943	
796	0	5325	6198	12457	13828	269	0	32807	32730	32748	32940	32855	32919	32740	32873	
797	0	5307	6224	12475	13892	270	0	32847	32773	32527	32933	32749	33257	32719	33059	
798	0	5291	6176	12364	13859	271	0	32871	32802	32575	32948	32814	33231	32887	33039	
799	0	5332	6220	12451	13836	272	0	32778	32862	32559	32932	32971	32513	32873	32911	
800	0	5311	6233	12430	13850	273	0	32767	32843	32523	32851	32929	32277	32757	32703	
801	0	5349	6212	12514	13872	274	0	32660	32793	32530	32773	32787	32364	32671	32690	
802	0	5320	6224	12454	13856	275	0	32676	32783	32508	32762	32647	32959	32678	32662	
803	0	5331	6230	12483	13857	276	0	32711	32710	32595	32871	32535	33154	32743	32586	
804	0	5268	6211	12468	13832	277	0	32663	32819	32830	32831	32517	32837	32754	32827	
805	0	5332	6194	12498	13888	278	0	32724	32866	32883	32835	32647	32164	32854	32943	
806	0	5305	6210	12466	13849	279	0	32761	32799	33031	32819	32617	32027	32785	32634	
807	0	5262	6184	12426	13846	280	0	32703	32854	32959	32826	32645	32550	32809	32799	
808	0	5317	6204	12504	13890	281	0	32769	32813	33011	32804	32647	33238	32767	32837	
809	0	5308	6163	12461	13846	282	0	32730	32839	33113	32697	32541	33437	32823	32611	
810	0	5294	6187	12474	13896	283	0	32749	32775	32911	32743	32475	32927	32846	32754	
811	0	5322	6189	12556	13892	284	0	32775	32717	32871	32692	32482	32535	32895	32885	
812	0	5294	6165	12478	13876	285	0	32796	32685	32751	32748	32677	32278	32927	32646	
813	0	5326	6179	12530	13864	286	0	32724	32741	32806	32764	32775	32583	32737	32647	
814	0	5296	6170	12536	13848	287	0	32796	32752	32963	32783	32903	33119	32621	32423	
815	0	5319	6148	12458	13888	288	0	32788	32726	32835	32823	32741	33298	32749	32647	
816	0	5312	6198	12516	13876	289	0	32759	32677	33103	32791	32647	32835	32745	32814	
817	0	5313	6147	12528	13858	290	0	32785	32719	32895	32804	32509	32107	32690	32587	
818	0	5237	6166	12493	13896	291	0	32770	32775	32831	32716	32511	32263	32684	32804	
819	0	5323	6152	12536	13916	292	0	32698	32795	32876	32695	32637	32799	32699	32871	
820	0	5274	6195	12493	13937	293	0	32654	32850	32684	32623	32729	33381	32763	32684	
821	0	5322	6153	12540	13888	294	0	32827	32836	32937	32460	32575	33063	32804	32973	
822	0	5285	6117	12532	13869	295	0	32756	32831	32818	32391	32459	32683	32775	32861	
823	0	5285	6134	12514	13888	296	0	32738	32788	32743	32519	32484	32317	32833	32845	
824	0	5311	6171	12489	13888	297	0	32746	32809	32481	32472	32587	32673	32820	32834	
825	0	5313	6116	12513	13914	298	0	32719	32788	32523	32434	32570	33103	32893	32821	
826	0	5294	6110	12516	13915	299	0	32738	32739	32293	32562	32487	33111	32818	32804	
827	0	5293	6121	12545	13892	300	0	32778	32699	32359	32579	32582	32959	32755	32519	
828	0	5273	6112	12592	13936	301	0	32788	32772	32550	32629	32743	32327	32662	32583	
829	0	5296	6141	12506	13904	302	0	32823	32783	32511	32636	32628	32180	32678	32673	
830	0	5279	6116	12529	13876	303	0	32818	32786	32647	32594	32674	32555	32685	32391	
831	0	5254	6071	12596	13949	304	0	32780	32802	32453	32660	32788	33309	32701	32599	
832	0	5298	6110	12532	13896	305	0	32790	32807	32541	32532	32839	33303	32749	32739	
833	0	5298	6126	12566	13926	306	0	32811	32795	32669	32485	32813	32795	32749	32646	
834	0	5314	6086	12549	13874	307	0	32844	32775	32627	32565	32617	32071	32797	32859	
835	0	5342	6109	12562	13896	308	0	32804	32832	32708	32617	32748	32191	32757	32699	
836	0	5277	6092	12543	13916	309	0	32743	32834	32737	32711	32560	32764	32917	32807	
837	0	5258	6153	12528	13929	310	0	32732	32811	32714	32699	32406	33325	32791	32966	
838	0	5289	6077	12590	13908	311	0	32743	32821	32941	32749	32429	33219	32887	32903	
839	0	5284	6086	12597	13914	312	0	32763	32823	32903	32753	32743	32818	32826	32948	
840	0	5296	6115	12571	13905	313	0	32749	32817	32969	32782	33091	32402	32789	32914	
841	0	5273	6074	12590	13936	314	0	32836	32713	32887	32727	33090	32484	32857	32726	
842	0	5222	6080	12572	13924	315	0	32893	32770	32755	32841	32957	32876	32687	33062	
843	0	5275	6081	12582	13892	316	0	32804	32735	32782	32927	32775	33220	32713	33001	
844	0	5278	6138	12618	13944	317	0	32742	32763	32658	32972	32455	32955	32829	32407	
845	0	5246	6095	12584	13977	318	0	32711	32731	32647	32923	32171	32285	32775	32455	
846	0	5263	6068	12610	13940	319	0	32756	32749	32639	32941	32227	32186	32748	32639	
847	0	5289	6085	12502	13936	320	0	32797	32745	32428	32879	32270	32436	32749	32471	
848	0	5219	6101	12625	13923	321	0	32634	32799	32560	32812	32225	33157	32695	32707	
849	0	5259	6072	12604	13936	322	0	32679	32811	32639	32714	32421	33308	32717	32696	
850	0	5309	6077	12604	13912	323	0	32718	32663	32855	32641	32707	33174	32775	32759	
851	0	5276	6094	12521	13928	324	0	32715	32687	32790	32583	33050	32519	32716	32717	
852	0	5276	6092	12620	13952	325	0	32722	32787	32876	32599	32975	32052	32790	32367	
853	0	5270	6030	12572	13978	326	0	32776	32838	32903	32532	33039	32459	32765	32592	
854	0	5226	6013	12606	13949	327	0	32871	32775	32971	32495	32999	32965	32701	32711	
855	0	5225	6082	12597	13889	328	0	32877	32783	33107	32487	32739	32979	32804	32754	
856	0	5259	6031	12598	13906	329	0	32803	32827	33310	32603	32567	32821	32911	32790	
857	0	5250	6054	12562	13956	330	0	32807	32871	33350	32628	32545	32301	32877	33082	
858	0	5216	6067	12560	13929	331	0	32735	32884	33117	32525	32382	32367	32839	33089	
859	0	5253	6066	12690	13928	332	0	32719	32877	33052	32436	32581	32903	32805	32828	
860	0	5264	6074	12624	13924	333	0	32732	32814	33069	32473	32855	33356	32583	32722	
861	0	5276	6076	12593	13970	334	0	32841	32797	32773	32670	32813	33323	32535	32519	
862	0	5222	6034	12633	13976	335	0	32815	32767	32544	32647	32467	32635	32690	32613	
863	0	5254	6020	12640	13940	336	0	32805	32771	32519	32722	32420	32087	32860	32537	
864	0	5225	6001	12576	13956	337	0	32729	32773	32543	32771	32363	32279	32793	32807	
865	0	5259	6030	12628	13929	338	0	32696	32735	32523	32826	32647	32693	32723	32849	
866	0	5202	6048	12619	13985	339	0	32673	32767	32419	32863	32674	33191	32791	32825	
867	0	5229	6001	12622	13948	340	0	32733	32775	32583	33022	32599	33010	32811	32962	
868	0	5251	6048	12616	13956	341	0	32740	32767	32378	33037	32519	32708	32870	33027	
869	0	5192	6016	12626	13913	342	0	32762	32829	32519	32950	32903	32420	32686	32935	
870	0	5258	6030	12688	13928	343	0	32748	32804	32588	32788	32804	32592	32785	32615	
871	0	5201	5992	12648	13994	344	0	32720	32783	32485	32685	32831	33131	32775	32807	
872	0	5227	6028	12608	13928	345	0	32702	32799	32639	32628	32868	32999	32799	32885	
873	0	5269	5994	12688	13964	346	0	32663	32775	32711	32627	32825	32727	32729	32749	
874	0	5223	6064	12586	13971	347	0	32772	32787	32671	32589	32758	32123	32823	32897	
875	0	5262	6029	12668	13930	348	0	32765	32813	32863	32615	32843	32093	32545	32775	
876	0	5228	5996	12655	13955	349	0	32701	32831	33047	32575	32732	32647	32406	32399	
877	0	5216	6005	12634	13956	350	0	32647	32859	32911	32625	32489	33259	32549	32461	
878	0	5256	6007	12578	13954	351	0	32629	33007	32975	32629	32573	33223	32745	32539	
879	0	5206	6018	12600	13957	352	0	32653	32855	32765	32587	32647	32711	32841	32387	
880	0	5210	6024	12633	14012	353	0	32575	32851	32797	32519	32969	32457	33021	32733	
881	0	5200	5995	12588	13948	354	0	32555	32863	32705	32557	32849	32484	33059	32971	
882	0	5255	5984	12676	13980	355	0	32543	32830	32754	32625	32903	32967	32794	32639	
883	0	5212	5947	12688	13984	356	0	32586	32759	32859	32671	32827	33133	32645	32667	
884	0	5230	6018	12640	14013	357	0	32505	32807	32703	32791	32719	33087	32592	32879	
885	0	5204	6022	12635	13945	358	0	32484	32847	32843	32829	32799	32703	32646	32711	
886	0	5235	5989	12670	13972	359	0	32412	32901	32757	32810	32879	32327	32711	32892	
887	0	5223	6001	12609	13952	360	0	32437	32921	32703	32804	32941	32524	32605	32687	
888	0	5240	5972	12644	13986	361	0	32375	32922	32402	32843	32933	32932	32615	32804	
889	0	5203	6017	12653	13964	362	0	32370	32863	32348	32747	32743	33123	32663	32789	
890	0	5202	5958	12653	13953	363	0	32407	32840	32175	32671	32719	32891	32559	32775	
891	0	5217	5986	12655	14004	364	0	32368	32850	32225	32599	32694	32541	32635	32919	
892	0	5209	5996	12721	13952	365	0	32481	32844	32221	32559	32762	32201	32710	32777	
893	0	5208	6016	12668	13956	366	0	32564	32763	32246	32511	32813	32708	32617	32854	
894	0	5210	5990	12628	13948	367	0	32680	32703	32255	32614	32799	33263	32631	32647	
895	0	5240	5983	12694	13970	368	0	32885	32673	32171	32660	32799	33335	32582	32532	
896	0	5253	5976	12626	13987	369	0	32983	32613	32482	32599	32612	32985	32763	32883	
897	0	5218	5993	12725	13972	370	0	33240	32484	32623	32569	32439	32359	32953	32861	
898	0	5196	5964	12658	13976	371	0	33396	32443	32879	32647	32383	32293	33135	33233	
899	0	5240	6010	12659	13959	372	0	33600	32453	32996	32808	32332	32647	33069	33060	
900	0	5226	5975	12640	13938	373	0	33737	32449	33119	32807	32233	33069	33071	33076	
901	0	5200	5974	12720	13989	374	0	33776	32461	33067	32739	32109	33255	33015	32791	
902	0	5203	5927	12688	13965	375	0	33713	32503	33195	32887	32343	32789	33135	32815	
903	0	5232	5942	12684	14008	376	0	33655	32474	32996	33079	32314	32075	33223	32823	
904	0	5189	5928	12652	13984	377	0	33624	32515	33072	33226	32310	32141	33285	32807	
905	0	5176	5976	12696	13968	378	0	33568	32574	33019	33189	32196	32756	33405	32903	
906	0	5242	5939	12633	13968	379	0	33564	32567	33118	33063	32200	33139	33308	32764	
907	0	5196	5984	12652	13997	380	0	33548	32559	32979	32993	32263	33227	33263	32989	
908	0	5213	5964	12674	13968	381	0	33526	32465	32850	32931	32433	32483	33157	33108	
909	0	5206	5978	12652	14008	382	0	33487	32451	32996	32882	32461	31924	33087	32946	
910	0	5187	5969	12701	13974	383	0	33353	32501	32815	32819	32369	32428	32959	32884	
911	0	5176	5938	12715	13941	384	0	33111	32743	32984	32855	32629	32985	32731	32921	
912	0	5220	5964	12700	14008	385	0	32927	32751	32767	32875	32668	33373	32687	32695	
913	0	5205	5959	12658	13984	386	0	32674	32775	32796	32813	32635	32952	32693	32698	
914	0	5224	6008	12618	13956	387	0	32604	32819	32822	32826	32507	32301	32757	32669	
915	0	5252	5993	12697	14012	388	0	32521	32839	32885	32784	32543	32261	32700	32470	
916	0	5170	5944	12642	13988	389	0	32502	32830	33077	32737	32526	32524	32719	32580	
917	0	5208	5963	12662	13990	390	0	32460	32879	33117	32647	32738	33212	32773	32647	
918	0	5216	5978	12653	13968	391	0	32367	32932	32914	32591	32783	33108	32679	32540	
919	0	5222	5934	12704	13985	392	0	32300	33002	32983	32461	32853	32821	32591	32323	
920	0	5218	5967	12706	13986	393	0	32213	33051	32943	32415	32775	32407	32507	32407	
921	0	5217	5963	12724	13980	394	0	32171	33095	32760	32451	32749	32443	32453	32459	
922	0	5182	5949	12692	13984	395	0	32183	33095	32735	32484	32484	32922	32475	32322	
923	0	5180	5958	12688	13992	396	0	32155	33132	32669	32417	32687	33266	32519	32567	
924	0	5222	5936	12668	13968	397	0	32162	33159	32639	32455	32798	33261	32547	32582	
925	0	5199	5976	12681	13975	398	0	32215	33159	32669	32461	32903	32679	32467	32671	
926	0	5205	5943	12645	13979	399	0	32146	33159	32482	32604	32587	32145	32439	32861	
927	0	5184	5968	12641	13974	400	0	32198	33154	32791	32733	32548	32446	32481	32535	
928	0	5204	5916	12714	13979	401	0	32267	33105	32865	32810	32807	33022	32359	32524	
929	0	5181	5925	12692	14005	402	0	32341	33071	32935	32853	32857	33273	32433	32647	
930	0	5230	5938	12675	14002	403	0	32397	33079	33029	32899	32916	33203	32482	32445	
931	0	5164	5950	12676	13952	404	0	32471	33017	32946	32925	33111	32553	32495	32663	
932	0	5220	5933	12568	13996	405	0	32524	32949	32995	32923	32967	31987	32452	32452	
933	0	5204	5917	12668	14000	406	0	32475	32885	32797	32838	32869	32401	32473	32485	
934	0	5163	5934	12688	14006	407	0	32507	32850	32765	32806	32871	32871	32615	32615	
935	0	5152	5916	12724	13964	408	0	32535	32937	32563	32698	32981	32963	32477	32463	
936	0	5207	5976	12628	13972	409	0	32573	32887	32711	32668	33055	32835	32433	32639	
937	0	5191	5945	12648	14030	410	0	32657	32854	32645	32594	33062	32406	32391	32581	
938	0	5205	5956	12676	13961	411	0	32653	32877	32775	32595	32996	32316	32471	32582	
939	0	5179	5934	12648	13977	412	0	32630	32858	32916	32703	32954	32817	32583	32819	
940	0	5197	5973	12661	13970	413	0	32708	32811	32927	32763	33139	33382	32719	32642	
941	0	5222	5988	12670	13936	414	0	32758	32727	32807	32869	32691	33337	32831	32821	
942	0	5206	5925	12664	13970	415	0	32828	32693	32732	32869	32662	32722	32749	32903	
943	0	5188	5976	12660	13994	416	0	32891	32666	32701	32903	32407	32155	32735	32666	
944	0	5196	5956	12677	13957	417	0	32858	32758	32542	32842	32243	32029	32865	32835	
945	0	5231	5972	12691	14004	418	0	32852	32671	32503	32850	32054	32735	32946	33030	
946	0	5196	5948	12716	13962	419	0	32837	32717	32519	32699	32226	33223	32804	32853	
947	0	5167	5957	12662	13968	420	0	32916	32641	32340	32606	32451	33157	32803	32913	
948	0	5195	5936	12714	14024	421	0	32895	32695	32535	32517	32775	32687	32736	32803	
949	0	5220	5902	12737	13962	422	0	32887	32658	32439	32471	32969	32212	32767	32844	
950	0	5184	5961	12672	13948	423	0	32903	32681	32573	32431	32925	32457	32669	32935	
951	0	5225	5936	12732	13948	424	0	32861	32738	32639	32458	32853	33041	32657	32741	
952	0	5210	5979	12749	13960	425	0	32804	32707	32641	32477	32766	33415	32703	32807	
953	0	5208	5937	12648	13997	426	0	32855	32671	32812	32587	32694	33197	32835	33039	
954	0	5116	5962	12739	13976	427	0	32837	32709	32789	32669	32641	32478	32891	32962	
955	0	5223	5929	12675	13958	428	0	32820	32666	32748	32711	32719	32383	32879	32947	
956	0	5200	5996	12730	13977	429	0	32872	32712	32864	32762	32614	32570	32933	32909	
957	0	5186	5972	12722	13968	430	0	32834	32775	32673	32927	32647	32807	32623	32543	
958	0	5191	6009	12689	13967	431	0	32765	32748	32644	32977	32623	33095	32755	32562	
959	0	5218	5930	12666	13985	432	0	32764	32747	32679	32991	32734	32711	32716	32806	
960	0	5158	5944	12700	14012	433	0	32782	32725	32429	32871	32893	32237	32663	32717	
961	0	5183	5965	12698	13934	434	0	32738	32709	32548	32845	32894	32100	32698	32548	
962	0	5225	5990	12629	14008	435	0	32791	32729	32624	32762	32799	32480	32836	32855	
963	0	5208	5931	12760	13978	436	0	32852	32726	32663	32681	32497	33019	32821	32831	
964	0	5171	5968	12728	14029	437	0	32799	32759	32693	32638	32263	33159	32890	32509	
965	0	5186	5941	12646	13954	438	0	32786	32751	32894	32559	32229	32548	32991	32660	
966	0	5200	5926	12760	13988	439	0	32807	32725	32827	32525	32484	32412	33127	32835	
967	0	5172	5955	12646	13972	440	0	32814	32690	33005	32523	32668	32506	33151	32957	
968	0	5220	5950	12755	14003	441	0	32927	32671	32932	32495	32732	32999	33018	32975	
969	0	5196	5944	12724	13994	442	0	32808	32722	32868	32519	32678	33514	32765	32863	
970	0	5158	5924	12724	13970	443	0	32895	32683	32903	32545	32879	33335	32711	32659	
971	0	5196	5916	12730	13955	444	0	32903	32711	32655	32559	32933	32587	32635	32783	
972	0	5177	5959	12683	14005	445	0	32815	32755	32679	32605	32711	32088	32682	32598	
973	0	5162	5954	12757	13974	446	0	32767	32826	32563	32659	32503	32557	32612	32577	
974	0	5186	5932	12697	14010	447	0	32709	32839	32607	32700	32477	33143	32693	32823	
975	0	5291	5942	12736	13974	448	0	32713	32796	32566	32791	32519	33358	32751	32645	
976	0	5204	5909	12652	14016	449	0	32717	32804	32438	32837	32463	32903	32895	32875	
977	0	5192	5883	12740	13992	450	0	32679	32811	32437	32854	32455	32486	32885	32858	
978	0	5230	6000	12714	14021	451	0	32722	32789	32566	32823	32413	32379	32949	32845	
979	0	5178	5970	12745	13998	452	0	32732	32746	32587	32775	32828	32620	32895	32799	
980	0	5194	5923	12708	13996	453	0	32686	32783	32718	32845	32884	33231	32719	32722	
981	0	5189	5952	12630	13988	454	0	32748	32775	32915	32830	32847	33135	32719	32791	
982	0	5179	5939	12724	13984	455	0	32692	32791	32875	32775	32903	32741	32723	32690	
983	0	5220	5946	12676	13976	456	0	32730	32815	33019	32677	32719	32259	32859	32928	
984	0	5218	5959	12714	13997	457	0	32642	32817	33086	32640	32573	32407	32832	32919	
985	0	5175	5972	12712	13956	458	0	32710	32863	33028	32620	32810	32757	32819	32987	
986	0	5228	5946	12744	13988	459	0	32775	32804	32798	32646	32899	32962	32850	32729	
987	0	5164	5939	12662	14022	460	0	32811	32791	32759	32693	32698	33019	32849	32765	
988	0	5192	5991	12720	13964	461	0	32848	32775	32818	32740	32687	32693	32781	32845	
989	0	5186	5955	12706	13942	462	0	32878	32813	32639	32749	32771	32313	32684	32655	
990	0	5246	5956	12712	14000	463	0	32824	32852	32635	32829	32775	32391	32667	32788	
991	0	5205	5940	12734	14016	464	0	32873	32749	32695	32917	32795	32751	32614	32687	
992	0	5194	5922	12690	14008	465	0	32865	32714	32596	32901	32574	33271	32775	32606	
993	0	5159	5940	12756	14007	466	0	32760	32772	32563	32791	32411	33097	32807	32810	
994	0	5210	5927	12728	13984	467	0	32817	32747	32853	32806	32573	32591	32861	32855	
995	0	5236	5944	12686	13992	468	0	32775	32715	32699	32783	32623	32167	32711	32793	
996	0	5156	5966	12787	13998	469	0	32832	32751	32694	32847	32557	32373	32717	32587	
997	0	5204	5944	12748	14010	470	0	32814	32747	32740	32900	32521	32811	32686	32771	
998	0	5176	5938	12672	13985	471	0	32745	32739	32604	32823	32615	32995	32764	32787	
999	0	5162	5940	12712	13980	472	0	32749	32775	32573	32743	32741	32965	32727	32625	
1000	0	5219	5966	12706	13954	473	0	32797	32735	32639	32694	32987	32407	32733	32583	
1001	0	5250	5938	12700	13976	474	0	32807	32709	32614	32603	33028	32455	32745	32655	
1002	0	5183	5942	12696	14024	475	0	32782	32703	32691	32561	32871	32852	32791	32594	
1003	0	5205	5962	12630	13990	476	0	32785	32769	32639	32535	32743	33087	32923	32966	
1004	0	5188	5935	12724	13970	477	0	32695	32839	32639	32540	32429	33141	32879	33063	
1005	0	5202	5991	12758	13954	478	0	32627	32871	32923	32526	32481	32519	32957	32783	
1006	0	5212	5922	12705	13944	479	0	32702	32838	33183	32471	32621	32055	32783	32829	
1007	0	5179	5987	12720	14000	480	0	32717	32824	33302	32598	32815	32289	32803	32885	
1008	0	5244	5987	12688	13966	481	0	32725	32784	33504	32615	32772	32903	32751	32601	
1009	0	5227	5978	12747	13954	482	0	32759	32735	33073	32699	32517	33485	32665	32695	
1010	0	5228	5948	12720	13972	483	0	32775	32743	33211	32654	32463	33247	32671	32566	
1011	0	5217	5912	12640	14020	484	0	32726	32810	32955	32710	32615	32869	32799	32773	
1012	0	5161	6000	12691	14000	485	0	32718	32785	32881	32692	32611	32205	32815	33060	
1013	0	5192	5955	12706	14008	486	0	32713	32818	32609	32725	32638	32365	32798	32899	
1014	0	5234	5904	12668	13970	487	0	32804	32769	32586	32729	32679	32922	32742	32895	
1015	0	5180	5906	12760	13985	488	0	32781	32821	32713	32771	32731	33181	32703	32743	
1016	0	5188	5933	12682	14009	489	0	32775	32826	32503	32799	32738	33093	32755	32485	
1017	0	5187	5945	12680	13973	490	0	32751	32855	32476	32759	32812	32457	32706	32535	
1018	0	5218	5985	12738	14000	491	0	32640	32855	32381	32789	32971	32425	32780	32639	
1019	0	5206	5977	12687	13976	492	0	32700	32740	32391	32773	32796	32751	32903	32827	
1020	0	5192	5938	12733	13977	493	0	32654	32815	32461	32688	32767	33153	32740	32847	
1021	0	5208	5937	12761	14021	494	0	32828	32775	32507	32695	32714	33403	32644	32519	
1022	0	5222	5898	12762	14029	495	0	32801	32775	32631	32711	32501	32781	32718	32701	
1023	0	5204	5956	12702	13978	496	0	32783	32709	32679	32764	32303	32277	32815	32939	
1024	0	5149	5949	12700	13976	497	0	32737	32711	32512	32863	32376	32062	32865	32695	
1025	0	5167	5928	12718	13980	498	0	32710	32748	32555	32758	32460	32509	32724	32726	
1026	0	5202	5954	12688	13966	499	0	32725	32707	32615	32756	32676	33115	32767	32749	
1027	0	5188	5922	12704	13996	500	0	32695	32717	32609	32701	32833	33215	32873	32766	
1028	0	5224	5955	12715	13984	501	0	32764	32745	32581	32647	32892	32628	32923	32871	
1029	0	5199	5913	12713	13996	502	0	32775	32843	32655	32623	32884	32375	32791	32937	
1030	0	5172	5911	12770	14006	503	0	32742	32809	32538	32575	32749	32463	32749	32599	
1031	0	5232	5930	12684	14048	504	0	32728	32811	32666	32663	32876	33027	32659	32755	
1032	0	5205	5946	12718	14028	505	0	32781	32839	32647	32726	32845	33251	32677	32671	
1033	0	5192	5965	12705	14002	506	0	32748	32839	32637	32647	32647	33212	32749	32340	
1034	0	5176	5958	12772	14008	507	0	32825	32822	32935	32691	32596	32615	32790	32654	
1035	0	5220	5941	12650	13977	508	0	32855	32775	32953	32743	32726	32337	32802	32796	
1036	0	5214	5922	12754	14002	509	0	32868	32766	33068	32841	32609	32443	32834	32647	
1037	0	5185	5936	12705	13998	510	0	32831	32765	33159	32855	32493	32975	32854	32830	
1038	0	5206	5924	12705	14020	511	0	32756	32709	32871	32863	32453	33295	32767	32921	
1039	0	5222	5947	12713	13988	512	0	32708	32762	32879	32766	32538	33031	32759	32661	
1040	0	5205	5944	12702	13992	513	0	32735	32743	32931	32694	32773	32307	32887	32855	
1041	0	5184	5924	12760	13996	514	0	32789	32731	32935	32694	32809	32277	32839	32727	
1042	0	5185	5958	12731	13973	515	0	32695	32736	33073	32550	32857	32562	32775	32557	
1043	0	5161	5932	12698	14024	516	0	32734	32728	33003	32505	32807	33031	32738	32719	
1044	0	5163	5900	12674	14026	517	0	32749	32756	32751	32397	32731	33172	32695	32731	
1045	0	5187	5942	12739	14016	518	0	32723	32746	32829	32413	32730	32837	32740	32773	
1046	0	5213	5963	12800	13980	519	0	32772	32775	32679	32486	32645	32250	32685	32915	
1047	0	5194	5963	12754	14029	520	0	32702	32836	32625	32510	32359	32242	32713	32870	
1048	0	5217	5938	12716	14046	521	0	32775	32879	32351	32647	32191	32756	32846	32925	
1049	0	5170	5923	12757	14050	522	0	32765	32804	32364	32821	32445	33127	32839	32691	
1050	0	5167	5933	12694	14001	523	0	32746	32803	32379	32986	32547	32810	32853	32989	
1051	0	5190	5936	12748	14024	524	0	32692	32803	32349	32879	32709	32525	32754	32989	
1052	0	5218	5933	12800	13990	525	0	32727	32769	32613	32903	32687	32095	32751	32716	
1053	0	5174	5901	12674	14000	526	0	32769	32790	32622	32795	32805	32367	32719	32818	
1054	0	5192	5923	12751	13992	527	0	32812	32727	32959	32761	32637	32918	32665	32863	
1055	0	5220	5944	12702	13978	528	0	32826	32715	33058	32807	32437	33327	32700	32469	
1056	0	5207	5958	12637	13997	529	0	32774	32769	32877	32849	32631	33191	32767	32311	
1057	0	5216	5940	12771	13972	530	0	32736	32741	33007	32867	32859	32510	32775	32323	
1058	0	5186	5959	12702	14004	531	0	32731	32795	32844	32925	33036	32321	32839	32887	
1059	0	5186	5920	12670	14009	532	0	32725	32798	32637	32847	32975	32556	32894	33071	
1060	0	5162	5948	12746	13967	533	0	32768	32823	32571	32807	32897	33119	32825	32997	
1061	0	5211	5938	12733	14011	534	0	32791	32859	32437	33012	32677	33142	32799	33055	
1062	0	5206	5902	12772	14012	535	0	32695	32839	32469	33007	32676	33021	32756	32790	
1063	0	5231	5956	12684	14036	536	0	32797	32759	32587	32963	32879	32375	32679	32647	
1064	0	5175	5917	12757	14056	537	0	32713	32796	32492	32875	33014	32320	32641	32536	
1065	0	5241	5914	12729	13990	538	0	32788	32761	32807	32794	32821	32711	32726	32587	
1066	0	5226	5908	12666	13968	539	0	32727	32726	32771	32709	32621	33150	32709	32756	
1067	0	5194	5958	12762	14004	540	0	32765	32643	32917	32631	32647	33239	32812	32615	
1068	0	5184	5905	12726	13972	541	0	32783	32797	32838	32705	32659	32667	32957	32883	
1069	0	5193	5914	12722	13960	542	0	32775	32775	32771	32634	32583	32093	32861	32925	
1070	0	5202	5931	12708	13961	543	0	32799	32797	32884	32607	32732	31988	32866	32641	
1071	0	5204	5934	12659	13985	544	0	32743	32828	32755	32641	32759	32571	32735	32772	
1072	0	5198	5967	12777	13978	545	0	32798	32783	32988	32621	32828	32933	32615	32641	
1073	0	5195	5888	12765	14022	546	0	32759	32734	33012	32711	32775	33015	32527	32333	
1074	0	5173	5935	12692	13997	547	0	32838	32767	33110	32687	32475	32549	32780	32671	
1075	0	5184	5916	12731	14038	548	0	32861	32791	33095	32645	32419	32237	32940	32610	
1076	0	5177	5924	12730	14005	549	0	32829	32809	33053	32663	32444	32433	33045	32871	
1077	0	5193	5952	12749	13964	550	0	32800	32774	32977	32683	32223	32975	33071	32846	
1078	0	5176	5980	12661	13957	551	0	32695	32791	32731	32725	32409	33251	32793	32940	
1079	0	5187	5920	12754	14012	552	0	32703	32796	32669	32711	32769	32932	32743	33038	
1080	0	5186	5932	12674	14040	553	0	32751	32749	32580	32623	32727	32562	32717	32727	
1081	0	5172	5936	12736	14025	554	0	32732	32775	32683	32589	32476	32383	32726	32800	
1082	0	5154	5943	12691	13984	555	0	32711	32875	32694	32647	32453	32647	32668	32727	
1083	0	5126	5915	12700	13980	556	0	32709	32741	32707	32767	32347	33231	32835	32519	
1084	0	5196	5951	12717	13976	557	0	32698	32785	32638	32847	32501	33279	32795	32694	
1085	0	5178	5935	12760	14036	558	0	32733	32791	32604	32805	32671	32903	32739	32715	
1086	0	5200	5889	12656	13962	559	0	32708	32749	32506	32739	32813	32437	32639	32639	
1087	0	5172	5876	12633	13961	560	0	32765	32671	32596	32741	32694	32255	32851	32807	
1088	0	5191	5912	12728	13968	561	0	32745	32713	32702	32850	32807	32853	32830	32504	
1089	0	5161	5929	12712	13996	562	0	32727	32879	32911	32798	32639	33309	32789	32677	
1090	0	5214	5922	12768	13965	563	0	32782	32885	32897	32751	32903	33343	32797	32867	
1091	0	5193	5917	12759	13949	564	0	32735	32868	33095	32663	33005	32699	32767	32641	
1092	0	5163	5942	12712	13960	565	0	32762	32835	33142	32711	32701	32159	32695	32841	
1093	0	5156	5954	12724	14008	566	0	32704	32775	32863	32644	32647	32135	32681	32828	
1094	0	5177	5892	12662	13972	567	0	32802	32731	32796	32565	32261	32754	32711	32916	
1095	0	5172	5960	12746	13929	568	0	32740	32799	32590	32567	32492	33302	32705	32887	
1096	0	5175	5936	12714	14004	569	0	32818	32821	32471	32527	32491	33255	32751	32570	
1097	0	5138	5922	12699	13976	570	0	32711	32839	32378	32626	32591	32561	32669	32673	
1098	0	5178	5936	12694	13992	571	0	32681	32790	32540	32699	32647	32381	32660	32609	
1099	0	5161	5914	12800	13955	572	0	32738	32764	32421	32805	32816	32636	32710	32523	
1100	0	5218	5906	12680	13970	573	0	32713	32761	32548	32785	32874	33187	32839	32862	
1101	0	5172	5930	12686	13989	574	0	32758	32698	32674	32721	32646	33254	32785	32919	
1102	0	5197	5927	12670	13958	575	0	32721	32714	32559	32719	32612	33119	32827	33227	
1103	0	5169	5956	12685	13982	576	0	32747	32751	32703	32711	32566	32470	32941	33391	
1104	0	5193	5947	12724	14000	577	0	32729	32773	32587	32757	32727	32356	32741	32797	
1105	0	5163	5934	12690	13936	578	0	32774	32722	32489	32720	32748	32589	32672	32631	
1106	0	5169	5905	12747	13936	579	0	32764	32766	32551	32756	32730	33233	32633	32514	
1107	0	5161	5910	12739	13988	580	0	32743	32836	32457	32719	32747	33209	32692	32119	
1108	0	5133	5934	12680	13946	581	0	32793	32866	32775	32677	32855	32679	32823	32379	
1109	0	5120	5956	12712	13971	582	0	32773	32903	32847	32615	32759	32323	32812	32474	
1110	0	5152	5928	12672	13964	583	0	32925	32889	33012	32647	32823	32324	32871	32918	
1111	0	5149	5908	12704	13978	584	0	32836	32903	32917	32621	32827	32659	32969	33188	
1112	0	5121	5977	12697	13934	585	0	32800	32879	32875	32647	32739	33275	33007	32897	
1113	0	5230	5956	12656	13960	586	0	32716	32871	32933	32692	32551	33187	32951	32850	
1114	0	5152	5903	12715	13969	587	0	32771	32859	33135	32830	32541	32647	32855	32855	
1115	0	5208	5930	12660	13954	588	0	32837	32841	33005	32875	32623	32263	32734	32699	
1116	0	5178	5916	12704	14001	589	0	32833	32820	32823	32847	32477	32237	32687	32589	
1117	0	5134	5916	12674	13961	590	0	32759	32826	32756	32723	32830	32871	32643	32741	
1118	0	5167	5942	12716	13972	591	0	32732	32843	32379	32647	33015	33159	32799	32775	
1119	0	5172	5925	12760	13945	592	0	32722	32815	32349	32639	33107	32945	32767	32581	
1120	0	5184	5884	12693	13964	593	0	32730	32787	32375	32590	33005	32527	32687	32209	
1121	0	5188	5938	12688	13962	594	0	32799	32791	32446	32515	32783	32241	33053	32740	
1122	0	5193	5933	12586	14003	595	0	32759	32791	32668	32493	32471	32479	32985	33116	
1123	0	5142	5959	12748	13956	596	0	32758	32787	32708	32551	32301	32683	32876	33063	
1124	0	5190	5938	12712	13982	597	0	32781	32765	32727	32557	32534	33107	32735	32685	
1125	0	5168	5947	12679	13950	598	0	32748	32743	32843	32574	32723	32943	32813	32796	
1126	0	5190	5900	12717	13990	599	0	32707	32787	32812	32567	32609	32263	32953	32879	
1127	0	5133	5932	12673	13995	600	0	32751	32771	32949	32673	32507	32311	32867	32775	
1128	0	5210	5913	12635	13936	601	0	32860	32743	32881	32769	32675	32695	32839	32965	
1129	0	5168	5936	12692	13937	602	0	32815	32791	32889	32843	32847	33097	32765	32725	
1130	0	5178	5968	12756	13960	603	0	32812	32735	32823	32807	32887	33298	32757	32759	
1131	0	5168	5972	12754	13944	604	0	32793	32695	32903	32831	32903	32869	32557	32684	
1132	0	5214	5975	12668	13998	605	0	32775	32749	32919	32919	32723	32363	32685	32922	
1133	0	5198	5914	12697	13975	606	0	32772	32775	32900	32822	32736	32135	32814	32925	
1134	0	5156	5963	12723	13950	607	0	32769	32699	32989	32811	32673	32647	32749	32733	
1135	0	5194	6012	12657	13979	608	0	32800	32679	32935	32793	32587	33069	32751	32695	
1136	0	5140	5983	12638	13954	609	0	32743	32695	32804	32759	32523	32996	32681	32654	
1137	0	5136	5940	12697	13962	610	0	32796	32691	32854	32662	32491	32567	32724	32455	
1138	0	5177	5928	12752	13962	611	0	32756	32713	32575	32603	32683	32199	32644	32585	
1139	0	5144	5929	12665	13988	612	0	32748	32745	32540	32605	32914	32461	32615	32711	
1140	0	5172	5942	12681	13976	613	0	32727	32782	32828	32647	32671	32891	32708	32623	
1141	0	5142	5894	12749	13960	614	0	32717	32742	32694	32781	32301	33407	32747	32751	
1142	0	5172	5966	12658	13944	615	0	32701	32727	32735	32775	32517	33175	32705	32705	
1143	0	5176	5980	12672	13926	616	0	32722	32671	32519	32829	32747	32550	32687	32551	
1144	0	5203	5952	12664	13984	617	0	32687	32811	32446	32852	32901	31991	32756	32740	
1145	0	5154	5967	12683	13928	618	0	32775	32802	32641	32822	32980	32336	32687	32898	
1146	0	5169	5973	12706	13978	619	0	32761	32827	32694	32784	32957	33008	32661	32759	
1147	0	5155	5952	12696	13962	620	0	32736	32921	32799	32773	32829	33231	32703	33004	
1148	0	5179	5981	12642	13945	621	0	32790	32883	33026	32677	32815	33117	32627	33147	
1149	0	5196	5933	12734	13912	622	0	32756	32834	32773	32735	32591	32423	32687	32746	
1150	0	5195	5988	12704	14016	623	0	32709	32890	32879	32791	32628	31992	32748	32817	
1151	0	5216	5964	12741	13938	624	0	32791	32709	32746	32751	32587	32419	32655	32514	
1152	0	5234	5924	12708	13926	625	0	32795	32752	32773	32671	32647	33087	32765	32555	
1153	0	5175	6012	12743	13952	626	0	32790	32804	32638	32699	32775	33301	32747	32707	
1154	0	5148	5961	12760	13976	627	0	32814	32731	32739	32775	32615	32925	32965	32725	
1155	0	5229	5967	12757	13980	628	0	32881	32769	33016	32775	32583	32551	33078	32884	
1156	0	5241	5953	12749	13944	629	0	32833	32773	33093	32757	32694	32535	33007	32767	
1157	0	5175	6000	12764	13936	630	0	32815	32716	33119	32767	32989	32793	32910	32687	
1158	0	5190	5977	12808	13886	631	0	32788	32807	32943	32676	32978	33369	32635	32631	
1159	0	5210	6020	12702	13976	632	0	32758	32775	32978	32593	32951	33295	32573	32461	
1160	0	5251	6010	12704	13957	633	0	32703	32819	32745	32577	32743	32773	32611	32685	
1161	0	5225	6012	12750	13989	634	0	32791	32815	32617	32591	32507	31983	32823	32781	
1162	0	5173	5972	12804	13960	635	0	32715	32871	32685	32647	32515	32022	32940	32812	
1163	0	5165	5988	12702	13940	636	0	32704	32887	32669	32659	32413	32599	32996	32789	
1164	0	5172	6002	12746	13957	637	0	32667	32899	32429	32609	32485	33074	32893	32851	
1165	0	5157	6027	12724	13960	638	0	32782	32879	32297	32719	32643	32953	32871	32853	
1166	0	5132	5984	12715	13956	639	0	32743	32847	32283	32759	32805	32549	32771	32662	
1167	0	5157	5998	12756	13936	640	0	32745	32847	32183	32692	32806	32334	32758	32852	
1168	0	5197	6038	12716	13945	641	0	32756	32829	32421	32784	32821	32685	32775	32819	
1169	0	5155	6004	12748	13914	642	0	32738	32837	32599	32802	32859	33087	32670	32415	
1170	0	5169	5988	12717	13963	643	0	32748	32799	32527	32871	32647	33235	32716	32756	
1171	0	5194	6021	12748	13954	644	0	32719	32751	32599	32861	32541	32822	32810	32831	
1172	0	5204	6010	12704	13990	645	0	32789	32775	32751	32859	32591	32485	32791	32687	
1173	0	5214	6002	12733	13948	646	0	32791	32791	32751	32733	32468	32391	32749	32783	
1174	0	5158	6024	12732	13948	647	0	32758	32750	32832	32754	32553	32775	32732	32876	
1175	0	5152	5958	12747	13934	648	0	32694	32757	32773	32767	32591	33225	32740	32638	
1176	0	5208	6005	12690	13956	649	0	32775	32671	32827	32814	32605	33405	32711	32732	
1177	0	5196	6011	12723	13966	650	0	32788	32662	32855	32871	32707	32875	32761	32756	
1178	0	5224	6027	12730	13932	651	0	32687	32663	32663	32754	32883	32281	32718	32767	
1179	0	5192	6059	12724	13910	652	0	32746	32711	32847	32775	32922	32113	32815	33156	
1180	0	5181	6022	12680	13899	653	0	32737	32757	32895	32715	32871	32607	32823	32922	
1181	0	5203	6003	12632	13928	654	0	32734	32738	32660	32791	32594	33037	32918	32671	
1182	0	5169	6000	12752	13897	655	0	32742	32707	32763	32742	32671	33119	32811	32694	
1183	0	5212	5986	12669	13912	656	0	32775	32751	32855	32743	32711	32635	32671	32532	
1184	0	5192	6001	12752	13922	657	0	32679	32863	32690	32703	32714	32434	32584	32503	
1185	0	5196	6020	12692	13918	658	0	32736	32833	32773	32640	32760	32513	32607	32588	
1186	0	5161	6032	12673	13910	659	0	32758	32767	32565	32582	32873	32998	32564	32519	
1187	0	5212	6004	12720	13925	660	0	32762	32804	32767	32511	32823	33437	32660	32543	
1188	0	5214	6026	12732	13938	661	0	32705	32807	32621	32545	32731	33074	32668	32703	
1189	0	5197	6070	12710	13932	662	0	32748	32797	32567	32585	32549	32527	32722	32925	
1190	0	5215	5996	12732	13932	663	0	32687	32852	32753	32519	32355	32169	32703	32854	
1191	0	5150	6024	12741	13958	664	0	32698	32797	32816	32511	32530	32215	32740	32843	
1192	0	5210	6013	12760	13948	665	0	32805	32796	32765	32511	32711	32991	32775	32837	
1193	0	5216	5988	12675	13967	666	0	32806	32847	32914	32500	32875	33350	32887	32916	
1194	0	5201	5984	12738	13917	667	0	32860	32847	32807	32629	32865	33115	32852	32963	
1195	0	5157	6056	12778	13933	668	0	32806	32759	32847	32629	32763	32525	32796	32851	
1196	0	5172	6020	12699	13936	669	0	32807	32807	32895	32647	32679	32375	32679	32766	
1197	0	5206	6033	12657	13901	670	0	32832	32724	32706	32696	33052	32758	32663	32492	
1198	0	5214	6049	12688	13920	671	0	32775	32774	32743	32692	32948	33098	32751	32676	
1199	0	5233	6031	12678	13937	672	0	32820	32797	32679	32687	32983	33012	32687	32903	
1200	0	5220	6036	12775	13921	673	0	32757	32789	32740	32793	32679	32615	32815	33101	
1201	0	5170	5988	12773	13944	674	0	32807	32757	32767	32973	32519	32117	32871	32611	
1202	0	5162	6029	12670	13921	675	0	32716	32754	32823	32969	32406	32181	32832	32647	
1203	0	5192	6019	12757	13954	676	0	32755	32711	32811	32914	32066	32617	32692	32542	
1204	0	5172	6050	12792	13954	677	0	32743	32775	32871	32753	32075	33313	32775	32613	
1205	0	5162	6060	12714	13900	678	0	32693	32773	32865	32677	32342	33117	33007	32615	
1206	0	5184	6013	12740	13952	679	0	32721	32748	32702	32607	32297	32814	32893	32813	
1207	0	5164	6033	12700	13908	680	0	32735	32775	32885	32541	32431	32350	32784	32760	
1208	0	5212	6016	12798	13958	681	0	32824	32698	32871	32583	32548	32363	32780	32782	
1209	0	5208	6042	12722	13888	682	0	32822	32749	33015	32615	32543	32997	32874	32758	
1210	0	5174	6021	12650	13904	683	0	32812	32803	33021	32613	32673	33394	32762	32591	
1211	0	5208	6019	12700	13884	684	0	32776	32823	33007	32669	32883	33073	32571	32661	
1212	0	5149	6060	12768	13912	685	0	32797	32773	33020	32823	32879	32633	32806	32775	
1213	0	5186	6038	12721	13928	686	0	32751	32759	32855	32751	32855	32293	32808	32545	
1214	0	5214	6039	12692	13896	687	0	32770	32701	32935	32795	32915	32413	32802	32851	
1215	0	5217	6069	12690	13941	688	0	32775	32732	32751	32715	33095	33065	32731	33188	
1216	0	5225	6050	12692	13906	689	0	32756	32732	32576	32759	33206	33143	32711	32847	
1217	0	5209	6080	12712	13872	690	0	32770	32871	32664	32855	32895	32715	32775	32937	
1218	0	5223	6056	12700	13938	691	0	32734	32762	32562	32872	32821	32086	32903	32930	
1219	0	5178	6046	12804	13875	692	0	32764	32767	32583	32807	32629	31839	32839	32623	
1220	0	5201	6034	12702	13921	693	0	32740	32692	32519	32756	32398	32261	32833	32695	
1221	0	5184	6033	12720	13906	694	0	32718	32764	32358	32734	32183	32942	32879	32748	
1222	0	5175	6045	12821	13938	695	0	32658	32868	32429	32687	32167	32948	32799	32823	
1223	0	5200	6060	12728	13898	696	0	32793	32821	32676	32633	32500	32721	32757	32713	
1224	0	5143	6030	12700	13865	697	0	32750	32839	32678	32583	32679	32135	32767	32850	
1225	0	5177	6032	12752	13925	698	0	32733	32947	32797	32469	32775	32114	32823	32854	
1226	0	5155	6054	12682	13885	699	0	32751	32804	32842	32450	32795	32698	32820	32470	
1227	0	5189	6077	12718	13896	700	0	32810	32841	32773	32441	32871	33345	32677	32647	
1228	0	5164	6054	12789	13900	701	0	32743	32807	32655	32614	32826	33159	32658	32727	
1229	0	5177	6066	12677	13918	702	0	32711	32798	32805	32729	32589	32767	32775	32803	
1230	0	5215	6061	12670	13931	703	0	32724	32796	32850	32765	32647	32269	32799	32833	
1231	0	5228	6050	12780	13908	704	0	32669	32841	32852	32903	32716	32362	32697	32723	
1232	0	5234	6047	12719	13890	705	0	32732	32837	32644	33079	32755	33077	32727	32771	
1233	0	5215	6101	12752	13890	706	0	32666	32858	32682	33021	32715	33575	32647	32676	
1234	0	5191	6073	12690	13886	707	0	32710	32763	32647	32891	32646	33423	32735	32677	
1235	0	5200	6058	12712	13921	708	0	32731	32817	32815	32815	32775	32722	32751	32839	
1236	0	5230	6066	12733	13895	709	0	32760	32738	32621	32799	32783	32502	32570	32411	
1237	0	5265	6078	12714	13920	710	0	32773	32775	32814	32799	32870	32661	32436	32572	
1238	0	5218	6080	12748	13869	711	0	32686	32782	32639	32893	32871	33277	32742	32724	
1239	0	5177	6041	12805	13893	712	0	32671	32841	32669	32887	32898	33383	32870	32623	
1240	0	5167	6002	12730	13934	713	0	32699	32943	32642	32881	32775	32847	33055	32822	
1241	0	5217	6072	12706	13890	714	0	32772	32807	32677	32751	32596	32499	33031	32923	
1242	0	5200	6062	12678	13912	715	0	32818	32795	32817	32745	32442	32407	32877	32831	
1243	0	5224	6050	12710	13869	716	0	32806	32765	32791	32785	32489	32831	32962	32845	
1244	0	5216	6037	12707	13912	717	0	32808	32717	32972	32717	32510	33157	32839	32895	
1245	0	5200	6064	12794	13882	718	0	32839	32719	32937	32647	32714	33239	32677	32521	
1246	0	5212	6029	12716	13913	719	0	32830	32694	32891	32589	33023	32681	32613	32436	
1247	0	5249	6075	12706	13904	720	0	32740	32669	33091	32583	32865	32078	32643	32926	
1248	0	5192	6071	12704	13910	721	0	32809	32658	33011	32647	32735	32323	32627	33103	
1249	0	5196	6006	12734	13921	722	0	32820	32679	32871	32698	32759	32713	32681	32863	
1250	0	5208	6078	12720	13880	723	0	32809	32691	32895	32745	32579	33092	32773	32959	
1251	0	5186	6080	12728	13874	724	0	32773	32759	32742	32691	32529	32879	32895	32783	
1252	0	5208	6053	12757	13915	725	0	32769	32799	32767	32789	32591	32487	32863	32442	
1253	0	5204	6038	12704	13898	726	0	32778	32789	32635	32820	32557	32215	32896	32647	
1254	0	5222	6028	12764	13858	727	0	32778	32773	32617	32740	32509	32421	32868	32817	
1255	0	5172	6056	12661	13856	728	0	32813	32767	32640	32818	32575	32647	32628	32641	
1256	0	5188	6089	12704	13912	729	0	32771	32755	32328	32756	32641	33029	32519	32439	
1257	0	5153	6033	12757	13887	730	0	32711	32759	32354	32791	32775	32775	32684	32564	
1258	0	5157	6060	12716	13880	731	0	32683	32837	32309	32799	32676	32454	32861	32828	
1259	0	5232	6074	12692	13900	732	0	32711	32863	32277	32769	32655	32246	32923	32615	
1260	0	5224	6057	12730	13864	733	0	32679	32884	32553	32677	32518	32683	33051	32961	
1261	0	5187	6066	12744	13888	734	0	32775	32807	32703	32683	32617	33006	32949	32975	
1262	0	5184	6072	12776	13908	735	0	32822	32797	32769	32676	32759	33111	32693	32801	
1263	0	5204	6081	12768	13884	736	0	32790	32923	32855	32749	32679	32643	32711	32540	
1264	0	5215	6073	12694	13884	737	0	32788	32869	32639	32759	32543	32391	32583	32468	
1265	0	5204	6043	12704	13917	738	0	32735	32807	32809	32662	32590	32310	32687	32631	
1266	0	5204	6052	12743	13968	739	0	32713	32785	32807	32711	32807	32743	32790	32617	
1267	0	5146	6032	12682	13928	740	0	32775	32749	32852	32503	32894	33423	32708	32715	
1268	0	5186	6031	12728	13858	741	0	32743	32759	32879	32535	32839	33405	32659	32797	
1269	0	5173	6004	12705	13920	742	0	32765	32693	32727	32569	32646	32844	32626	32646	
1270	0	5198	6022	12720	13838	743	0	32819	32671	32638	32665	32471	32175	32772	32873	
1271	0	5207	6057	12696	13899	744	0	32701	32740	32627	32679	32454	32118	32710	32949	
1272	0	5175	6075	12711	13898	745	0	32706	32743	32613	32679	32453	32714	32677	32703	
1273	0	5156	6052	12708	13916	746	0	32730	32764	32615	32655	32620	33199	32711	32895	
1274	0	5174	6070	12684	13866	747	0	32774	32705	32859	32731	32975	33261	32751	33066	
1275	0	5206	6029	12762	13885	748	0	32800	32675	32818	32799	32996	32647	32747	32871	
1276	0	5187	6062	12680	13888	749	0	32759	32735	32893	32805	32975	32286	32784	32960	
1277	0	5157	6083	12741	13876	750	0	32784	32742	32976	32838	32903	32325	32692	33013	
1278	0	5219	6048	12734	13894	751	0	32720	32821	32887	32762	32804	32974	32737	32610	
1279	0	5176	6097	12774	13867	752	0	32734	32769	32857	32771	32558	33278	32703	32570	
1280	0	5171	6041	12606	13820	753	0	32690	32789	32943	32674	32579	33221	32583	32693	
1281	0	5142	6009	12722	13906	754	0	32799	32837	32844	32655	32469	32573	32669	32433	
1282	0	5186	6104	12694	13868	755	0	32756	32835	32864	32690	32493	32306	32626	32459	
1283	0	5192	6048	12696	13921	756	0	32806	32788	32985	32749	32679	32333	32833	32598	
1284	0	5199	6106	12662	13852	757	0	32682	32824	32782	32761	32783	33037	33059	32775	
1285	0	5214	6108	12706	13884	758	0	32702	32812	32709	32770	32767	33146	32989	32802	
1286	0	5158	6016	12734	13884	759	0	32647	32884	32749	32715	32903	32667	32919	32599	
1287	0	5186	6056	12740	13925	760	0	32775	32819	32759	32773	32887	32415	32929	32959	
1288	0	5201	6101	12727	13891	761	0	32876	32775	32849	32796	32765	32377	32903	32989	
1289	0	5130	6040	12698	13896	762	0	32808	32803	32668	32850	32535	32871	32671	32581	
1290	0	5186	6060	12705	13900	763	0	32818	32814	32671	32807	32250	33302	32764	32689	
1291	0	5167	6012	12708	13917	764	0	32812	32919	32719	32884	32583	33395	32854	32839	
1292	0	5204	6066	12780	13898	765	0	32841	32811	32805	32793	32917	32775	32629	32482	
1293	0	5171	6045	12656	13868	766	0	32815	32865	32887	32719	32759	32263	32459	32711	
1294	0	5142	6057	12736	13912	767	0	32772	32843	32982	32704	32687	32293	32468	32787	
1295	0	5216	6008	12674	13899	768	0	32781	32759	32982	32668	32803	32668	32623	32733	
1296	0	5155	6059	12708	13897	769	0	32756	32738	32887	32542	32811	33184	32659	32975	
1297	0	5153	6033	12718	13904	770	0	32782	32804	32955	32629	32775	33245	32767	32989	
1298	0	5176	6069	12734	13881	771	0	32725	32757	32705	32540	32631	32663	32954	32942	
1299	0	5192	6053	12686	13869	772	0	32773	32774	32531	32575	32405	32423	32844	32895	
1300	0	5189	6035	12652	13881	773	0	32738	32822	32533	32564	32468	32583	32694	32586	
1301	0	5145	6048	12752	13900	774	0	32707	32742	32411	32671	32681	33091	32749	32687	
1302	0	5162	6016	12714	13892	775	0	32647	32711	32647	32764	32783	33387	32706	32717	
1303	0	5196	6056	12655	13920	776	0	32736	32635	32683	32707	32791	33159	32751	32567	
1304	0	5167	6001	12705	13872	777	0	32669	32734	32489	32694	32564	32391	32742	32773	
1305	0	5174	5995	12734	13880	778	0	32722	32823	32411	32701	32514	32063	32750	32927	
1306	0	5176	6021	12701	13918	779	0	32730	32902	32397	32721	32583	32167	32631	32743	
1307	0	5187	6064	12658	13914	780	0	32718	32871	32431	32731	32717	32743	32555	32533	
1308	0	5179	6075	12764	13881	781	0	32815	32812	32567	32738	32703	32913	32655	32694	
1309	0	5194	6060	12665	13922	782	0	32775	32775	32815	32811	32663	32751	32821	32691	
1310	0	5153	6014	12730	13920	783	0	32871	32695	32821	32749	32667	32205	32899	32793	
1311	0	5170	6063	12734	13905	784	0	32844	32733	32853	32713	32881	32391	32775	32671	
1312	0	5173	6036	12740	13891	785	0	32841	32733	32854	32761	32926	32837	32679	32638	
1313	0	5171	6024	12649	13906	786	0	32793	32751	32702	32773	32825	33414	32594	32671	
1314	0	5172	6056	12692	13893	787	0	32821	32807	32978	32812	32911	33275	32712	32741	
1315	0	5165	6016	12694	13925	788	0	32785	32862	33303	32831	32855	32999	32844	32630	
1316	0	5145	6033	12720	13908	789	0	32761	32791	33357	32795	32839	32444	32969	32715	
1317	0	5171	6020	12755	13952	790	0	32751	32766	33283	32717	32786	32364	32814	32828	
1318	0	5151	6049	12708	13896	791	0	32707	32799	32947	32668	32615	32815	32738	32729	
1319	0	5148	6040	12684	13884	792	0	32743	32847	32978	32749	32743	33085	32749	32815	
1320	0	5142	6072	12772	13912	793	0	32642	32811	32903	32741	32786	33041	32873	32962	
1321	0	5160	6031	12752	13893	794	0	32668	32803	32803	32756	32403	32417	32813	32732	
1322	0	5133	6016	12704	13898	795	0	32681	32835	32735	32807	32317	32063	32626	32847	
1323	0	5141	5992	12644	13857	796	0	32775	32789	32625	32631	32407	32134	32802	32933	
1324	0	5143	6018	12800	13904	797	0	32759	32878	32517	32619	32615	32796	32741	32821	
1325	0	5168	6016	12757	13913	798	0	32807	32810	32325	32598	32825	33380	32685	32532	
1326	0	5172	6025	12754	13896	799	0	32754	32799	32205	32599	32903	33059	32663	32707	
1327	0	5191	6004	12744	13952	800	0	32741	32767	32135	32655	32807	32703	32655	32775	
1328	0	5188	6044	12704	13914	801	0	32732	32733	32084	32723	32769	32406	32772	32589	
1329	0	5158	6000	12738	13938	802	0	32746	32751	32233	32703	32621	32581	32815	32775	
1330	0	5156	6024	12752	13928	803	0	32744	32674	32231	32703	32631	32932	32918	32897	
1331	0	5136	6022	12660	13898	804	0	32661	32756	32223	32631	32551	33051	32831	32647	
1332	0	5103	6027	12822	13914	805	0	32782	32721	32596	32677	32534	32860	32875	32677	
1333	0	5130	5964	12769	13906	806	0	32764	32805	32645	32735	32570	32419	32786	32582	
1334	0	5200	6016	12737	13950	807	0	32742	32791	33003	32863	32679	32423	32775	32409	
1335	0	5158	5975	12756	13904	808	0	32775	32826	33087	32871	32437	32887	32745	32858	
1336	0	5130	6001	12741	13942	809	0	32702	32807	33287	32901	32231	33391	32836	32827	
1337	0	5186	5970	12750	13935	810	0	32677	32831	33254	32799	32386	33350	32763	32711	
1338	0	5146	6002	12786	13930	811	0	32693	32747	33189	32748	32495	32937	32759	32807	
1339	0	5178	5995	12730	13930	812	0	32708	32718	33275	32647	32719	32223	32697	32786	
1340	0	5170	6035	12720	13924	813	0	32684	32719	32903	32644	32551	32239	32573	32710	
1341	0	5113	5967	12799	13901	814	0	32753	32709	33030	32617	32493	32595	32718	32903	
1342	0	5099	6034	12728	13929	815	0	32734	32719	32679	32503	32692	33065	32730	32737	
1343	0	5208	5963	12744	13936	816	0	32791	32823	32766	32557	32474	33020	32771	32879	
1344	0	5156	6020	12801	13931	817	0	32687	32871	32621	32583	32531	32690	32659	32804	
1345	0	5145	6008	12774	13898	818	0	32782	32813	32547	32594	32839	32303	32735	32625	
1346	0	5147	6048	12705	13910	819	0	32820	32796	32588	32621	32919	32539	32804	32897	
1347	0	5124	5979	12718	13924	820	0	32775	32808	32483	32689	32847	33142	32809	33041	
1348	0	5189	6006	12811	13940	821	0	32804	32811	32610	32724	32990	33271	32850	32819	
1349	0	5160	5997	12752	13888	822	0	32790	32691	32621	32805	32897	32915	32643	32583	
1350	0	5117	6014	12816	13928	823	0	32874	32711	32682	32881	32734	32291	32735	32751	
1351	0	5112	5971	12795	13928	824	0	32847	32751	32869	32811	32636	32274	32834	32555	
1352	0	5176	5974	12764	13925	825	0	32826	32736	32677	32860	32837	32673	32861	32675	
1353	0	5112	6006	12836	13984	826	0	32786	32702	32703	32796	32690	32985	32834	32721	
1354	0	5142	6009	12817	13904	827	0	32803	32765	32764	32775	32454	33140	32855	32555	
1355	0	5098	6017	12728	13938	828	0	32834	32775	32631	32705	32599	32644	32743	32709	
1356	0	5136	5984	12817	13939	829	0	32768	32727	32679	32647	32820	32241	32644	32807	
1357	0	5157	5986	12742	13923	830	0	32690	32839	32703	32614	32713	32229	32647	32598	
1358	0	5120	6020	12702	13897	831	0	32663	32854	32599	32570	32487	32710	32601	32819	
1359	0	5104	5998	12708	13918	832	0	32689	32839	32681	32620	32540	33306	32663	32895	
1360	0	5150	5958	12788	13929	833	0	32697	32873	32578	32647	32607	33203	32715	32791	
1361	0	5184	5998	12737	13939	834	0	32742	32804	32636	32725	32732	32807	32834	32927	
1362	0	5131	5966	12788	13966	835	0	32732	32839	32924	32787	32718	32340	32735	32910	
1363	0	5193	5942	12765	13944	836	0	32787	32844	32791	32761	32620	32243	32821	32578	
1364	0	5174	5979	12715	13908	837	0	32763	32796	32836	32807	32561	32631	32861	32810	
1365	0	5124	5992	12727	13944	838	0	32834	32815	32846	32762	32811	32998	32692	32805	
1366	0	5159	5959	12772	13924	839	0	32775	32844	32758	32771	32615	33179	32658	32555	
1367	0	5122	5949	12745	13954	840	0	32794	32711	32943	32745	32647	32683	32843	32711	
1368	0	5134	5962	12794	13930	841	0	32803	32722	32771	32747	32660	32284	32804	32647	
1369	0	5133	5960	12766	13991	842	0	32792	32774	32869	32841	32522	32295	32771	32455	
1370	0	5148	5940	12792	13921	843	0	32811	32758	32826	32842	32516	32967	32749	32783	
1371	0	5136	5991	12738	13956	844	0	32777	32724	32775	32852	32769	33359	32711	32599	
1372	0	5154	6000	12728	13945	845	0	32782	32783	32959	32797	32783	33094	32890	32927	
1373	0	5130	6010	12858	13890	846	0	32722	32743	32815	32866	32841	32583	32996	33407	
1374	0	5113	5985	12818	13922	847	0	32783	32729	32895	32831	32852	32295	32914	33212	
1375	0	5154	6009	12696	13945	848	0	32793	32805	32978	32775	32953	32758	32677	32708	
1376	0	5154	5947	12674	13973	849	0	32807	32771	32953	32735	32970	33334	32346	32548	
1377	0	5120	5982	12740	13898	850	0	32823	32808	32873	32703	32841	33437	32586	32316	
1378	0	5136	5968	12768	13924	851	0	32718	32813	32572	32663	32455	32743	32948	32613	
1379	0	5131	5974	12804	13924	852	0	32762	32815	32592	32623	32229	32227	33095	32673	
1380	0	5150	5957	12788	13896	853	0	32704	32843	32471	32673	32433	32185	33079	32759	
1381	0	5154	6024	12742	13954	854	0	32724	32775	32631	32754	32748	32660	33012	32815	
1382	0	5052	5963	12762	13904	855	0	32711	32758	32623	32721	32815	33252	32953	32559	
1383	0	5121	5962	12730	13931	856	0	32753	32763	32731	32767	32615	33183	32831	32633	
1384	0	5127	5990	12744	13966	857	0	32694	32807	32913	32771	32676	32587	32862	32709	
1385	0	5140	5967	12821	13964	858	0	32732	32775	32763	32724	32703	32132	32873	32585	
1386	0	5132	5962	12738	13920	859	0	32732	32703	32839	32775	32663	32098	32792	32803	
1387	0	5116	5963	12751	13936	860	0	32728	32742	32711	32821	32566	32879	32775	32818	
1388	0	5125	5988	12837	13970	861	0	32766	32739	32772	32975	32481	33302	32901	32855	
1389	0	5124	6010	12776	13987	862	0	32775	32725	32740	32997	32799	33315	32813	32949	
1390	0	5137	5956	12830	13968	863	0	32796	32775	32767	32927	32887	32636	32711	32783	
1391	0	5132	5987	12750	13976	864	0	32715	32855	32883	32893	32831	32367	32671	32911	
1392	0	5132	5961	12754	13924	865	0	32719	32868	32863	32797	32540	32391	32775	32839	
1393	0	5113	6002	12820	13924	866	0	32791	32850	32773	32687	32497	32694	32727	32788	
1394	0	5098	5949	12818	13896	867	0	32797	32890	32924	32647	32646	33031	32662	32643	
1395	0	5140	5968	12720	13952	868	0	32831	32799	32751	32565	32541	32836	32637	32785	
1396	0	5109	5945	12770	13925	869	0	32772	32823	32918	32423	32647	32423	32655	32564	
1397	0	5112	5966	12754	13948	870	0	32716	32847	32759	32342	32591	32287	32717	32639	
1398	0	5129	5934	12762	13938	871	0	32746	32870	32751	32351	32671	32765	32611	32737	
1399	0	5108	5973	12814	13970	872	0	32772	32827	32612	32350	32775	33258	32703	32667	
1400	0	5095	5966	12789	13961	873	0	32773	32748	32617	32451	32806	33492	32685	32743	
1401	0	5106	5954	12764	13949	874	0	32765	32705	32593	32549	32471	32989	32703	32743	
1402	0	5144	5952	12788	13958	875	0	32766	32807	32391	32564	32479	32319	32703	32811	
1403	0	5129	5930	12697	13920	876	0	32824	32815	32620	32607	32571	32165	32743	32621	
1404	0	5135	5983	12794	13957	877	0	32771	32828	32537	32724	32751	32551	32699	32738	
1405	0	5085	6002	12784	13924	878	0	32749	32735	32599	32793	32835	32982	32865	32783	
1406	0	5132	5936	12809	13936	879	0	32811	32775	32441	32806	32745	32891	32877	32871	
1407	0	5110	5956	12760	13936	880	0	32825	32738	32527	32764	32747	32757	32871	32927	
1408	0	5134	5977	12781	13974	881	0	32788	32755	32507	32733	32823	32423	32918	32916	
1409	0	5148	5967	12818	13916	882	0	32717	32751	32677	32753	32588	32522	32808	32818	
1410	0	5086	5945	12752	13960	883	0	32718	32789	32626	32770	32304	33196	32761	32506	
1411	0	5101	5958	12704	13944	884	0	32730	32879	32671	32809	32263	33382	32755	32491	
1412	0	5101	5990	12779	13924	885	0	32726	32871	32711	32796	32348	33127	32722	32615	
1413	0	5127	5945	12756	13949	886	0	32714	32815	32857	32859	32539	32498	32799	32775	
1414	0	5106	5949	12739	13968	887	0	32802	32753	32946	32871	32558	32034	32852	33014	
1415	0	5138	5976	12775	13928	888	0	32673	32733	32839	32911	32323	32383	32810	32926	
1416	0	5091	5994	12770	13974	889	0	32751	32742	32903	32870	32359	32863	32695	32987	
1417	0	5124	5992	12808	13926	890	0	32722	32775	32867	32836	32706	33335	32647	32858	
1418	0	5117	5928	12800	13928	891	0	32751	32835	32791	32775	32999	32927	32693	32506	
1419	0	5128	5978	12768	13958	892	0	32769	32775	32991	32813	32884	32212	32785	32579	
1420	0	5096	5992	12768	13928	893	0	32775	32820	32900	32735	32957	32214	32715	32585	
1421	0	5129	5948	12792	13992	894	0	32809	32682	32775	32791	32778	32571	32703	32409	
1422	0	5097	5976	12710	13981	895	0	32760	32711	32855	32782	32548	33294	32706	32711	
1423	0	5132	5952	12792	14000	896	0	32753	32758	32743	32748	32539	33391	32754	33019	
1424	0	5136	5960	12750	13966	897	0	32692	32749	32726	32815	32305	32807	32743	32815	
1425	0	5095	5988	12855	13952	898	0	32716	32723	32877	32647	32415	32215	32810	32932	
1426	0	5112	5990	12768	13923	899	0	32698	32703	32734	32620	32954	32218	32871	33148	
1427	0	5096	5962	12752	13956	900	0	32751	32793	32798	32658	33079	32666	32943	32884	
1428	0	5108	5976	12797	13952	901	0	32796	32814	32811	32654	32901	32903	32886	32658	
1429	0	5073	5945	12760	13983	902	0	32743	32839	32685	32671	32694	33221	32951	32693	
1430	0	5104	5974	12781	13924	903	0	32745	32743	32715	32559	32671	32727	32876	32839	
1431	0	5101	5998	12770	13942	904	0	32759	32769	32699	32578	32727	32468	32809	32550	
1432	0	5072	5984	12715	13932	905	0	32713	32765	32628	32723	32773	32524	32863	32837	
1433	0	5129	6008	12809	13955	906	0	32680	32832	32783	32684	32743	33025	32657	32863	
1434	0	5087	5944	12766	13960	907	0	32752	32719	32743	32743	32668	33116	32639	32500	
1435	0	5114	5971	12732	13957	908	0	32736	32703	32759	32749	32450	33031	32591	32691	
1436	0	5143	5960	12780	13970	909	0	32860	32711	32844	32731	32519	32347	32647	32511	
1437	0	5121	5973	12780	13970	910	0	32775	32759	32743	32760	32469	32362	32700	32710	
1438	0	5126	5961	12740	13961	911	0	32749	32795	32769	32700	32613	32739	32671	32845	
1439	0	5130	5946	12829	13952	912	0	32746	32791	32663	32647	32749	33319	32735	32735	
1440	0	5124	6009	12781	13989	913	0	32801	32814	32773	32573	32797	33251	32709	32911	
1441	0	5108	5986	12757	13954	914	0	32859	32759	32787	32587	32748	32839	32803	32822	
1442	0	5120	5972	12704	13956	915	0	32797	32836	32719	32601	32574	32199	32815	32868	
1443	0	5091	5967	12829	13976	916	0	32801	32775	32834	32575	32646	32042	32810	32884	
1444	0	5130	5929	12786	13982	917	0	32741	32711	32787	32680	32587	32489	32713	32557	
1445	0	5120	5954	12754	13960	918	0	32732	32704	32707	32783	32753	33103	32614	32607	
1446	0	5152	5997	12776	13933	919	0	32798	32669	32551	32797	32767	33327	32631	32717	
1447	0	5088	6015	12768	13960	920	0	32764	32701	32663	32831	32679	32775	32788	32708	
1448	0	5109	5960	12806	13972	921	0	32767	32761	32484	32909	32637	32447	32853	32647	
1449	0	5095	5976	12758	13954	922	0	32721	32843	32517	32871	32596	32559	32857	32538	
1450	0	5118	5966	12840	13946	923	0	32834	32797	32437	32879	32541	32980	32930	32833	
1451	0	5124	5987	12698	13955	924	0	32717	32815	32721	32877	32591	33439	32816	33109	
1452	0	5125	5925	12667	13977	925	0	32735	32876	32858	32826	32583	33099	32775	32822	
1453	0	5063	5922	12756	13984	926	0	32773	32810	32807	32771	32657	32391	32735	32845	
1454	0	5157	5983	12738	13948	927	0	32806	32807	32948	32743	32781	31891	32659	32679	
1455	0	5115	6001	12809	13912	928	0	32834	32808	32852	32765	32835	32172	32621	32425	
1456	0	5100	5954	12781	13980	929	0	32846	32869	32793	32775	32583	32773	32756	32697	
1457	0	5087	5989	12742	13925	930	0	32813	32853	32845	32787	32511	33149	32767	32847	
1458	0	5137	5954	12728	13962	931	0	32734	32895	32669	32711	32591	32941	32695	32607	
1459	0	5137	5990	12797	13955	932	0	32799	32727	32767	32695	32694	32527	32703	32802	
1460	0	5096	5973	12704	13992	933	0	32785	32743	32593	32751	32775	32278	32756	32735	
1461	0	5103	5972	12838	13960	934	0	32820	32740	32743	32771	32688	32397	32775	32581	
1462	0	5132	5950	12712	13976	935	0	32772	32713	32782	32719	32775	32999	32878	32763	
1463	0	5154	5986	12758	13933	936	0	32881	32724	32671	32833	32877	33159	32820	32765	
1464	0	5144	5984	12844	13954	937	0	32804	32771	32739	32839	32583	33061	32804	32579	
1465	0	5101	5939	12766	13929	938	0	32775	32695	32686	32807	32642	32459	32722	32621	
1466	0	5153	5938	12802	13966	939	0	32775	32839	32716	32780	32687	32495	32705	32671	
1467	0	5080	5932	12786	13952	940	0	32766	32773	32903	32643	32891	32682	32752	32583	
1468	0	5131	5974	12752	13956	941	0	32712	32775	32782	32642	32793	33006	33005	32997	
1469	0	5143	5956	12744	13928	942	0	32722	32775	32851	32660	32757	33212	32955	33066	
1470	0	5125	5990	12796	13922	943	0	32764	32839	32855	32687	32871	32715	32834	32767	
1471	0	5110	5961	12816	13965	944	0	32725	32813	32647	32671	32869	32423	32953	32879	
1472	0	5116	5980	12748	13943	945	0	32751	32830	32839	32647	32697	32510	32853	32844	
1473	0	5130	5995	12776	13956	946	0	32735	32822	32732	32594	32601	32859	32772	32574	
1474	0	5136	5951	12748	13949	947	0	32761	32803	32756	32627	32436	33355	32822	32853	
1475	0	5105	5955	12657	13888	948	0	32715	32847	32815	32719	32381	33031	32747	32951	
1476	0	5114	5980	12712	13930	949	0	32663	32787	32663	32647	32669	32447	32739	32647	
1477	0	5125	5983	12785	13914	950	0	32765	32711	32639	32761	32900	31914	32775	32773	
1478	0	5117	5970	12835	13936	951	0	32751	32733	32772	32716	32836	32359	32806	32945	
1479	0	5139	5970	12805	13994	952	0	32765	32711	32775	32727	32758	33001	32925	32719	
1480	0	5154	5955	12720	13984	953	0	32702	32767	32884	32783	32535	33344	32890	32765	
1481	0	5106	5934	12727	13941	954	0	32781	32821	32871	32746	32527	33258	32751	32775	
1482	0	5131	5996	12739	13948	955	0	32710	32825	32887	32647	32659	32690	32567	32485	
1483	0	5139	5956	12844	13954	956	0	32734	32861	32999	32660	32725	32319	32566	32652	
1484	0	5096	5931	12733	13952	957	0	32677	32940	32756	32626	32703	32295	32669	32679	
1485	0	5112	5979	12794	13954	958	0	32710	32879	32706	32685	32644	32941	32681	32633	
1486	0	5149	5952	12754	14000	959	0	32668	32877	32522	32695	32802	33047	32709	32787	
1487	0	5118	5976	12664	13976	960	0	32743	32817	32381	32741	32831	32711	32821	32891	
1488	0	5142	5969	12770	13956	961	0	32781	32711	32583	32836	32615	32091	32758	32447	
1489	0	5123	5986	12747	13976	962	0	32823	32687	32434	32852	32592	32316	32711	32539	
1490	0	5108	5937	12829	13963	963	0	32822	32703	32694	32895	32508	32788	32647	32585	
1491	0	5169	5957	12802	13972	964	0	32820	32732	32775	32927	32365	33461	32676	32529	
1492	0	5138	5978	12745	13976	965	0	32820	32683	32631	32901	32421	33311	32869	32895	
1493	0	5102	5996	12704	13972	966	0	32831	32799	32604	32951	32703	32839	32893	33101	
1494	0	5092	5945	12786	13952	967	0	32828	32783	32749	32943	32663	32388	32935	32737	
1495	0	5118	5970	12812	13964	968	0	32797	32829	32804	32903	32710	32279	32942	32847	
1496	0	5060	5967	12746	13948	969	0	32764	32782	32703	32964	32745	32621	32885	33030	
1497	0	5131	6041	12756	13938	970	0	32731	32782	32831	32860	32823	32931	32751	32671	
1498	0	5102	5954	12833	13938	971	0	32763	32775	32639	32807	32975	33110	32647	32764	
1499	0	5098	5936	12858	13940	972	0	32767	32733	32815	32591	32876	32743	32759	32677	
1500	0	5133	5960	12682	13962	973	0	32748	32831	32626	32557	32980	32309	32596	32741	
1501	0	5121	5983	12792	13986	974	0	32719	32771	32765	32537	32662	32678	32551	32599	
1502	0	5122	5944	12742	13979	975	0	32680	32809	32773	32647	32460	33240	32583	32615	
1503	0	5109	5981	12752	13938	976	0	32726	32823	32684	32647	32593	33219	32663	32735	
1504	0	5127	5974	12698	13984	977	0	32742	32855	32738	32647	32735	32879	32581	32401	
1505	0	5077	5941	12796	13954	978	0	32806	32836	32575	32647	32455	32223	32619	32428	
1506	0	5116	5968	12752	13938	979	0	32742	32831	32487	32623	32407	32063	32799	32700	
1507	0	5148	5947	12732	13980	980	0	32774	32831	32631	32647	32429	32639	32876	32756	
1508	0	5178	5954	12848	13952	981	0	32810	32775	32740	32685	32757	33154	32890	32903	
1509	0	5126	5941	12834	13969	982	0	32749	32789	32663	32647	32773	33415	32793	32971	
1510	0	5121	5948	12769	13989	983	0	32796	32751	32879	32663	32743	32873	32789	32763	
1511	0	5088	5963	12741	13960	984	0	32735	32870	32847	32655	32709	32411	32767	32712	
1512	0	5164	5944	12824	13960	985	0	32775	32866	32976	32701	32623	32358	32743	32788	
1513	0	5149	5949	12718	13946	986	0	32727	32850	33168	32711	32582	32833	32669	32629	
1514	0	5122	5979	12778	13969	987	0	32754	32787	33079	32729	32669	33117	32775	32903	
1515	0	5104	5948	12792	13948	988	0	32734	32775	33255	32775	32853	32993	32887	32900	
1516	0	5155	5940	12777	13949	989	0	32751	32755	33037	32918	32839	32695	32815	32850	
1517	0	5130	5955	12754	13936	990	0	32719	32807	33063	32900	32935	32263	32839	32740	
1518	0	5145	5946	12834	13957	991	0	32724	32806	32793	32902	32679	32521	32911	32660	
1519	0	5104	5980	12787	13955	992	0	32677	32809	32726	32929	32493	33055	32956	32799	
1520	0	5156	5978	12773	14010	993	0	32714	32748	32629	32830	32713	33366	32955	32548	
1521	0	5096	5945	12850	13964	994	0	32850	32671	32613	32747	32727	33039	32935	32775	
1522	0	5100	5958	12786	13936	995	0	32846	32703	32599	32623	32812	32561	32935	32945	
1523	0	5079	5981	12760	13968	996	0	32810	32797	32557	32546	32812	32284	32739	32749	
1524	0	5108	5944	12739	13988	997	0	32765	32909	32535	32482	32911	32611	32743	32854	
1525	0	5112	5936	12829	13962	998	0	32743	32828	32391	32342	32987	33095	32701	32554	
1526	0	5140	5961	12829	14020	999	0	32775	32876	32537	32319	32615	33277	32611	32663	
1527	0	5146	5936	12762	13990	1000	0	32778	32898	32466	32367	32559	32738	32507	32671	
1528	0	5109	5940	12757	13976	1001	0	32719	32813	32718	32515	32463	32231	32591	32859	
1529	0	5096	5966	12760	13978	1002	0	32756	32775	32707	32666	32471	31960	32703	32935	
1530	0	5115	5956	12816	14032	1003	0	32777	32773	33015	32751	32398	32313	32721	32647	
1531	0	5123	5944	12752	13977	1004	0	32744	32749	33012	32753	32584	33082	32691	32647	
1532	0	5087	5968	12818	13968	1005	0	32682	32670	33069	32845	32853	33175	32775	32647	
1533	0	5069	5940	12760	13944	1006	0	32795	32711	33111	32839	32967	32859	32813	32695	
1534	0	5094	5949	12748	13986	1007	0	32797	32790	32929	32838	33031	32335	32918	32801	
1535	0	5074	5953	12802	13933	1008	0	32773	32859	32967	32903	32588	32376	33055	32932	
1536	0	5127	5924	12826	13961	1009	0	32831	32813	32731	32933	32611	32828	32975	33181	
1537	0	5076	5994	12787	13954	1010	0	32779	32787	32751	32775	32775	32989	32834	32927	
1538	0	5126	5970	12842	13972	1011	0	32778	32743	32740	32749	32923	32891	32659	32284	
1539	0	5145	6004	12706	13996	1012	0	32773	32787	32545	32791	32843	32381	32670	32409	
1540	0	5102	5986	12774	13984	1013	0	32805	32767	32589	32755	32683	32091	32715	32724	
1541	0	5136	5933	12736	13973	1014	0	32820	32812	32540	32771	32486	32293	32733	32516	
1542	0	5105	5974	12794	13970	1015	0	32809	32818	32569	32797	32511	33068	32725	32669	
1543	0	5079	5964	12784	13952	1016	0	32772	32805	32665	32798	32455	33202	32754	32643	
1544	0	5117	5930	12746	13982	1017	0	32695	32799	32563	32734	32667	32917	32767	32574	
1545	0	5154	5994	12794	13956	1018	0	32697	32758	32599	32772	32821	32223	32743	32871	
1546	0	5116	5944	12814	13964	1019	0	32759	32743	32615	32685	32852	32154	32621	32874	
1547	0	5124	5948	12800	13960	1020	0	32749	32747	32557	32637	32754	32585	32647	32858	
1548	0	5102	5942	12786	13959	1021	0	32770	32773	32579	32660	32559	33119	32743	33055	
1549	0	5133	5923	12760	13932	1022	0	32758	32790	32419	32631	32435	33511	32868	32806	
1550	0	5133	5968	12812	13932	1023	0	32762	32775	32526	32667	32511	33117	32997	33074	
1551	0	5108	5955	12828	13956	1024	0	32677	32765	32610	32615	32700	32562	32899	33001	
1552	0	5124	5965	12760	13952	1025	0	32711	32756	32491	32628	32711	32223	32724	32611	
1553	0	5093	5946	12774	13941	1026	0	32735	32685	32639	32641	32754	32663	32679	32507	
1554	0	5112	5940	12798	13904	1027	0	32711	32761	32758	32585	32895	33045	32662	32293	
1555	0	5131	5955	12820	13952	1028	0	32732	32743	32948	32679	32804	33015	32615	32537	
1556	0	5092	5949	12777	14010	1029	0	32710	32727	33087	32706	32583	32403	32589	32702	
1557	0	5108	5954	12706	13982	1030	0	32696	32801	32976	32658	32383	32135	32807	32692	
1558	0	5054	5973	12772	13975	1031	0	32725	32791	33244	32768	32514	32374	32967	32969	
1559	0	5116	5984	12760	13904	1032	0	32741	32761	33159	32717	32759	33019	33044	33093	
1560	0	5112	6004	12730	13934	1033	0	32782	32754	33117	32690	32807	33579	32827	32925	
1561	0	5102	5987	12770	13962	1034	0	32737	32717	33055	32698	32593	33405	32847	32887	
1562	0	5097	5983	12805	13976	1035	0	32697	32860	32900	32749	32531	32839	32699	32711	
1563	0	5085	5997	12820	13997	1036	0	32764	32775	32887	32687	32700	32255	32631	32765	
1564	0	5117	5933	12825	13976	1037	0	32784	32856	32679	32709	32823	32375	32558	32812	
1565	0	5121	5985	12804	13980	1038	0	32764	32766	32767	32793	32892	32782	32511	32492	
1566	0	5154	5977	12810	13976	1039	0	32824	32747	32479	32807	32967	33079	32511	32587	
1567	0	5126	5975	12760	13983	1040	0	32838	32783	32443	32827	32535	32889	32695	32871	
1568	0	5142	5979	12838	13958	1041	0	32791	32764	32445	32891	32455	32619	32699	32787	
1569	0	5085	5968	12780	13956	1042	0	32743	32775	32509	32836	32735	32463	32612	32751	
1570	0	5129	5992	12822	13976	1043	0	32742	32669	32565	32767	32915	32738	32655	32730	
1571	0	5152	5959	12738	13950	1044	0	32694	32771	32646	32743	32721	33322	32585	32454	
1572	0	5090	5955	12845	13945	1045	0	32707	32751	32629	32675	32647	33179	32675	32847	
1573	0	5127	5946	12787	13940	1046	0	32681	32819	32706	32663	32565	32841	32850	32805	
1574	0	5156	5969	12784	13984	1047	0	32737	32791	32895	32647	32540	32159	32922	32729	
1575	0	5097	5922	12700	13960	1048	0	32764	32771	32903	32567	32623	32303	32722	32607	
1576	0	5121	5963	12792	14000	1049	0	32806	32775	32881	32587	32709	32891	32669	32738	
1577	0	5142	5946	12774	13985	1050	0	32737	32797	32846	32628	32679	33285	32742	32487	
1578	0	5091	5894	12746	13974	1051	0	32684	32807	32762	32572	32751	33204	32812	32647	
1579	0	5100	5958	12776	13928	1052	0	32749	32739	32592	32687	32855	32407	32717	32751	
1580	0	5110	5963	12664	13927	1053	0	32748	32801	32687	32692	32797	31987	32850	32674	
1581	0	5117	5932	12837	13984	1054	0	32738	32767	32723	32771	32770	32134	32932	32903	
1582	0	5141	5936	12644	13988	1055	0	32828	32815	32659	32742	32809	32724	32838	33017	
1583	0	5120	5936	12818	13929	1056	0	32749	32813	32832	32903	32565	33382	32759	32602	
1584	0	5131	5972	12750	14004	1057	0	32698	32755	32727	32931	32647	33191	32708	32731	
1585	0	5090	5984	12729	13924	1058	0	32724	32709	32731	32813	32533	32604	32633	32808	
1586	0	5104	5928	12828	13968	1059	0	32767	32769	32647	32715	32421	32189	32642	32606	
1587	0	5108	5934	12754	13913	1060	0	32652	32727	32703	32701	32540	32209	32727	32815	
1588	0	5132	5953	12796	13943	1061	0	32686	32727	32783	32647	32775	32846	32845	32808	
1589	0	5124	5947	12770	13932	1062	0	32647	32807	32759	32543	32871	33297	32748	32566	
1590	0	5100	5963	12748	13956	1063	0	32596	32823	32802	32471	32852	33169	32571	32718	
1591	0	5120	5954	12870	13956	1064	0	32495	32879	32733	32336	32765	32613	32467	32822	
1592	0	5072	5940	12784	13976	1065	0	32532	32933	32887	32388	32825	32359	32604	32679	
1593	0	5105	5968	12795	13968	1066	0	32573	32855	33021	32371	32775	32687	32677	32866	
1594	0	5146	5922	12792	13923	1067	0	32489	32882	32768	32359	32743	33211	32659	32847	
1595	0	5118	5980	12738	13904	1068	0	32448	32871	32703	32447	32858	33155	32635	32535	
1596	0	5105	5966	12772	13994	1069	0	32481	32847	32447	32516	33015	32543	32575	32685	
1597	0	5134	5946	12794	13944	1070	0	32476	32875	32500	32671	32999	32071	32586	32583	
1598	0	5155	5949	12801	13926	1071	0	32423	32890	32203	32599	32910	32260	32556	32471	
1599	0	5090	5982	12763	13942	1072	0	32361	32871	32234	32679	33030	32647	32679	32991	
1600	0	5112	5956	12836	13980	1073	0	32397	32864	32135	32726	33055	33281	32748	33197	
1601	0	5073	6017	12844	13936	1074	0	32434	32873	32018	32729	32957	33205	32795	32871	
1602	0	5162	5993	12800	13962	1075	0	32429	32827	32115	32771	32769	32775	32811	32870	
1603	0	5132	5949	12805	13947	1076	0	32629	32717	32074	32807	32653	32287	32693	32807	
1604	0	5124	5987	12734	13985	1077	0	32690	32749	32251	32846	32605	32509	32749	32694	
1605	0	5088	5968	12736	13932	1078	0	32778	32635	32357	32937	32505	33021	32751	32841	
1606	0	5111	5941	12776	13922	1079	0	32972	32565	32599	32887	32519	33173	32751	33041	
1607	0	5136	5969	12784	13974	1080	0	33065	32495	32735	32931	32468	33101	33067	32935	
1608	0	5125	5942	12753	13980	1081	0	33405	32455	33023	32893	32477	32639	33109	32863	
1609	0	5154	5994	12777	13954	1082	0	33556	32463	33135	32871	32295	32202	33149	32877	
1610	0	5107	5947	12792	13998	1083	0	33782	32412	33239	32823	32305	32473	33180	32647	
1611	0	5133	5956	12755	13950	1084	0	33746	32319	33223	32863	32487	32903	33031	32555	
1612	0	5150	5976	12824	13961	1085	0	33743	32415	33215	32815	32401	32935	33223	32889	
1613	0	5135	5982	12809	13976	1086	0	33596	32551	33299	32775	32359	32900	33222	33215	
1614	0	5126	5973	12768	13942	1087	0	33567	32623	33215	32775	32279	32379	33190	33301	
1615	0	5142	5944	12825	13956	1088	0	33555	32709	33287	32797	32200	32229	33260	32950	
1616	0	5163	5954	12738	13912	1089	0	33508	32692	33189	32761	32175	32754	33251	32925	
1617	0	5115	6015	12777	13989	1090	0	33580	32647	33269	32785	32311	33175	33227	32699	
1618	0	5139	5956	12724	13944	1091	0	33510	32574	33059	32709	32385	33415	33124	32981	
1619	0	5130	5956	12772	13958	1092	0	33484	32466	33234	32577	32455	32903	33095	33093	
1620	0	5117	5956	12772	13948	1093	0	33401	32441	33079	32586	32443	32263	33046	32883	
1621	0	5164	5950	12768	13929	1094	0	33220	32485	33183	32591	32544	32069	32941	32623	
1622	0	5143	5975	12844	13930	1095	0	32996	32636	33201	32516	32796	32263	32749	32549	
1623	0	5134	5932	12756	13940	1096	0	32751	32742	32970	32545	32803	32999	32815	32663	
1624	0	5144	5977	12738	13982	1097	0	32574	32826	32903	32599	32775	33283	32799	32903	
1625	0	5116	5958	12758	13945	1098	0	32428	32868	32935	32647	32579	32850	32711	32878	
1626	0	5133	5966	12842	14016	1099	0	32332	32885	32847	32727	32435	32259	32519	32407	
1627	0	5131	5976	12716	13986	1100	0	32305	32942	32947	32684	32361	32103	32573	32481	
1628	0	5118	6034	12760	13976	1101	0	32365	32921	32959	32812	32279	32647	32724	32583	
1629	0	5169	6024	12744	13992	1102	0	32417	32984	32795	32837	32385	33283	32671	32483	
1630	0	5128	5981	12756	13958	1103	0	32360	33019	32871	32839	32705	33311	32610	32607	
1631	0	5104	5949	12804	13976	1104	0	32293	33060	32605	32775	33159	32667	32468	32690	
1632	0	5112	5988	12864	13941	1105	0	32262	33133	32607	32775	33113	32479	32537	32617	
1633	0	5099	5982	12788	13938	1106	0	32207	33031	32674	32879	33082	32711	32578	32729	
1634	0	5179	5981	12724	13968	1107	0	32256	33001	32562	32807	33031	33098	32502	32661	
1635	0	5149	5972	12845	14002	1108	0	32157	33011	32711	33051	32775	33090	32446	32263	
1636	0	5178	5992	12756	13922	1109	0	32143	33135	32627	32947	32839	32837	32487	32411	
1637	0	5152	6017	12820	13933	1110	0	32151	33129	32629	32933	32859	32220	32493	32695	
1638	0	5128	5946	12797	13951	1111	0	32175	33127	32662	32815	32844	32111	32590	32522	
1639	0	5119	5981	12822	14002	1112	0	32220	33110	32452	32739	32663	32723	32492	32633	
1640	0	5112	5984	12872	13924	1113	0	32308	33045	32630	32727	32761	33287	32572	32663	
1641	0	5162	5966	12740	13971	1114	0	32460	33023	32661	32675	32923	33246	32327	32228	
1642	0	5134	5984	12819	13932	1115	0	32481	33111	32557	32567	32743	32773	32367	32406	
1643	0	5113	5968	12816	13945	1116	0	32481	33065	32597	32519	32673	32055	32509	32255	
1644	0	5160	5950	12812	14002	1117	0	32433	33047	32477	32528	32636	32131	32543	32070	
1645	0	5141	5989	12776	13992	1118	0	32507	33031	32335	32484	32596	32640	32631	32717	
1646	0	5130	5972	12770	13932	1119	0	32523	32898	32491	32445	32765	33207	32709	32841	
1647	0	5115	5982	12800	13984	1120	0	32687	32787	32391	32423	32932	33399	32551	32903	
1648	0	5112	5968	12746	13958	1121	0	32780	32707	32659	32468	33023	32866	32508	32933	
1649	0	5161	6007	12833	14004	1122	0	32759	32715	32473	32525	33302	32359	32639	32682	
1650	0	5133	5974	12786	13955	1123	0	32786	32704	32551	32591	32919	32617	32780	32993	
1651	0	5111	5948	12822	13944	1124	0	32793	32802	32743	32675	32764	33143	32784	32941	
1652	0	5162	6008	12828	13938	1125	0	32833	32715	32676	32759	32754	33489	32773	32455	
1653	0	5155	5981	12750	13996	1126	0	32836	32711	32903	32629	32607	32955	32807	32481	
1654	0	5102	5992	12820	13962	1127	0	32828	32690	33095	32727	32599	32340	32958	32749	
1655	0	5179	5970	12836	13945	1128	0	32895	32727	32927	32759	32570	32055	33054	32703	
1656	0	5140	6000	12765	13984	1129	0	32937	32690	32978	32748	32444	32293	32940	32920	
1657	0	5148	5974	12807	13942	1130	0	32894	32679	32868	32805	32431	32678	32879	32903	
1658	0	5120	5977	12747	13958	1131	0	32968	32677	32863	32677	32580	33283	32727	32646	
1659	0	5148	5949	12801	13981	1132	0	32895	32735	32887	32685	32705	33071	32737	32773	
1660	0	5129	5979	12756	13941	1133	0	32813	32764	32655	32719	32749	32605	32714	32915	
1661	0	5133	5973	12780	13992	1134	0	32893	32647	32835	32723	32788	32348	32713	32965	
1662	0	5092	5968	12782	13974	1135	0	32868	32608	32611	32710	32883	32901	32749	33004	
1663	0	5157	5961	12772	13974	1136	0	32856	32631	32644	32699	32703	33296	32807	33159	
1664	0	5143	5992	12771	13988	1137	0	32838	32705	32429	32647	32284	33201	32799	32945	
1665	0	5148	5969	12812	14009	1138	0	32825	32749	32636	32659	32151	32643	32838	32847	
1666	0	5142	6000	12804	13979	1139	0	32822	32715	32661	32569	32460	32050	32692	32682	
1667	0	5154	5986	12742	14002	1140	0	32896	32679	32624	32503	32962	32004	32807	32452	
1668	0	5152	5979	12897	13988	1141	0	32900	32617	32775	32495	33077	32684	32830	32553	
1669	0	5104	5956	12792	13935	1142	0	32924	32721	32724	32457	33059	33167	32893	32657	
1670	0	5108	5990	12846	13974	1143	0	32801	32799	32535	32463	32829	33207	32998	32538	
1671	0	5101	5973	12808	13969	1144	0	32732	32757	32565	32515	32563	32791	33015	32847	
1672	0	5102	5958	12839	13971	1145	0	32773	32823	32375	32605	32423	32275	32940	32834	
1673	0	5134	5981	12822	13974	1146	0	32738	32743	32514	32556	32342	32589	32921	32692	
1674	0	5151	5920	12870	13979	1147	0	32765	32703	32665	32709	32291	33070	32885	32871	
1675	0	5124	5953	12790	13908	1148	0	32766	32764	32621	32719	32386	33438	32871	32727	
1676	0	5102	5987	12796	13992	1149	0	32718	32730	32807	32763	32631	33175	32647	32628	
1677	0	5110	6010	12856	13948	1150	0	32735	32711	32709	32863	32543	32535	32690	32587	
1678	0	5168	5972	12794	14024	1151	0	32740	32829	32743	32799	32583	32191	32827	32637	
1679	0	5142	6003	12828	13940	1152	0	32722	32821	32893	32734	32790	32655	32971	32969	
1680	0	5084	5981	12850	13946	1153	0	32720	32805	33095	32767	32962	33107	32951	32791	
1681	0	5146	5954	12814	13960	1154	0	32791	32767	33110	32801	32850	33271	32855	32943	
1682	0	5137	5990	12816	13946	1155	0	32812	32767	33111	32748	32791	32759	32735	32931	
1683	0	5098	5936	12866	13929	1156	0	32807	32855	32975	32854	32551	32359	32738	32639	
1684	0	5148	5972	12771	13949	1157	0	32745	32861	32733	32789	32391	32293	32730	32837	
1685	0	5102	5986	12815	13980	1158	0	32728	32757	32921	32763	32359	32661	32766	33065	
1686	0	5120	5992	12791	13979	1159	0	32761	32677	32762	32708	32567	33031	32759	32902	
1687	0	5133	5955	12760	13956	1160	0	32787	32647	32792	32762	32919	33147	32711	32815	
1688	0	5142	5972	12847	13941	1161	0	32878	32730	32803	32831	32914	32641	32718	32751	
1689	0	5145	5947	12786	13988	1162	0	32794	32663	32729	32742	32903	32189	32775	32583	
1690	0	5129	5969	12767	13964	1163	0	32850	32712	32838	32751	32815	32215	32775	32834	
1691	0	5163	5971	12825	13922	1164	0	32834	32717	32844	32700	32785	32791	32655	32807	
1692	0	5141	5948	12803	13932	1165	0	32820	32751	32684	32731	32727	33155	32647	32615	
1693	0	5114	5976	12807	13949	1166	0	32818	32818	32643	32630	32567	33124	32647	32855	
1694	0	5169	5947	12768	13968	1167	0	32743	32799	32748	32693	32413	32450	32547	32745	
1695	0	5109	5969	12744	13968	1168	0	32740	32851	32631	32789	32450	32231	32615	32655	
1696	0	5130	5969	12808	13956	1169	0	32845	32850	32820	32886	32549	32411	32695	32890	
1697	0	5140	5970	12797	13990	1170	0	32693	32793	32731	32848	32738	33015	32835	33025	
1698	0	5150	5967	12824	13966	1171	0	32684	32836	32730	32765	32939	32935	32823	32791	
1699	0	5124	5945	12763	13915	1172	0	32758	32763	32911	32797	32854	32719	32751	32733	
1700	0	5101	5980	12769	13940	1173	0	32802	32756	32751	32753	33035	32079	32839	32787	
1701	0	5160	5972	12768	13941	1174	0	32879	32759	32852	32659	32794	32095	32663	32489	
1702	0	5138	6000	12852	14005	1175	0	32774	32786	32838	32689	32450	32391	32683	32496	
1703	0	5097	5974	12790	13964	1176	0	32741	32797	32676	32655	32391	33217	32759	32676	
1704	0	5125	5994	12708	13958	1177	0	32788	32838	32677	32695	32335	33227	32655	32402	
1705	0	5093	5950	12734	13992	1178	0	32834	32877	32555	32757	32637	32687	32759	32574	
1706	0	5130	5930	12828	13960	1179	0	32759	32807	32647	32725	33021	32165	32879	32467	
1707	0	5160	5954	12774	13920	1180	0	32762	32703	32562	32832	32968	32036	32836	32895	
1708	0	5120	5937	12740	13922	1181	0	32763	32794	32743	32858	32675	32562	32807	33191	
1709	0	5114	5987	12761	13960	1182	0	32659	32761	32583	32841	32762	33319	32767	32830	
1710	0	5093	5990	12692	13929	1183	0	32704	32773	32551	32711	32775	33328	32831	32899	
1711	0	5073	5974	12784	13964	1184	0	32676	32787	32505	32644	32805	32941	32723	32607	
1712	0	5138	5949	12765	13912	1185	0	32759	32811	32687	32675	32795	32525	32817	32587	
1713	0	5109	6003	12784	13888	1186	0	32742	32828	32733	32663	32611	32472	32836	32695	
1714	0	5092	5956	12794	13974	1187	0	32786	32830	32873	32613	32615	32731	32793	32813	
1715	0	5100	5956	12808	13913	1188	0	32759	32855	32919	32458	32642	33297	32751	32917	
1716	0	5120	5981	12752	13971	1189	0	32773	32892	32916	32391	32775	33021	32739	32695	
1717	0	5141	5968	12890	13920	1190	0	32856	32837	32695	32375	32855	32355	32615	32817	
1718	0	5117	5953	12857	13928	1191	0	32738	32775	32615	32367	32827	32276	32615	32826	
1719	0	5147	5946	12768	13956	1192	0	32734	32743	32543	32415	32855	32565	32733	32741	
1720	0	5108	5987	12739	13918	1193	0	32681	32775	32476	32447	32815	33191	32717	32943	
1721	0	5129	5980	12861	13929	1194	0	32740	32782	32555	32591	32605	33537	32757	32826	
1722	0	5120	5960	12760	13944	1195	0	32726	32803	32487	32645	32587	33183	32735	32735	
1723	0	5087	5946	12827	13928	1196	0	32768	32775	32621	32679	32507	32663	32741	32805	
1724	0	5162	5988	12744	13889	1197	0	32787	32747	32689	32807	32483	32299	32746	32566	
1725	0	5144	5960	12808	13922	1198	0	32841	32733	32641	32857	32594	32591	32709	32662	
1726	0	5117	5960	12752	13976	1199	0	32807	32756	32775	32826	32531	32869	32715	32711	
1727	0	5106	6028	12790	13934	1200	0	32748	32790	32591	32877	32511	33082	32757	32571	
1728	0	5140	5942	12755	13932	1201	0	32773	32755	32675	32871	32535	32844	32822	32727	
1729	0	5114	5953	12829	13912	1202	0	32706	32802	32581	32895	32711	32303	32852	32698	
1730	0	5096	5982	12840	13958	1203	0	32739	32785	32554	32890	32773	32372	32797	32636	
1731	0	5161	5974	12761	13961	1204	0	32692	32844	32752	32903	32697	32946	32831	32903	
1732	0	5105	5997	12836	13927	1205	0	32765	32877	32743	32943	32681	33382	32813	32847	
1733	0	5151	5972	12763	13924	1206	0	32772	32871	32879	33012	32679	33191	32839	32733	
1734	0	5083	5954	12774	13956	1207	0	32804	32871	32953	32925	32695	32333	32863	32743	
1735	0	5100	5965	12798	13948	1208	0	32725	32871	33055	32889	32879	31975	32791	32575	
1736	0	5094	5988	12811	13914	1209	0	32729	32764	32959	32826	32876	32173	32743	32750	
1737	0	5125	5971	12797	13956	1210	0	32788	32750	33015	32887	32721	32929	32647	32593	
1738	0	5120	6002	12821	13931	1211	0	32743	32806	32991	32775	32754	33263	32575	32762	
1739	0	5117	5966	12811	13928	1212	0	32833	32845	33007	32773	32633	32954	32493	32527	
1740	0	5140	6012	12840	13944	1213	0	32793	32709	33095	32789	32705	32227	32655	32487	
1741	0	5128	5955	12829	13896	1214	0	32849	32643	32915	32749	32911	32135	32859	32834	
1742	0	5099	5984	12854	13923	1215	0	32821	32729	32869	32781	32825	32460	32863	32711	
1743	0	5134	6020	12806	13920	1216	0	32787	32663	32948	32811	32825	33255	32844	32975	
1744	0	5099	5954	12792	13944	1217	0	32801	32700	32741	32775	32919	33534	32759	33019	
1745	0	5114	5981	12774	13911	1218	0	32842	32679	32887	32679	32655	33047	32730	32717	
1746	0	5091	6017	12912	13941	1219	0	32759	32711	32705	32665	32431	32643	32879	32772	
1747	0	5102	5989	12808	13984	1220	0	32755	32659	32601	32654	32279	32455	32756	32734	
1748	0	5129	5970	12876	13904	1221	0	32816	32703	32719	32610	32474	32902	32738	32671	
1749	0	5104	6030	12762	13946	1222	0	32757	32757	32530	32559	32795	33106	32805	32942	
1750	0	5118	5973	12869	13921	1223	0	32713	32839	32661	32597	32989	33043	32735	32887	
1751	0	5152	5984	12805	13910	1224	0	32758	32879	32564	32559	32871	32431	32578	32850	
1752	0	5114	6030	12834	13900	1225	0	32760	32861	32711	32479	32998	32051	32614	32797	
1753	0	5140	6016	12784	13965	1226	0	32756	32737	32585	32547	32850	32223	32669	32378	
1754	0	5069	6010	12866	13906	1227	0	32788	32762	32686	32598	32789	32921	32667	32421	
1755	0	5067	5984	12806	13955	1228	0	32751	32847	32757	32695	32535	33444	32738	32589	
1756	0	5077	5998	12892	13916	1229	0	32757	32868	32725	32711	32314	33189	32756	32741	
1757	0	5100	5961	12812	13928	1230	0	32736	32765	32860	32679	32319	32827	32740	32870	
1758	0	5116	6017	12852	13900	1231	0	32731	32743	32727	32647	32543	32262	32701	32788	
1759	0	5129	5969	12762	13929	1232	0	32782	32677	32721	32640	32647	32225	32703	32903	
1760	0	5122	5979	12888	13937	1233	0	32743	32773	32863	32599	32735	32668	32813	32822	
1761	0	5100	5993	12827	13910	1234	0	32724	32773	32716	32621	32761	32940	32871	32783	
1762	0	5096	5972	12880	13876	1235	0	32749	32797	32715	32642	32861	33095	32855	32771	
1763	0	5078	6004	12849	13905	1236	0	32751	32740	32791	32658	32903	32647	32743	32747	
1764	0	5085	5996	12883	13948	1237	0	32758	32821	32711	32663	33302	32165	32691	32631	
1765	0	5130	5985	12874	13940	1238	0	32741	32878	32718	32655	33039	32435	32644	32847	
1766	0	5138	5978	12832	13859	1239	0	32729	32815	32566	32751	32559	32799	32666	32769	
1767	0	5110	5978	12801	13910	1240	0	32796	32775	32717	32804	32551	33091	32733	32647	
1768	0	5076	6005	12816	13908	1241	0	32846	32708	32846	32771	32525	32863	32450	32807	
1769	0	5101	5969	12822	13864	1242	0	32791	32726	32903	32671	32471	32607	32351	32661	
1770	0	5083	6006	12845	13882	1243	0	32855	32684	33013	32623	32678	32525	32638	32767	
1771	0	5089	5998	12859	13912	1244	0	32752	32734	32967	32598	32823	32911	32767	32503	
1772	0	5130	6002	12811	13882	1245	0	32729	32869	32993	32533	32737	33363	33021	32743	
1773	0	5108	6020	12872	13860	1246	0	32661	32838	33035	32515	32681	33202	33045	32755	
1774	0	5089	5990	12828	13938	1247	0	32732	32790	33034	32519	32466	32833	32987	32855	
1775	0	5112	6010	12812	13868	1248	0	32726	32838	32820	32431	32285	32202	32892	32711	
1776	0	5080	6019	12776	13896	1249	0	32721	32805	32816	32477	32453	32193	32978	32838	
1777	0	5122	6025	12840	13880	1250	0	32729	32793	32681	32509	32607	32615	32871	32831	
1778	0	5088	5987	12866	13912	1251	0	32745	32748	32642	32495	32733	33351	32759	32406	
1779	0	5080	5985	12860	13899	1252	0	32743	32716	32720	32571	32865	33311	32703	32749	
1780	0	5074	6026	12854	13889	1253	0	32737	32703	32665	32767	32834	32689	32687	32903	
1781	0	5112	5981	12830	13858	1254	0	32879	32807	32823	32793	32639	32381	32692	32646	
1782	0	5101	6031	12851	13852	1255	0	32813	32820	32732	32804	32615	32582	32820	32916	
1783	0	5073	5990	12840	13920	1256	0	32860	32749	32640	32866	32591	32919	32839	33077	
1784	0	5110	6012	12874	13863	1257	0	32775	32822	32727	32944	32716	32887	32836	32839	
1785	0	5116	6004	12908	13868	1258	0	32740	32823	32599	32903	32615	32759	32749	32759	
1786	0	5124	5996	12866	13892	1259	0	32755	32813	32524	32903	32505	32301	32727	32794	
1787	0	5108	6006	12768	13867	1260	0	32690	32845	32589	32901	32549	32205	32825	32601	
1788	0	5096	6009	12882	13874	1261	0	32804	32755	32473	32879	32663	32552	32766	32696	
1789	0	5098	6026	12776	13924	1262	0	32764	32671	32463	32845	32878	33014	32734	32678	
1790	0	5069	6028	12872	13845	1263	0	32742	32748	32647	32797	32983	33335	32714	32503	
1791	0	5132	6010	12822	13904	1264	0	32775	32823	32757	32818	32983	32967	32677	32615	
1792	0	5124	6010	12884	13848	1265	0	32771	32769	32647	32806	32817	32471	32727	32865	
1793	0	5095	5986	12802	13838	1266	0	32679	32775	32647	32729	32646	32378	32727	32579	
1794	0	5092	6012	12876	13844	1267	0	32694	32841	32639	32794	32461	32781	32772	32867	
1795	0	5055	5993	12878	13804	1268	0	32691	32859	32535	32807	32295	33044	32775	32892	
1796	0	5086	6000	12822	13812	1269	0	32685	32861	32587	32677	32621	32937	32823	32955	
1797	0	5101	6004	12861	13848	1270	0	32732	32829	32647	32721	32742	32462	32839	32775	
1798	0	5126	6043	12858	13860	1271	0	32724	32790	32579	32709	32815	32297	32850	32807	
1799	0	5110	6040	12880	13864	1272	0	32746	32757	32685	32640	32834	32445	32818	32796	
1800	0	5104	6008	12781	13808	1273	0	32735	32783	32570	32583	32937	32963	32562	32473	
1801	0	5082	6018	12920	13820	1274	0	32786	32734	32634	32771	32956	33260	32538	32703	
1802	0	5077	6028	12784	13843	1275	0	32789	32734	32647	32715	33051	33407	32482	32679	
1803	0	5122	6008	12942	13869	1276	0	32732	32773	32740	32775	32751	32727	32759	32701	
1804	0	5083	6092	12865	13832	1277	0	32765	32839	32687	32631	32471	32157	32986	33045	
1805	0	5072	6017	12754	13826	1278	0	32757	32673	32551	32644	32303	32084	33143	33039	
1806	0	5117	6012	12964	13816	1279	0	32803	32719	32639	32574	32509	32595	32854	32826	
1807	0	5077	6008	12872	13795	1280	0	32811	32722	32679	32639	32567	32991	32797	32674	
1808	0	5060	6022	12876	13816	1281	0	32837	32727	32603	32647	32695	32943	32783	32751	
1809	0	5067	5992	12814	13817	1282	0	32836	32767	32759	32655	32692	32631	32758	32562	
1810	0	5069	6013	12825	13814	1283	0	32855	32809	32951	32719	32876	32317	32743	32837	
1811	0	5087	6018	12900	13851	1284	0	32773	32845	32961	32621	32899	32679	32756	32885	
1812	0	5061	6026	12840	13794	1285	0	32724	32853	33114	32735	32767	33186	32787	32597	
1813	0	5123	6043	12867	13781	1286	0	32694	32775	33231	32747	32436	33515	32823	32709	
1814	0	5074	6024	12915	13814	1287	0	32814	32775	33119	32787	32444	33183	32823	32732	
1815	0	5071	6008	12926	13774	1288	0	32695	32795	33133	32769	32373	32711	32785	32743	
1816	0	5084	6032	12932	13833	1289	0	32742	32735	33104	32763	32587	32193	32620	32711	
1817	0	5071	6063	12851	13872	1290	0	32691	32775	32955	32732	32762	32228	32729	32738	
1818	0	5097	6038	12858	13809	1291	0	32644	32788	32873	32700	32620	32770	32797	32455	
1819	0	5110	5997	12938	13810	1292	0	32776	32735	32807	32669	32711	33007	32807	32773	
1820	0	5054	6042	12882	13804	1293	0	32745	32733	32841	32647	32903	33023	32807	33082	
1821	0	5073	6012	12840	13780	1294	0	32797	32735	32667	32724	32623	32527	32751	32790	
1822	0	5096	6067	12848	13784	1295	0	32749	32826	32704	32740	32562	32463	32655	32804	
1823	0	5088	6013	12931	13766	1296	0	32740	32815	32605	32772	32549	32679	32690	32847	
1824	0	5154	6065	12874	13777	1297	0	32788	32773	32580	32721	32702	33243	32694	32459	
1825	0	5081	6032	12920	13752	1298	0	32805	32797	32679	32709	32797	33099	32775	32751	
1826	0	5088	6057	12909	13776	1299	0	32805	32804	32439	32655	32735	32635	32767	32935	
1827	0	5091	6084	12877	13776	1300	0	32734	32759	32534	32672	32615	31993	32773	32717	
1828	0	5098	6056	12954	13780	1301	0	32817	32802	32738	32647	32738	32315	32588	32843	
1829	0	5080	6084	12908	13795	1302	0	32800	32811	32594	32661	32749	32887	32511	32846	
1830	0	5073	6055	12934	13800	1303	0	32828	32819	32742	32575	32807	33399	32471	32565	
1831	0	5114	6049	12900	13806	1304	0	32775	32789	32749	32627	32863	33223	32485	32543	
1832	0	5064	6039	12821	13772	1305	0	32832	32807	32847	32647	32783	32871	32585	32543	
1833	0	5065	6067	12948	13778	1306	0	32767	32740	32965	32612	33039	32407	33006	32583	
1834	0	5124	6072	12856	13776	1307	0	32756	32738	32831	32701	33082	32303	33407	32791	
1835	0	5055	6021	12929	13762	1308	0	32838	32827	32844	32694	32820	32791	33349	32943	
1836	0	5121	6040	12889	13764	1309	0	32705	32775	32830	32673	32737	32922	33083	33100	
1837	0	5097	6078	12915	13766	1310	0	32703	32838	32877	32749	32775	32787	32687	32767	
1838	0	5062	6048	12864	13773	1311	0	32671	32868	32733	32734	32485	32427	32566	32743	
1839	0	5102	6060	12848	13803	1312	0	32694	32805	32595	32759	32066	32300	32775	32814	
1840	0	5050	6038	12950	13796	1313	0	32678	32852	32711	32655	32173	32688	32763	32613	
1841	0	5066	6028	12904	13765	1314	0	32760	32737	32847	32660	32587	33223	32663	32674	
1842	0	5068	6058	12866	13800	1315	0	32837	32775	32690	32639	32767	33311	32482	32687	
1843	0	5084	6063	12785	13721	1316	0	32854	32743	32707	32692	32730	33180	32507	32681	
1844	0	5079	6051	12920	13769	1317	0	32775	32722	32719	32775	32769	32507	32492	32752	
1845	0	5097	6069	12892	13769	1318	0	32753	32749	32615	32775	32810	32463	32602	32762	
1846	0	5092	6038	12822	13746	1319	0	32818	32740	32765	32789	32679	32694	32809	32623	
1847	0	5070	5992	12910	13728	1320	0	32797	32751	32515	32759	32508	33359	32742	32767	
1848	0	5098	6070	12898	13724	1321	0	32827	32706	32549	32766	32615	33231	32677	32804	
1849	0	5088	6045	12952	13741	1322	0	32788	32789	32567	32791	32890	32690	32738	32738	
1850	0	5069	6092	12877	13734	1323	0	32792	32727	32567	32695	32881	32341	32775	32790	
1851	0	5059	6046	12840	13769	1324	0	32769	32825	32510	32752	32647	32359	32788	32596	
1852	0	5081	6077	12928	13746	1325	0	32665	32794	32529	32829	32575	32893	32719	32708	
1853	0	5036	6074	12886	13760	1326	0	32701	32839	32699	32758	32635	33113	32815	32727	
1854	0	5088	6050	12921	13757	1327	0	32789	32735	32719	32679	32791	33005	32749	32775	
1855	0	5062	6052	12888	13729	1328	0	32807	32749	32903	32647	32775	32498	32711	32803	
1856	0	5072	6083	12884	13714	1329	0	32787	32815	32911	32676	32674	32042	32781	32722	
1857	0	5075	6056	12820	13718	1330	0	32764	32795	32871	32678	32610	32455	32703	32785	
1858	0	5056	6072	12932	13736	1331	0	32712	32814	32931	32643	32723	32977	32691	32786	
1859	0	5029	6048	12906	13771	1332	0	32749	32743	32847	32629	32943	33142	32807	32791	
1860	0	5070	6078	12934	13713	1333	0	32751	32799	33001	32617	32980	32605	32852	32691	
1861	0	5099	6064	12898	13764	1334	0	32850	32830	32813	32586	32679	32095	32922	32571	
1862	0	5068	6078	12900	13734	1335	0	32799	32751	32895	32635	32647	32021	32949	32815	
1863	0	5093	6049	12914	13730	1336	0	32796	32764	32879	32751	32582	32347	33053	33054	
1864	0	5071	6057	12904	13747	1337	0	32726	32937	32686	32668	32556	32815	32894	32919	
1865	0	5073	6057	12911	13689	1338	0	32695	32847	32810	32693	32692	32903	32644	32786	
1866	0	5021	6072	12954	13772	1339	0	32692	32749	32615	32578	32787	32647	32644	32583	
1867	0	5105	6050	12888	13755	1340	0	32691	32715	32647	32647	32747	32063	32678	32567	
1868	0	5092	6042	12850	13736	1341	0	32764	32773	32628	32584	32790	32180	32727	32596	
1869	0	5086	6083	12848	13694	1342	0	32791	32757	32540	32647	32945	32531	32735	32692	
1870	0	5110	6108	12858	13718	1343	0	32714	32660	32583	32590	32661	33204	32756	32761	
1871	0	5066	6111	12936	13744	1344	0	32703	32751	32677	32647	32311	33063	32561	32633	
1872	0	5084	6125	12900	13692	1345	0	32796	32807	32838	32746	32164	32655	32566	32775	
1873	0	5068	6093	12954	13732	1346	0	32765	32851	32795	32746	32457	32173	32615	32822	
1874	0	5067	6068	12936	13701	1347	0	32758	32758	32887	32791	32537	32431	32658	32785	
1875	0	5105	6106	12909	13722	1348	0	32760	32802	32927	32871	32668	32839	32771	32765	
1876	0	5091	6105	12957	13742	1349	0	32759	32803	32973	32923	32662	33319	32823	32642	
1877	0	5096	6103	12792	13762	1350	0	32745	32740	33023	32895	32885	33156	32887	32839	
1878	0	5082	6114	12958	13778	1351	0	32749	32775	32771	32851	32613	32811	33067	33159	
1879	0	5112	6104	12942	13732	1352	0	32757	32799	32863	32775	32459	32582	32832	32764	
1880	0	5083	6093	12888	13716	1353	0	32798	32799	32607	32705	32447	32981	32775	32827	
1881	0	5100	6104	12914	13729	1354	0	32738	32738	32804	32742	32690	33346	32922	32763	
1882	0	5084	6077	12965	13736	1355	0	32780	32775	32652	32733	32735	33179	32949	32711	
1883	0	5081	6113	12912	13666	1356	0	32782	32743	32687	32828	32711	33071	32927	32725	
1884	0	5037	6081	12900	13732	1357	0	32796	32743	32519	32809	32615	32603	32801	32551	
1885	0	5128	6125	12986	13738	1358	0	32765	32708	32490	32738	32503	32513	32769	32859	
1886	0	5090	6084	12936	13712	1359	0	32752	32742	32509	32815	32731	33063	32740	32679	
1887	0	5064	6125	12860	13720	1360	0	32775	32679	32449	32784	32845	33393	32683	32743	
1888	0	5096	6120	12956	13771	1361	0	32828	32775	32509	32747	32731	33142	32655	32717	
1889	0	5110	6090	12868	13759	1362	0	32799	32799	32595	32733	32643	32541	32662	32601	
1890	0	5117	6101	13006	13724	1363	0	32718	32823	32659	32698	32783	32039	32663	32785	
1891	0	5093	6115	12876	13768	1364	0	32749	32825	32620	32603	32852	32425	32564	32630	
1892	0	5131	6114	12896	13730	1365	0	32725	32856	32599	32615	32860	33038	32674	32583	
1893	0	5128	6104	12848	13730	1366	0	32781	32841	32615	32645	32710	33255	32551	32621	
1894	0	5118	6105	12952	13690	1367	0	32763	32813	32673	32632	32543	32869	32461	32685	
1895	0	5100	6094	12940	13729	1368	0	32775	32787	32807	32710	32968	32463	32623	32455	
1896	0	5064	6083	12914	13730	1369	0	32807	32787	32813	32799	33031	32230	33069	32680	
1897	0	5149	6101	12981	13693	1370	0	32812	32846	32825	32803	32835	32591	33227	33023	
1898	0	5121	6115	12948	13752	1371	0	32688	32781	32885	32843	32662	32876	33159	32882	
1899	0	5092	6100	13000	13710	1372	0	32694	32835	32766	32849	32721	33177	32911	32774	
1900	0	5128	6150	12932	13716	1373	0	32751	32862	32846	32847	32703	32925	32806	32887	
1901	0	5186	6109	12904	13700	1374	0	32782	32775	33079	32863	32381	32490	32809	32946	
1902	0	5079	6078	12922	13721	1375	0	32799	32881	32991	32775	32401	32243	32736	32841	
1903	0	5101	6102	12988	13706	1376	0	32756	32834	33110	32713	32507	32671	32612	32782	
1904	0	5118	6108	12952	13709	1377	0	32745	32767	32986	32615	32705	32932	32636	32625	
1905	0	5104	6098	12978	13729	1378	0	32775	32740	32879	32562	32735	33135	32703	32775	
1906	0	5082	6112	12976	13720	1379	0	32695	32741	32915	32516	32878	32699	32716	32775	
1907	0	5080	6148	12886	13742	1380	0	32752	32765	32690	32570	32935	32375	32815	32642	
1908	0	5106	6116	12984	13720	1381	0	32823	32751	32735	32683	32946	32339	32854	32694	
1909	0	5082	6114	12924	13730	1382	0	32753	32831	32613	32739	32684	32557	32831	32823	
1910	0	5114	6132	12952	13680	1383	0	32780	32775	32600	32773	32613	33240	32733	32807	
1911	0	5085	6118	12970	13707	1384	0	32710	32823	32660	32811	32515	33159	32660	32844	
1912	0	5125	6098	12926	13718	1385	0	32779	32727	32639	32791	32254	32775	32595	32807	
1913	0	5100	6089	13004	13680	1386	0	32729	32823	32740	32827	32742	32105	32515	32596	
1914	0	5073	6128	12952	13706	1387	0	32736	32815	32823	32757	33059	32217	32605	32159	
1915	0	5110	6131	12998	13692	1388	0	32769	32823	32827	32742	32751	32665	32647	32511	
1916	0	5097	6156	12928	13692	1389	0	32775	32804	32919	32807	32443	33063	32859	32820	
1917	0	5096	6143	12985	13736	1390	0	32749	32775	32807	32789	32370	33186	32927	33031	
1918	0	5084	6125	13005	13672	1391	0	32748	32759	32839	32687	32631	32639	32829	32898	
1919	0	5156	6084	12960	13659	1392	0	32794	32751	32679	32647	32818	32279	32810	33159	
1920	0	5117	6108	12988	13672	1393	0	32734	32755	32647	32645	32771	32214	32711	33333	
1921	0	5116	6128	12984	13685	1394	0	32796	32724	32613	32767	32631	32915	32628	33127	
1922	0	5085	6125	12992	13689	1395	0	32752	32775	32658	32647	32695	33261	32563	32518	
1923	0	5075	6137	12972	13725	1396	0	32785	32719	32743	32707	32583	32999	32647	32319	
1924	0	5156	6090	12850	13723	1397	0	32787	32772	32885	32623	32795	32573	32726	32167	
1925	0	5113	6100	12946	13679	1398	0	32767	32718	32817	32673	32757	32334	32879	32295	
1926	0	5109	6145	12994	13700	1399	0	32796	32799	32815	32742	32588	32834	33019	32729	
1927	0	5115	6124	13018	13677	1400	0	32753	32789	32663	32820	32715	33279	33129	32763	
1928	0	5096	6157	12929	13699	1401	0	32806	32775	32773	32799	32829	33351	33045	32979	
1929	0	5096	6122	12924	13676	1402	0	32772	32717	32861	32853	32735	32925	32875	32927	
1930	0	5091	6114	12986	13660	1403	0	32767	32721	32693	32783	32695	32197	32743	32919	
1931	0	5110	6089	12904	13662	1404	0	32781	32761	32812	32663	32582	32165	32797	32930	
1932	0	5072	6180	12909	13690	1405	0	32766	32791	32702	32685	32736	32663	32807	32871	
1933	0	5112	6133	12916	13675	1406	0	32721	32783	32898	32607	32692	33046	32703	32988	
1934	0	5105	6108	12961	13678	1407	0	32761	32750	32879	32525	32793	32975	32519	32621	
1935	0	5124	6120	12844	13697	1408	0	32767	32763	32851	32519	32863	32660	32469	32738	
1936	0	5092	6142	12856	13691	1409	0	32739	32775	32655	32546	32799	32327	32591	32707	
1937	0	5107	6128	12938	13688	1410	0	32710	32913	32754	32569	32805	32537	32699	32962	
1938	0	5140	6116	12934	13648	1411	0	32647	32849	32510	32535	32742	33095	32630	32834	
1939	0	5139	6128	12976	13696	1412	0	32744	32799	32543	32583	32700	33445	32725	32477	
1940	0	5125	6088	12928	13634	1413	0	32746	32751	32383	32583	32853	33222	32643	32628	
1941	0	5153	6159	12982	13654	1414	0	32847	32765	32532	32655	32854	32581	32811	32479	
