# OpenSignals Text File Format
# {"00:07:80:3B:46:38": {"sensor": ["EMG", "EMG", "EMG", "EMG", "EMG", "EMG", "EMG", "EMG"], "device name": "EMGs", "column": ["nSeq", "DI", "X", "CH2", "CH3", "CH4", "CH5", "CH6", "CH7", "CH8"], "sync interval": 2, "time": "11:9:23.207", "comments": "", "device connection": "BTH00:07:80:3B:46:38", "channels": [1, 2, 3, 4, 5, 6, 7, 8], "date": "2017-6-16", "mode": 0, "digital IO": [0, 1], "firmware version": 772, "device": "biosignalsplux", "position": 0, "sampling rate": 1000, "label": ["X", "CH2", "CH3", "CH4", "CH5", "CH6", "CH7", "CH8"], "resolution": [16, 16, 16, 16, 16, 16, 16, 16], "special": [{}, {}, {}, {}, {}, {}, {}, {}]}}
# EndOfHeader
0	0	32806	32647	32695	32709	32683	32647	32775	32770	
1	0	32794	32775	32786	32695	32715	32285	32743	32578	
2	0	32791	32775	32620	32722	32655	32495	32761	32818	
3	0	32821	32751	32743	32655	32599	32775	32724	32589	
4	0	32712	32806	32799	32765	32525	33238	32751	32841	
5	0	32737	32746	32726	32749	32751	33125	32799	32701	
6	0	32831	32806	32831	32699	32709	32658	32864	32819	
7	0	32836	32811	32713	32743	32742	32185	32740	32808	
8	0	32796	32740	32799	32647	32667	32407	32815	32669	
9	0	32756	32903	32767	32741	32551	32846	32672	32711	
10	0	32736	32814	32790	32773	32795	33231	32791	32573	
11	0	32781	32796	32711	32765	32735	33027	32751	32807	
12	0	32718	32775	32807	32831	32695	32583	32692	32763	
13	0	32804	32747	32749	32603	32687	32203	32879	32820	
14	0	32783	32754	32799	32733	32578	31977	32820	32775	
15	0	32739	32709	32677	32662	32547	32263	32757	32800	
16	0	32715	32803	32722	32756	32639	33037	32743	32775	
17	0	32756	32738	32807	32662	32787	33053	32699	32831	
18	0	32699	32847	32683	32713	32739	32850	32747	32576	
19	0	32795	32745	32759	32687	32637	32581	32783	32807	
20	0	32775	32804	32691	32671	32595	32260	32841	32775	
21	0	32888	32679	32727	32643	32705	32562	32859	32876	
22	0	32711	32759	32738	32683	32629	32971	32664	32782	
23	0	32733	32820	32695	32727	32612	33316	32759	32852	
24	0	32711	32827	32855	32591	32529	33318	32727	32679	
25	0	32775	32832	32699	32721	32589	32783	32811	32892	
26	0	32830	32745	32801	32671	32711	32433	32763	32809	
27	0	32839	32767	32738	32739	32645	32289	32772	32900	
28	0	32771	32679	32791	32615	32672	32529	32823	32789	
29	0	32748	32857	32701	32683	32764	33231	32707	32709	
30	0	32769	32831	32801	32727	32527	33167	32804	32787	
31	0	32690	32823	32735	32747	32555	32943	32860	32663	
32	0	32798	32739	32702	32601	32588	32484	32735	32769	
33	0	32769	32767	32820	32697	32751	32324	32794	32703	
34	0	32739	32761	32706	32699	32709	32689	32717	32769	
35	0	32739	32727	32826	32743	32711	32956	32827	32641	
36	0	32762	32747	32695	32647	32775	33081	32775	32747	
37	0	32830	32701	32749	32679	32558	32859	32667	32647	
38	0	32710	32813	32683	32804	32631	32221	32743	32838	
39	0	32775	32709	32790	32742	32734	32016	32748	32633	
40	0	32761	32711	32862	32727	32734	32207	32731	32749	
41	0	32784	32739	32638	32681	32725	32823	32708	32751	
42	0	32750	32679	32785	32756	32743	33233	32666	32869	
43	0	32766	32839	32581	32731	32676	33021	32741	32701	
44	0	32752	32819	32726	32673	32647	32541	32615	32787	
45	0	32743	32813	32791	32712	32679	32367	32786	32671	
46	0	32837	32708	32748	32687	32655	32591	32846	32890	
47	0	32740	32852	32866	32743	32559	33083	32759	32725	
48	0	32830	32740	32724	32660	32559	33428	32783	32859	
49	0	32677	32885	32695	32771	32467	33127	32716	32751	
50	0	32669	32785	32809	32774	32628	32551	32811	32847	
51	0	32703	32853	32669	32797	32660	32351	32735	32689	
52	0	32718	32810	32850	32704	32825	32327	32740	32797	
53	0	32769	32864	32719	32692	32738	32553	32788	32773	
54	0	32795	32775	32747	32751	32738	33243	32695	32775	
55	0	32760	32863	32749	32759	32655	33241	32847	32806	
56	0	32698	32855	32626	32735	32669	32941	32771	32747	
57	0	32800	32837	32803	32713	32621	32436	32867	32830	
58	0	32785	32743	32773	32735	32600	32228	32855	32681	
59	0	32814	32621	32847	32743	32620	32571	32743	32807	
60	0	32748	32731	32679	32632	32751	33153	32745	32698	
61	0	32793	32731	32807	32647	32706	33254	32747	32852	
62	0	32837	32711	32683	32627	32701	32771	32685	32737	
63	0	32749	32839	32855	32663	32617	32387	32807	32686	
64	0	32703	32807	32623	32629	32527	32269	32711	32692	
65	0	32766	32825	32791	32637	32850	32738	32655	32512	
66	0	32799	32797	32747	32615	32695	33083	32635	32813	
67	0	32742	32755	32788	32775	32737	33159	32775	32765	
68	0	32754	32807	32731	32717	32703	33076	32761	32903	
69	0	32738	32775	32838	32705	32599	32502	32759	32751	
70	0	32757	32814	32707	32706	32623	32255	32775	32798	
71	0	32694	32806	32797	32751	32674	32247	32775	32741	
72	0	32743	32812	32843	32775	32632	32965	32686	32581	
73	0	32788	32807	32767	32738	32726	33235	32743	32745	
74	0	32732	32871	32767	32700	32787	33156	32839	32572	
75	0	32751	32723	32855	32647	32519	32647	32749	32807	
76	0	32718	32775	32727	32731	32788	32428	32831	32835	
77	0	32765	32775	32807	32780	32662	32431	32806	32590	
78	0	32792	32743	32801	32700	32740	32860	32781	32863	
79	0	32811	32684	32727	32703	32668	33406	32787	32748	
80	0	32793	32743	32673	32615	32519	33363	32775	32749	
81	0	32797	32741	32787	32687	32567	32862	32729	32851	
82	0	32807	32762	32679	32756	32749	32495	32821	32762	
83	0	32791	32735	32775	32711	32715	32342	32829	32807	
84	0	32806	32847	32684	32676	32703	32663	32783	32708	
85	0	32751	32775	32668	32765	32724	33229	32715	32764	
86	0	32820	32773	32796	32677	32663	33159	32799	32703	
87	0	32804	32671	32662	32774	32709	32703	32833	32839	
88	0	32790	32764	32803	32647	32491	32355	32791	32679	
89	0	32741	32815	32671	32756	32647	32102	32644	32839	
90	0	32765	32831	32852	32711	32639	32347	32694	32713	
91	0	32775	32858	32763	32775	32773	33025	32679	32829	
92	0	32724	32847	32727	32655	32714	33351	32745	32743	
93	0	32775	32802	32837	32663	32732	33046	32798	32759	
94	0	32775	32692	32718	32722	32725	32633	32795	32807	
95	0	32751	32807	32839	32695	32589	32167	32800	32758	
96	0	32705	32782	32635	32737	32636	32339	32739	32737	
97	0	32715	32793	32730	32790	32647	32667	32625	32697	
98	0	32714	32753	32660	32703	32823	32935	32775	32719	
99	0	32783	32834	32647	32694	32734	33028	32725	32853	
100	0	32768	32766	32799	32679	32747	32700	32707	32711	
101	0	32723	32810	32775	32689	32698	32243	32647	32813	
102	0	32695	32759	32791	32722	32619	32207	32831	32763	
103	0	32734	32791	32793	32687	32730	32375	32741	32690	
104	0	32721	32801	32722	32759	32532	32900	32721	32762	
105	0	32758	32791	32885	32759	32531	33255	32853	32623	
106	0	32816	32775	32671	32839	32647	32879	32783	32775	
107	0	32722	32759	32719	32675	32724	32287	32858	32756	
108	0	32759	32669	32814	32711	32740	32231	32806	32775	
109	0	32665	32845	32647	32786	32811	32601	32775	32719	
110	0	32681	32787	32767	32677	32766	32989	32806	32691	
111	0	32740	32831	32791	32771	32750	33250	32815	32798	
112	0	32765	32754	32655	32716	32735	33153	32726	32727	
113	0	32809	32797	32871	32647	32647	32543	32695	32807	
114	0	32754	32759	32743	32727	32767	32103	32743	32763	
115	0	32826	32791	32676	32724	32765	32358	32669	32858	
116	0	32748	32850	32748	32797	32725	33054	32757	32697	
117	0	32788	32809	32751	32647	32575	33298	32765	32831	
118	0	32780	32721	32772	32747	32551	33039	32766	32791	
119	0	32762	32711	32789	32739	32621	32663	32791	32819	
120	0	32804	32731	32637	32685	32743	32292	32693	32838	
121	0	32775	32743	32677	32660	32647	32404	32756	32766	
122	0	32778	32735	32679	32727	32646	32833	32738	32807	
123	0	32756	32728	32679	32749	32732	33234	32740	32747	
124	0	32722	32771	32745	32659	32820	33119	32803	32758	
125	0	32703	32798	32863	32739	32695	32847	32799	32879	
126	0	32803	32647	32727	32725	32763	32385	32759	32699	
127	0	32823	32799	32749	32583	32676	32127	32807	32854	
128	0	32775	32775	32875	32686	32558	32482	32775	32615	
129	0	32773	32870	32724	32773	32657	33231	32730	32803	
130	0	32839	32797	32764	32753	32703	33276	32724	32655	
131	0	32758	32743	32739	32679	32719	32839	32740	32707	
132	0	32723	32903	32811	32703	32726	32471	32767	32743	
133	0	32750	32767	32671	32759	32643	32370	32715	32665	
134	0	32798	32841	32808	32711	32516	32468	32831	32817	
135	0	32778	32723	32683	32671	32680	33039	32859	32626	
136	0	32758	32775	32814	32695	32708	33349	32743	32803	
137	0	32804	32797	32804	32786	32613	33059	32853	32647	
138	0	32785	32727	32764	32751	32725	32631	32759	32725	
139	0	32726	32799	32835	32717	32511	32282	32647	32694	
140	0	32769	32743	32732	32661	32629	32239	32783	32724	
141	0	32734	32723	32717	32679	32775	32938	32660	32762	
142	0	32720	32811	32741	32708	32670	33255	32751	32725	
143	0	32729	32713	32850	32719	32710	33187	32759	32773	
144	0	32821	32839	32679	32711	32775	32773	32823	32713	
145	0	32788	32789	32751	32706	32647	32151	32809	32760	
146	0	32831	32834	32706	32757	32515	32420	32727	32659	
147	0	32785	32669	32677	32669	32732	32690	32805	32837	
148	0	32751	32743	32725	32719	32647	32975	32743	32677	
149	0	32681	32823	32662	32732	32775	33242	32698	32839	
150	0	32689	32759	32643	32681	32627	32931	32742	32743	
151	0	32762	32847	32799	32767	32503	32391	32644	32771	
152	0	32782	32855	32751	32698	32823	32067	32739	32692	
153	0	32758	32791	32708	32634	32742	32703	32655	32825	
154	0	32750	32841	32813	32722	32690	33235	32743	32767	
155	0	32786	32769	32719	32711	32641	33125	32679	32925	
156	0	32748	32807	32775	32759	32741	33055	32798	32636	
157	0	32775	32747	32835	32701	32679	32391	32759	32821	
158	0	32756	32767	32711	32759	32509	32249	32820	32582	
159	0	32858	32709	32816	32724	32571	32551	32903	32900	
160	0	32751	32760	32679	32645	32625	32912	32823	32659	
161	0	32758	32733	32711	32751	32614	33231	32738	32767	
162	0	32786	32679	32813	32756	32748	33135	32815	32687	
163	0	32796	32722	32627	32699	32613	32364	32828	32763	
164	0	32798	32775	32743	32586	32724	32226	32695	32626	
165	0	32751	32749	32647	32642	32606	32430	32870	32831	
166	0	32804	32736	32865	32673	32476	32855	32857	32693	
167	0	32812	32711	32629	32724	32548	33215	32862	32859	
168	0	32821	32775	32683	32593	32745	33083	32877	32615	
169	0	32751	32766	32675	32756	32763	32775	32797	32827	
170	0	32775	32834	32755	32715	32677	32337	32834	32619	
171	0	32743	32743	32855	32688	32686	32284	32730	32774	
172	0	32804	32831	32733	32665	32630	32624	32839	32790	
173	0	32780	32799	32903	32695	32639	33223	32749	32893	
174	0	32749	32751	32727	32754	32519	33251	32846	32783	
175	0	32793	32715	32740	32645	32571	32895	32796	32866	
176	0	32759	32891	32732	32739	32695	32465	32691	32678	
177	0	32771	32875	32765	32791	32751	32303	32743	32702	
178	0	32757	32758	32703	32791	32668	32795	32679	32708	
179	0	32797	32807	32722	32687	32695	33313	32773	32607	
180	0	32791	32733	32819	32751	32807	33383	32711	32763	
181	0	32700	32719	32729	32714	32773	33139	32742	32879	
182	0	32732	32703	32662	32596	32775	32615	32646	32756	
183	0	32690	32794	32719	32761	32540	32255	32745	32824	
184	0	32662	32740	32682	32698	32791	32518	32812	32804	
185	0	32734	32709	32676	32662	32751	32751	32764	32799	
186	0	32714	32643	32819	32615	32698	33002	32767	32835	
187	0	32759	32701	32666	32673	32679	32901	32703	32854	
188	0	32775	32747	32799	32687	32593	32422	32829	32844	
189	0	32760	32820	32731	32699	32729	32293	32827	32647	
190	0	32727	32782	32784	32771	32620	32425	32797	32767	
191	0	32798	32807	32850	32797	32539	32691	32849	32797	
192	0	32724	32751	32684	32759	32534	33151	32725	32817	
193	0	32736	32771	32801	32748	32591	33043	32754	32775	
194	0	32804	32715	32877	32737	32631	32699	32717	32722	
195	0	32767	32791	32712	32709	32751	32391	32739	32801	
196	0	32762	32813	32767	32685	32790	32423	32629	32620	
197	0	32786	32831	32711	32810	32742	32671	32703	32724	
198	0	32780	32765	32775	32743	32799	32802	32687	32633	
199	0	32804	32819	32723	32668	32661	32913	32702	32827	
200	0	32749	32709	32771	32647	32573	32783	32692	32677	
201	0	32785	32817	32729	32727	32725	32163	32642	32838	
202	0	32729	32799	32815	32749	32662	31956	32758	32700	
203	0	32706	32751	32692	32799	32775	32261	32741	32665	
204	0	32749	32722	32735	32714	32639	32832	32674	32719	
205	0	32765	32716	32761	32685	32634	33243	32837	32659	
206	0	32829	32663	32748	32663	32661	33114	32767	32823	
207	0	32767	32745	32673	32684	32647	32813	32721	32623	
208	0	32773	32687	32745	32711	32694	32551	32886	32884	
209	0	32748	32860	32765	32604	32775	32614	32818	32719	
210	0	32788	32775	32644	32766	32639	32989	32848	32854	
211	0	32751	32903	32829	32735	32614	33181	32783	32612	
212	0	32783	32844	32775	32725	32759	33359	32789	32847	
213	0	32751	32775	32759	32751	32622	32761	32799	32797	
214	0	32724	32844	32775	32638	32738	32391	32731	32823	
215	0	32674	32789	32828	32635	32666	32362	32757	32785	
216	0	32684	32841	32710	32747	32509	32921	32815	32775	
217	0	32735	32739	32815	32818	32639	33363	32773	32681	
218	0	32714	32861	32771	32769	32743	33199	32687	32766	
219	0	32757	32730	32763	32647	32695	32734	32807	32676	
220	0	32767	32782	32731	32775	32696	31987	32739	32730	
221	0	32769	32790	32694	32713	32711	32074	32830	32766	
222	0	32775	32689	32765	32769	32559	32463	32797	32647	
223	0	32775	32861	32703	32630	32570	33042	32739	32807	
224	0	32808	32796	32812	32745	32579	32955	32767	32695	
225	0	32785	32831	32695	32687	32737	32583	32756	32773	
226	0	32786	32743	32801	32723	32634	32295	32903	32775	
227	0	32818	32671	32647	32647	32694	32287	32861	32850	
228	0	32797	32810	32833	32646	32605	32632	32733	32685	
229	0	32743	32783	32637	32715	32538	32935	32815	32861	
230	0	32717	32775	32799	32775	32799	33320	32819	32823	
231	0	32703	32837	32845	32830	32757	32999	32803	32727	
232	0	32772	32743	32803	32785	32707	32342	32775	32748	
233	0	32772	32835	32719	32671	32716	32156	32789	32738	
234	0	32789	32767	32867	32599	32529	32615	32734	32756	
235	0	32708	32749	32722	32674	32571	32947	32809	32582	
236	0	32740	32807	32775	32775	32771	33415	32736	32679	
237	0	32756	32767	32700	32647	32709	33071	32628	32726	
238	0	32768	32835	32731	32727	32742	32629	32791	32820	
239	0	32800	32839	32790	32647	32692	32205	32790	32726	
240	0	32737	32766	32647	32659	32585	32409	32647	32780	
241	0	32786	32841	32799	32683	32775	32753	32796	32747	
242	0	32748	32807	32631	32719	32767	33037	32665	32687	
243	0	32685	32763	32831	32702	32742	33197	32639	32732	
244	0	32732	32820	32621	32723	32711	32786	32787	32547	
245	0	32756	32727	32775	32690	32612	32581	32739	32726	
246	0	32815	32703	32617	32668	32487	32597	32775	32613	
247	0	32758	32751	32791	32773	32527	32827	32758	32790	
248	0	32785	32797	32836	32684	32679	33263	32734	32671	
249	0	32766	32797	32844	32723	32791	33372	32767	32783	
250	0	32769	32887	32887	32699	32663	32773	32719	32615	
251	0	32740	32757	32830	32747	32719	32175	32855	32815	
252	0	32734	32895	32815	32735	32742	32108	32791	32679	
253	0	32750	32757	32733	32775	32487	32335	32733	32764	
254	0	32725	32769	32788	32708	32559	33087	32822	32671	
255	0	32760	32821	32709	32731	32751	33398	32866	32903	
256	0	32710	32847	32735	32786	32759	32911	32755	32671	
257	0	32765	32799	32695	32791	32669	32374	32775	32762	
258	0	32731	32783	32773	32707	32754	31985	32759	32615	
259	0	32745	32780	32719	32594	32647	32247	32854	32775	
260	0	32753	32738	32775	32682	32690	32831	32775	32534	
261	0	32771	32730	32695	32735	32614	33231	32639	32735	
262	0	32775	32719	32663	32719	32670	33315	32818	32603	
263	0	32771	32818	32804	32614	32642	32691	32708	32663	
264	0	32751	32769	32687	32659	32719	32334	32785	32590	
265	0	32717	32733	32810	32713	32647	32543	32740	32787	
266	0	32799	32689	32667	32775	32540	32933	32668	32647	
267	0	32758	32743	32761	32771	32634	33455	32745	32773	
268	0	32745	32743	32631	32722	32718	33287	32795	32639	
269	0	32671	32797	32799	32687	32669	32839	32713	32813	
270	0	32721	32718	32679	32657	32715	32167	32810	32791	
271	0	32797	32791	32882	32727	32573	32079	32847	32850	
272	0	32754	32839	32672	32756	32675	32279	32713	32817	
273	0	32789	32809	32799	32772	32753	32735	32742	32743	
274	0	32757	32807	32671	32578	32666	33121	32711	32759	
275	0	32789	32709	32759	32706	32677	32812	32847	32927	
276	0	32816	32827	32775	32798	32719	32271	32855	32583	
277	0	32782	32771	32731	32797	32575	32159	32820	32863	
278	0	32764	32844	32722	32615	32506	32444	32861	32757	
279	0	32751	32721	32703	32692	32774	32783	32743	32903	
280	0	32756	32703	32798	32727	32758	33251	32741	32781	
281	0	32743	32726	32617	32743	32609	33123	32764	32858	
282	0	32774	32641	32775	32668	32743	32687	32743	32806	
283	0	32756	32756	32687	32743	32773	32509	32752	32895	
284	0	32756	32738	32775	32727	32630	32555	32639	32763	
285	0	32816	32847	32705	32772	32562	33014	32746	32814	
286	0	32786	32750	32754	32743	32751	33311	32735	32835	
287	0	32799	32663	32710	32668	32647	33186	32695	32620	
288	0	32724	32823	32755	32639	32773	32692	32727	32775	
289	0	32748	32860	32735	32833	32747	32367	32732	32557	
290	0	32793	32860	32754	32707	32577	32615	32647	32725	
291	0	32775	32825	32861	32743	32569	33070	32735	32559	
292	0	32758	32859	32711	32647	32687	33385	32628	32756	
293	0	32801	32812	32790	32738	32715	33275	32749	32669	
294	0	32797	32775	32718	32763	32647	32591	32740	32801	
295	0	32752	32822	32831	32694	32731	32293	32741	32775	
296	0	32742	32860	32691	32711	32583	32339	32791	32790	
297	0	32781	32895	32775	32639	32519	32523	32816	32816	
298	0	32726	32789	32822	32711	32607	32898	32819	32790	
299	0	32804	32735	32720	32685	32634	32902	32879	32775	
300	0	32788	32756	32807	32647	32647	32821	32755	32679	
301	0	32788	32732	32711	32643	32627	32459	32807	32863	
302	0	32775	32729	32605	32759	32687	32341	32735	32717	
303	0	32788	32782	32797	32734	32732	32477	32735	32815	
304	0	32698	32773	32722	32705	32497	32881	32775	32644	
305	0	32689	32767	32763	32604	32773	33011	32691	32731	
306	0	32762	32759	32639	32702	32707	33050	32807	32575	
307	0	32737	32759	32763	32743	32836	32639	32719	32741	
308	0	32663	32754	32661	32799	32735	32359	32749	32576	
309	0	32679	32882	32838	32687	32583	32500	32772	32839	
310	0	32750	32775	32683	32588	32711	33104	32825	32749	
311	0	32743	32775	32787	32735	32681	33500	32743	32789	
312	0	32748	32775	32698	32764	32711	33331	32757	32575	
313	0	32735	32815	32715	32695	32695	32751	32823	32835	
314	0	32770	32731	32818	32690	32667	32351	32798	32692	
315	0	32733	32814	32786	32711	32678	32415	32687	32807	
316	0	32686	32770	32681	32655	32730	32759	32756	32715	
317	0	32814	32702	32763	32710	32669	33114	32763	32775	
318	0	32737	32769	32797	32717	32619	33071	32831	32891	
319	0	32762	32757	32719	32643	32542	32737	32815	32639	
320	0	32754	32811	32727	32726	32547	32167	32735	32804	
321	0	32762	32828	32875	32775	32600	31924	32802	32623	
322	0	32820	32783	32738	32695	32663	32146	32803	32772	
323	0	32769	32708	32687	32768	32773	32700	32819	32773	
324	0	32759	32759	32775	32743	32770	33137	32786	32679	
325	0	32740	32813	32829	32679	32699	32957	32753	32804	
326	0	32775	32710	32694	32687	32715	32487	32807	32751	
327	0	32738	32807	32775	32775	32739	32211	32749	32759	
328	0	32792	32794	32802	32679	32697	32487	32689	32753	
329	0	32749	32842	32695	32733	32691	32807	32715	32721	
330	0	32741	32836	32737	32797	32687	33103	32759	32791	
331	0	32762	32831	32734	32661	32738	33267	32734	32540	
332	0	32752	32735	32751	32771	32764	32803	32821	32787	
333	0	32751	32839	32703	32795	32579	32164	32831	32819	
334	0	32807	32775	32797	32599	32517	32303	32753	32727	
335	0	32773	32742	32738	32665	32503	32804	32807	32929	
336	0	32775	32800	32660	32721	32471	33257	32723	32631	
337	0	32789	32834	32831	32719	32535	33174	32813	32813	
338	0	32759	32799	32647	32775	32628	32829	32722	32621	
339	0	32730	32775	32775	32711	32743	32181	32759	32793	
340	0	32737	32723	32805	32713	32698	32351	32739	32630	
341	0	32761	32706	32743	32659	32751	32805	32677	32772	
342	0	32744	32807	32775	32660	32647	33155	32838	32775	
343	0	32734	32762	32731	32661	32679	33206	32702	32719	
344	0	32743	32807	32669	32772	32703	32993	32737	32798	
345	0	32777	32790	32743	32775	32743	32399	32689	32519	
346	0	32813	32631	32762	32615	32679	32244	32775	32783	
347	0	32811	32844	32758	32620	32756	32422	32731	32711	
348	0	32773	32766	32685	32700	32764	32878	32771	32745	
349	0	32786	32882	32773	32634	32570	33405	32687	32851	
350	0	32729	32797	32743	32765	32571	33047	32748	32727	
351	0	32733	32861	32823	32719	32756	32549	32708	32837	
352	0	32740	32775	32834	32699	32722	32103	32847	32799	
353	0	32806	32745	32681	32751	32758	32351	32735	32913	
354	0	32763	32689	32734	32735	32719	32821	32799	32623	
355	0	32740	32727	32722	32711	32623	33229	32843	32805	
356	0	32766	32785	32635	32727	32711	33142	32807	32603	
357	0	32758	32767	32839	32747	32719	32866	32805	32758	
358	0	32743	32709	32694	32610	32667	32315	32711	32638	
359	0	32775	32745	32796	32640	32549	32580	32775	32713	
360	0	32764	32725	32771	32749	32692	32992	32684	32652	
361	0	32775	32759	32677	32722	32601	33381	32807	32783	
362	0	32783	32767	32748	32673	32612	33359	32687	32879	
363	0	32721	32732	32727	32743	32742	32951	32755	32759	
364	0	32775	32765	32636	32724	32721	32351	32786	32883	
365	0	32735	32813	32775	32644	32706	32420	32810	32738	
366	0	32854	32813	32757	32691	32641	32647	32783	32795	
367	0	32734	32746	32679	32658	32671	33079	32811	32607	
368	0	32764	32815	32791	32655	32677	33287	32743	32789	
369	0	32722	32763	32681	32775	32695	32943	32667	32590	
370	0	32721	32807	32743	32739	32605	32346	32797	32796	
371	0	32744	32775	32783	32769	32557	32261	32724	32624	
372	0	32766	32882	32716	32717	32567	32434	32839	32782	
373	0	32690	32770	32874	32749	32593	32965	32767	32863	
374	0	32721	32837	32679	32791	32710	33085	32784	32769	
375	0	32773	32794	32805	32598	32699	33097	32775	32829	
376	0	32780	32807	32671	32799	32631	32610	32739	32790	
377	0	32774	32807	32711	32743	32659	32175	32832	32895	
378	0	32743	32743	32763	32739	32695	32285	32756	32732	
379	0	32709	32853	32691	32644	32570	32682	32711	32767	
380	0	32751	32794	32795	32726	32623	33217	32751	32775	
381	0	32743	32823	32635	32679	32597	33069	32735	32811	
382	0	32773	32775	32793	32743	32775	32727	32710	32675	
383	0	32762	32807	32669	32647	32715	32073	32675	32754	
384	0	32710	32823	32716	32823	32786	32071	32615	32631	
385	0	32746	32783	32809	32818	32749	32373	32692	32727	
386	0	32778	32715	32647	32607	32675	32864	32647	32566	
387	0	32791	32775	32723	32741	32639	33229	32787	32749	
388	0	32769	32742	32821	32788	32643	32962	32799	32627	
389	0	32747	32727	32647	32639	32783	32401	32705	32787	
390	0	32738	32765	32827	32739	32740	32423	32767	32762	
391	0	32713	32743	32692	32799	32556	32603	32690	32791	
392	0	32713	32867	32726	32734	32551	33299	32789	32615	
393	0	32781	32734	32773	32667	32475	33446	32775	32835	
394	0	32726	32727	32699	32723	32508	33067	32839	32755	
395	0	32751	32741	32842	32748	32747	32663	32807	32775	
396	0	32756	32815	32749	32734	32759	32330	32742	32719	
397	0	32794	32854	32731	32691	32686	32460	32831	32783	
398	0	32757	32789	32919	32743	32782	32882	32737	32803	
399	0	32830	32758	32748	32705	32621	33319	32851	32748	
400	0	32784	32775	32815	32679	32703	33055	32754	32733	
401	0	32807	32722	32679	32601	32638	32518	32703	32877	
402	0	32791	32749	32775	32637	32514	31949	32913	32693	
403	0	32732	32687	32775	32646	32583	32037	32845	32834	
404	0	32769	32755	32642	32720	32768	32663	32771	32642	
405	0	32732	32759	32793	32695	32719	33170	32732	32725	
406	0	32747	32796	32711	32705	32686	33125	32717	32603	
407	0	32790	32741	32807	32711	32775	32959	32715	32739	
408	0	32775	32833	32687	32615	32767	32439	32822	32598	
409	0	32762	32775	32766	32671	32615	32411	32671	32745	
410	0	32751	32791	32671	32754	32550	32550	32788	32605	
411	0	32775	32803	32716	32679	32577	33015	32750	32763	
412	0	32707	32834	32847	32813	32769	33257	32667	32538	
413	0	32762	32869	32741	32700	32663	32980	32765	32868	
414	0	32742	32743	32743	32683	32751	32391	32815	32736	
415	0	32762	32815	32734	32727	32637	32174	32713	32769	
416	0	32743	32821	32721	32767	32551	32296	32769	32754	
417	0	32727	32832	32663	32743	32596	32679	32763	32841	
418	0	32713	32786	32807	32727	32794	32903	32772	32751	
419	0	32749	32799	32719	32724	32725	32966	32799	32775	
420	0	32805	32719	32810	32743	32663	32463	32717	32759	
421	0	32775	32679	32773	32679	32727	32135	32885	32830	
422	0	32756	32775	32654	32760	32666	32123	32785	32829	
423	0	32781	32748	32811	32691	32559	32378	32775	32692	
424	0	32729	32812	32683	32737	32685	33026	32678	32670	
425	0	32775	32710	32751	32677	32837	32919	32695	32629	
426	0	32727	32829	32694	32647	32627	32738	32805	32850	
427	0	32782	32757	32881	32643	32615	32355	32831	32669	
428	0	32793	32767	32679	32683	32709	32204	32775	32823	
429	0	32729	32851	32791	32652	32553	32564	32797	32621	
430	0	32766	32733	32732	32614	32644	33215	32725	32724	
431	0	32779	32852	32726	32699	32736	33356	32723	32678	
432	0	32759	32821	32767	32751	32695	33075	32743	32583	
433	0	32727	32702	32738	32763	32718	32515	32763	32831	
434	0	32685	32833	32823	32764	32591	32372	32769	32759	
435	0	32736	32759	32852	32659	32499	32859	32801	32927	
436	0	32796	32829	32615	32729	32575	33262	32748	32647	
437	0	32813	32679	32839	32796	32586	33335	32756	32879	
438	0	32729	32901	32637	32733	32671	33175	32843	32773	
439	0	32758	32691	32687	32681	32675	32407	32805	32855	
440	0	32767	32775	32830	32695	32643	32287	32846	32644	
441	0	32784	32729	32677	32700	32699	32678	32878	32823	
442	0	32764	32799	32775	32670	32759	32997	32803	32684	
443	0	32722	32783	32751	32681	32727	33179	32799	32806	
444	0	32751	32841	32591	32724	32604	33239	32766	32767	
445	0	32722	32740	32775	32583	32557	32643	32839	32738	
446	0	32804	32690	32791	32575	32499	32381	32865	32850	
447	0	32722	32783	32684	32687	32528	32396	32788	32604	
448	0	32748	32796	32729	32708	32615	32773	32738	32767	
449	0	32753	32729	32791	32741	32773	33354	32655	32631	
450	0	32746	32749	32687	32759	32807	33251	32615	32726	
451	0	32738	32887	32711	32715	32847	32836	32679	32839	
452	0	32740	32846	32813	32850	32718	32399	32523	32532	
453	0	32763	32773	32647	32813	32713	32263	32799	32803	
454	0	32797	32767	32839	32663	32829	32732	32753	32591	
455	0	32783	32767	32709	32756	32684	33230	32735	32839	
456	0	32766	32839	32871	32739	32535	33259	32773	32610	
457	0	32797	32775	32811	32634	32579	32940	32735	32759	
458	0	32692	32749	32723	32701	32764	32383	32829	32663	
459	0	32772	32708	32827	32715	32718	32279	32745	32759	
460	0	32743	32748	32738	32775	32679	32566	32749	32847	
461	0	32721	32717	32743	32663	32727	33138	32709	32604	
462	0	32745	32721	32702	32708	32683	33159	32877	32853	
463	0	32790	32716	32753	32756	32530	32939	32751	32543	
464	0	32844	32847	32750	32704	32561	32359	32765	32747	
465	0	32734	32791	32719	32678	32797	32196	32761	32569	
466	0	32776	32805	32786	32698	32729	32325	32684	32684	
467	0	32758	32763	32786	32721	32742	32983	32703	32719	
468	0	32727	32826	32693	32615	32769	33231	32666	32595	
469	0	32719	32775	32836	32743	32709	33084	32719	32763	
470	0	32743	32795	32671	32731	32711	32371	32639	32643	
471	0	32764	32767	32755	32673	32747	32215	32815	32792	
472	0	32758	32860	32793	32806	32735	32405	32703	32671	
473	0	32752	32872	32663	32677	32487	32767	32807	32775	
474	0	32785	32717	32782	32704	32769	33332	32723	32749	
475	0	32725	32701	32687	32607	32685	32993	32709	32827	
476	0	32712	32739	32735	32717	32727	32558	32899	32869	
477	0	32701	32765	32763	32663	32659	32369	32719	32745	
478	0	32709	32797	32709	32682	32637	32410	32858	32793	
479	0	32743	32847	32775	32629	32692	32639	32801	32671	
480	0	32796	32716	32759	32681	32729	33031	32827	32863	
481	0	32762	32741	32759	32767	32545	33217	32806	32657	
482	0	32767	32711	32754	32610	32541	32990	32743	32865	
483	0	32743	32783	32692	32790	32629	32396	32756	32748	
484	0	32796	32691	32802	32711	32727	32354	32765	32760	
485	0	32804	32820	32742	32763	32743	32435	32851	32823	
486	0	32805	32733	32858	32646	32690	33157	32851	32807	
487	0	32760	32622	32731	32698	32578	33271	32733	32783	
488	0	32742	32807	32815	32759	32642	33036	32757	32751	
489	0	32732	32751	32679	32695	32799	32383	32751	32751	
490	0	32704	32793	32757	32658	32677	32215	32720	32805	
491	0	32785	32780	32677	32601	32676	32486	32813	32781	
492	0	32775	32784	32785	32733	32687	32978	32759	32791	
493	0	32808	32815	32677	32763	32519	32999	32681	32758	
494	0	32837	32815	32755	32723	32671	33077	32818	32769	
495	0	32764	32750	32743	32783	32713	32647	32746	32639	
496	0	32758	32887	32669	32711	32732	32191	32765	32698	
497	0	32735	32775	32794	32692	32662	32295	32797	32642	
498	0	32787	32828	32757	32739	32529	32854	32819	32738	
499	0	32790	32743	32791	32743	32543	33370	32728	32629	
500	0	32754	32807	32771	32690	32655	33059	32770	32764	
501	0	32689	32799	32675	32715	32759	32647	32709	32641	
502	0	32759	32703	32775	32706	32653	32359	32767	32807	
503	0	32790	32747	32660	32781	32719	32359	32764	32647	
504	0	32753	32726	32676	32693	32679	32686	32767	32754	
505	0	32786	32751	32833	32702	32717	33287	32735	32831	
506	0	32834	32751	32710	32643	32685	33243	32819	32582	
507	0	32797	32765	32695	32709	32667	32800	32767	32765	
508	0	32795	32715	32807	32679	32647	32297	32845	32676	
509	0	32745	32791	32759	32635	32585	32172	32738	32773	
510	0	32708	32734	32660	32716	32604	32513	32914	32857	
511	0	32749	32848	32812	32754	32636	33175	32818	32831	
512	0	32779	32781	32807	32662	32636	33353	32871	32818	
513	0	32757	32762	32721	32758	32687	33017	32746	32633	
514	0	32780	32679	32711	32775	32767	32615	32827	32775	
515	0	32797	32721	32815	32623	32719	32180	32749	32722	
516	0	32727	32810	32807	32762	32747	32375	32824	32757	
517	0	32776	32764	32717	32788	32736	32810	32755	32812	
518	0	32818	32890	32759	32642	32733	33230	32786	32765	
519	0	32812	32743	32883	32775	32639	33202	32685	32897	
520	0	32773	32839	32647	32767	32601	32591	32775	32643	
521	0	32741	32783	32731	32647	32589	32159	32713	32756	
522	0	32729	32815	32804	32767	32564	32272	32783	32607	
523	0	32775	32764	32687	32743	32775	32770	32696	32725	
524	0	32753	32809	32829	32717	32740	33198	32759	32559	
525	0	32736	32807	32743	32703	32684	33302	32787	32698	
526	0	32767	32802	32679	32756	32727	32739	32799	32731	
527	0	32769	32741	32831	32710	32661	32220	32719	32748	
528	0	32719	32714	32772	32661	32678	32309	32758	32775	
529	0	32721	32788	32665	32707	32686	32677	32643	32615	
530	0	32763	32769	32743	32687	32709	33255	32753	32695	
531	0	32677	32895	32742	32799	32762	33506	32715	32815	
532	0	32692	32839	32563	32735	32704	33106	32819	32715	
533	0	32724	32933	32647	32835	32669	32623	32775	32783	
534	0	32741	32759	32702	32621	32617	32383	32713	32598	
535	0	32754	32814	32804	32743	32589	32598	32791	32799	
536	0	32717	32797	32935	32695	32755	33215	32707	32647	
537	0	32748	32748	32710	32635	32741	33274	32723	32775	
538	0	32764	32723	32893	32717	32721	32831	32743	32847	
539	0	32725	32809	32878	32729	32740	32326	32807	32647	
540	0	32780	32738	32705	32695	32743	32183	32848	32813	
541	0	32773	32785	32665	32781	32711	32135	32797	32671	
542	0	32732	32764	32764	32727	32723	32786	32726	32799	
543	0	32706	32839	32658	32747	32750	33207	32751	32748	
544	0	32770	32739	32706	32719	32799	33007	32763	32591	
545	0	32738	32853	32803	32731	32759	32388	32803	32815	
546	0	32791	32839	32751	32662	32708	32044	32786	32765	
547	0	32807	32822	32727	32801	32632	32204	32847	32841	
548	0	32862	32788	32844	32796	32587	32716	32705	32738	
549	0	32788	32815	32747	32682	32519	33410	32787	32689	
550	0	32729	32843	32660	32675	32533	33391	32692	32791	
551	0	32794	32735	32823	32721	32739	33107	32783	32623	
552	0	32716	32787	32737	32733	32732	32445	32723	32798	
553	0	32757	32761	32851	32687	32665	32556	32655	32572	
554	0	32772	32844	32684	32710	32646	32809	32756	32752	
555	0	32743	32719	32647	32738	32695	33239	32718	32663	
556	0	32733	32727	32679	32738	32615	33281	32751	32679	
557	0	32744	32831	32679	32722	32581	32941	32611	32691	
558	0	32735	32709	32845	32739	32637	32549	32765	32695	
559	0	32775	32743	32701	32796	32730	32246	32710	32812	
560	0	32749	32724	32826	32785	32711	32512	32807	32673	
561	0	32756	32758	32739	32674	32655	32858	32775	32818	
562	0	32803	32657	32715	32735	32734	33142	32825	32621	
563	0	32743	32733	32787	32759	32717	32942	32901	32839	
564	0	32743	32714	32677	32653	32551	32367	32899	32823	
565	0	32751	32805	32718	32711	32551	31971	32854	32791	
566	0	32756	32749	32726	32676	32511	32031	32823	32927	
567	0	32746	32775	32749	32698	32607	32415	32791	32714	
568	0	32850	32719	32823	32598	32594	32927	32841	32923	
569	0	32685	32809	32740	32759	32691	33047	32811	32639	
570	0	32690	32853	32738	32783	32639	32623	32743	32794	
571	0	32763	32815	32826	32621	32683	32275	32759	32886	
572	0	32788	32903	32687	32687	32702	32115	32748	32769	
573	0	32773	32845	32824	32748	32675	32410	32852	32855	
574	0	32733	32810	32721	32667	32537	32926	32736	32733	
575	0	32778	32775	32711	32705	32597	33206	32747	32762	
576	0	32748	32791	32791	32679	32623	33077	32679	32553	
577	0	32775	32847	32647	32717	32775	32455	32734	32691	
578	0	32722	32771	32807	32730	32709	32372	32775	32569	
579	0	32788	32783	32731	32721	32585	32415	32759	32740	
580	0	32836	32659	32700	32752	32701	32855	32747	32623	
581	0	32780	32705	32719	32663	32706	33351	32671	32734	
582	0	32786	32679	32673	32623	32733	33159	32805	32797	
583	0	32783	32751	32767	32767	32591	32767	32725	32799	
584	0	32719	32710	32655	32683	32541	32418	32803	32801	
585	0	32700	32773	32729	32628	32547	32399	32775	32647	
586	0	32764	32783	32833	32755	32774	32763	32823	32772	
587	0	32756	32775	32690	32738	32767	33094	32784	32647	
588	0	32765	32775	32738	32698	32623	33223	32737	32835	
589	0	32759	32703	32758	32724	32620	32754	32783	32599	
590	0	32761	32837	32683	32711	32679	32285	32709	32743	
591	0	32714	32719	32687	32658	32775	32302	32756	32731	
592	0	32769	32847	32834	32757	32771	32783	32639	32698	
593	0	32784	32719	32737	32695	32507	33358	32743	32793	
594	0	32757	32868	32793	32766	32551	33350	32775	32773	
595	0	32775	32787	32859	32679	32583	32976	32775	32867	
596	0	32765	32835	32701	32803	32740	32431	32735	32569	
597	0	32761	32815	32793	32804	32756	32319	32664	32749	
598	0	32719	32803	32751	32689	32692	32385	32775	32609	
599	0	32751	32831	32719	32732	32635	32893	32723	32830	
600	0	32740	32741	32863	32684	32593	33307	32843	32826	
601	0	32764	32786	32711	32627	32706	33199	32803	32847	
602	0	32730	32660	32773	32660	32665	32743	32820	32883	
603	0	32734	32794	32723	32743	32567	32489	32787	32794	
604	0	32751	32719	32607	32733	32599	32342	32854	32879	
605	0	32771	32797	32775	32679	32743	32886	32786	32733	
606	0	32796	32711	32676	32689	32647	33187	32726	32726	
607	0	32792	32678	32822	32671	32665	33213	32786	32790	
608	0	32804	32719	32742	32711	32527	32637	32831	32863	
609	0	32775	32703	32775	32607	32594	32434	32753	32841	
610	0	32791	32773	32714	32679	32739	32631	32834	32785	
611	0	32749	32769	32709	32690	32713	33031	32731	32751	
612	0	32786	32815	32756	32643	32753	33425	32769	32791	
613	0	32735	32831	32775	32695	32717	33202	32623	32543	
614	0	32695	32791	32699	32738	32678	32787	32684	32735	
615	0	32706	32711	32806	32767	32701	32335	32773	32725	
616	0	32669	32831	32769	32698	32566	32463	32679	32775	
617	0	32773	32741	32751	32679	32746	32687	32743	32660	
618	0	32742	32875	32769	32753	32783	33265	32658	32706	
619	0	32694	32863	32863	32771	32743	33151	32647	32612	
620	0	32735	32895	32799	32838	32621	32635	32703	32642	
621	0	32720	32854	32847	32708	32607	31890	32647	32605	
622	0	32783	32775	32695	32788	32708	31919	32561	32634	
623	0	32679	32887	32854	32805	32801	32223	32612	32546	
624	0	32745	32782	32708	32763	32773	32715	32551	32615	
625	0	32696	32882	32723	32695	32711	32823	32695	32563	
626	0	32673	32868	32823	32767	32667	32633	32692	32806	
627	0	32610	32727	32637	32658	32699	32343	32847	32679	
628	0	32561	32845	32585	32631	32727	32071	32727	32821	
629	0	32559	32831	32705	32615	32676	32374	32809	32678	
630	0	32572	32825	32540	32691	32594	32861	32711	32844	
631	0	32594	32735	32665	32621	32591	33277	32773	32674	
632	0	32563	32813	32567	32715	32775	33359	32786	32873	
633	0	32596	32687	32533	32619	32700	32805	32725	32868	
634	0	32556	32822	32591	32687	32743	32443	32719	32887	
635	0	32488	32706	32515	32631	32775	32635	32631	32884	
636	0	32447	32852	32514	32682	32775	32839	32722	32800	
637	0	32394	32791	32540	32703	32795	33207	32583	32855	
638	0	32456	32811	32471	32679	32791	33143	32615	32701	
639	0	32423	32859	32364	32647	32846	32617	32663	32921	
640	0	32440	32698	32415	32599	32775	32095	32647	32871	
641	0	32476	32687	32431	32638	32761	32258	32679	32662	
642	0	32524	32668	32335	32629	32734	32671	32741	32871	
643	0	32580	32615	32431	32591	32605	32998	32684	32691	
644	0	32674	32575	32551	32662	32567	33383	32647	32903	
645	0	32663	32623	32421	32705	32809	33149	32772	32813	
646	0	32884	32561	32599	32713	32761	32587	32745	32935	
647	0	32961	32519	32612	32623	32668	32552	32838	32975	
648	0	33117	32576	32625	32647	32631	32866	32871	32954	
649	0	33423	32455	32815	32707	32557	33269	33046	33025	
650	0	33644	32491	32972	32575	32541	33343	33007	32775	
651	0	33812	32479	33010	32757	32493	33257	33015	32864	
652	0	33836	32540	33091	32703	32423	32567	32943	32890	
653	0	33767	32727	33217	32801	32391	32045	33117	32747	
654	0	33596	32850	33280	32865	32391	32148	33159	32863	
655	0	33568	32941	33223	32869	32389	32574	33338	32891	
656	0	33488	33004	33343	33025	32391	32751	33159	32605	
657	0	33506	32999	33364	33023	32231	33035	33308	32759	
658	0	33524	32838	33223	32953	32467	32790	33203	32621	
659	0	33574	32721	33283	32847	32549	32359	33074	32745	
660	0	33579	32617	33219	32881	32568	32501	33060	32823	
661	0	33436	32582	33159	32863	32535	32799	32935	32690	
662	0	33433	32556	33201	32687	32501	33269	33006	32803	
663	0	33114	32567	32963	32797	32643	33375	32823	32557	
664	0	32845	32711	32933	32743	32775	32963	32866	32751	
665	0	32692	32817	32918	32647	32717	32421	32743	32743	
666	0	32548	32735	32891	32719	32702	32156	32756	32511	
667	0	32516	32775	32807	32613	32743	32356	32775	32716	
668	0	32487	32780	32887	32665	32626	32925	32847	32711	
669	0	32460	32805	32919	32767	32615	32935	32735	32685	
670	0	32383	32935	32767	32815	32527	32583	32769	32771	
671	0	32295	32935	32801	32772	32575	32135	32727	32548	
672	0	32191	33037	32775	32771	32853	32189	32673	32671	
673	0	32242	32980	32775	32732	32775	32514	32590	32593	
674	0	32200	33047	32813	32782	32854	32990	32621	32589	
675	0	32186	32957	32615	32655	32773	33022	32567	32471	
676	0	32123	33031	32647	32599	32855	33005	32495	32625	
677	0	32135	33039	32551	32711	32775	32495	32479	32455	
678	0	32063	33129	32555	32719	32743	32103	32382	32551	
679	0	32156	33032	32666	32623	32835	32451	32411	32505	
680	0	32193	33001	32566	32635	33031	32900	32383	32514	
681	0	32262	33082	32639	32719	32983	33159	32381	32695	
682	0	32373	32915	32711	32685	32854	33189	32491	32647	
683	0	32335	33019	32587	32647	32869	32635	32485	32663	
684	0	32331	32999	32669	32725	32954	32169	32576	32510	
685	0	32431	32967	32548	32709	32866	32354	32515	32679	
686	0	32413	32839	32605	32669	32735	32715	32430	32521	
687	0	32473	32887	32661	32615	32661	33089	32499	32665	
688	0	32609	32799	32551	32694	32890	33279	32531	32615	
689	0	32639	32797	32668	32631	32903	32835	32515	32759	
690	0	32599	32771	32587	32647	32767	32279	32658	32620	
691	0	32734	32745	32765	32707	32805	32407	32670	32813	
692	0	32723	32841	32582	32642	32633	32759	32585	32595	
693	0	32803	32709	32731	32643	32577	33119	32735	32886	
694	0	32797	32757	32561	32731	32833	33205	32711	32611	
695	0	32791	32685	32647	32647	32681	32999	32644	32855	
696	0	32775	32717	32610	32615	32698	32469	32711	32605	
697	0	32898	32679	32511	32591	32635	32331	32717	32863	
698	0	32866	32692	32748	32738	32706	32812	32825	32647	
699	0	32885	32687	32673	32758	32625	33241	32797	32863	
700	0	32890	32639	32815	32627	32455	33550	32925	32751	
701	0	32931	32711	32833	32639	32563	33202	32803	32825	
702	0	32910	32634	32767	32639	32487	32684	32865	32735	
703	0	32854	32694	32822	32631	32760	32487	32863	32858	
704	0	32849	32661	32657	32699	32693	32582	32804	32775	
705	0	32908	32677	32663	32751	32622	33199	32876	32791	
706	0	32912	32723	32859	32775	32596	33445	32811	32866	
707	0	32856	32707	32663	32629	32679	33167	32775	32821	
708	0	32837	32726	32797	32716	32681	32591	32855	32869	
709	0	32798	32658	32785	32722	32533	31917	32780	32802	
710	0	32825	32746	32775	32716	32487	32134	32838	32916	
711	0	32887	32695	32739	32804	32453	32575	32741	32591	
712	0	32865	32863	32882	32771	32524	33087	32803	32739	
713	0	32826	32703	32703	32687	32727	33151	32791	32773	
714	0	32800	32831	32787	32703	32756	32677	32775	32703	
715	0	32788	32705	32663	32727	32694	32281	32787	32764	
716	0	32801	32815	32682	32690	32736	32468	32644	32671	
717	0	32815	32734	32761	32619	32739	32629	32735	32791	
718	0	32725	32852	32661	32783	32637	32951	32812	32747	
719	0	32793	32757	32783	32734	32583	32879	32932	32931	
720	0	32825	32775	32685	32695	32559	32735	32876	32679	
721	0	32789	32742	32663	32695	32711	32333	32691	32845	
722	0	32786	32735	32735	32743	32594	32346	32839	32831	
723	0	32743	32711	32647	32794	32710	32627	32761	32820	
724	0	32766	32807	32749	32677	32641	32853	32831	32701	
725	0	32709	32681	32833	32775	32675	32967	32852	32869	
726	0	32775	32767	32714	32734	32685	32868	32765	32711	
727	0	32711	32743	32833	32647	32670	32327	32815	32805	
728	0	32775	32767	32759	32682	32469	32119	32861	32809	
729	0	32747	32712	32679	32735	32573	32287	32759	32822	
730	0	32764	32764	32764	32775	32630	32836	32871	32887	
731	0	32781	32764	32747	32646	32771	33327	32743	32785	
732	0	32787	32863	32715	32735	32705	33303	32830	32873	
733	0	32840	32671	32759	32679	32615	32543	32787	32807	
734	0	32810	32772	32783	32703	32647	32130	32659	32663	
735	0	32764	32821	32783	32767	32555	32313	32685	32770	
736	0	32692	32705	32775	32679	32747	32789	32786	32679	
737	0	32742	32793	32711	32755	32738	33302	32892	32830	
738	0	32749	32703	32759	32709	32711	33075	32675	32583	
739	0	32775	32791	32799	32721	32705	32762	32802	32727	
740	0	32797	32749	32692	32637	32741	32508	32819	32615	
741	0	32797	32787	32813	32760	32673	32519	32823	32773	
742	0	32822	32681	32711	32727	32425	32999	32844	32625	
743	0	32718	32855	32861	32805	32679	33383	32695	32719	
744	0	32790	32747	32671	32708	32724	33335	32719	32575	
745	0	32722	32807	32805	32751	32775	33083	32751	32711	
746	0	32807	32811	32691	32733	32662	32487	32791	32631	
747	0	32780	32731	32847	32764	32726	32367	32700	32810	
748	0	32742	32875	32700	32679	32556	32263	32742	32609	
749	0	32788	32749	32783	32679	32467	32855	32839	32812	
750	0	32729	32924	32708	32765	32631	33010	32687	32551	
751	0	32681	32823	32685	32745	32775	32839	32676	32721	
752	0	32704	32903	32807	32647	32757	32423	32642	32611	
753	0	32777	32797	32751	32767	32666	31991	32846	32780	
754	0	32740	32859	32680	32799	32740	32127	32821	32645	
755	0	32828	32762	32801	32701	32687	32835	32738	32775	
756	0	32733	32724	32686	32642	32731	33135	32813	32623	
757	0	32775	32727	32775	32770	32549	33008	32772	32818	
758	0	32743	32743	32670	32775	32549	32538	32717	32571	
759	0	32722	32775	32771	32729	32604	32118	32845	32740	
760	0	32765	32679	32683	32620	32732	32383	32805	32660	
761	0	32721	32827	32749	32713	32759	32695	32727	32799	
762	0	32850	32742	32804	32671	32711	33177	32723	32773	
763	0	32791	32785	32591	32659	32699	33357	32731	32771	
764	0	32790	32735	32765	32607	32717	32917	32701	32869	
765	0	32740	32821	32635	32711	32622	32679	32775	32753	
766	0	32827	32724	32730	32687	32490	32669	32758	32813	
767	0	32764	32751	32887	32674	32524	32962	32860	32716	
768	0	32788	32734	32653	32647	32716	33435	32855	32884	
769	0	32800	32842	32855	32711	32668	33339	32853	32803	
770	0	32740	32762	32685	32743	32677	33039	32826	32819	
771	0	32794	32806	32757	32643	32718	32634	32804	32631	
772	0	32711	32770	32871	32727	32694	32415	32743	32827	
773	0	32743	32804	32679	32718	32605	32668	32858	32632	
774	0	32756	32730	32770	32751	32477	33129	32669	32748	
775	0	32764	32783	32789	32654	32583	33234	32647	32721	
776	0	32705	32757	32623	32721	32551	32887	32731	32735	
777	0	32763	32755	32710	32719	32679	32293	32647	32765	
778	0	32751	32839	32805	32782	32741	31846	32825	32795	
779	0	32756	32767	32724	32739	32710	31977	32800	32875	
780	0	32751	32745	32743	32643	32694	32446	32721	32607	
781	0	32795	32751	32759	32606	32642	32874	32773	32839	
782	0	32742	32770	32623	32690	32689	33015	32749	32551	
783	0	32725	32763	32807	32722	32605	32494	32564	32647	
784	0	32736	32799	32782	32735	32587	32071	32767	32585	
785	0	32679	32775	32663	32762	32575	32319	32671	32681	
786	0	32772	32836	32812	32727	32662	32754	32612	32628	
787	0	32725	32706	32684	32685	32755	33107	32790	32787	
788	0	32811	32745	32831	32757	32647	33053	32791	32647	
789	0	32843	32775	32699	32665	32719	32983	32707	32819	
790	0	32712	32759	32871	32740	32607	32337	32817	32622	
791	0	32801	32796	32703	32775	32583	32361	32803	32863	
792	0	32692	32788	32797	32786	32769	32674	32743	32615	
793	0	32749	32748	32758	32775	32711	32980	32727	32759	
794	0	32792	32710	32791	32705	32669	33367	32810	32665	
795	0	32807	32733	32765	32549	32685	32866	32843	32951	
796	0	32758	32825	32715	32724	32541	32295	32738	32619	
797	0	32708	32756	32781	32788	32631	32140	32760	32870	
798	0	32720	32810	32694	32775	32771	32634	32807	32797	
799	0	32734	32743	32847	32819	32679	33191	32865	32941	
800	0	32801	32706	32662	32666	32735	33251	32748	32791	
801	0	32758	32813	32815	32671	32541	33103	32775	32687	
802	0	32765	32757	32719	32607	32725	32627	32756	32775	
803	0	32780	32834	32795	32663	32719	32454	32741	32647	
804	0	32792	32686	32663	32807	32690	32407	32858	32785	
805	0	32729	32827	32791	32716	32731	33065	32729	32565	
806	0	32832	32727	32665	32667	32659	33479	32719	32743	
807	0	32775	32763	32765	32679	32583	33370	32700	32575	
808	0	32704	32775	32733	32725	32732	32676	32791	32799	
809	0	32735	32809	32715	32717	32671	32431	32767	32652	
810	0	32808	32893	32691	32764	32647	32356	32695	32732	
811	0	32703	32775	32837	32645	32709	32631	32757	32631	
812	0	32689	32845	32681	32749	32676	32991	32699	32745	
813	0	32798	32757	32775	32687	32519	33151	32767	32647	
814	0	32775	32874	32775	32767	32691	32607	32759	32719	
815	0	32775	32723	32711	32661	32759	32111	32791	32769	
816	0	32727	32789	32781	32666	32682	32159	32796	32707	
817	0	32772	32740	32726	32775	32757	32670	32659	32529	
818	0	32749	32715	32799	32711	32605	33049	32804	32807	
819	0	32761	32815	32708	32687	32556	33267	32771	32671	
820	0	32757	32676	32879	32628	32647	32723	32759	32822	
821	0	32774	32790	32623	32679	32703	32385	32918	32847	
822	0	32775	32723	32655	32667	32692	32352	32743	32801	
823	0	32711	32838	32775	32667	32645	32633	32791	32823	
824	0	32804	32685	32663	32627	32767	33147	32759	32633	
825	0	32760	32809	32755	32763	32705	33451	32722	32799	
826	0	32712	32763	32798	32775	32509	33127	32813	32639	
827	0	32734	32759	32694	32791	32581	32631	32660	32795	
828	0	32793	32735	32889	32679	32685	32261	32800	32791	
829	0	32713	32758	32756	32762	32743	32476	32750	32769	
830	0	32743	32807	32745	32727	32719	32967	32725	32821	
831	0	32780	32727	32710	32705	32703	33223	32785	32861	
832	0	32704	32887	32747	32687	32695	33235	32764	32853	
833	0	32759	32759	32708	32647	32527	32775	32801	32806	
834	0	32769	32726	32741	32719	32735	32339	32631	32767	
835	0	32737	32843	32729	32743	32685	32284	32810	32789	
836	0	32652	32815	32711	32804	32763	32836	32815	32796	
837	0	32748	32883	32823	32738	32659	33179	32693	32676	
838	0	32775	32767	32690	32710	32519	33227	32757	32773	
839	0	32775	32796	32783	32731	32740	32647	32795	32719	
840	0	32749	32757	32687	32735	32667	32327	32854	32831	
841	0	32751	32757	32831	32663	32758	32181	32775	32775	
842	0	32804	32799	32655	32661	32532	32263	32854	32898	
843	0	32796	32783	32831	32647	32804	32896	32762	32749	
844	0	32813	32675	32735	32615	32671	32979	32833	32709	
845	0	32758	32775	32775	32661	32739	32525	32769	32793	
846	0	32713	32738	32702	32695	32614	32285	32813	32685	
847	0	32755	32743	32682	32689	32647	32107	32795	32839	
848	0	32816	32692	32694	32710	32803	32207	32729	32620	
849	0	32782	32850	32767	32607	32674	32676	32845	32815	
850	0	32736	32812	32689	32687	32659	32853	32729	32533	
851	0	32710	32775	32822	32747	32775	33030	32623	32677	
852	0	32720	32879	32663	32770	32647	32595	32673	32511	
853	0	32740	32822	32745	32686	32547	32381	32735	32666	
854	0	32713	32833	32839	32731	32575	32445	32636	32770	
855	0	32729	32844	32692	32751	32608	32902	32713	32601	
856	0	32720	32831	32767	32794	32781	33423	32692	32815	
857	0	32692	32787	32583	32742	32671	33111	32671	32710	
858	0	32732	32735	32773	32775	32723	32807	32714	32769	
859	0	32738	32743	32923	32679	32629	32391	32757	32563	
860	0	32805	32715	32684	32678	32609	32517	32731	32743	
861	0	32804	32727	32758	32695	32516	33060	32911	32879	
862	0	32800	32732	32845	32703	32487	33224	32901	32677	
863	0	32813	32775	32775	32769	32589	33191	32743	32783	
864	0	32799	32671	32679	32717	32719	32935	32802	32756	
865	0	32747	32767	32710	32769	32705	32598	32799	32835	
866	0	32775	32748	32691	32685	32640	32487	32859	33028	
867	0	32780	32775	32780	32564	32647	32801	32891	32786	
868	0	32749	32725	32837	32647	32631	33364	32709	32883	
869	0	32754	32711	32718	32711	32647	33451	32811	32821	
870	0	32747	32851	32734	32647	32775	33121	32699	32759	
871	0	32728	32795	32775	32743	32807	32529	32811	32851	
872	0	32785	32855	32791	32671	32692	32245	32771	32607	
873	0	32804	32695	32691	32743	32582	32527	32824	32791	
874	0	32750	32735	32803	32702	32625	33068	32771	32831	
875	0	32730	32711	32771	32647	32663	33302	32644	32583	
876	0	32734	32717	32727	32759	32679	32937	32740	32643	
877	0	32690	32806	32612	32655	32743	32167	32613	32695	
878	0	32788	32791	32695	32755	32679	31815	32685	32467	
879	0	32751	32711	32750	32701	32615	32127	32700	32667	
880	0	32757	32735	32625	32621	32568	32628	32660	32644	
881	0	32796	32700	32743	32717	32525	32921	32701	32767	
882	0	32756	32741	32818	32701	32587	33063	32695	32871	
883	0	32704	32765	32647	32599	32647	32782	32803	32615	
884	0	32772	32702	32703	32628	32583	32235	32724	32704	
885	0	32748	32883	32722	32728	32617	32214	32726	32758	
886	0	32823	32711	32847	32705	32625	32487	32765	32617	
887	0	32847	32732	32660	32694	32735	32967	32887	32902	
888	0	32791	32763	32647	32669	32761	33209	32871	32721	
889	0	32758	32743	32805	32749	32687	33019	32741	32775	
890	0	32764	32887	32812	32733	32695	32335	32743	32879	
891	0	32782	32806	32775	32679	32730	31975	32724	32660	
892	0	32765	32733	32732	32757	32713	32342	32807	32847	
893	0	32791	32727	32855	32719	32639	33117	32773	32885	
894	0	32742	32705	32728	32687	32638	33355	32891	32749	
895	0	32817	32791	32771	32757	32615	33243	32707	32846	
896	0	32740	32764	32801	32631	32767	32663	32791	32591	
897	0	32751	32858	32731	32677	32703	32255	32839	32816	
898	0	32713	32719	32821	32713	32572	32343	32812	32623	
899	0	32772	32781	32803	32746	32491	32735	32700	32809	
900	0	32784	32765	32668	32580	32465	33315	32815	32759	
901	0	32759	32791	32796	32762	32535	33245	32739	32791	
902	0	32761	32759	32868	32639	32556	32799	32748	32887	
903	0	32756	32775	32773	32762	32539	32453	32717	32633	
904	0	32789	32730	32669	32738	32567	32406	32774	32711	
905	0	32787	32784	32671	32683	32531	32647	32727	32803	
906	0	32808	32726	32759	32679	32505	33223	32828	32647	
907	0	32767	32722	32722	32794	32607	33399	32806	32877	
908	0	32814	32754	32607	32695	32631	32931	32767	32698	
909	0	32804	32756	32726	32731	32599	32354	32751	32785	
910	0	32734	32860	32841	32781	32825	32241	32663	32775	
911	0	32695	32718	32714	32679	32764	32505	32709	32500	
912	0	32700	32846	32747	32799	32753	33074	32742	32739	
913	0	32751	32745	32806	32737	32647	33287	32732	32607	
914	0	32738	32844	32663	32660	32775	32898	32627	32743	
915	0	32743	32732	32790	32658	32741	32475	32703	32661	
916	0	32748	32803	32735	32663	32592	32212	32594	32717	
917	0	32760	32724	32685	32711	32575	32292	32699	32671	
918	0	32804	32829	32822	32668	32647	32863	32742	32669	
919	0	32775	32735	32645	32769	32748	33255	32676	32852	
920	0	32772	32733	32765	32743	32727	33092	32711	32565	
921	0	32808	32692	32745	32638	32724	32788	32766	32822	
922	0	32775	32751	32708	32675	32610	32391	32775	32599	
923	0	32764	32791	32831	32761	32706	32371	32727	32775	
924	0	32794	32788	32793	32716	32525	32796	32813	32764	
925	0	32766	32783	32847	32673	32557	33254	32829	32831	
926	0	32764	32838	32711	32625	32623	33127	32773	32743	
927	0	32753	32695	32765	32707	32705	32775	32812	32823	
928	0	32783	32701	32705	32695	32671	32515	32761	32781	
929	0	32748	32751	32695	32695	32674	32256	32688	32881	
930	0	32701	32855	32775	32712	32676	32505	32786	32767	
931	0	32726	32863	32705	32723	32721	33010	32818	32789	
932	0	32785	32820	32804	32815	32606	33271	32766	32775	
933	0	32758	32817	32762	32641	32500	32989	32871	32847	
934	0	32781	32735	32708	32759	32571	32357	32791	32829	
935	0	32755	32795	32799	32725	32591	32284	32852	32911	
936	0	32788	32812	32708	32662	32698	32543	32810	32631	
937	0	32772	32814	32671	32692	32692	32799	32821	32919	
938	0	32743	32738	32807	32768	32647	33270	32863	32647	
939	0	32804	32743	32701	32805	32747	33075	32791	32791	
940	0	32821	32727	32703	32617	32734	32495	32727	32769	
941	0	32763	32737	32732	32748	32690	32277	32831	32818	
942	0	32841	32753	32821	32730	32564	32423	32735	32850	
943	0	32784	32711	32686	32623	32527	32881	32742	32643	
944	0	32791	32759	32751	32711	32564	33407	32765	32775	
945	0	32742	32757	32740	32755	32775	33083	32701	32701	
946	0	32727	32759	32669	32679	32707	32615	32879	32807	
947	0	32767	32751	32846	32775	32729	32258	32854	32945	
948	0	32733	32711	32759	32693	32647	32342	32745	32556	
949	0	32742	32775	32679	32634	32716	32775	32669	32689	
950	0	32687	32783	32772	32837	32717	33117	32626	32620	
951	0	32724	32818	32775	32791	32754	32996	32743	32636	
952	0	32758	32863	32722	32807	32759	32787	32679	32694	
953	0	32731	32829	32831	32791	32747	32412	32812	32537	
954	0	32746	32858	32775	32749	32729	32322	32676	32674	
955	0	32709	32745	32659	32722	32626	32663	32689	32623	
956	0	32762	32822	32825	32730	32647	33073	32787	32716	
957	0	32737	32871	32727	32759	32775	33217	32708	32671	
958	0	32756	32771	32775	32679	32667	32885	32691	32775	
959	0	32799	32811	32803	32742	32679	32367	32821	32775	
960	0	32764	32747	32754	32692	32699	32102	32871	32890	
961	0	32807	32749	32836	32633	32527	32314	32743	32797	
962	0	32764	32723	32663	32683	32491	32911	32799	32851	
963	0	32743	32827	32756	32717	32751	33396	32829	32863	
964	0	32762	32769	32615	32620	32759	33238	32775	32743	
965	0	32769	32823	32745	32711	32755	32759	32751	32797	
966	0	32749	32731	32783	32615	32675	32293	32751	32609	
967	0	32732	32745	32697	32622	32681	32323	32684	32743	
968	0	32792	32720	32687	32607	32644	32839	32789	32593	
969	0	32680	32798	32765	32726	32767	33389	32711	32751	
970	0	32698	32769	32797	32789	32783	33411	32759	32658	
971	0	32752	32775	32698	32658	32727	32975	32722	32676	
972	0	32730	32852	32847	32708	32703	32436	32679	32828	
973	0	32790	32757	32717	32773	32454	32471	32812	32815	
974	0	32758	32785	32844	32687	32644	32636	32796	32826	
975	0	32805	32820	32785	32749	32785	33045	32739	32775	
976	0	32709	32799	32681	32783	32739	33159	32797	32857	
977	0	32785	32775	32761	32698	32655	32895	32809	32647	
978	0	32775	32817	32727	32783	32647	32351	32847	32817	
979	0	32741	32775	32731	32791	32643	32287	32833	32773	
980	0	32742	32767	32737	32630	32671	32595	32831	32782	
981	0	32727	32767	32832	32727	32634	32943	32817	32786	
982	0	32775	32715	32631	32676	32686	33131	32707	32631	
983	0	32742	32859	32653	32635	32762	33091	32784	32743	
984	0	32740	32772	32767	32726	32741	32585	32705	32607	
985	0	32764	32827	32788	32739	32661	32091	32841	32807	
986	0	32775	32792	32676	32731	32517	31999	32742	32766	
987	0	32805	32757	32811	32575	32574	32566	32711	32895	
988	0	32765	32754	32662	32721	32735	32966	32764	32679	
989	0	32740	32799	32677	32717	32701	32967	32801	32799	
990	0	32730	32831	32811	32703	32702	32583	32775	32717	
991	0	32723	32775	32703	32627	32727	32115	32679	32715	
992	0	32727	32731	32818	32783	32676	32213	32642	32821	
993	0	32743	32743	32751	32733	32565	32500	32742	32669	
994	0	32764	32825	32800	32695	32640	32918	32771	32842	
995	0	32751	32732	32715	32679	32708	33110	32722	32731	
996	0	32767	32821	32655	32687	32711	32839	32781	32828	
997	0	32751	32791	32773	32751	32655	32516	32703	32642	
998	0	32767	32797	32687	32701	32653	32610	32831	32846	
999	0	32772	32834	32719	32716	32715	32906	32781	32699	
1000	0	32804	32679	32787	32557	32654	33303	32775	32815	
1001	0	32708	32807	32671	32711	32643	33436	32831	32811	
1002	0	32797	32745	32692	32687	32553	33223	32729	32773	
1003	0	32686	32841	32789	32775	32580	32627	32759	32839	
1004	0	32681	32668	32684	32665	32599	32325	32684	32724	
1005	0	32780	32797	32743	32793	32593	32603	32843	32765	
1006	0	32737	32847	32835	32775	32589	33063	32775	32625	
1007	0	32838	32694	32711	32699	32647	33340	32767	32807	
1008	0	32845	32751	32751	32761	32738	32983	32751	32647	
1009	0	32804	32765	32805	32733	32733	32615	32754	32798	
1010	0	32715	32873	32703	32675	32719	32277	32647	32663	
1011	0	32729	32808	32830	32671	32775	32415	32780	32771	
1012	0	32704	32804	32775	32722	32607	32937	32775	32549	
1013	0	32741	32757	32726	32758	32587	33135	32742	32717	
1014	0	32773	32791	32860	32647	32715	32987	32799	32687	
1015	0	32799	32807	32679	32679	32631	32588	32802	32823	
1016	0	32722	32765	32823	32743	32669	32095	32692	32631	
1017	0	32707	32711	32682	32834	32766	32207	32781	32764	
1018	0	32768	32711	32729	32770	32530	32658	32828	32647	
1019	0	32727	32847	32665	32679	32703	33144	32715	32815	
1020	0	32729	32715	32655	32663	32647	33071	32715	32807	
1021	0	32767	32767	32591	32695	32717	32553	32796	32669	
1022	0	32799	32775	32771	32631	32534	32135	32837	32850	
1023	0	32723	32767	32691	32770	32656	32249	32799	32698	
1024	0	32831	32728	32853	32700	32748	32629	32708	32717	
1025	0	32808	32694	32834	32871	32715	33125	32765	32572	
1026	0	32828	32711	32791	32791	32663	33031	32667	32740	
1027	0	32797	32703	32799	32607	32735	32605	32762	32767	
1028	0	32765	32747	32885	32734	32715	32331	32699	32714	
1029	0	32758	32725	32623	32695	32580	32108	32805	32829	
1030	0	32714	32761	32812	32775	32578	32301	32822	32756	
1031	0	32738	32829	32814	32716	32532	32891	32695	32887	
1032	0	32698	32791	32749	32717	32755	33065	32743	32738	
1033	0	32774	32767	32775	32722	32615	32981	32810	32831	
1034	0	32775	32785	32735	32679	32711	32435	32783	32789	
1035	0	32761	32751	32759	32690	32647	32172	32826	32767	
1036	0	32794	32831	32660	32736	32463	32441	32852	32833	
1037	0	32781	32743	32807	32789	32637	32995	32727	32737	
1038	0	32727	32850	32724	32772	32707	33555	32820	32852	
1039	0	32738	32815	32717	32724	32706	33300	32772	32647	
1040	0	32797	32743	32757	32678	32723	32753	32839	32841	
1041	0	32787	32718	32737	32700	32679	32443	32830	32934	
1042	0	32748	32741	32627	32516	32655	32567	32772	32633	
1043	0	32722	32868	32727	32734	32763	32775	32786	32799	
1044	0	32775	32843	32775	32775	32735	33207	32675	32802	
1045	0	32747	32845	32659	32658	32535	33279	32751	32711	
1046	0	32729	32835	32793	32687	32626	32644	32695	32706	
1047	0	32698	32805	32820	32655	32809	32215	32615	32729	
1048	0	32772	32762	32667	32619	32729	32299	32711	32838	
1049	0	32736	32785	32717	32663	32751	32511	32775	32775	
1050	0	32740	32875	32822	32695	32722	33042	32694	32775	
1051	0	32724	32818	32613	32747	32766	33193	32695	32551	
1052	0	32767	32849	32711	32679	32817	32831	32637	32700	
1053	0	32745	32847	32784	32725	32703	32421	32743	32579	
1054	0	32752	32771	32628	32747	32584	32236	32708	32811	
1055	0	32712	32775	32837	32727	32583	32497	32695	32751	
1056	0	32721	32775	32695	32687	32757	33223	32679	32700	
1057	0	32736	32836	32810	32711	32725	33287	32702	32663	
1058	0	32784	32751	32839	32796	32709	33013	32819	32717	
1059	0	32706	32743	32683	32763	32789	32576	32726	32570	
1060	0	32791	32655	32748	32689	32721	32455	32797	32742	
1061	0	32761	32787	32797	32791	32566	32462	32757	32707	
1062	0	32857	32747	32724	32685	32511	32839	32721	32773	
1063	0	32806	32799	32735	32692	32615	33271	32786	32903	
1064	0	32775	32703	32815	32687	32707	33103	32749	32629	
1065	0	32783	32845	32623	32725	32731	32551	32831	32869	
1066	0	32792	32791	32837	32713	32661	32255	32812	32703	
1067	0	32775	32774	32679	32745	32684	32170	32755	32874	
1068	0	32828	32740	32769	32665	32679	32613	32884	32765	
1069	0	32820	32802	32861	32775	32627	33057	32775	32843	
1070	0	32751	32828	32662	32757	32539	33173	32850	32783	
1071	0	32812	32839	32833	32711	32599	32815	32801	32775	
1072	0	32699	32767	32783	32703	32749	32412	32751	32801	
1073	0	32740	32775	32786	32767	32694	32246	32802	32793	
1074	0	32726	32735	32815	32719	32667	32455	32715	32822	
1075	0	32756	32815	32699	32630	32660	33153	32796	32621	
1076	0	32759	32775	32835	32694	32713	33287	32683	32831	
1077	0	32744	32843	32719	32739	32757	33021	32665	32709	
1078	0	32755	32751	32663	32789	32575	32511	32723	32795	
1079	0	32732	32839	32813	32743	32583	32148	32806	32742	
1080	0	32784	32685	32660	32636	32662	32375	32769	32887	
1081	0	32761	32818	32743	32713	32775	32919	32749	32611	
1082	0	32746	32669	32759	32676	32787	33302	32731	32785	
1083	0	32711	32764	32670	32611	32731	33227	32763	32609	
1084	0	32753	32799	32767	32733	32679	32589	32707	32809	
1085	0	32773	32822	32695	32691	32773	32263	32861	32635	
1086	0	32733	32717	32711	32809	32580	32319	32788	32847	
1087	0	32759	32827	32679	32644	32614	33069	32738	32673	
1088	0	32775	32735	32660	32687	32713	33560	32732	32844	
1089	0	32775	32731	32711	32775	32663	33351	32835	32791	
1090	0	32720	32809	32698	32763	32775	32863	32770	32771	
1091	0	32755	32767	32813	32705	32586	32287	32669	32764	
1092	0	32773	32818	32716	32678	32668	32391	32708	32636	
1093	0	32796	32742	32808	32645	32743	32775	32822	32775	
1094	0	32780	32809	32685	32751	32660	33223	32814	32659	
1095	0	32816	32742	32788	32660	32733	33031	32706	32799	
1096	0	32759	32807	32786	32687	32697	32711	32823	32581	
1097	0	32778	32783	32684	32717	32599	32383	32823	32751	
1098	0	32707	32807	32802	32741	32468	32113	32742	32631	
1099	0	32674	32743	32708	32699	32556	32381	32803	32832	
1100	0	32782	32743	32743	32603	32647	32903	32708	32735	
1101	0	32859	32709	32867	32677	32733	33023	32869	32850	
1102	0	32828	32738	32695	32663	32693	32855	32751	32852	
1103	0	32793	32738	32705	32759	32671	32549	32757	32815	
1104	0	32743	32855	32850	32719	32749	32214	32725	32635	
1105	0	32792	32766	32655	32694	32655	32236	32669	32758	
1106	0	32745	32917	32820	32733	32474	32858	32846	32660	
1107	0	32682	32879	32636	32703	32716	33186	32807	32764	
1108	0	32745	32845	32693	32775	32717	33186	32759	32621	
1109	0	32766	32819	32797	32623	32667	32691	32767	32815	
1110	0	32775	32839	32717	32731	32786	32246	32729	32635	
1111	0	32764	32839	32695	32759	32557	32185	32736	32827	
1112	0	32775	32903	32819	32767	32662	32799	32665	32732	
1113	0	32734	32795	32693	32729	32701	33287	32775	32839	
1114	0	32807	32797	32751	32703	32698	33428	32815	32741	
1115	0	32781	32737	32871	32743	32706	32959	32724	32867	
1116	0	32817	32769	32743	32775	32685	32196	32809	32751	
1117	0	32743	32727	32795	32754	32589	32324	32698	32853	
1118	0	32742	32732	32713	32674	32564	32775	32773	32567	
1119	0	32775	32703	32694	32721	32588	33391	32737	32707	
1120	0	32800	32713	32795	32723	32511	33322	32729	32761	
1121	0	32717	32775	32751	32685	32615	33071	32789	32783	
1122	0	32719	32677	32663	32757	32783	32605	32771	32855	
1123	0	32788	32837	32787	32756	32783	32358	32839	32748	
1124	0	32738	32768	32723	32605	32773	32571	32751	32809	
1125	0	32772	32703	32658	32722	32775	32883	32671	32521	
1126	0	32772	32647	32807	32710	32677	33287	32717	32758	
1127	0	32742	32711	32647	32687	32702	32903	32737	32731	
1128	0	32717	32703	32795	32731	32587	32429	32663	32759	
1129	0	32735	32687	32673	32631	32754	31952	32791	32721	
1130	0	32736	32760	32757	32791	32713	32231	32743	32623	
1131	0	32751	32701	32698	32707	32655	32676	32743	32823	
1132	0	32738	32825	32674	32759	32751	33103	32636	32567	
1133	0	32705	32735	32860	32708	32692	33021	32715	32749	
1134	0	32741	32815	32725	32730	32741	32727	32754	32636	
1135	0	32831	32767	32690	32807	32660	32279	32801	32875	
1136	0	32747	32797	32852	32642	32530	32359	32843	32727	
1137	0	32764	32749	32737	32742	32551	32809	32738	32827	
1138	0	32748	32825	32815	32759	32717	33423	32745	32663	
1139	0	32730	32743	32759	32668	32735	33271	32849	32775	
1140	0	32803	32723	32715	32605	32635	32795	32839	32635	
1141	0	32807	32775	32787	32719	32666	32474	32755	32773	
1142	0	32757	32807	32659	32702	32739	32312	32884	32684	
1143	0	32721	32786	32767	32679	32732	32623	32846	32885	
1144	0	32800	32855	32738	32714	32570	33287	32749	32628	
1145	0	32792	32751	32793	32775	32583	33364	32785	32895	
1146	0	32813	32757	32679	32711	32687	33071	32827	32809	
1147	0	32782	32699	32759	32675	32693	32358	32755	32891	
1148	0	32783	32699	32887	32628	32707	32096	32915	32797	
1149	0	32846	32795	32751	32727	32548	32295	32841	32733	
1150	0	32757	32807	32838	32713	32556	32979	32759	32791	
1151	0	32804	32859	32703	32703	32619	33319	32775	32663	
1152	0	32731	32799	32679	32726	32749	32999	32775	32751	
1153	0	32773	32868	32799	32764	32695	32661	32662	32647	
1154	0	32735	32787	32694	32757	32639	32309	32759	32775	
1155	0	32742	32830	32794	32742	32718	32391	32759	32724	
1156	0	32762	32747	32623	32633	32607	32551	32794	32782	
1157	0	32720	32738	32745	32766	32531	32937	32705	32713	
1158	0	32767	32690	32826	32743	32529	33087	32756	32735	
1159	0	32742	32745	32671	32815	32790	32519	32733	32757	
1160	0	32717	32679	32747	32573	32725	32101	32713	32695	
1161	0	32687	32811	32700	32677	32615	32271	32793	32866	
1162	0	32775	32775	32694	32706	32679	32477	32756	32765	
1163	0	32741	32861	32756	32647	32763	32827	32694	32829	
1164	0	32761	32775	32719	32749	32572	33247	32735	32667	
1165	0	32772	32789	32759	32751	32599	32943	32759	32769	
1166	0	32797	32740	32711	32807	32615	32262	32660	32565	
1167	0	32787	32740	32723	32671	32701	32293	32857	32846	
1168	0	32716	32759	32797	32690	32666	32635	32803	32748	
1169	0	32765	32773	32647	32692	32694	33122	32729	32886	
1170	0	32730	32828	32773	32793	32807	33427	32727	32729	
1171	0	32717	32863	32831	32691	32711	33215	32749	32871	
1172	0	32731	32716	32711	32700	32621	32637	32639	32611	
1173	0	32804	32812	32831	32722	32550	32447	32873	32820	
1174	0	32709	32811	32724	32793	32743	32527	32783	32694	
1175	0	32761	32863	32749	32583	32655	33031	32722	32901	
1176	0	32753	32851	32719	32725	32771	33189	32810	32769	
1177	0	32749	32831	32743	32711	32708	33195	32820	32899	
1178	0	32799	32831	32815	32831	32676	32699	32739	32797	
1179	0	32726	32799	32658	32671	32567	32247	32802	32830	
1180	0	32763	32771	32820	32732	32503	32389	32903	32663	
1181	0	32775	32819	32747	32751	32647	32959	32724	32807	
1182	0	32730	32715	32674	32677	32686	33364	32862	32631	
1183	0	32743	32761	32751	32717	32735	33263	32846	32796	
1184	0	32802	32743	32722	32727	32647	32815	32769	32747	
1185	0	32743	32823	32617	32698	32662	32342	32815	32797	
1186	0	32765	32771	32704	32692	32722	32255	32699	32745	
1187	0	32782	32807	32771	32690	32719	32447	32775	32715	
1188	0	32721	32692	32679	32727	32595	33056	32767	32755	
1189	0	32788	32787	32902	32655	32489	33205	32643	32693	
1190	0	32759	32810	32709	32803	32847	32731	32775	32733	
1191	0	32773	32855	32731	32739	32711	32135	32709	32595	
1192	0	32689	32805	32813	32802	32706	31902	32663	32731	
1193	0	32744	32833	32676	32673	32709	32199	32710	32631	
1194	0	32751	32708	32735	32758	32663	32647	32718	32775	
1195	0	32861	32711	32831	32685	32703	33042	32857	32872	
1196	0	32804	32672	32673	32757	32543	32981	32743	32789	
1197	0	32733	32756	32804	32679	32580	32647	32730	32850	
1198	0	32809	32717	32823	32758	32533	32103	32794	32631	
1199	0	32779	32804	32728	32703	32726	32072	32740	32775	
1200	0	32814	32678	32756	32641	32716	32687	32774	32662	
1201	0	32794	32743	32758	32655	32751	33184	32692	32763	
1202	0	32782	32763	32671	32641	32738	33155	32748	32767	
1203	0	32711	32788	32677	32639	32687	32775	32711	32735	
1204	0	32743	32805	32837	32671	32775	32359	32788	32743	
1205	0	32727	32751	32678	32731	32669	32202	32742	32523	
1206	0	32676	32813	32791	32751	32603	32749	32671	32730	
1207	0	32701	32743	32684	32711	32725	33511	32759	32558	
1208	0	32726	32790	32676	32658	32743	33516	32700	32749	
1209	0	32751	32773	32767	32773	32703	32899	32743	32655	
1210	0	32702	32812	32735	32759	32783	32501	32775	32694	
1211	0	32724	32795	32743	32724	32745	32518	32748	32796	
1212	0	32721	32754	32714	32791	32781	32892	32793	32647	
1213	0	32794	32732	32879	32694	32689	33346	32811	32865	
1214	0	32819	32767	32767	32663	32641	33309	32854	32883	
1215	0	32763	32733	32738	32722	32762	33159	32827	32847	
1216	0	32742	32729	32775	32757	32679	32599	32731	32969	
1217	0	32730	32775	32639	32659	32596	32272	32831	32623	
1218	0	32766	32847	32823	32711	32454	32585	32725	32820	
1219	0	32791	32785	32668	32687	32585	33047	32804	32692	
1220	0	32812	32759	32727	32666	32679	33119	32815	32878	
1221	0	32732	32738	32759	32635	32719	33023	32731	32855	
1222	0	32794	32743	32671	32749	32655	32495	32679	32722	
1223	0	32745	32695	32693	32711	32767	32154	32661	32765	
1224	0	32764	32775	32684	32843	32641	32167	32642	32711	
1225	0	32769	32743	32731	32726	32553	32540	32663	32756	
1226	0	32750	32757	32663	32751	32643	33071	32717	32529	
1227	0	32784	32677	32753	32679	32771	32893	32758	32749	
1228	0	32740	32851	32934	32613	32762	32485	32763	32710	
1229	0	32786	32741	32709	32629	32751	32259	32738	32591	
1230	0	32736	32799	32700	32790	32791	32250	32685	32743	
1231	0	32857	32836	32783	32694	32751	32527	32724	32795	
1232	0	32770	32828	32775	32741	32662	33099	32660	32669	
1233	0	32793	32823	32722	32681	32644	33204	32795	32775	
1234	0	32751	32743	32775	32669	32663	32719	32804	32630	
1235	0	32748	32756	32751	32663	32605	32281	32767	32796	
1236	0	32767	32733	32737	32703	32460	32329	32839	32677	
1237	0	32784	32773	32775	32609	32508	32641	32797	32716	
1238	0	32827	32797	32847	32729	32564	32946	32805	32879	
1239	0	32754	32787	32694	32749	32623	33175	32790	32647	
1240	0	32829	32743	32821	32625	32706	33025	32731	32855	
1241	0	32809	32743	32676	32773	32811	32391	32799	32597	
1242	0	32789	32759	32660	32774	32699	32281	32775	32786	
1243	0	32750	32727	32766	32691	32679	32595	32677	32757	
1244	0	32742	32795	32676	32710	32703	33095	32786	32807	
1245	0	32748	32737	32769	32783	32674	33551	32870	32791	
1246	0	32742	32767	32731	32751	32679	33371	32801	32839	
1247	0	32768	32690	32695	32609	32551	32685	32895	32959	
1248	0	32722	32733	32748	32730	32511	32126	32817	32695	
1249	0	32804	32846	32773	32775	32439	32191	32866	32845	
1250	0	32780	32791	32655	32685	32561	32841	32749	32842	
1251	0	32742	32812	32715	32719	32631	33335	32719	32647	
1252	0	32772	32853	32823	32799	32735	33082	32807	32741	
1253	0	32732	32775	32703	32694	32705	32548	32814	32605	
1254	0	32698	32775	32875	32763	32671	32263	32727	32775	
1255	0	32775	32785	32721	32727	32738	32227	32723	32667	
1256	0	32802	32781	32775	32703	32607	32585	32706	32684	
1257	0	32767	32849	32765	32663	32536	33097	32679	32687	
1258	0	32797	32721	32721	32738	32644	33221	32753	32669	
1259	0	32751	32839	32787	32826	32775	32843	32819	32793	
1260	0	32810	32764	32782	32551	32635	32399	32751	32687	
1261	0	32732	32773	32692	32692	32697	32330	32794	32820	
1262	0	32769	32811	32825	32775	32661	32458	32754	32564	
1263	0	32711	32743	32677	32669	32743	33159	32764	32746	
1264	0	32733	32852	32789	32733	32807	33253	32700	32637	
1265	0	32734	32791	32745	32751	32692	32963	32708	32834	
1266	0	32751	32789	32663	32679	32639	32607	32773	32758	
1267	0	32737	32738	32765	32735	32593	32382	32818	32832	
1268	0	32752	32773	32771	32660	32536	32481	32740	32831	
1269	0	32740	32647	32719	32703	32605	33213	32853	32865	
1270	0	32751	32871	32785	32703	32775	33445	32852	32625	
1271	0	32734	32743	32669	32775	32755	33202	32694	32802	
1272	0	32731	32829	32758	32807	32769	32735	32767	32647	
1273	0	32714	32735	32727	32743	32727	32281	32699	32740	
1274	0	32735	32788	32717	32819	32671	32446	32679	32679	
1275	0	32768	32785	32839	32710	32695	32991	32775	32799	
1276	0	32708	32840	32655	32679	32689	33309	32765	32621	
1277	0	32673	32863	32765	32775	32655	33055	32689	32677	
1278	0	32671	32763	32767	32759	32592	32594	32679	32615	
1279	0	32735	32785	32666	32671	32559	32074	32660	32674	
1280	0	32801	32682	32791	32639	32767	32063	32612	32826	
1281	0	32723	32826	32746	32705	32775	32489	32760	32662	
1282	0	32775	32719	32673	32610	32731	32979	32785	32739	
1283	0	32767	32878	32711	32707	32723	32903	32671	32727	
1284	0	32750	32775	32805	32697	32647	32713	32783	32855	
1285	0	32759	32839	32687	32743	32655	32253	32677	32711	
1286	0	32730	32711	32811	32749	32763	32195	32775	32786	
1287	0	32775	32815	32852	32702	32701	32679	32813	32595	
1288	0	32767	32713	32700	32795	32609	33211	32711	32839	
1289	0	32766	32759	32839	32702	32565	33265	32829	32738	
1290	0	32711	32775	32663	32767	32775	32774	32804	32817	
1291	0	32770	32847	32743	32687	32732	32231	32781	32829	
1292	0	32743	32806	32739	32733	32610	32177	32769	32812	
1293	0	32769	32833	32710	32672	32636	32231	32815	32807	
1294	0	32811	32714	32863	32791	32715	32691	32762	32930	
1295	0	32839	32754	32796	32803	32719	33058	32821	32671	
1296	0	32794	32709	32821	32751	32621	32855	32839	32841	
1297	0	32781	32803	32738	32717	32519	32615	32759	32613	
1298	0	32775	32791	32663	32747	32644	32355	32759	32902	
1299	0	32820	32811	32819	32793	32780	32511	32830	32741	
1300	0	32793	32679	32694	32629	32621	32731	32787	32916	
1301	0	32786	32694	32751	32655	32715	33143	32743	32723	
1302	0	32766	32773	32679	32707	32487	33215	32686	32644	
1303	0	32767	32710	32703	32734	32643	32575	32742	32775	
1304	0	32712	32807	32773	32767	32731	32406	32783	32772	
1305	0	32727	32828	32820	32665	32762	32451	32719	32815	
1306	0	32725	32775	32687	32695	32804	32890	32719	32807	
1307	0	32749	32738	32867	32722	32743	33264	32897	32831	
1308	0	32722	32897	32647	32701	32735	33287	32827	32757	
1309	0	32703	32739	32771	32595	32569	32943	32727	32830	
1310	0	32811	32868	32785	32820	32567	32499	32834	32785	
1311	0	32873	32787	32725	32671	32531	32644	32807	32867	
1312	0	32799	32813	32841	32620	32647	32835	32695	32775	
1313	0	32834	32727	32713	32713	32755	33383	32685	32788	
1314	0	32815	32831	32801	32706	32799	33311	32733	32695	
1315	0	32782	32754	32729	32756	32610	32836	32750	32833	
1316	0	32749	32813	32807	32660	32702	32259	32795	32679	
1317	0	32693	32811	32675	32725	32732	32312	32673	32762	
1318	0	32687	32843	32685	32775	32595	32583	32647	32720	
1319	0	32758	32759	32791	32811	32591	32999	32692	32658	
1320	0	32773	32786	32664	32647	32719	32973	32705	32708	
1321	0	32814	32763	32819	32645	32679	32903	32826	32743	
1322	0	32753	32727	32740	32719	32609	32439	32775	32839	
1323	0	32733	32754	32799	32775	32647	32071	32855	32707	
1324	0	32724	32741	32689	32738	32519	32202	32783	32842	
1325	0	32655	32745	32820	32787	32628	32999	32786	32869	
1326	0	32746	32736	32703	32615	32647	33445	32847	32917	
1327	0	32801	32775	32647	32659	32703	33407	32775	32683	
1328	0	32817	32716	32765	32647	32743	32967	32839	32883	
1329	0	32762	32766	32759	32707	32735	32447	32867	32749	
1330	0	32749	32820	32711	32767	32751	32519	32797	32739	
1331	0	32794	32844	32783	32743	32735	32959	32674	32549	
1332	0	32759	32807	32691	32706	32787	33213	32727	32699	
1333	0	32767	32783	32859	32694	32524	33028	32735	32613	
1334	0	32806	32739	32703	32657	32555	32420	32719	32791	
1335	0	32805	32826	32711	32698	32519	32129	32825	32783	
1336	0	32810	32698	32743	32613	32790	32263	32713	32756	
1337	0	32754	32775	32604	32743	32719	32560	32612	32772	
1338	0	32677	32736	32738	32683	32745	33009	32803	32721	
1339	0	32721	32783	32759	32647	32691	32927	32724	32803	
1340	0	32765	32718	32775	32562	32673	32903	32801	32805	
1341	0	32754	32847	32711	32743	32663	32415	32775	32879	
1342	0	32829	32709	32749	32690	32512	32170	32793	32833	
1343	0	32728	32788	32757	32758	32765	32364	32773	32833	
1344	0	32786	32821	32703	32668	32765	33015	32681	32803	
1345	0	32717	32754	32838	32758	32708	33261	32735	32807	
1346	0	32766	32799	32773	32771	32647	33094	32807	32699	
1347	0	32743	32717	32791	32735	32690	32484	32694	32719	
1348	0	32708	32853	32789	32677	32603	32335	32594	32711	
1349	0	32678	32799	32771	32667	32599	32559	32578	32619	
1350	0	32662	32807	32679	32841	32823	33095	32703	32634	
1351	0	32732	32797	32857	32750	32759	33321	32671	32595	
1352	0	32694	32835	32739	32807	32698	33359	32690	32615	
1353	0	32691	32849	32835	32679	32694	32903	32839	32738	
1354	0	32740	32791	32759	32743	32775	32389	32723	32620	
1355	0	32783	32820	32807	32740	32625	32289	32750	32731	
1356	0	32723	32655	32749	32727	32567	32483	32723	32703	
1357	0	32688	32788	32707	32706	32583	33083	32786	32799	
1358	0	32686	32727	32831	32690	32679	33172	32807	32806	
1359	0	32665	32823	32703	32749	32687	32879	32759	32887	
1360	0	32708	32723	32819	32655	32661	32263	32829	32815	
1361	0	32597	32757	32678	32717	32701	32318	32796	32754	
1362	0	32594	32775	32702	32638	32568	32537	32758	32859	
1363	0	32513	32782	32519	32773	32583	32967	32655	32679	
1364	0	32615	32807	32578	32751	32613	32903	32708	32829	
1365	0	32608	32834	32555	32687	32667	32695	32631	32789	
1366	0	32521	32823	32481	32679	32677	32375	32799	32786	
1367	0	32589	32711	32564	32668	32806	32039	32781	32860	
1368	0	32538	32763	32508	32713	32854	32132	32656	32790	
1369	0	32459	32775	32444	32550	32804	32735	32679	32934	
1370	0	32493	32820	32487	32711	32829	33045	32582	32831	
1371	0	32477	32783	32455	32693	32701	32829	32595	32955	
1372	0	32470	32791	32399	32596	32825	32597	32734	32654	
1373	0	32509	32775	32527	32633	32871	32445	32634	32854	
1374	0	32509	32691	32404	32694	32749	32407	32757	32775	
1375	0	32589	32698	32349	32540	32762	32895	32735	32900	
1376	0	32647	32668	32409	32689	32727	33439	32647	32884	
1377	0	32658	32697	32455	32647	32751	33298	32775	32858	
1378	0	32761	32679	32460	32677	32551	33067	32707	32845	
1379	0	32991	32626	32679	32599	32487	32639	32735	32935	
1380	0	32998	32515	32560	32607	32442	32581	32839	33097	
1381	0	33149	32476	32662	32655	32453	32903	32868	32939	
1382	0	33279	32535	32903	32621	32608	33358	32855	32919	
1383	0	33581	32457	32875	32734	32612	33287	32845	32845	
1384	0	33765	32515	33055	32727	32613	32909	32933	32959	
1385	0	33731	32506	33235	32674	32527	32247	33060	32897	
1386	0	33643	32691	33215	32836	32452	31916	33074	32943	
1387	0	33606	32674	33383	32861	32388	32358	33099	32854	
1388	0	33431	32957	33287	32842	32212	32659	33295	32871	
1389	0	33388	32903	33410	33005	32182	33025	33470	32903	
1390	0	33391	33017	33231	32916	32293	33030	33391	32771	
1391	0	33403	32835	33411	32956	32445	32515	33250	32855	
1392	0	33388	32795	33285	32869	32511	32193	33159	32679	
1393	0	33426	32676	33134	32791	32599	32367	33009	32719	
1394	0	33381	32661	33186	32799	32551	32869	32871	32548	
1395	0	33279	32594	33044	32847	32573	33303	32903	32639	
1396	0	33060	32751	33079	32709	32622	33223	32860	32527	
1397	0	32872	32773	33027	32815	32831	32852	32623	32567	
1398	0	32724	32813	32823	32690	32631	32381	32599	32407	
1399	0	32632	32787	32879	32705	32594	32662	32662	32565	
1400	0	32532	32764	32740	32769	32705	33030	32711	32487	
1401	0	32528	32779	32844	32759	32775	33463	32647	32793	
1402	0	32460	32842	32711	32755	32703	33189	32751	32496	
1403	0	32460	32909	32775	32643	32661	32871	32720	32679	
1404	0	32390	32914	32839	32799	32757	32428	32723	32500	
1405	0	32335	32914	32647	32769	32792	32399	32725	32684	
1406	0	32246	32943	32824	32763	32701	32665	32834	32663	
1407	0	32202	33073	32742	32660	32653	33231	32722	32690	
1408	0	32221	32997	32647	32643	32721	33255	32666	32718	
1409	0	32212	32998	32719	32573	32882	32585	32706	32751	
1410	0	32171	33133	32599	32725	32835	32183	32567	32685	
1411	0	32183	33026	32683	32735	32753	32061	32487	32582	
1412	0	32215	32978	32556	32787	32834	32217	32500	32559	
1413	0	32193	33051	32647	32634	32935	32571	32478	32635	
1414	0	32255	32957	32625	32715	32884	33029	32434	32614	
1415	0	32258	32955	32630	32669	32819	32951	32487	32563	
1416	0	32308	32903	32662	32717	32972	32301	32479	32570	
1417	0	32303	33005	32489	32687	32787	32105	32358	32549	
1418	0	32380	32913	32620	32689	32716	32338	32534	32617	
1419	0	32407	32898	32583	32692	32689	32679	32322	32608	
1420	0	32488	32805	32519	32630	32769	33118	32535	32775	
1421	0	32541	32741	32551	32647	32829	33149	32575	32815	
1422	0	32590	32717	32647	32707	32773	32703	32610	32876	
1423	0	32671	32732	32727	32695	32805	32276	32611	32596	
1424	0	32726	32733	32571	32655	32806	32335	32595	32884	
1425	0	32741	32781	32711	32740	32611	32775	32633	32683	
1426	0	32773	32743	32548	32693	32596	33299	32691	32836	
1427	0	32746	32687	32643	32687	32679	33365	32631	32679	
1428	0	32761	32669	32677	32594	32835	32808	32707	32823	
1429	0	32726	32775	32647	32695	32700	32465	32785	32654	
1430	0	32841	32731	32647	32708	32788	32391	32695	32814	
1431	0	32848	32703	32687	32775	32635	32911	32839	32643	
1432	0	32882	32742	32773	32639	32468	33461	32818	32837	
1433	0	32914	32787	32795	32767	32637	33415	32805	32679	
1434	0	32924	32679	32804	32687	32703	33124	32911	32919	
1435	0	32871	32727	32701	32674	32729	32597	32811	32807	
1436	0	32969	32692	32707	32795	32708	32300	32793	32668	
1437	0	32902	32749	32829	32775	32591	32535	32785	32763	
1438	0	32909	32661	32703	32706	32580	33109	32775	32583	
1439	0	32877	32771	32845	32732	32707	33261	32867	32797	
1440	0	32878	32748	32687	32745	32445	33103	32789	32751	
1441	0	32856	32775	32801	32702	32718	32423	32699	32895	
1442	0	32863	32647	32671	32607	32700	32260	32877	32662	
1443	0	32857	32728	32709	32689	32695	32469	32858	32835	
1444	0	32829	32711	32775	32727	32639	32903	32854	32804	
1445	0	32848	32769	32647	32711	32724	33346	32887	32869	
1446	0	32813	32700	32807	32638	32444	32999	32849	32695	
1447	0	32798	32743	32661	32635	32663	32641	32855	32893	
1448	0	32761	32775	32887	32711	32638	32181	32901	32673	
1449	0	32833	32698	32658	32788	32646	32353	32799	32823	
1450	0	32734	32773	32769	32665	32713	32679	32847	32685	
1451	0	32760	32707	32839	32747	32655	33031	32797	32785	
1452	0	32769	32813	32679	32727	32549	33151	32707	32743	
1453	0	32759	32771	32887	32705	32555	32571	32871	32774	
1454	0	32775	32758	32769	32743	32431	31963	32757	32873	
1455	0	32788	32739	32749	32775	32628	32094	32736	32775	
1456	0	32761	32731	32687	32759	32791	32423	32697	32646	
1457	0	32763	32759	32703	32750	32797	32724	32684	32604	
1458	0	32738	32703	32790	32702	32629	32859	32765	32641	
1459	0	32759	32714	32695	32717	32745	32518	32829	32807	
1460	0	32814	32702	32655	32740	32573	32135	32830	32877	
1461	0	32839	32703	32683	32703	32660	32100	32893	32879	
1462	0	32844	32740	32623	32671	32463	32541	32836	32846	
1463	0	32812	32683	32686	32690	32605	33237	32893	32685	
1464	0	32766	32775	32694	32691	32583	33245	32793	32601	
1465	0	32740	32806	32660	32623	32742	32898	32847	32559	
1466	0	32759	32751	32647	32711	32714	32391	32790	32711	
1467	0	32791	32679	32625	32699	32581	32526	32709	32847	
1468	0	32723	32769	32727	32703	32601	32719	32725	32833	
1469	0	32772	32789	32817	32647	32637	33192	32829	32947	
1470	0	32724	32877	32862	32711	32726	33467	32887	32881	
1471	0	32762	32791	32749	32689	32607	33046	32743	32647	
1472	0	32752	32807	32742	32785	32592	32466	32799	32717	
1473	0	32784	32757	32855	32815	32572	32172	32704	32606	
1474	0	32823	32791	32663	32610	32805	32636	32754	32775	
1475	0	32812	32733	32813	32663	32732	33015	32716	32572	
1476	0	32817	32804	32751	32681	32775	33241	32727	32847	
1477	0	32767	32791	32911	32734	32775	32997	32719	32543	
1478	0	32743	32727	32677	32689	32575	32551	32700	32816	
1479	0	32743	32699	32759	32665	32511	32252	32628	32665	
1480	0	32722	32662	32636	32769	32751	32474	32668	32708	
1481	0	32769	32815	32750	32705	32739	32861	32771	32699	
1482	0	32735	32799	32667	32671	32770	33287	32765	32591	
1483	0	32775	32855	32743	32607	32769	33255	32769	32647	
1484	0	32748	32807	32679	32759	32759	32807	32719	32599	
1485	0	32762	32876	32743	32773	32535	32489	32684	32736	
1486	0	32756	32775	32731	32782	32655	32518	32763	32630	
1487	0	32807	32799	32725	32678	32751	33111	32718	32775	
1488	0	32731	32735	32828	32717	32715	33486	32647	32637	
1489	0	32769	32793	32647	32710	32634	33115	32887	32837	
1490	0	32736	32755	32773	32687	32668	32640	32871	32684	
1491	0	32672	32853	32701	32675	32715	32146	32759	32775	
1492	0	32765	32809	32801	32705	32514	32375	32764	32622	
1493	0	32739	32850	32833	32791	32557	32833	32745	32863	
1494	0	32756	32813	32747	32687	32741	33215	32839	32647	
1495	0	32751	32791	32791	32775	32692	33338	32823	32903	
1496	0	32766	32692	32735	32739	32731	32925	32709	32691	
1497	0	32773	32851	32647	32756	32725	32291	32725	32743	
1498	0	32742	32767	32751	32788	32639	32312	32684	32732	
1499	0	32693	32797	32765	32739	32668	32623	32723	32739	
1500	0	32798	32738	32706	32735	32634	33063	32802	32743	
1501	0	32812	32815	32835	32599	32531	33227	32887	32743	
1502	0	32794	32731	32697	32711	32537	32717	32819	32903	
1503	0	32796	32786	32729	32787	32668	32135	32745	32743	
1504	0	32756	32750	32797	32639	32810	31922	32813	32833	
1505	0	32671	32721	32672	32808	32733	32059	32715	32566	
1506	0	32775	32759	32823	32722	32682	32703	32804	32868	
1507	0	32804	32802	32703	32711	32709	33138	32871	32845	
1508	0	32775	32755	32772	32613	32487	32991	32767	32902	
1509	0	32791	32733	32754	32707	32775	32490	32775	32775	
1510	0	32782	32875	32807	32757	32735	32262	32743	32703	
1511	0	32796	32751	32808	32723	32658	32293	32731	32759	
1512	0	32758	32837	32768	32727	32635	32781	32796	32644	
1513	0	32811	32738	32793	32727	32511	33095	32805	32887	
1514	0	32770	32719	32647	32711	32727	33174	32859	32810	
1515	0	32846	32775	32865	32709	32663	32935	32765	32753	
1516	0	32793	32689	32679	32747	32711	32518	32839	32748	
1517	0	32708	32854	32775	32707	32708	32601	32683	32707	
1518	0	32742	32759	32772	32783	32545	32978	32690	32687	
1519	0	32690	32767	32683	32745	32461	33300	32763	32832	
1520	0	32751	32711	32698	32660	32599	33243	32762	32631	
1521	0	32780	32711	32647	32757	32706	32901	32893	32917	
1522	0	32749	32703	32839	32701	32675	32343	32799	32798	
1523	0	32716	32839	32730	32666	32771	32130	32717	32892	
1524	0	32703	32749	32799	32700	32635	32170	32703	32822	
1525	0	32765	32756	32729	32733	32621	32860	32727	32868	
1526	0	32740	32716	32572	32639	32532	33303	32705	32601	
1527	0	32719	32803	32796	32717	32655	32948	32682	32823	
1528	0	32695	32727	32635	32638	32695	32479	32679	32758	
1529	0	32692	32797	32811	32718	32631	32116	32731	32853	
1530	0	32703	32793	32667	32647	32783	32366	32727	32767	
1531	0	32796	32833	32687	32703	32716	33059	32769	32821	
1532	0	32812	32811	32854	32775	32573	33223	32745	32621	
1533	0	32783	32775	32695	32683	32578	33101	32797	32802	
1534	0	32775	32727	32935	32725	32694	32455	32831	32756	
1535	0	32783	32775	32710	32663	32695	32247	32727	32867	
1536	0	32766	32713	32837	32629	32685	32436	32839	32742	
1537	0	32723	32763	32625	32739	32751	32794	32795	32835	
1538	0	32738	32741	32799	32687	32761	33410	32863	32596	
1539	0	32772	32767	32707	32647	32627	33115	32690	32823	
1540	0	32797	32703	32693	32727	32483	32551	32695	32647	
1541	0	32784	32807	32799	32773	32575	32342	32799	32767	
1542	0	32767	32799	32655	32679	32771	32504	32801	32584	
1543	0	32847	32798	32761	32711	32759	32846	32637	32695	
1544	0	32717	32791	32655	32725	32749	33311	32742	32692	
1545	0	32728	32850	32717	32738	32605	33223	32783	32759	
1546	0	32749	32844	32869	32727	32717	32983	32799	32841	
1547	0	32770	32723	32755	32683	32723	32334	32791	32599	
1548	0	32759	32775	32797	32745	32662	32196	32699	32836	
1549	0	32774	32747	32759	32669	32524	32745	32774	32716	
1550	0	32689	32877	32731	32669	32619	33153	32775	32740	
1551	0	32734	32763	32775	32763	32825	33415	32629	32471	
1552	0	32757	32755	32708	32766	32711	32829	32647	32711	
1553	0	32752	32757	32711	32706	32701	32309	32621	32709	
1554	0	32757	32799	32749	32743	32737	32247	32825	32806	
1555	0	32734	32686	32716	32701	32703	32556	32847	32819	
1556	0	32741	32769	32796	32738	32519	33191	32763	32885	
1557	0	32690	32839	32710	32658	32559	33191	32829	32738	
1558	0	32756	32823	32775	32671	32827	32943	32647	32707	
1559	0	32758	32831	32667	32719	32741	32459	32701	32724	
1560	0	32761	32683	32830	32727	32647	32312	32752	32855	
1561	0	32788	32713	32755	32647	32695	32408	32775	32839	
1562	0	32775	32775	32673	32643	32741	32895	32754	32919	
1563	0	32759	32690	32723	32687	32746	33340	32815	32671	
1564	0	32765	32813	32859	32630	32582	33085	32795	32974	
1565	0	32855	32727	32703	32721	32527	32381	32850	32859	
1566	0	32775	32647	32881	32683	32749	32143	32827	32920	
1567	0	32783	32636	32647	32743	32668	32367	32833	32877	
1568	0	32740	32690	32765	32631	32628	33069	32879	32898	
1569	0	32788	32742	32666	32694	32751	33159	32805	32838	
1570	0	32693	32724	32807	32775	32594	33085	32763	32636	
1571	0	32758	32819	32731	32643	32732	32677	32719	32775	
1572	0	32767	32775	32742	32788	32667	32199	32790	32583	
1573	0	32726	32720	32743	32668	32753	32495	32731	32716	
1574	0	32742	32804	32855	32694	32630	33001	32734	32595	
1575	0	32772	32791	32715	32732	32541	33324	32754	32842	
1576	0	32751	32695	32757	32702	32493	33299	32727	32615	
1577	0	32710	32883	32823	32767	32578	32803	32719	32668	
1578	0	32743	32831	32681	32743	32787	32213	32700	32635	
1579	0	32743	32809	32625	32714	32769	32323	32794	32647	
1580	0	32735	32798	32775	32719	32751	32666	32763	32832	
1581	0	32764	32722	32829	32703	32580	33191	32821	32535	
1582	0	32716	32771	32705	32619	32583	33215	32749	32794	
1583	0	32745	32812	32837	32687	32630	32900	32827	32707	
1584	0	32736	32727	32775	32677	32601	32339	32775	32823	
1585	0	32743	32783	32771	32716	32592	32183	32801	32919	
1586	0	32726	32815	32694	32745	32708	32391	32711	32692	
1587	0	32796	32787	32787	32587	32713	32767	32892	32903	
1588	0	32710	32769	32828	32699	32695	32933	32843	32687	
1589	0	32772	32719	32715	32597	32590	32692	32743	32903	
1590	0	32751	32875	32810	32831	32655	32221	32737	32575	
1591	0	32753	32745	32687	32693	32711	32015	32743	32767	
1592	0	32748	32843	32788	32764	32747	32431	32770	32578	
1593	0	32767	32725	32839	32767	32735	32922	32806	32775	
1594	0	32843	32731	32679	32667	32505	33069	32749	32639	
1595	0	32841	32775	32751	32695	32519	32998	32743	32751	
1596	0	32816	32797	32763	32751	32621	32487	32711	32647	
1597	0	32766	32895	32698	32782	32799	32121	32745	32681	
1598	0	32775	32758	32755	32730	32844	32156	32710	32750	
1599	0	32756	32847	32711	32708	32821	32660	32687	32518	
1600	0	32789	32692	32679	32731	32717	33045	32819	32763	
1601	0	32756	32748	32737	32702	32695	33095	32759	32637	
1602	0	32815	32755	32645	32690	32773	32863	32827	32822	
1603	0	32834	32813	32823	32691	32742	32551	32811	32671	
1604	0	32767	32836	32806	32735	32736	32583	32780	32764	
1605	0	32773	32823	32711	32671	32681	32955	32759	32745	
1606	0	32812	32852	32727	32804	32495	33252	32701	32771	
1607	0	32769	32699	32730	32732	32551	33287	32873	32901	
1608	0	32815	32807	32701	32693	32583	33012	32811	32615	
1609	0	32757	32691	32791	32751	32673	32517	32643	32795	
1610	0	32714	32751	32812	32715	32729	32353	32760	32662	
1611	0	32729	32748	32675	32742	32759	32494	32713	32763	
1612	0	32713	32843	32775	32612	32693	33147	32852	32726	
1613	0	32743	32821	32743	32727	32735	33275	32727	32551	
1614	0	32677	32799	32717	32727	32677	32965	32823	32743	
1615	0	32753	32799	32790	32643	32719	32583	32759	32603	
1616	0	32725	32731	32679	32703	32754	32285	32698	32813	
1617	0	32706	32871	32757	32753	32726	32540	32711	32614	
1618	0	32717	32743	32850	32786	32671	32903	32645	32763	
1619	0	32711	32823	32767	32726	32627	33299	32799	32775	
1620	0	32781	32679	32621	32711	32492	33219	32811	32845	
1621	0	32768	32751	32743	32669	32455	32615	32859	32867	
1622	0	32799	32711	32771	32631	32605	32175	32834	32557	
1623	0	32814	32783	32742	32737	32745	32511	32739	32827	
1624	0	32790	32727	32810	32694	32622	33000	32761	32567	
1625	0	32677	32855	32617	32711	32623	33367	32738	32729	
1626	0	32724	32783	32695	32659	32666	33330	32685	32543	
1627	0	32733	32735	32903	32627	32695	32919	32691	32706	
1628	0	32766	32819	32703	32692	32721	32338	32687	32684	
1629	0	32832	32727	32786	32602	32690	32404	32763	32772	
1630	0	32748	32799	32783	32738	32654	32886	32754	32751	
1631	0	32788	32719	32647	32767	32647	33242	32747	32813	
1632	0	32794	32790	32797	32740	32524	33151	32823	32835	
1633	0	32775	32767	32734	32725	32500	32707	32789	32765	
1634	0	32800	32806	32877	32686	32767	31935	32674	32829	
1635	0	32735	32759	32638	32773	32647	31927	32843	32735	
1636	0	32769	32829	32786	32679	32668	32346	32759	32843	
1637	0	32735	32829	32671	32705	32677	32751	32709	32663	
1638	0	32706	32854	32631	32804	32683	32927	32775	32828	
1639	0	32804	32809	32797	32814	32727	32919	32687	32775	
1640	0	32796	32863	32703	32751	32709	32391	32811	32879	
1641	0	32766	32716	32711	32687	32707	32146	32847	32763	
1642	0	32859	32775	32689	32703	32580	32532	32807	32850	
1643	0	32790	32738	32833	32687	32524	33095	32769	32715	
1644	0	32743	32775	32679	32626	32511	33487	32717	32819	
1645	0	32718	32819	32663	32674	32549	33315	32737	32756	
1646	0	32718	32751	32834	32749	32698	32871	32687	32729	
1647	0	32805	32775	32647	32623	32775	32423	32655	32743	
1648	0	32794	32667	32740	32638	32699	32445	32745	32745	
1649	0	32760	32771	32702	32666	32623	32807	32731	32847	
1650	0	32708	32711	32685	32657	32692	33219	32809	32588	
1651	0	32764	32775	32671	32751	32697	33220	32751	32807	
1652	0	32791	32751	32807	32749	32646	32829	32933	32679	
1653	0	32725	32683	32757	32683	32615	32350	32791	32773	
1654	0	32792	32759	32725	32770	32700	32326	32739	32632	
1655	0	32804	32730	32757	32767	32720	32653	32858	32798	
1656	0	32784	32767	32740	32619	32749	33182	32674	32828	
1657	0	32767	32847	32639	32765	32762	33247	32711	32527	
1658	0	32739	32863	32749	32727	32655	32821	32694	32735	
1659	0	32763	32903	32843	32757	32491	32221	32731	32591	
1660	0	32775	32759	32783	32759	32457	32052	32775	32753	
1661	0	32706	32761	32729	32687	32506	32351	32740	32751	
1662	0	32781	32741	32792	32717	32691	32987	32807	32852	
1663	0	32791	32795	32697	32655	32759	33197	32775	32842	
1664	0	32810	32733	32727	32669	32739	32999	32790	32756	
1665	0	32793	32727	32767	32775	32723	32500	32791	32869	
1666	0	32783	32834	32686	32662	32729	31997	32769	32683	
1667	0	32889	32690	32767	32701	32700	32169	32851	33025	
1668	0	32871	32743	32747	32738	32659	32845	32877	32900	
1669	0	32836	32647	32668	32687	32630	33339	32897	32847	
1670	0	32775	32831	32775	32775	32577	33263	32834	32607	
1671	0	32711	32745	32810	32710	32503	32775	32703	32734	
1672	0	32700	32775	32739	32687	32582	32391	32759	32642	
1673	0	32708	32847	32764	32607	32595	32346	32647	32628	
1674	0	32760	32754	32841	32679	32748	32706	32749	32740	
1675	0	32763	32811	32703	32725	32756	33316	32748	32643	
1676	0	32786	32703	32807	32647	32743	33332	32786	32841	
1677	0	32750	32863	32775	32804	32771	32903	32727	32498	
1678	0	32738	32839	32711	32733	32675	32431	32683	32811	
1679	0	32762	32919	32690	32796	32808	32217	32636	32731	
1680	0	32726	32724	32759	32647	32573	32676	32786	32835	
1681	0	32721	32825	32801	32647	32527	33124	32741	32791	
1682	0	32660	32756	32675	32751	32511	33215	32639	32762	
1683	0	32742	32711	32775	32747	32749	32987	32711	32703	
1684	0	32666	32759	32692	32676	32771	32339	32733	32839	
1685	0	32746	32826	32695	32671	32694	32231	32698	32774	
1686	0	32709	32807	32735	32742	32741	32430	32860	32812	
1687	0	32778	32769	32805	32647	32575	32820	32764	32739	
1688	0	32788	32775	32855	32702	32511	33238	32715	32783	
1689	0	32782	32812	32759	32619	32535	32969	32804	32689	
1690	0	32805	32859	32805	32811	32742	32402	32807	32758	
1691	0	32787	32756	32719	32775	32631	31964	32799	32680	
1692	0	32814	32818	32811	32822	32718	32183	32719	32751	
1693	0	32760	32804	32747	32711	32743	32820	32756	32759	
1694	0	32781	32783	32775	32668	32564	33159	32823	32678	
1695	0	32711	32767	32647	32757	32775	33223	32751	32832	
1696	0	32698	32807	32772	32709	32645	32735	32673	32762	
1697	0	32722	32839	32675	32764	32693	32173	32782	32849	
1698	0	32745	32799	32873	32655	32540	32431	32749	32833	
1699	0	32742	32837	32599	32742	32581	32949	32800	32674	
1700	0	32801	32791	32842	32719	32767	33263	32775	32802	
1701	0	32783	32719	32775	32711	32659	33261	32871	32739	
1702	0	32789	32683	32676	32647	32599	32740	32855	32843	
1703	0	32791	32730	32782	32659	32630	32210	32783	32685	
1704	0	32733	32742	32647	32700	32737	32208	32895	32804	
1705	0	32799	32814	32824	32742	32557	32373	32859	32663	
1706	0	32775	32799	32583	32705	32527	32966	32855	32871	
1707	0	32764	32775	32795	32647	32722	32837	32845	32749	
1708	0	32731	32709	32669	32715	32637	32575	32843	32708	
1709	0	32765	32795	32803	32709	32647	32201	32791	32818	
1710	0	32719	32821	32717	32719	32749	32199	32711	32663	
1711	0	32679	32822	32786	32639	32695	32423	32846	32799	
1712	0	32694	32820	32848	32799	32677	32681	32775	32637	
1713	0	32709	32854	32707	32780	32594	33257	32617	32683	
1714	0	32740	32837	32807	32684	32775	33063	32722	32594	
1715	0	32825	32843	32679	32759	32751	32439	32699	32737	
1716	0	32844	32789	32804	32789	32769	32146	32670	32615	
1717	0	32760	32839	32691	32804	32672	32443	32717	32788	
1718	0	32780	32839	32775	32663	32676	33043	32817	32557	
1719	0	32775	32793	32773	32730	32683	33501	32711	32719	
1720	0	32761	32773	32686	32740	32715	33287	32767	32631	
1721	0	32728	32701	32860	32703	32671	32743	32751	32919	
1722	0	32758	32795	32667	32713	32631	32359	32623	32629	
1723	0	32732	32704	32729	32742	32514	32420	32666	32839	
1724	0	32716	32786	32620	32745	32757	32983	32827	32767	
1725	0	32759	32742	32804	32747	32711	33436	32771	32748	
1726	0	32748	32715	32630	32767	32765	33101	32767	32827	
1727	0	32815	32716	32791	32583	32575	32913	32711	32662	
1728	0	32770	32775	32655	32623	32641	32313	32783	32887	
1729	0	32834	32775	32862	32679	32709	32459	32815	32760	
1730	0	32775	32763	32647	32711	32699	32873	32749	32832	
1731	0	32715	32775	32780	32662	32674	33445	32711	32730	
1732	0	32820	32807	32760	32711	32713	33238	32822	32845	
1733	0	32802	32834	32849	32828	32647	32863	32805	32828	
1734	0	32751	32855	32839	32757	32509	32350	32671	32815	
1735	0	32717	32719	32793	32751	32771	32231	32742	32829	
1736	0	32726	32786	32764	32639	32689	32597	32886	32647	
1737	0	32780	32743	32823	32818	32671	32894	32775	32835	
1738	0	32749	32826	32717	32723	32642	33215	32753	32619	
1739	0	32807	32814	32772	32796	32791	32805	32783	32736	
1740	0	32821	32733	32791	32661	32519	32429	32711	32663	
1741	0	32831	32765	32759	32703	32853	32262	32709	32676	
1742	0	32810	32749	32701	32782	32773	32487	32647	32732	
1743	0	32743	32772	32709	32727	32723	32870	32734	32631	
1744	0	32710	32772	32725	32709	32796	33449	32708	32663	
1745	0	32721	32807	32719	32757	32691	33262	32647	32535	
1746	0	32677	32775	32822	32663	32527	32591	32671	32667	
1747	0	32721	32716	32679	32717	32621	32229	32903	32610	
1748	0	32765	32743	32871	32685	32732	32274	32814	32874	
1749	0	32764	32698	32739	32676	32723	32901	32706	32687	
1750	0	32771	32798	32717	32613	32725	33269	32837	32827	
1751	0	32781	32775	32735	32743	32682	33181	32763	32583	
1752	0	32721	32839	32707	32733	32719	32724	32694	32851	
1753	0	32759	32903	32708	32683	32671	32167	32854	32647	
1754	0	32698	32743	32887	32748	32666	32116	32871	32847	
1755	0	32734	32796	32756	32692	32546	32763	32765	32685	
1756	0	32763	32727	32861	32710	32534	33193	32846	32818	
1757	0	32759	32881	32647	32683	32660	33287	32783	32647	
1758	0	32813	32775	32694	32775	32726	32887	32771	32799	
1759	0	32766	32829	32811	32743	32684	32412	32775	32675	
1760	0	32807	32771	32692	32647	32671	32368	32875	32775	
1761	0	32717	32832	32818	32759	32676	32540	32775	32785	
1762	0	32789	32798	32805	32679	32708	32990	32821	32723	
1763	0	32808	32798	32628	32631	32713	33347	32701	32859	
1764	0	32807	32707	32791	32635	32614	33074	32644	32703	
1765	0	32819	32768	32687	32710	32543	32351	32738	32787	
1766	0	32796	32775	32698	32690	32763	32255	32647	32692	
1767	0	32807	32749	32775	32668	32713	32455	32723	32879	
1768	0	32756	32709	32765	32659	32667	32868	32874	32839	
1769	0	32740	32730	32809	32647	32702	33147	32812	32974	
1770	0	32757	32727	32671	32763	32697	33201	32823	32811	
1771	0	32751	32843	32751	32749	32620	32647	32807	32900	
1772	0	32767	32739	32826	32655	32495	32254	32734	32756	
1773	0	32748	32899	32751	32802	32583	32319	32850	32827	
1774	0	32735	32766	32850	32783	32567	32518	32731	32634	
1775	0	32807	32786	32783	32703	32733	33063	32811	32799	
1776	0	32812	32743	32641	32683	32711	33255	32767	32679	
1777	0	32711	32803	32766	32767	32727	32827	32615	32770	
1778	0	32663	32775	32756	32687	32759	32327	32818	32663	
1779	0	32741	32799	32729	32700	32647	32349	32820	32773	
1780	0	32752	32740	32807	32741	32771	32671	32813	32729	
1781	0	32715	32663	32687	32742	32686	33121	32807	32846	
1782	0	32716	32775	32724	32647	32580	33245	32775	32767	
1783	0	32745	32707	32857	32703	32519	32982	32759	32743	
1784	0	32737	32823	32671	32727	32775	32365	32807	32689	
1785	0	32762	32719	32743	32767	32638	32263	32661	32663	
1786	0	32735	32775	32865	32655	32771	32605	32756	32731	
1787	0	32824	32719	32679	32689	32695	32863	32674	32663	
1788	0	32745	32753	32833	32666	32751	33207	32585	32745	
1789	0	32759	32763	32703	32700	32802	33154	32713	32498	
1790	0	32788	32847	32705	32631	32727	32679	32609	32671	
1791	0	32727	32755	32711	32751	32588	32311	32583	32643	
1792	0	32746	32847	32677	32716	32697	32319	32687	32765	
1793	0	32772	32850	32730	32783	32742	32994	32719	32681	
1794	0	32740	32791	32698	32717	32681	33428	32663	32847	
1795	0	32760	32775	32757	32731	32625	33334	32794	32647	
1796	0	32789	32762	32708	32724	32775	32871	32783	32927	
1797	0	32804	32773	32755	32839	32695	32327	32843	32841	
1798	0	32728	32811	32726	32657	32503	32434	32766	32847	
1799	0	32743	32786	32743	32775	32759	32999	32873	32879	
1800	0	32804	32705	32755	32709	32660	33333	32804	32829	
1801	0	32813	32647	32753	32671	32573	33199	32827	32919	
1802	0	32803	32815	32823	32639	32582	32844	32903	32913	
1803	0	32742	32723	32714	32691	32657	32445	32838	32791	
1804	0	32728	32735	32647	32781	32704	32340	32895	32865	
1805	0	32711	32735	32826	32622	32679	32539	32873	32775	
1806	0	32740	32843	32697	32743	32482	33129	32671	32747	
1807	0	32762	32740	32743	32731	32647	33223	32727	32685	
1808	0	32772	32789	32675	32743	32823	32871	32687	32645	
1809	0	32757	32765	32743	32745	32692	32367	32749	32707	
1810	0	32743	32894	32623	32671	32817	32041	32638	32590	
1811	0	32772	32779	32733	32737	32692	32396	32772	32747	
1812	0	32807	32775	32835	32701	32637	32903	32756	32600	
1813	0	32762	32742	32633	32791	32595	33125	32687	32727	
1814	0	32784	32765	32830	32593	32791	33042	32695	32543	
1815	0	32790	32762	32801	32685	32719	32255	32797	32875	
1816	0	32751	32801	32839	32703	32661	31836	32719	32635	
1817	0	32727	32750	32780	32763	32719	32023	32797	32784	
1818	0	32719	32809	32742	32639	32683	32583	32804	32682	
1819	0	32729	32751	32807	32735	32495	33007	32803	32839	
1820	0	32836	32730	32737	32679	32527	32751	32918	32655	
1821	0	32774	32745	32573	32613	32580	32350	32695	32816	
1822	0	32731	32700	32775	32647	32719	32097	32756	32759	
1823	0	32719	32773	32727	32711	32613	32251	32807	32851	
1824	0	32732	32839	32786	32767	32695	32511	32708	32836	
1825	0	32722	32814	32773	32711	32671	33069	32811	32751	
1826	0	32834	32775	32590	32743	32770	33297	32763	32895	
1827	0	32841	32713	32767	32715	32771	33111	32740	32708	
1828	0	32791	32810	32869	32681	32797	32449	32797	32861	
1829	0	32819	32679	32715	32602	32552	32061	32815	32637	
1830	0	32748	32826	32709	32718	32534	32487	32788	32748	
1831	0	32678	32825	32791	32801	32660	33202	32757	32607	
1832	0	32671	32815	32762	32772	32633	33271	32685	32661	
1833	0	32703	32891	32647	32772	32599	32997	32719	32775	
1834	0	32789	32695	32735	32711	32614	32637	32673	32559	
1835	0	32833	32806	32811	32811	32762	32413	32679	32748	
1836	0	32836	32748	32740	32733	32823	32487	32623	32704	
1837	0	32792	32775	32677	32694	32741	33135	32711	32670	
1838	0	32727	32799	32763	32799	32732	33308	32683	32703	
1839	0	32692	32724	32783	32788	32727	33001	32795	32727	
1840	0	32794	32791	32660	32695	32661	32370	32773	32827	
1841	0	32805	32733	32749	32738	32775	32052	32852	32596	
1842	0	32811	32823	32739	32714	32724	32191	32821	32765	
1843	0	32832	32823	32755	32615	32543	32924	32773	32719	
1844	0	32780	32889	32683	32775	32563	33383	32914	32793	
1845	0	32733	32772	32817	32740	32748	33213	32851	32691	
1846	0	32655	32846	32713	32727	32775	32853	32647	32647	
1847	0	32673	32703	32735	32599	32627	32587	32743	32822	
1848	0	32690	32759	32767	32683	32680	32364	32729	32769	
1849	0	32822	32710	32735	32691	32679	32600	32823	32941	
1850	0	32732	32781	32797	32685	32561	33375	32702	32808	
1851	0	32735	32795	32683	32607	32559	33445	32775	32935	
1852	0	32785	32757	32661	32690	32647	32885	32807	32679	
1853	0	32733	32877	32758	32677	32746	32423	32753	32825	
1854	0	32749	32722	32813	32586	32751	32336	32750	32708	
1855	0	32780	32775	32676	32695	32647	32501	32695	32711	
1856	0	32818	32759	32817	32775	32733	32946	32755	32815	
1857	0	32804	32865	32724	32789	32668	33238	32756	32737	
1858	0	32748	32713	32687	32843	32659	33143	32741	32775	
1859	0	32769	32749	32767	32807	32583	32582	32695	32727	
1860	0	32791	32763	32813	32623	32467	32189	32816	32831	
1861	0	32822	32732	32687	32660	32505	32351	32773	32655	
1862	0	32775	32763	32673	32655	32533	32733	32869	32806	
1863	0	32808	32647	32799	32585	32502	33287	32717	32827	
1864	0	32807	32775	32767	32731	32658	33125	32767	32775	
1865	0	32798	32723	32813	32733	32731	32565	32811	32747	
1866	0	32748	32819	32818	32783	32708	32337	32748	32799	
1867	0	32794	32783	32691	32592	32630	32357	32741	32703	
1868	0	32782	32765	32770	32706	32756	32724	32727	32811	
1869	0	32710	32711	32803	32748	32557	33223	32810	32707	
1870	0	32687	32804	32667	32807	32551	33123	32785	32799	
1871	0	32732	32748	32788	32662	32783	32686	32743	32676	
1872	0	32711	32765	32732	32775	32711	32359	32858	32803	
1873	0	32732	32769	32762	32747	32628	32323	32807	32647	
1874	0	32722	32813	32767	32708	32743	32554	32645	32768	
1875	0	32726	32756	32663	32653	32647	33085	32669	32563	
1876	0	32764	32815	32791	32729	32586	33206	32631	32663	
1877	0	32730	32789	32670	32786	32610	32953	32701	32703	
1878	0	32753	32819	32715	32647	32661	32469	32713	32562	
1879	0	32783	32831	32775	32687	32753	32157	32683	32762	
1880	0	32773	32836	32773	32714	32679	32346	32821	32593	
1881	0	32770	32843	32725	32721	32669	32949	32815	32711	
1882	0	32775	32718	32727	32699	32773	33255	32775	32703	
1883	0	32693	32771	32791	32655	32647	33213	32687	32693	
1884	0	32790	32699	32691	32659	32662	32647	32789	32795	
1885	0	32775	32703	32733	32621	32751	32195	32801	32663	
1886	0	32751	32700	32764	32751	32679	32351	32827	32761	
1887	0	32711	32698	32668	32719	32559	32997	32855	32827	
1888	0	32860	32727	32712	32655	32503	33380	32874	32854	
1889	0	32797	32671	32811	32773	32477	33303	32809	32892	
1890	0	32754	32871	32699	32747	32774	32758	32597	32755	
1891	0	32754	32799	32799	32703	32749	32436	32771	32927	
1892	0	32720	32863	32775	32712	32689	32509	32775	32671	
1893	0	32724	32765	32727	32756	32700	32847	32815	32775	
1894	0	32684	32791	32895	32767	32719	33236	32793	32605	
1895	0	32747	32758	32668	32691	32674	33324	32701	32775	
1896	0	32704	32739	32663	32789	32735	32947	32727	32687	
1897	0	32679	32799	32787	32855	32578	32209	32699	32743	
1898	0	32738	32855	32725	32727	32551	32044	32739	32775	
1899	0	32747	32864	32691	32751	32584	32335	32745	32708	
1900	0	32792	32767	32799	32751	32564	32859	32759	32807	
1901	0	32836	32743	32674	32681	32707	33287	32801	32751	
1902	0	32804	32751	32775	32689	32671	32855	32736	32754	
1903	0	32749	32811	32865	32708	32711	32517	32829	32799	
1904	0	32793	32747	32673	32627	32699	32295	32838	32748	
1905	0	32828	32738	32681	32703	32629	32469	32919	32895	
1906	0	32730	32802	32721	32695	32638	32897	32866	32581	
1907	0	32792	32725	32709	32617	32642	33023	32902	32867	
1908	0	32775	32797	32611	32647	32789	32839	32846	32701	
1909	0	32775	32741	32751	32639	32611	32525	32763	32823	
1910	0	32731	32847	32695	32598	32519	32103	32737	32599	
1911	0	32740	32815	32694	32669	32537	32285	32711	32791	
1912	0	32807	32799	32767	32754	32607	32727	32668	32775	
1913	0	32709	32867	32818	32703	32655	33117	32619	32719	
1914	0	32748	32743	32769	32662	32727	32983	32743	32759	
1915	0	32748	32763	32757	32717	32766	32679	32721	32727	
1916	0	32749	32819	32647	32740	32718	32351	32707	32811	
1917	0	32700	32875	32820	32732	32794	32116	32807	32728	
1918	0	32725	32783	32764	32690	32712	32257	32732	32749	
1919	0	32738	32756	32798	32749	32556	33041	32686	32731	
1920	0	32730	32724	32735	32667	32767	33175	32757	32663	
1921	0	32729	32679	32853	32742	32715	32892	32829	32829	
1922	0	32725	32734	32685	32626	32599	32307	32835	32625	
1923	0	32726	32679	32697	32582	32752	32086	32684	32921	
1924	0	32748	32765	32825	32687	32791	32567	32679	32742	
1925	0	32804	32749	32698	32767	32786	33129	32647	32743	
1926	0	32740	32838	32665	32621	32679	33285	32714	32545	
1927	0	32783	32763	32835	32815	32676	33143	32660	32852	
1928	0	32759	32821	32667	32746	32647	32583	32711	32549	
1929	0	32830	32701	32815	32703	32743	32039	32704	32829	
1930	0	32703	32855	32773	32743	32783	32106	32656	32532	
1931	0	32695	32805	32738	32781	32726	32884	32755	32764	
1932	0	32836	32829	32685	32729	32799	33339	32762	32715	
1933	0	32729	32877	32801	32802	32723	33281	32645	32622	
1934	0	32765	32718	32703	32799	32611	32711	32703	32759	
1935	0	32750	32771	32751	32644	32645	32431	32852	32710	
1936	0	32800	32726	32667	32668	32674	32443	32765	32853	
1937	0	32749	32806	32761	32812	32679	33013	32735	32635	
1938	0	32714	32767	32711	32704	32695	33193	32827	32841	
1939	0	32719	32799	32793	32763	32622	33182	32749	32758	
1940	0	32790	32812	32799	32685	32487	32791	32703	32932	
1941	0	32762	32797	32709	32717	32499	32215	32903	32926	
1942	0	32732	32759	32844	32754	32698	32412	32845	32959	
1943	0	32765	32647	32694	32660	32699	32567	32754	32885	
1944	0	32711	32829	32775	32678	32687	32903	32821	32797	
1945	0	32735	32725	32717	32647	32662	33246	32855	32853	
1946	0	32745	32747	32741	32687	32719	33005	32783	32919	
1947	0	32803	32687	32829	32709	32687	32591	32845	32655	
1948	0	32789	32708	32615	32631	32661	32252	32779	32826	
1949	0	32682	32797	32794	32737	32565	32615	32804	32601	
1950	0	32716	32801	32766	32708	32607	33185	32738	32702	
1951	0	32723	32815	32644	32646	32530	33415	32772	32690	
1952	0	32838	32763	32831	32763	32500	33127	32815	32734	
1953	0	32789	32822	32811	32775	32559	32647	32683	32773	
1954	0	32870	32771	32748	32668	32663	32525	32797	32615	
1955	0	32821	32879	32751	32737	32700	32621	32724	32746	
1956	0	32871	32785	32775	32640	32762	33127	32771	32757	
1957	0	32834	32867	32715	32775	32567	33207	32653	32655	
1958	0	32727	32852	32787	32775	32647	33060	32647	32703	
1959	0	32695	32838	32837	32771	32645	32549	32655	32705	
1960	0	32713	32767	32660	32663	32738	32127	32830	32817	
1961	0	32797	32857	32700	32743	32751	32036	32738	32925	
1962	0	32734	32679	32686	32719	32749	32573	32691	32567	
1963	0	32693	32723	32669	32691	32681	32869	32807	32846	
1964	0	32703	32715	32719	32711	32783	33099	32767	32594	
1965	0	32799	32689	32663	32707	32732	32775	32815	32789	
1966	0	32794	32703	32791	32711	32669	32199	32813	32621	
1967	0	32801	32698	32783	32691	32462	32257	32726	32834	
1968	0	32830	32716	32720	32639	32548	32391	32817	32613	
1969	0	32764	32807	32809	32727	32535	32943	32821	32851	
1970	0	32738	32718	32820	32775	32602	33250	32855	32855	
1971	0	32775	32775	32701	32677	32583	32945	32719	32783	
1972	0	32814	32807	32765	32743	32697	32367	32775	32815	
1973	0	32741	32786	32855	32731	32743	32052	32775	32573	
1974	0	32796	32772	32686	32695	32662	32471	32767	32824	
1975	0	32757	32702	32773	32641	32630	32923	32785	32663	
1976	0	32802	32733	32602	32723	32749	33259	32750	32911	
1977	0	32756	32727	32695	32700	32647	33050	32825	32799	
1978	0	32810	32795	32833	32715	32563	32575	32823	32818	
1979	0	32730	32727	32699	32623	32515	32127	32713	32633	
1980	0	32692	32847	32740	32687	32583	32242	32727	32761	
1981	0	32727	32685	32716	32658	32775	32837	32708	32559	
1982	0	32809	32745	32671	32705	32773	33346	32780	32860	
1983	0	32727	32641	32748	32647	32711	33223	32775	32691	
1984	0	32727	32827	32764	32782	32767	32743	32683	32767	
1985	0	32860	32743	32711	32811	32677	32347	32761	32831	
1986	0	32754	32679	32775	32723	32677	32343	32701	32765	
1987	0	32852	32624	32854	32762	32628	32611	32799	32871	
1988	0	32896	32677	32767	32742	32727	33068	32743	32708	
1989	0	32839	32751	32823	32719	32724	33407	32770	32828	
1990	0	32747	32850	32801	32717	32623	32970	32663	32587	
1991	0	32772	32945	32727	32738	32550	32351	32695	32775	
1992	0	32742	32807	32838	32767	32522	32277	32801	32590	
1993	0	32768	32876	32766	32724	32497	32519	32687	32749	
1994	0	32812	32839	32771	32749	32537	33053	32818	32631	
1995	0	32695	32823	32711	32753	32743	33413	32773	32918	
1996	0	32686	32830	32719	32751	32722	33095	32735	32647	
1997	0	32633	32911	32759	32679	32725	32413	32695	32735	
1998	0	32641	32925	32745	32743	32717	32130	32572	32526	
1999	0	32715	32850	32763	32751	32683	32259	32743	32731	
2000	0	32767	32852	32819	32773	32455	32847	32775	32602	
2001	0	32724	32815	32701	32643	32525	33219	32720	32791	
2002	0	32737	32862	32703	32683	32741	33117	32802	32703	
2003	0	32743	32802	32707	32717	32695	32598	32820	32783	
2004	0	32773	32751	32647	32799	32715	32147	32711	32636	
2005	0	32773	32791	32786	32715	32758	32289	32769	32751	
2006	0	32716	32815	32653	32797	32662	32887	32734	32583	
2007	0	32740	32733	32791	32679	32527	33334	32687	32743	
2008	0	32692	32803	32791	32643	32687	33451	32775	32641	
2009	0	32717	32751	32667	32629	32823	32948	32759	32687	
2010	0	32726	32831	32839	32705	32708	32550	32743	32671	
2011	0	32764	32742	32791	32703	32722	32690	32803	32765	
2012	0	32756	32780	32703	32686	32750	32967	32751	32639	
2013	0	32796	32727	32763	32785	32743	33375	32821	32722	
2014	0	32837	32773	32799	32818	32804	33345	32685	32757	
2015	0	32783	32763	32740	32693	32801	32867	32727	32655	
2016	0	32727	32695	32669	32727	32535	32015	32695	32879	
2017	0	32689	32766	32775	32739	32526	31943	32725	32621	
2018	0	32703	32775	32879	32762	32553	32358	32830	32796	
2019	0	32801	32831	32701	32748	32535	33035	32756	32615	
2020	0	32764	32738	32799	32762	32675	33188	32847	32795	
2021	0	32809	32767	32789	32700	32663	32951	32871	32671	
2022	0	32826	32733	32623	32647	32662	32333	32903	32794	
2023	0	32783	32677	32735	32641	32722	31940	32775	32716	
2024	0	32826	32700	32832	32641	32647	32087	32823	32757	
2025	0	32820	32780	32695	32703	32679	32903	32839	32764	
2026	0	32711	32863	32732	32647	32719	33319	32823	32811	
2027	0	32797	32773	32787	32644	32669	33273	32871	32855	
2028	0	32737	32804	32788	32603	32759	32806	32711	32591	
2029	0	32740	32775	32679	32663	32641	32327	32739	32809	
2030	0	32771	32765	32812	32707	32468	32534	32782	32671	
2031	0	32853	32757	32683	32727	32673	32775	32743	32847	
2032	0	32821	32643	32762	32749	32743	33319	32818	32607	
2033	0	32787	32679	32719	32687	32673	33155	32687	32847	
2034	0	32872	32732	32819	32719	32694	32439	32775	32673	
2035	0	32757	32803	32771	32723	32703	32077	32751	32923	
2036	0	32844	32915	32739	32668	32491	31991	32850	32892	
2037	0	32796	32831	32662	32753	32791	32579	32647	32663	
2038	0	32673	32858	32731	32698	32773	33149	32663	32687	
2039	0	32677	32775	32843	32798	32742	33285	32695	32787	
2040	0	32689	32757	32658	32743	32677	33055	32733	32751	
2041	0	32729	32847	32788	32775	32551	32454	32839	32660	
2042	0	32733	32687	32647	32686	32576	32448	32754	32852	
2043	0	32689	32756	32799	32663	32786	32663	32737	32727	
2044	0	32624	32775	32615	32756	32727	33180	32759	32735	
2045	0	32700	32804	32759	32677	32675	33142	32732	32724	
2046	0	32797	32821	32671	32797	32626	32992	32759	32615	
2047	0	32775	32791	32845	32695	32501	32443	32775	32674	
2048	0	32788	32797	32734	32729	32738	32211	32643	32677	
2049	0	32704	32800	32740	32710	32655	32175	32716	32734	
2050	0	32729	32839	32796	32711	32724	32823	32703	32570	
2051	0	32678	32797	32757	32758	32729	33126	32719	32739	
2052	0	32745	32845	32735	32635	32491	33117	32647	32597	
2053	0	32755	32771	32701	32787	32667	32479	32751	32850	
2054	0	32850	32705	32681	32614	32754	32287	32807	32804	
2055	0	32784	32799	32829	32743	32556	32439	32847	32654	
2056	0	32775	32705	32682	32711	32593	32857	32659	32773	
2057	0	32769	32809	32753	32790	32701	33387	32802	32623	
2058	0	32818	32821	32711	32725	32683	33031	32767	32731	
2059	0	32761	32787	32725	32647	32775	32438	32703	32709	
2060	0	32646	32794	32694	32687	32623	31963	32821	32846	
2061	0	32690	32683	32775	32675	32541	32217	32731	32719	
2062	0	32676	32799	32693	32742	32720	32527	32687	32775	
2063	0	32738	32668	32698	32632	32719	32925	32783	32771	
2064	0	32735	32797	32743	32693	32723	33023	32815	32742	
2065	0	32825	32769	32759	32695	32692	32917	32791	32839	
2066	0	32782	32775	32727	32725	32595	32516	32769	32663	
2067	0	32769	32690	32815	32703	32626	32519	32775	32815	
2068	0	32705	32768	32690	32629	32741	32713	32734	32592	
2069	0	32773	32831	32775	32645	32694	33428	32830	32812	
2070	0	32745	32815	32695	32708	32738	33535	32767	32539	
2071	0	32669	32833	32815	32767	32575	33231	32665	32755	
2072	0	32844	32687	32735	32703	32581	32511	32805	32761	
2073	0	32827	32807	32743	32703	32715	32349	32705	32761	
2074	0	32782	32655	32652	32655	32673	32429	32757	32891	
2075	0	32749	32775	32861	32679	32637	32661	32918	32921	
2076	0	32756	32726	32756	32775	32685	33021	32823	32786	
2077	0	32707	32879	32726	32711	32687	32676	32763	32839	
2078	0	32715	32786	32839	32771	32531	32365	32835	32767	
2079	0	32720	32867	32726	32723	32647	32079	32782	32708	
2080	0	32722	32773	32823	32792	32695	32078	32810	32711	
2081	0	32748	32767	32725	32695	32708	32717	32699	32773	
2082	0	32708	32755	32789	32798	32725	33257	32799	32750	
2083	0	32697	32870	32751	32719	32775	33449	32745	32647	
2084	0	32660	32831	32737	32711	32751	33063	32605	32751	
2085	0	32690	32791	32845	32620	32605	32550	32742	32711	
2086	0	32644	32813	32642	32692	32628	32527	32676	32677	
2087	0	32652	32708	32695	32731	32599	32927	32786	32796	
2088	0	32637	32782	32639	32665	32855	33227	32687	32726	
2089	0	32587	32775	32647	32667	32750	33318	32644	32877	
2090	0	32562	32863	32673	32711	32723	32783	32708	32603	
2091	0	32544	32751	32535	32667	32727	32242	32615	32876	
2092	0	32583	32831	32564	32738	32726	31970	32821	32781	
2093	0	32567	32839	32511	32736	32754	32241	32729	32783	
2094	0	32501	32802	32493	32670	32661	32739	32612	32694	
2095	0	32494	32799	32519	32585	32612	33093	32743	32788	
2096	0	32454	32727	32438	32663	32703	33011	32783	32796	
2097	0	32468	32717	32511	32631	32791	32491	32679	32949	
2098	0	32522	32684	32391	32679	32807	32197	32815	32897	
2099	0	32564	32804	32412	32567	32643	32145	32743	32879	
2100	0	32580	32735	32487	32622	32724	32845	32787	32895	
2101	0	32591	32731	32327	32690	32775	33381	32687	32821	
2102	0	32592	32677	32459	32659	32577	33353	32603	32863	
2103	0	32641	32671	32357	32615	32580	32855	32661	32850	
2104	0	32572	32687	32413	32667	32661	32173	32666	32924	
2105	0	32679	32735	32578	32711	32663	32342	32674	32878	
2106	0	32759	32671	32502	32615	32695	32598	32741	32877	
2107	0	32924	32548	32626	32709	32596	33015	32687	32703	
2108	0	33211	32578	32702	32695	32642	33247	32658	32890	
2109	0	33409	32555	32837	32684	32561	32927	32868	32717	
2110	0	33638	32553	33101	32583	32412	32647	32803	32843	
2111	0	33727	32591	33039	32749	32473	32306	32765	32631	
2112	0	33757	32540	33186	32694	32471	32615	32879	32833	
2113	0	33708	32591	33276	32751	32598	33101	33038	32775	
2114	0	33635	32775	33207	32799	32487	33346	33159	32899	
2115	0	33549	32902	33429	32997	32300	33268	33375	32719	
2116	0	33454	33058	33389	32995	32299	32647	33468	32903	
2117	0	33414	33022	33389	32967	32354	32401	33327	32751	
2118	0	33332	33012	33436	33020	32407	32576	33357	32671	
2119	0	33455	32847	33238	32943	32431	32946	33107	32845	
2120	0	33397	32834	33255	32841	32471	33394	33110	32743	
2121	0	33357	32759	33284	32810	32398	33238	33031	32726	
2122	0	33213	32787	33106	32801	32513	32620	32903	32639	
2123	0	33076	32663	33125	32743	32687	32245	32991	32732	
2124	0	32952	32738	32911	32732	32647	32225	32890	32676	
2125	0	32783	32640	32943	32685	32692	32773	32828	32721	
2126	0	32656	32694	32886	32708	32743	33243	32767	32663	
2127	0	32456	32611	32834	32667	32687	33165	32787	32795	
2128	0	32391	32647	32911	32673	32598	32775	32743	32673	
2129	0	32439	32647	32863	32662	32719	32053	32785	32695	
2130	0	32484	32735	32771	32686	32757	32165	32689	32718	
2131	0	32487	32684	32789	32713	32742	32335	32657	32545	
2132	0	32607	32725	32710	32798	32807	32843	32679	32726	
2133	0	32562	32743	32713	32759	32785	32797	32645	32546	
2134	0	32532	32845	32751	32788	32613	32671	32677	32703	
2135	0	32308	32879	32549	32735	32663	32282	32569	32461	
2136	0	32356	33039	32623	32623	32647	32076	32519	32671	
2137	0	32288	33007	32703	32747	32734	32284	32577	32596	
2138	0	32239	33114	32516	32679	32755	32863	32444	32535	
2139	0	32102	33044	32557	32576	32941	33308	32419	32619	
2140	0	32135	32973	32596	32579	32921	33117	32399	32590	
2141	0	32188	32933	32509	32661	32973	32535	32379	32627	
2142	0	32203	32943	32413	32553	32997	32203	32367	32421	
2143	0	32224	32957	32578	32611	32860	32422	32348	32670	
2144	0	32198	32950	32490	32647	32885	32919	32430	32483	
2145	0	32312	33063	32586	32607	32963	33227	32463	32737	
2146	0	32255	32956	32516	32606	32959	33287	32341	32438	
2147	0	32305	32939	32617	32647	32802	32947	32443	32743	
2148	0	32384	32815	32498	32702	32669	32527	32498	32555	
2149	0	32483	32850	32588	32666	32639	32703	32569	32743	
